# Output from CTFFind version 4.1.9, run on 2019-11-24 12:06:10
# Input file: stack1_ubbm3d_averaged_1_1.0_0_1000_half.mrc ; Number of micrographs: 1
# Pixel size: 1.500 Angstroms ; acceleration voltage: 300.0 keV ; spherical aberration: 0.00 mm ; amplitude contrast: 0.07
# Box size: 512 pixels ; min. res.: 40.0 Angstroms ; max. res.: 6.0 Angstroms ; min. def.: 5000.0 um; max. def. 50000.0 um; num. frames averaged: 1
# 6 lines per micrograph: #1 - spatial frequency (1/Angstroms); #2 - 1D rotational average of spectrum (assuming no astigmatism); #3 - 1D rotational average of spectrum; #4 - CTF fit; #5 - cross-correlation between spectrum and CTF fit; #6 - 2sigma of expected cross correlation of noise
0.000000 0.001302 0.002604 0.003906 0.005208 0.006510 0.007812 0.009115 0.010417 0.011719 0.013021 0.014323 0.015625 0.016927 0.018229 0.019531 0.020833 0.022135 0.023438 0.024740 0.026042 0.027344 0.028646 0.029948 0.031250 0.032552 0.033854 0.035156 0.036458 0.037760 0.039062 0.040365 0.041667 0.042969 0.044271 0.045573 0.046875 0.048177 0.049479 0.050781 0.052083 0.053385 0.054688 0.055990 0.057292 0.058594 0.059896 0.061198 0.062500 0.063802 0.065104 0.066406 0.067708 0.069010 0.070312 0.071615 0.072917 0.074219 0.075521 0.076823 0.078125 0.079427 0.080729 0.082031 0.083333 0.084635 0.085938 0.087240 0.088542 0.089844 0.091146 0.092448 0.093750 0.095052 0.096354 0.097656 0.098958 0.100260 0.101562 0.102865 0.104167 0.105469 0.106771 0.108073 0.109375 0.110677 0.111979 0.113281 0.114583 0.115885 0.117188 0.118490 0.119792 0.121094 0.122396 0.123698 0.125000 0.126302 0.127604 0.128906 0.130208 0.131510 0.132812 0.134115 0.135417 0.136719 0.138021 0.139323 0.140625 0.141927 0.143229 0.144531 0.145833 0.147135 0.148438 0.149740 0.151042 0.152344 0.153646 0.154948 0.156250 0.157552 0.158854 0.160156 0.161458 0.162760 0.164062 0.165365 0.166667 0.167969 0.169271 0.170573 0.171875 0.173177 0.174479 0.175781 0.177083 0.178385 0.179688 0.180990 0.182292 0.183594 0.184896 0.186198 0.187500 0.188802 0.190104 0.191406 0.192708 0.194010 0.195312 0.196615 0.197917 0.199219 0.200521 0.201823 0.203125 0.204427 0.205729 0.207031 0.208333 0.209635 0.210938 0.212240 0.213542 0.214844 0.216146 0.217448 0.218750 0.220052 0.221354 0.222656 0.223958 0.225260 0.226562 0.227865 0.229167 0.230469 0.231771 0.233073 0.234375 0.235677 0.236979 0.238281 0.239583 0.240885 0.242188 0.243490 0.244792 0.246094 0.247396 0.248698 0.250000 0.251302 0.252604 0.253906 0.255208 0.256510 0.257812 0.259115 0.260417 0.261719 0.263021 0.264323 0.265625 0.266927 0.268229 0.269531 0.270833 0.272135 0.273438 0.274740 0.276042 0.277344 0.278646 0.279948 0.281250 0.282552 0.283854 0.285156 0.286458 0.287760 0.289062 0.290365 0.291667 0.292969 0.294271 0.295573 0.296875 0.298177 0.299479 0.300781 0.302083 0.303385 0.304688 0.305990 0.307292 0.308594 0.309896 0.311198 0.312500 0.313802 0.315104 0.316406 0.317708 0.319010 0.320312 0.321615 0.322917 0.324219 0.325521 0.326823 0.328125 0.329427 0.330729 0.332031 0.333333 0.334635 0.335938 0.337240 0.338542 0.339844 0.341146 0.342448 0.343750 0.345052 0.346354 0.347656 0.348958 0.350260 0.351562 0.352865 0.354167 0.355469 0.356771 0.358073 0.359375 0.360677 0.361979 0.363281 0.364583 0.365885 0.367188 0.368490 0.369792 0.371094 0.372396 0.373698 0.375000 0.376302 0.377604 0.378906 0.380208 0.381510 0.382812 0.384115 0.385417 0.386719 0.388021 0.389323 0.390625 0.391927 0.393229 0.394531 0.395833 0.397135 0.398438 0.399740 0.401042 0.402344 0.403646 0.404948 0.406250 0.407552 0.408854 0.410156 0.411458 0.412760 0.414062 0.415365 0.416667 0.417969 0.419271 0.420573 0.421875 0.423177 0.424479 0.425781 0.427083 0.428385 0.429688 0.430990 0.432292 0.433594 0.434896 0.436198 0.437500 0.438802 0.440104 0.441406 0.442708 0.444010 0.445312 0.446615 0.447917 0.449219 0.450521 0.451823 0.453125 0.454427 0.455729 0.457031 0.458333 0.459635 0.460938 0.462240 0.463542 0.464844 0.466146 0.467448 0.468750 0.470052 0.471354
       0.48618        0.48618        0.48618        0.48618        0.48618        0.48618        0.48618        0.48618        0.48618        0.48618        0.48618        0.48618        0.48618        0.48618        0.48618        0.48618        0.48618        0.48618        0.48618        1.36186        2.09725        0.92514        0.12172       -0.02931        0.50862        1.10537        1.04031        0.53097        0.21117        0.17351        0.20308        0.20052        0.22024        0.23715        0.16449        0.13011        0.06560       -0.02138       -0.10597       -0.11667       -0.08790        0.01187        0.25195        0.50950        0.63408        0.63351        0.64961        0.75625        0.89397        0.94895        0.78836        0.44347        0.18860        0.21834        0.39997        0.41625        0.25630        0.13591        0.19862        0.35286        0.51462        0.61164        0.70896        0.76596        0.75903        0.66263        0.52354        0.45056        0.39538        0.35068        0.37543        0.52479        0.66949        0.61746        0.47325        0.41379        0.44709        0.45001        0.41038        0.42200        0.52235        0.54867        0.49547        0.39560        0.40475        0.49290        0.56470        0.53876        0.44122        0.34583        0.31319        0.35072        0.39174        0.41563        0.39535        0.41571        0.50598        0.60991        0.62305        0.56694        0.54582        0.58435        0.62453        0.59489        0.52491        0.48925        0.45814        0.43124        0.37687        0.34488        0.35191        0.39079        0.41586        0.45055        0.52098        0.60117        0.61934        0.57737        0.51510        0.44625        0.37437        0.37368        0.48415        0.60020        0.61427        0.54720        0.49553        0.48006        0.47145        0.47445        0.50119        0.50200        0.44173        0.38327        0.37514        0.42954        0.48609        0.49676        0.48985        0.49999        0.53427        0.56983        0.58859        0.57970        0.55625        0.51085        0.48566        0.47749        0.49342        0.47837        0.45092        0.45221        0.47231        0.44949        0.36564        0.31599        0.37830        0.50268        0.56756        0.53150        0.47556        0.47089        0.46526        0.43068        0.43109        0.51234        0.60572        0.61346        0.53655        0.47628        0.44079        0.45124        0.48327        0.53591        0.56626        0.54318        0.50717        0.48234        0.45646        0.44817        0.48790        0.55108        0.60350        0.57875        0.49832        0.41977        0.39905        0.44453        0.49665        0.49582        0.45992        0.44374        0.44360        0.42914        0.41761        0.44668        0.49669        0.50689        0.49219        0.49921        0.52238        0.50118        0.46746        0.48164        0.54100        0.54134        0.47087        0.41636        0.46165        0.55880        0.60231        0.57648        0.52799        0.48478        0.45077        0.43955        0.47682        0.49869        0.46583        0.41847        0.43108        0.49050        0.53271        0.54084        0.52458        0.49127        0.44568        0.44590        0.47988        0.51763        0.51658        0.50236        0.48401        0.46631        0.46413        0.48817        0.49231        0.47136        0.44284        0.44901        0.46763        0.49005        0.51876        0.54049        0.53122        0.49400        0.47297        0.47609        0.48458        0.50198        0.53394        0.54365        0.49203        0.43477        0.42618        0.45690        0.47305        0.46414        0.47429        0.50014        0.49077        0.44835        0.44594        0.47993        0.51267        0.50153        0.46701        0.44602        0.43416        0.45146        0.47822        0.50905        0.50860        0.47511        0.42949        0.43892        0.49354        0.54354        0.53938        0.49919        0.49251        0.52807        0.54716        0.50263        0.46331        0.48321        0.53097        0.52542        0.44612        0.41016        0.46283        0.54150        0.54520        0.49498        0.44403        0.42112        0.39312        0.38555        0.42953        0.46795        0.45648        0.46228        0.53037        0.57717        0.55729        0.49956        0.45028        0.43263        0.45975        0.51182        0.49447        0.44090        0.43969        0.50942        0.54909        0.50477        0.43432        0.46735        0.51275        0.49048        0.41074        0.39850        0.45613        0.53458        0.59631        0.55693        0.46792        0.44237        0.47958        0.48206        0.42877        0.46799        0.49363        0.43502        0.40673        0.53883        0.58962        0.47300        0.39303        0.49221        0.52929        0.42322        0.35784        0.43080        0.56060        0.57503        0.48467        0.38887        0.35475        0.50738        0.64103        0.58443        0.43749        0.40411        0.48919        0.49087        0.43270        0.39483        0.34397        0.16083       -0.10620       -0.26853       -0.33218
0.486181 0.486181 0.486181 0.486181 0.486181 0.486181 0.486181 0.486181 0.486181 0.486181 0.486181 0.486181 0.486181 0.486181 0.486181 0.486181 0.486181 0.486181 0.486181 1.395097 2.145486 1.110605 0.102768 -0.142252 0.406813 1.210607 1.043737 0.520994 0.253310 0.199410 0.108007 0.195826 0.281325 0.218433 0.192550 0.124746 0.059094 -0.018726 -0.118296 -0.067440 -0.078067 -0.020808 0.195527 0.551400 0.633950 0.602835 0.662496 0.717492 0.882648 0.941983 0.881016 0.437843 0.217317 0.196455 0.453566 0.385064 0.287503 0.056253 0.175801 0.386739 0.493442 0.612936 0.689119 0.751167 0.784761 0.743398 0.486850 0.490729 0.388529 0.364603 0.341550 0.538387 0.638206 0.666164 0.503992 0.420927 0.440506 0.415988 0.397202 0.431979 0.488301 0.547558 0.543247 0.394147 0.385860 0.420739 0.601234 0.550090 0.464980 0.350407 0.315457 0.348317 0.380164 0.426698 0.373027 0.409981 0.466116 0.592937 0.641623 0.610223 0.525793 0.548132 0.634331 0.593016 0.538275 0.497644 0.466409 0.458201 0.389989 0.345214 0.334492 0.380787 0.403392 0.439676 0.522854 0.550931 0.617666 0.590734 0.553048 0.474039 0.391172 0.336574 0.452203 0.562099 0.644850 0.574321 0.509764 0.490223 0.479478 0.452740 0.498412 0.500115 0.469228 0.401591 0.373956 0.409330 0.459965 0.521494 0.491754 0.482706 0.517634 0.567643 0.585311 0.586201 0.561369 0.529918 0.499886 0.467620 0.484909 0.492501 0.449443 0.449237 0.463897 0.480371 0.385782 0.321384 0.331303 0.453032 0.548621 0.559102 0.476246 0.481757 0.479024 0.441381 0.409514 0.473302 0.562168 0.584296 0.604841 0.499637 0.432426 0.446138 0.447609 0.531538 0.550768 0.553881 0.520186 0.505197 0.460537 0.448201 0.461685 0.513092 0.580985 0.591991 0.522097 0.437330 0.379009 0.435578 0.478617 0.506085 0.481605 0.443564 0.428284 0.441427 0.446173 0.398844 0.472037 0.501547 0.528038 0.482095 0.519968 0.512647 0.486497 0.457916 0.499189 0.556732 0.499135 0.449835 0.429357 0.505815 0.577824 0.582291 0.568746 0.507332 0.479626 0.445292 0.448028 0.492316 0.491938 0.453696 0.408984 0.451896 0.515788 0.547282 0.531923 0.504779 0.501317 0.455431 0.437678 0.502410 0.536580 0.505063 0.483362 0.479842 0.462808 0.460863 0.507801 0.482179 0.474876 0.434374 0.459763 0.477051 0.496582 0.538166 0.542045 0.508188 0.474343 0.473309 0.485382 0.491785 0.520462 0.538674 0.532032 0.446822 0.431608 0.429906 0.457374 0.482025 0.458604 0.485527 0.504033 0.488812 0.455179 0.422829 0.492202 0.515386 0.496186 0.455500 0.444187 0.428997 0.464643 0.481285 0.509553 0.525199 0.465424 0.433611 0.442028 0.511592 0.551993 0.519884 0.497189 0.493738 0.549546 0.535562 0.496563 0.460413 0.503431 0.535135 0.508405 0.433587 0.404407 0.494564 0.557376 0.541101 0.470508 0.444406 0.408555 0.392507 0.385894 0.443461 0.468101 0.465001 0.456556 0.530758 0.587997 0.554363 0.464923 0.460633 0.427806 0.456612 0.524471 0.479885 0.429168 0.448832 0.489710 0.543906 0.502494 0.433495 0.481354 0.516585 0.443656 0.446776 0.369560 0.459974 0.558840 0.584017 0.563292 0.455874 0.422588 0.494509 0.421755 0.473476 0.444507 0.517928 0.404810 0.433628 0.558148 0.547359 0.474290 0.366961 0.462958 0.595061 0.446178 0.265004 0.456941 0.563005 0.639114 0.394767 0.380596 0.371358 0.531778 0.666966 0.554890 0.402001 0.425260 0.497417 0.493246 0.418721 0.400300 0.358181 0.163826 -0.104398 -0.332176
0.072396 0.073458 0.076645 0.081953 0.089382 0.098925 0.110576 0.124327 0.140163 0.158067 0.178015 0.199979 0.223919 0.249788 0.277527 0.307064 0.338314 0.371174 0.405523 0.441222 0.478107 0.515994 0.554670 0.593899 0.633413 0.672917 0.712087 0.750564 0.787965 0.823871 0.857838 0.889394 0.918044 0.943272 0.964545 0.981319 0.993050 0.999191 0.999213 0.992606 0.978894 0.957643 0.928481 0.891102 0.845288 0.790919 0.727990 0.656623 0.577079 0.489776 0.395295 0.294387 0.187984 0.077196 0.036684 0.152194 0.267708 0.381455 0.491539 0.595969 0.692695 0.779643 0.854768 0.916099 0.961801 0.990231 1.000000 0.990035 0.959638 0.908548 0.836983 0.745689 0.635965 0.509686 0.369295 0.217791 0.058687 0.104050 0.266085 0.422815 0.569502 0.701415 0.813992 0.903013 0.964780 0.996288 0.995401 0.960999 0.893105 0.792976 0.663155 0.507468 0.330970 0.139828 0.058852 0.257263 0.447192 0.620348 0.768748 0.885098 0.963199 0.998315 0.987518 0.929954 0.827036 0.682522 0.502486 0.295144 0.070552 0.159828 0.383675 0.588465 0.762181 0.894057 0.975305 0.999775 0.964501 0.870088 0.720887 0.524948 0.293700 0.041395 0.215703 0.460325 0.675351 0.845045 0.956275 0.999626 0.970316 0.868815 0.701103 0.478506 0.217090 0.063377 0.340830 0.592623 0.797387 0.936924 0.997942 0.973469 0.863805 0.676853 0.427800 0.138062 0.166401 0.457331 0.706780 0.889847 0.987293 0.987740 0.889194 0.699707 0.437001 0.127062 0.198256 0.504405 0.757802 0.929596 0.999119 0.956610 0.804820 0.559244 0.246868 0.096558 0.430454 0.714153 0.911929 0.997678 0.958629 0.797541 0.532998 0.197633 0.165620 0.508847 0.785456 0.956614 0.996943 0.898618 0.673179 0.350647 0.024105 0.397334 0.714032 0.926123 0.999992 0.922180 0.702234 0.372079 0.018165 0.407491 0.733447 0.942214 0.997802 0.888661 0.630520 0.264708 0.148008 0.537219 0.834843 0.987211 0.965126 0.769986 0.434593 0.018223 0.403438 0.751872 0.960461 0.987585 0.825472 0.502851 0.080529 0.359554 0.730002 0.955394 0.988013 0.818547 0.479267 0.038624 0.412033 0.777156 0.977383 0.967253 0.746200 0.360093 0.107521 0.552999 0.875428 0.999758 0.894881 0.582185 0.132146 0.350846 0.752346 0.975037 0.962834 0.715803 0.291806 0.206188 0.654558 0.939665 0.987062 0.781737 0.373709 0.133170 0.606992 0.921955 0.992164 0.795866 0.383153 0.135723 0.619126 0.932487 0.986222 0.762218 0.320949 0.213744 0.688683 0.965163 0.960000 0.671584 0.182528 0.362876 0.800665 0.996539 0.887874 0.504907 0.036285 0.567936 0.922235 0.984729 0.732325 0.243053 0.326730 0.791535 0.997199 0.872808 0.456500 0.114687 0.648845 0.963378 0.947995 0.604674 0.049681 0.524455 0.915193 0.981771 0.697136 0.160401 0.436169 0.875225 0.993757 0.744764 0.217480 0.392965 0.856818 0.996337 0.755038 0.222234 0.398263 0.865169 0.993658 0.729769 0.174831 0.451684 0.897984 0.981430 0.664638 0.074034 0.548806 0.945166 0.947139 0.550343 0.080696 0.679053 0.987778 0.871062 0.375825 0.284920 0.822198 0.997342 0.729280 0.134132 0.522956 0.944905 0.937429 0.500276 0.168647 0.761074 0.999966 0.770240 0.176393 0.502694 0.943445 0.932194 0.470635 0.220705 0.805916 0.996538 0.695143 0.047532 0.625403 0.985616 0.848502 0.279772 0.433311 0.925374 0.940326 0.466628 0.252013 0.839917 0.985442 0.607820 0.095307 0.748858 0.999592 0.708293 0.029779 0.666595 0.996831 0.775025 0.120651 0.602794 0.988206
1.000000 1.000000 1.000000 1.000000 1.000000 1.000000 1.000000 1.000000 1.000000 1.000000 1.000000 1.000000 1.000000 1.000000 1.000000 1.000000 1.000000 1.000000 1.000000 1.000000 -0.081741 -0.081741 -0.081741 -0.081741 -0.081741 -0.081741 -0.081741 -0.081741 -0.081741 -0.081741 -0.081741 -0.081741 -0.081741 -0.081741 -0.081741 -0.081741 -0.081741 -0.081741 -0.174715 -0.174715 -0.174715 -0.174715 -0.174715 -0.174715 -0.174715 -0.174715 -0.174715 -0.174715 -0.174715 -0.174715 -0.174715 -0.174715 -0.174715 -0.174715 -0.174715 -0.174715 -0.162393 -0.155327 -0.135408 -0.122570 -0.129010 -0.131123 -0.127850 -0.121352 -0.118239 -0.098382 -0.072824 0.090355 0.138587 0.183491 0.183028 0.173367 0.176307 0.182089 0.174338 0.193947 0.225924 0.259449 0.266844 0.266515 0.264660 0.310298 0.356567 0.348641 0.345481 0.337964 0.315144 0.316567 0.297961 0.286019 0.298555 0.284829 0.323365 0.384827 0.451053 0.449985 0.456752 0.490061 0.550356 0.560490 0.570185 0.586067 0.610456 0.609173 0.610076 0.620317 0.680557 0.678078 0.657453 0.646507 0.623282 0.628921 0.693585 0.701326 0.696147 0.700010 0.690398 0.640413 0.612313 0.605245 0.573442 0.499796 0.458848 0.465791 0.440032 0.363932 0.366364 0.382020 0.339439 0.306722 0.308058 0.289631 0.275809 0.219479 0.223854 0.234729 0.198397 0.181310 0.186710 0.178667 0.179984 0.093202 0.057920 0.079320 0.129345 0.141089 0.144803 0.153718 0.168161 0.187111 0.197753 0.231117 0.276818 0.291771 0.267004 0.252176 0.244679 0.235112 0.206907 0.268286 0.348822 0.358264 0.359987 0.407493 0.485499 0.511083 0.497283 0.509574 0.511322 0.510358 0.486048 0.500983 0.591048 0.580055 0.543181 0.552711 0.573609 0.530200 0.492406 0.479463 0.451476 0.459407 0.471184 0.463444 0.496807 0.485666 0.480013 0.425409 0.371557 0.339662 0.242756 0.194470 0.233574 0.205446 0.144614 0.162399 0.110438 0.074488 0.056952 0.021808 -0.001572 -0.068513 -0.061459 -0.103556 -0.186338 -0.209627 -0.184388 -0.202805 -0.241829 -0.259263 -0.299717 -0.306969 -0.300637 -0.287891 -0.312627 -0.331153 -0.319961 -0.372272 -0.397279 -0.404720 -0.438319 -0.467333 -0.450208 -0.444405 -0.465972 -0.482283 -0.559417 -0.539053 -0.587075 -0.551287 -0.540345 -0.467197 -0.405576 -0.421525 -0.315313 -0.364304 -0.365791 -0.373251 -0.392797 -0.408666 -0.407538 -0.409484 -0.410713 -0.385738 -0.400228 -0.400735 -0.409671 -0.402978 -0.401221 -0.415179 -0.418380 -0.375291 -0.395514 -0.375102 -0.349393 -0.331918 -0.327713 -0.343900 -0.319125 -0.355817 -0.337445 -0.341113 -0.360202 -0.342693 -0.331421 -0.295208 -0.334697 -0.361048 -0.348842 -0.368828 -0.354168 -0.373126 -0.316047 -0.282583 -0.307516 -0.430330 -0.395814 -0.445238 -0.507642 -0.509090 -0.475409 -0.467736 -0.429132 -0.373169 -0.365223 -0.307912 -0.305814 -0.244277 -0.260715 -0.194867 -0.189958 -0.133250 -0.141821 -0.095158 -0.056569 -0.019247 -0.015286 0.001037 -0.003822 -0.015121 -0.009457 -0.017625 -0.040691 -0.053843 -0.042976 -0.005642 0.011073 0.002224 0.080827 0.100160 0.124951 0.148689 0.180841 0.216398 0.265056 0.342385 0.370480 0.389298 0.380310 0.378684 0.431340 0.470938 0.440831 0.434034 0.398271 0.389657 0.358276 0.346592 0.310685 0.411286 0.378622 0.380436 0.300142 0.294223 0.298845 0.275688 0.294711 0.269239 0.269239 0.269239 0.269239 0.269239 0.230284 0.230284 0.230284 0.230284 0.239124 0.239124 0.239124 0.239124 0.239124 0.239124 0.239124 0.239124 0.264619 0.264619 0.264619 0.264619 0.264619 0.264619 0.264619 0.264619 0.264619
0.000000 0.000000 0.000000 0.000000 0.000000 0.000000 0.000000 0.000000 0.000000 0.000000 0.000000 0.000000 0.000000 0.000000 0.000000 0.000000 0.000000 0.000000 0.000000 0.000000 0.216930 0.216930 0.216930 0.216930 0.216930 0.216930 0.216930 0.216930 0.216930 0.216930 0.216930 0.216930 0.216930 0.216930 0.216930 0.216930 0.216930 0.216930 0.234082 0.234082 0.234082 0.234082 0.234082 0.234082 0.234082 0.234082 0.234082 0.234082 0.234082 0.234082 0.234082 0.234082 0.234082 0.234082 0.234082 0.234082 0.234082 0.234082 0.234082 0.234082 0.234082 0.234082 0.234082 0.234082 0.234082 0.234082 0.234082 0.274721 0.274721 0.274721 0.274721 0.274721 0.274721 0.274721 0.274721 0.274721 0.274721 0.274721 0.274721 0.274721 0.274721 0.274721 0.274721 0.274721 0.274721 0.274721 0.291730 0.291730 0.291730 0.291730 0.291730 0.291730 0.291730 0.291730 0.291730 0.291730 0.291730 0.291730 0.291730 0.291730 0.291730 0.291730 0.304997 0.304997 0.304997 0.304997 0.304997 0.304997 0.304997 0.304997 0.304997 0.304997 0.304997 0.304997 0.304997 0.298142 0.298142 0.298142 0.298142 0.298142 0.298142 0.298142 0.298142 0.298142 0.298142 0.298142 0.298142 0.298142 0.312348 0.312348 0.312348 0.312348 0.312348 0.312348 0.312348 0.312348 0.312348 0.312348 0.312348 0.320256 0.320256 0.320256 0.320256 0.320256 0.320256 0.320256 0.320256 0.320256 0.320256 0.312348 0.312348 0.312348 0.312348 0.312348 0.312348 0.312348 0.312348 0.312348 0.312348 0.312348 0.312348 0.312348 0.312348 0.312348 0.312348 0.312348 0.312348 0.312348 0.328798 0.328798 0.328798 0.328798 0.328798 0.328798 0.328798 0.328798 0.320256 0.320256 0.320256 0.320256 0.320256 0.320256 0.320256 0.320256 0.312348 0.312348 0.312348 0.312348 0.312348 0.312348 0.312348 0.312348 0.304997 0.304997 0.304997 0.304997 0.304997 0.304997 0.304997 0.304997 0.312348 0.312348 0.312348 0.312348 0.312348 0.312348 0.312348 0.312348 0.312348 0.312348 0.312348 0.312348 0.312348 0.312348 0.304997 0.304997 0.304997 0.304997 0.304997 0.304997 0.304997 0.298142 0.298142 0.298142 0.298142 0.298142 0.298142 0.298142 0.312348 0.312348 0.312348 0.312348 0.312348 0.312348 0.304997 0.304997 0.304997 0.304997 0.304997 0.304997 0.304997 0.304997 0.304997 0.304997 0.304997 0.304997 0.298142 0.298142 0.298142 0.298142 0.298142 0.298142 0.291730 0.291730 0.291730 0.291730 0.291730 0.291730 0.291730 0.291730 0.291730 0.291730 0.291730 0.291730 0.304997 0.304997 0.304997 0.304997 0.304997 0.280056 0.280056 0.280056 0.280056 0.280056 0.280056 0.298142 0.298142 0.298142 0.298142 0.298142 0.298142 0.298142 0.298142 0.298142 0.298142 0.291730 0.291730 0.291730 0.291730 0.291730 0.285714 0.285714 0.285714 0.285714 0.285714 0.285714 0.285714 0.285714 0.285714 0.285714 0.280056 0.280056 0.280056 0.280056 0.280056 0.280056 0.280056 0.280056 0.280056 0.280056 0.274721 0.274721 0.274721 0.274721 0.274721 0.298142 0.298142 0.298142 0.298142 0.269680 0.269680 0.269680 0.269680 0.269680 0.264906 0.264906 0.264906 0.264906 0.264906 0.285714 0.285714 0.285714 0.285714 0.285714 0.285714 0.285714 0.285714 0.256074 0.256074 0.256074 0.256074 0.256074 0.280056 0.280056 0.280056 0.280056 0.274721 0.274721 0.274721 0.274721 0.274721 0.274721 0.274721 0.274721 0.248069 0.248069 0.248069 0.248069 0.248069 0.248069 0.248069 0.248069 0.248069
