# Output from CTFFind version 4.1.9, run on 2019-11-24 11:56:24
# Input file: stack1_bm3d_averaged_1_3.0_0_500_half.mrc ; Number of micrographs: 1
# Pixel size: 1.500 Angstroms ; acceleration voltage: 300.0 keV ; spherical aberration: 0.00 mm ; amplitude contrast: 0.07
# Box size: 512 pixels ; min. res.: 40.0 Angstroms ; max. res.: 6.0 Angstroms ; min. def.: 5000.0 um; max. def. 50000.0 um; num. frames averaged: 1
# 6 lines per micrograph: #1 - spatial frequency (1/Angstroms); #2 - 1D rotational average of spectrum (assuming no astigmatism); #3 - 1D rotational average of spectrum; #4 - CTF fit; #5 - cross-correlation between spectrum and CTF fit; #6 - 2sigma of expected cross correlation of noise
0.000000 0.001302 0.002604 0.003906 0.005208 0.006510 0.007812 0.009115 0.010417 0.011719 0.013021 0.014323 0.015625 0.016927 0.018229 0.019531 0.020833 0.022135 0.023438 0.024740 0.026042 0.027344 0.028646 0.029948 0.031250 0.032552 0.033854 0.035156 0.036458 0.037760 0.039062 0.040365 0.041667 0.042969 0.044271 0.045573 0.046875 0.048177 0.049479 0.050781 0.052083 0.053385 0.054688 0.055990 0.057292 0.058594 0.059896 0.061198 0.062500 0.063802 0.065104 0.066406 0.067708 0.069010 0.070312 0.071615 0.072917 0.074219 0.075521 0.076823 0.078125 0.079427 0.080729 0.082031 0.083333 0.084635 0.085938 0.087240 0.088542 0.089844 0.091146 0.092448 0.093750 0.095052 0.096354 0.097656 0.098958 0.100260 0.101562 0.102865 0.104167 0.105469 0.106771 0.108073 0.109375 0.110677 0.111979 0.113281 0.114583 0.115885 0.117188 0.118490 0.119792 0.121094 0.122396 0.123698 0.125000 0.126302 0.127604 0.128906 0.130208 0.131510 0.132812 0.134115 0.135417 0.136719 0.138021 0.139323 0.140625 0.141927 0.143229 0.144531 0.145833 0.147135 0.148438 0.149740 0.151042 0.152344 0.153646 0.154948 0.156250 0.157552 0.158854 0.160156 0.161458 0.162760 0.164062 0.165365 0.166667 0.167969 0.169271 0.170573 0.171875 0.173177 0.174479 0.175781 0.177083 0.178385 0.179688 0.180990 0.182292 0.183594 0.184896 0.186198 0.187500 0.188802 0.190104 0.191406 0.192708 0.194010 0.195312 0.196615 0.197917 0.199219 0.200521 0.201823 0.203125 0.204427 0.205729 0.207031 0.208333 0.209635 0.210938 0.212240 0.213542 0.214844 0.216146 0.217448 0.218750 0.220052 0.221354 0.222656 0.223958 0.225260 0.226562 0.227865 0.229167 0.230469 0.231771 0.233073 0.234375 0.235677 0.236979 0.238281 0.239583 0.240885 0.242188 0.243490 0.244792 0.246094 0.247396 0.248698 0.250000 0.251302 0.252604 0.253906 0.255208 0.256510 0.257812 0.259115 0.260417 0.261719 0.263021 0.264323 0.265625 0.266927 0.268229 0.269531 0.270833 0.272135 0.273438 0.274740 0.276042 0.277344 0.278646 0.279948 0.281250 0.282552 0.283854 0.285156 0.286458 0.287760 0.289062 0.290365 0.291667 0.292969 0.294271 0.295573 0.296875 0.298177 0.299479 0.300781 0.302083 0.303385 0.304688 0.305990 0.307292 0.308594 0.309896 0.311198 0.312500 0.313802 0.315104 0.316406 0.317708 0.319010 0.320312 0.321615 0.322917 0.324219 0.325521 0.326823 0.328125 0.329427 0.330729 0.332031 0.333333 0.334635 0.335938 0.337240 0.338542 0.339844 0.341146 0.342448 0.343750 0.345052 0.346354 0.347656 0.348958 0.350260 0.351562 0.352865 0.354167 0.355469 0.356771 0.358073 0.359375 0.360677 0.361979 0.363281 0.364583 0.365885 0.367188 0.368490 0.369792 0.371094 0.372396 0.373698 0.375000 0.376302 0.377604 0.378906 0.380208 0.381510 0.382812 0.384115 0.385417 0.386719 0.388021 0.389323 0.390625 0.391927 0.393229 0.394531 0.395833 0.397135 0.398438 0.399740 0.401042 0.402344 0.403646 0.404948 0.406250 0.407552 0.408854 0.410156 0.411458 0.412760 0.414062 0.415365 0.416667 0.417969 0.419271 0.420573 0.421875 0.423177 0.424479 0.425781 0.427083 0.428385 0.429688 0.430990 0.432292 0.433594 0.434896 0.436198 0.437500 0.438802 0.440104 0.441406 0.442708 0.444010 0.445312 0.446615 0.447917 0.449219 0.450521 0.451823 0.453125 0.454427 0.455729 0.457031 0.458333 0.459635 0.460938 0.462240 0.463542 0.464844 0.466146 0.467448 0.468750 0.470052 0.471354
       0.70850        0.70850        0.70850        0.70850        0.70850        0.70850        0.70850        0.70850        0.70850        0.70850        0.70850        0.70850        0.70850        0.70850        0.70850        0.70850        0.70850        0.70850        0.70850        1.53290        2.18367        1.08656        0.30855        0.18563        0.75147        1.32605        1.22446        0.71800        0.43492        0.43244        0.48683        0.48955        0.49187        0.46869        0.38469        0.37314        0.35575        0.27306        0.18101        0.18269        0.23747        0.27605        0.38974        0.58896        0.78310        0.87942        0.89812        0.93580        1.05625        1.13093        1.02460        0.74018        0.51174        0.49121        0.58455        0.63603        0.60676        0.56815        0.53129        0.50293        0.56739        0.70774        0.88583        0.96545        0.92032        0.79396        0.67668        0.63205        0.61234        0.60570        0.65095        0.77631        0.88504        0.84608        0.75598        0.72428        0.71696        0.68005        0.61978        0.63193        0.73226        0.78141        0.75434        0.63779        0.55103        0.55749        0.65369        0.74276        0.76187        0.70329        0.66136        0.68285        0.70800        0.69895        0.64605        0.64100        0.70576        0.79500        0.82480        0.76655        0.71442        0.71206        0.75682        0.75749        0.70538        0.64759        0.61956        0.63814        0.65758        0.67796        0.69321        0.70689        0.69054        0.68920        0.72960        0.78806        0.79741        0.74691        0.69864        0.67911        0.68390        0.67144        0.69157        0.73030        0.72367        0.67393        0.64566        0.68840        0.75095        0.75602        0.72049        0.70407        0.69291        0.66940        0.65542        0.70447        0.75194        0.72525        0.66552        0.65696        0.71111        0.76774        0.76617        0.72354        0.68346        0.67794        0.70960        0.75214        0.77971        0.76929        0.76216        0.75162        0.72595        0.64482        0.56125        0.56219        0.63019        0.69299        0.67331        0.63905        0.66530        0.71809        0.72219        0.68190        0.69152        0.75320        0.79091        0.77687        0.73197        0.69955        0.67698        0.68451        0.72826        0.76326        0.75709        0.72655        0.71712        0.71530        0.71034        0.69071        0.69219        0.72020        0.76827        0.78474        0.76115        0.72789        0.71768        0.71971        0.69443        0.65659        0.63888        0.64772        0.64416        0.61446        0.60963        0.67460        0.75288        0.76752        0.71503        0.68511        0.70527        0.73541        0.72998        0.70193        0.70464        0.71783        0.72907        0.72431        0.74590        0.77678        0.76451        0.68362        0.61749        0.62497        0.69666        0.76048        0.79213        0.78593        0.74877        0.70416        0.68250        0.71779        0.76381        0.77481        0.73002        0.67012        0.65731        0.70719        0.73415        0.71120        0.66698        0.65943        0.66937        0.65439        0.63704        0.67843        0.74779        0.75854        0.69621        0.65367        0.67793        0.72304        0.73289        0.72451        0.74790        0.79768        0.80580        0.75605        0.68524        0.66277        0.67647        0.69361        0.70278        0.70619        0.68324        0.65785        0.67312        0.72930        0.76942        0.78181        0.77612        0.75067        0.68735        0.62427        0.62381        0.69002        0.69712        0.64682        0.61779        0.65479        0.68774        0.72628        0.78437        0.83919        0.82086        0.75234        0.70809        0.68326        0.68211        0.70286        0.71488        0.68687        0.64726        0.65624        0.69142        0.70405        0.70121        0.70198        0.67867        0.66321        0.67598        0.71595        0.72264        0.70195        0.70108        0.73657        0.74819        0.73714        0.71755        0.70814        0.73368        0.81837        0.80366        0.71224        0.65081        0.69049        0.72041        0.67569        0.67058        0.68831        0.64467        0.55922        0.61024        0.72884        0.77998        0.76528        0.73091        0.76375        0.79533        0.75998        0.70431        0.71941        0.74470        0.69226        0.62707        0.62388        0.62863        0.65335        0.67584        0.73741        0.79028        0.69854        0.56478        0.60449        0.71078        0.71112        0.62278        0.64739        0.74935        0.77778        0.79387        0.85343        0.84507        0.67469        0.65003        0.77490        0.82458        0.71974        0.58023        0.67984        0.75974        0.74716        0.55854        0.54038        0.72147        0.75957        0.49217        0.23926        0.25045        0.21696       -0.11916       -0.44961       -0.60087
4.110797 4.005162 3.900882 3.797955 3.696383 3.596166 3.497303 3.399794 3.303639 3.208839 3.115393 3.023301 2.932564 2.843181 2.755153 2.668479 2.583159 2.499193 2.416582 4.326757 5.745008 3.396279 1.097318 0.586126 1.840481 3.285096 3.281656 1.915094 1.051506 0.948642 0.888743 0.990751 1.012533 0.801751 0.473242 0.566124 0.325972 0.086179 -0.106193 -0.238202 -0.223973 -0.004712 0.043903 0.499507 0.877390 1.080378 1.021596 1.114304 1.290544 1.567099 1.321091 0.545406 0.018431 -0.159222 0.209643 0.025113 0.064946 -0.082094 -0.102791 -0.234163 -0.518823 4.580375 -1.234365 -1.033541 -0.533046 -0.162814 -0.029594 0.127401 0.213697 0.167741 0.139268 -0.071839 -0.236314 -0.287068 -0.098450 -0.006053 -0.167981 0.219346 0.574778 0.661399 0.030121 0.319225 0.238867 -0.062728 -0.158547 -0.336762 0.008957 0.149624 0.241549 0.237113 0.051287 0.120026 0.135279 0.156011 0.002008 -0.018732 0.170522 0.284200 0.485012 0.326389 0.260314 0.050165 0.254710 0.177237 0.275831 -0.073902 -0.129861 -0.118562 -0.084167 -0.057770 -0.063500 0.077918 -0.005296 0.000008 0.037055 0.101818 0.176912 0.124598 0.009342 -0.010254 0.040266 -0.027086 0.011229 0.053841 0.051817 0.040625 -0.085056 -0.049111 0.115889 0.177386 0.177839 -0.008716 -0.105140 -0.440434 2.027845 0.146613 -0.239707 -0.050602 -1.424939 2.407685 0.182946 -0.018011 -0.050456 0.032932 0.134319 0.071399 0.083408 0.022763 -0.026038 -0.045834 -0.037160 -0.016524 -0.045358 0.030483 0.158103 0.225099 0.182972 0.077520 0.032627 0.077991 0.116731 0.034518 -0.030842 0.086048 0.072668 -0.005402 -0.321942 -0.478245 5.002807 -0.590291 0.225628 0.228255 0.262373 -0.076005 -0.195362 -0.146977 0.148825 0.122459 0.036171 0.334771 0.398938 0.144758 0.038054 -0.257516 -0.219852 0.246813 -0.087543 0.391863 0.759719 -0.168453 1.244829 1.027587 -0.817570 -0.376881 -16.303005 11.053743 0.106038 -0.375159 0.163859 -0.015608 -0.059459 -0.014981 -0.010804 -0.003237 -0.078289 -0.070129 -0.048038 0.089327 0.046474 0.110824 0.175147 0.129190 -0.123980 -0.235835 -0.125276 0.025982 0.117419 0.240398 0.136026 0.021139 -0.054901 -0.119099 0.023848 0.070361 0.098542 -0.049159 -0.146249 0.014624 0.052415 0.070723 0.012521 -0.019460 -0.037136 -0.051231 -0.119806 -0.094030 -0.006632 0.131032 0.147913 -0.047179 -0.167889 -0.096071 -0.012551 -0.033153 -0.023744 0.009954 0.195430 0.145236 0.029649 -0.081948 -0.105835 -0.068948 0.004808 0.012139 0.077662 -0.060100 -0.088838 -0.039837 0.066734 0.157075 0.146014 0.141920 0.092532 -0.050459 -0.159447 -0.061409 0.083562 0.074089 -0.140879 -0.092995 -0.027027 -0.030200 0.036016 0.212776 0.183356 0.111743 0.042154 -0.099533 -0.152226 -0.048697 0.025758 0.039409 -0.028882 -0.102437 -0.050455 0.020224 0.044741 0.089586 0.021177 -0.034365 -0.057212 -0.080377 0.070059 0.002866 0.009834 0.069073 -0.027818 0.051453 -0.038719 -0.065390 -0.097098 0.020714 0.195253 0.179768 -0.113444 -0.190310 0.094691 0.130978 0.069609 0.063246 0.056640 -0.056345 -0.282332 -0.038129 0.174902 0.155671 0.039150 -0.016616 -0.002952 -0.019133 0.058690 -0.022161 0.003786 0.073858 -0.023099 -0.079043 -0.102923 -0.077952 -0.106429 0.142605 0.210442 0.272433 0.002377 -0.117435 -0.219944 0.160114 0.128650 -0.182291 -0.113525 -0.023479 0.138157 0.052671 0.215375 -0.030034 -0.302378 -0.079098 0.208250 0.189429 0.023511 -0.122857 0.071702 0.104319 0.558557 -0.286389 -0.082445 0.096073 0.663249 0.281353 -0.266809 0.037196 0.575912 -0.263920 -1.369752
0.072396 0.074555 0.081028 0.091810 0.106885 0.126232 0.149812 0.177568 0.209419 0.245248 0.284897 0.328156 0.374755 0.424348 0.476510 0.530718 0.586349 0.642663 0.698803 0.753786 0.806505 0.855728 0.900112 0.938211 0.968504 0.989420 0.999380 0.996841 0.980354 0.948630 0.900614 0.835560 0.753122 0.653432 0.537184 0.405707 0.261021 0.105881 0.056220 0.221067 0.383788 0.538968 0.680801 0.803308 0.900593 0.967148 0.998196 0.990046 0.940455 0.848962 0.717178 0.548977 0.350596 0.130573 0.100474 0.330244 0.545353 0.732091 0.877340 0.969584 0.999947 0.963186 0.858528 0.690257 0.467947 0.206267 0.075704 0.355679 0.609820 0.814783 0.949991 0.999923 0.956190 0.819113 0.598555 0.313809 0.007621 0.332330 0.624315 0.848986 0.977487 0.990783 0.882958 0.663137 0.355593 0.002234 0.363801 0.679283 0.902506 0.998070 0.947561 0.753756 0.441864 0.057233 0.340528 0.686415 0.920730 0.999858 0.905205 0.648396 0.271318 0.159596 0.564356 0.864097 0.996848 0.931259 0.675147 0.276499 0.184138 0.609054 0.903930 0.999337 0.868283 0.535199 0.073359 0.409787 0.796930 0.989607 0.934361 0.639233 0.175300 0.338580 0.765202 0.985726 0.933967 0.618177 0.122848 0.411801 0.828460 0.999271 0.866634 0.464889 0.085623 0.612556 0.944865 0.969256 0.671059 0.144254 0.435373 0.867418 0.996553 0.770449 0.263860 0.342738 0.825457 0.999669 0.792705 0.277381 0.349867 0.841607 0.997067 0.746445 0.185806 0.455781 0.907677 0.972347 0.614659 0.015501 0.642138 0.982492 0.876119 0.364394 0.320365 0.857063 0.986170 0.638240 0.024203 0.677933 0.994927 0.808836 0.206938 0.505202 0.955691 0.901349 0.363321 0.374207 0.909984 0.943923 0.449281 0.301943 0.883717 0.957006 0.471352 0.294735 0.888246 0.948802 0.431752 0.353103 0.921735 0.914019 0.326669 0.472260 0.968918 0.834643 0.149301 0.638146 0.999474 0.683554 0.102136 0.820094 0.967821 0.433618 0.411181 0.963646 0.819397 0.075049 0.727344 0.990556 0.509870 0.359305 0.956395 0.816882 0.040431 0.770369 0.973019 0.398106 0.499830 0.993933 0.673917 0.204880 0.915405 0.857598 0.071695 0.777948 0.958791 0.305914 0.617251 0.997195 0.489124 0.460042 0.995075 0.622794 0.323859 0.972620 0.713561 0.218747 0.945769 0.769386 0.149647 0.925601 0.796945 0.118569 0.918492 0.800191 0.126112 0.926435 0.779605 0.172150 0.947197 0.732179 0.255646 0.974140 0.651854 0.373710 0.995912 0.530819 0.519646 0.996306 0.361769 0.680777 0.954937 0.141319 0.836125 0.849536 0.125205 0.955247 0.660743 0.418522 0.999820 0.379776 0.701184 0.929698 0.018328 0.917308 0.714851 0.381900 0.999907 0.352518 0.745292 0.888953 0.114593 0.970928 0.559649 0.588262 0.959569 0.053903 0.925344 0.658969 0.501277 0.979439 0.114239 0.909896 0.671861 0.505051 0.973859 0.066768 0.936440 0.601816 0.598829 0.934698 0.088951 0.983677 0.431899 0.759699 0.822018 0.345874 0.994513 0.138758 0.929071 0.576358 0.663500 0.878168 0.272894 0.998298 0.154745 0.934209 0.539493 0.717521 0.823167 0.400206 0.975016 0.040569 0.990421 0.308178 0.885274 0.605040 0.688338 0.824341 0.433729 0.955383 0.154753 0.999884 0.120262 0.968407 0.370160 0.876624 0.581422 0.742074 0.747626 0.581703 0.867996 0.410317 0.945948 0.239742 0.987508 0.078622 0.999994 0.067325 0.991049 0.194866 0.967913 0.302736 0.937025 0.390983 0.903790 0.460451 0.872539 0.512423 0.846588 0.548166 0.828270 0.568814 0.819086
1.000000 1.000000 1.000000 1.000000 1.000000 1.000000 1.000000 1.000000 1.000000 1.000000 1.000000 1.000000 1.000000 1.000000 1.000000 1.000000 1.000000 1.000000 1.000000 1.000000 0.381576 0.381576 0.381576 0.381576 0.381576 0.381576 0.381576 0.377466 0.377466 0.377466 0.377466 0.377466 0.377466 0.377466 0.377466 0.377466 0.377466 0.377466 0.377466 0.377466 0.377466 0.377466 0.377466 0.377466 0.377466 0.402635 0.413526 0.493789 0.504928 0.470538 0.451999 0.440736 0.451456 0.407019 0.423965 0.414105 0.366664 0.332959 0.284552 0.238133 0.235146 0.215741 0.220067 0.230697 0.223281 0.221748 0.229613 0.288241 0.280519 0.275697 0.294302 0.302747 0.197623 0.230016 0.266302 0.274286 0.375315 0.388450 0.351738 0.373604 0.356887 0.302015 0.359796 0.351900 0.402806 0.453185 0.455217 0.419053 0.485744 0.418006 0.442708 0.543500 0.497037 0.486938 0.496629 0.480397 0.455053 0.405725 0.375246 0.332218 0.345504 0.379709 0.302841 0.300620 0.293276 0.245079 0.259295 0.333301 0.339099 0.344875 0.392837 0.417918 0.441483 0.489222 0.502943 0.492633 0.520620 0.534135 0.530871 0.492750 0.465884 0.470735 0.437463 0.355945 0.328602 0.296901 0.341041 0.264915 0.285154 0.247389 0.261500 0.178450 0.195316 0.189957 0.160165 0.130966 0.098645 0.106372 0.055547 0.055391 -0.004155 -0.001654 -0.126689 -0.138604 -0.188489 -0.278563 -0.330702 -0.388326 -0.510415 -0.543444 -0.580670 -0.551196 -0.476737 -0.499009 -0.406078 -0.401487 -0.409443 -0.366797 -0.402935 -0.392636 -0.352058 -0.366314 -0.368580 -0.343053 -0.367148 -0.387049 -0.340936 -0.300851 -0.299364 -0.398735 -0.370991 -0.302591 -0.292239 -0.252024 -0.179429 -0.156216 -0.122924 -0.067107 0.004368 0.047834 0.029595 -0.026639 -0.015773 -0.029182 0.024896 -0.007129 -0.010970 -0.025248 -0.029860 -0.008489 -0.019143 -0.014734 0.006661 0.042847 0.136948 0.130918 0.126131 0.223049 0.195288 0.228563 0.188223 0.190199 0.160186 0.134371 0.177893 0.120859 0.060070 0.161819 0.143454 0.103187 0.141955 0.029285 0.016511 0.045624 0.145643 0.098179 0.062040 0.020190 0.230566 0.205310 0.242073 0.179296 0.131800 0.098023 0.072545 0.063897 -0.006991 0.050707 0.037679 0.005499 -0.006494 0.005194 -0.088349 -0.076402 -0.086467 -0.044766 -0.020537 -0.017113 -0.073801 -0.068563 -0.116698 -0.044011 -0.004682 0.036082 0.075041 0.015337 -0.001475 -0.065865 -0.056685 -0.073330 -0.062693 -0.097725 -0.077348 -0.128610 -0.118039 -0.087768 -0.155216 -0.156147 -0.196158 -0.143554 -0.129362 -0.139055 -0.144972 -0.167812 -0.153630 -0.128214 0.015632 -0.080393 -0.108815 -0.064331 -0.067601 -0.120338 -0.131893 -0.160803 -0.118645 -0.120262 -0.166278 -0.159157 -0.149057 -0.137539 -0.099058 -0.158175 -0.246285 -0.257055 -0.139022 -0.137138 -0.115861 -0.261574 -0.216352 -0.145592 -0.164721 -0.147143 -0.162764 -0.195630 -0.138151 -0.158210 -0.129780 -0.108767 -0.137916 -0.091138 -0.068057 -0.078671 -0.104848 -0.067172 -0.098352 -0.088894 0.059863 0.047494 0.038276 0.043187 0.087868 0.104541 0.130330 0.059302 0.083378 0.099203 0.145792 0.159146 0.170422 0.168471 0.213913 0.231805 0.222825 0.242860 0.268215 0.303838 0.294917 0.339135 0.365943 0.337804 0.340556 0.172791 0.172791 0.172791 0.335884 0.323810 0.283106 0.284817 0.257521 0.257521 0.257521 0.257521 0.257521 0.257521 0.257521 0.257521 0.163422 0.163422 0.163422 0.280944 0.280944 0.280944 0.280944 0.271965 0.271965 0.271965 0.271965 0.271965 0.271965 0.234249 0.234249 0.234249 0.234249
0.000000 0.000000 0.000000 0.000000 428622140703354624.000000 730344147015885824.000000 546703367318629440.000000 524572397315129984.000000 823622315322571136.000000 373672122995267776.000000 854775328211776128.000000 469508030380263616.000000 1027045160546766208.000000 687773805323299584.000000 376627060521991424.000000 682969489464135296.000000 734754837785062016.000000 320128105690469824.000000 736538245748683776.000000 828098427361804288.000000 0.256074 0.256074 0.256074 0.256074 0.256074 0.256074 0.256074 0.280056 0.280056 0.280056 0.280056 0.280056 0.280056 0.280056 0.280056 0.280056 0.280056 0.280056 0.280056 0.280056 0.280056 0.280056 0.280056 0.280056 0.280056 0.280056 0.280056 0.328798 0.328798 0.328798 0.328798 0.328798 0.328798 0.328798 0.328798 0.328798 0.328798 0.328798 0.328798 0.328798 0.328798 0.328798 0.328798 0.328798 0.328798 0.328798 0.328798 0.328798 0.328798 0.328798 0.328798 0.328798 0.359211 0.359211 0.359211 0.359211 0.359211 0.359211 0.359211 0.359211 0.359211 0.348155 0.348155 0.348155 0.348155 0.348155 0.348155 0.348155 0.348155 0.348155 0.384900 0.384900 0.384900 0.384900 0.384900 0.384900 0.384900 0.348155 0.348155 0.348155 0.348155 0.348155 0.348155 0.348155 0.348155 0.384900 0.384900 0.384900 0.384900 0.384900 0.384900 0.348155 0.348155 0.348155 0.348155 0.348155 0.348155 0.348155 0.371391 0.371391 0.371391 0.371391 0.371391 0.371391 0.359211 0.359211 0.359211 0.359211 0.359211 0.359211 0.384900 0.384900 0.384900 0.384900 0.384900 0.371391 0.371391 0.371391 0.371391 0.371391 0.359211 0.359211 0.359211 0.359211 0.359211 0.359211 0.359211 0.359211 0.359211 0.359211 0.348155 0.348155 0.348155 0.348155 0.348155 0.348155 0.348155 0.348155 0.348155 0.348155 0.371391 0.371391 0.371391 0.371391 0.328798 0.328798 0.328798 0.328798 0.328798 0.359211 0.359211 0.359211 0.359211 0.348155 0.348155 0.348155 0.348155 0.348155 0.348155 0.348155 0.348155 0.338062 0.338062 0.338062 0.338062 0.338062 0.338062 0.338062 0.338062 0.328798 0.328798 0.328798 0.328798 0.328798 0.328798 0.328798 0.328798 0.359211 0.359211 0.359211 0.320256 0.320256 0.320256 0.320256 0.348155 0.348155 0.348155 0.312348 0.312348 0.312348 0.312348 0.348155 0.348155 0.348155 0.304997 0.304997 0.304997 0.304997 0.338062 0.338062 0.338062 0.328798 0.328798 0.328798 0.328798 0.328798 0.328798 0.291730 0.291730 0.291730 0.291730 0.320256 0.320256 0.320256 0.320256 0.320256 0.320256 0.312348 0.312348 0.312348 0.312348 0.312348 0.312348 0.312348 0.312348 0.312348 0.304997 0.304997 0.304997 0.304997 0.304997 0.304997 0.298142 0.298142 0.298142 0.348155 0.348155 0.298142 0.298142 0.298142 0.291730 0.291730 0.291730 0.291730 0.291730 0.291730 0.328798 0.328798 0.285714 0.285714 0.285714 0.285714 0.285714 0.285714 0.328798 0.328798 0.280056 0.280056 0.280056 0.274721 0.274721 0.274721 0.320256 0.320256 0.274721 0.274721 0.274721 0.312348 0.312348 0.269680 0.269680 0.269680 0.304997 0.304997 0.264906 0.264906 0.264906 0.304997 0.304997 0.260378 0.260378 0.260378 0.298142 0.298142 0.298142 0.298142 0.256074 0.256074 0.256074 0.291730 0.291730 0.291730 0.291730 0.251976 0.251976 0.251976 0.285714 0.285714 0.285714 0.285714 0.248069 0.248069 0.248069 0.285714 0.285714 0.280056 0.280056 0.280056 0.280056 0.280056 0.280056 0.240772 0.240772 0.240772 0.274721 0.274721 0.274721 0.274721 0.269680 0.269680 0.269680 0.269680 0.269680 0.269680 0.269680 0.269680 0.230940 0.230940 0.230940 0.264906 0.264906 0.264906 0.264906 0.260378 0.260378 0.260378 0.260378 0.260378 0.260378 0.256074 0.256074 0.256074 0.256074
