# Output from CTFFind version 4.1.9, run on 2019-11-24 11:56:27
# Input file: stack1_bm3d_averaged_1_0.0_0_1500_half.mrc ; Number of micrographs: 1
# Pixel size: 1.500 Angstroms ; acceleration voltage: 300.0 keV ; spherical aberration: 0.00 mm ; amplitude contrast: 0.07
# Box size: 512 pixels ; min. res.: 40.0 Angstroms ; max. res.: 6.0 Angstroms ; min. def.: 5000.0 um; max. def. 50000.0 um; num. frames averaged: 1
# 6 lines per micrograph: #1 - spatial frequency (1/Angstroms); #2 - 1D rotational average of spectrum (assuming no astigmatism); #3 - 1D rotational average of spectrum; #4 - CTF fit; #5 - cross-correlation between spectrum and CTF fit; #6 - 2sigma of expected cross correlation of noise
0.000000 0.001302 0.002604 0.003906 0.005208 0.006510 0.007812 0.009115 0.010417 0.011719 0.013021 0.014323 0.015625 0.016927 0.018229 0.019531 0.020833 0.022135 0.023438 0.024740 0.026042 0.027344 0.028646 0.029948 0.031250 0.032552 0.033854 0.035156 0.036458 0.037760 0.039062 0.040365 0.041667 0.042969 0.044271 0.045573 0.046875 0.048177 0.049479 0.050781 0.052083 0.053385 0.054688 0.055990 0.057292 0.058594 0.059896 0.061198 0.062500 0.063802 0.065104 0.066406 0.067708 0.069010 0.070312 0.071615 0.072917 0.074219 0.075521 0.076823 0.078125 0.079427 0.080729 0.082031 0.083333 0.084635 0.085938 0.087240 0.088542 0.089844 0.091146 0.092448 0.093750 0.095052 0.096354 0.097656 0.098958 0.100260 0.101562 0.102865 0.104167 0.105469 0.106771 0.108073 0.109375 0.110677 0.111979 0.113281 0.114583 0.115885 0.117188 0.118490 0.119792 0.121094 0.122396 0.123698 0.125000 0.126302 0.127604 0.128906 0.130208 0.131510 0.132812 0.134115 0.135417 0.136719 0.138021 0.139323 0.140625 0.141927 0.143229 0.144531 0.145833 0.147135 0.148438 0.149740 0.151042 0.152344 0.153646 0.154948 0.156250 0.157552 0.158854 0.160156 0.161458 0.162760 0.164062 0.165365 0.166667 0.167969 0.169271 0.170573 0.171875 0.173177 0.174479 0.175781 0.177083 0.178385 0.179688 0.180990 0.182292 0.183594 0.184896 0.186198 0.187500 0.188802 0.190104 0.191406 0.192708 0.194010 0.195312 0.196615 0.197917 0.199219 0.200521 0.201823 0.203125 0.204427 0.205729 0.207031 0.208333 0.209635 0.210938 0.212240 0.213542 0.214844 0.216146 0.217448 0.218750 0.220052 0.221354 0.222656 0.223958 0.225260 0.226562 0.227865 0.229167 0.230469 0.231771 0.233073 0.234375 0.235677 0.236979 0.238281 0.239583 0.240885 0.242188 0.243490 0.244792 0.246094 0.247396 0.248698 0.250000 0.251302 0.252604 0.253906 0.255208 0.256510 0.257812 0.259115 0.260417 0.261719 0.263021 0.264323 0.265625 0.266927 0.268229 0.269531 0.270833 0.272135 0.273438 0.274740 0.276042 0.277344 0.278646 0.279948 0.281250 0.282552 0.283854 0.285156 0.286458 0.287760 0.289062 0.290365 0.291667 0.292969 0.294271 0.295573 0.296875 0.298177 0.299479 0.300781 0.302083 0.303385 0.304688 0.305990 0.307292 0.308594 0.309896 0.311198 0.312500 0.313802 0.315104 0.316406 0.317708 0.319010 0.320312 0.321615 0.322917 0.324219 0.325521 0.326823 0.328125 0.329427 0.330729 0.332031 0.333333 0.334635 0.335938 0.337240 0.338542 0.339844 0.341146 0.342448 0.343750 0.345052 0.346354 0.347656 0.348958 0.350260 0.351562 0.352865 0.354167 0.355469 0.356771 0.358073 0.359375 0.360677 0.361979 0.363281 0.364583 0.365885 0.367188 0.368490 0.369792 0.371094 0.372396 0.373698 0.375000 0.376302 0.377604 0.378906 0.380208 0.381510 0.382812 0.384115 0.385417 0.386719 0.388021 0.389323 0.390625 0.391927 0.393229 0.394531 0.395833 0.397135 0.398438 0.399740 0.401042 0.402344 0.403646 0.404948 0.406250 0.407552 0.408854 0.410156 0.411458 0.412760 0.414062 0.415365 0.416667 0.417969 0.419271 0.420573 0.421875 0.423177 0.424479 0.425781 0.427083 0.428385 0.429688 0.430990 0.432292 0.433594 0.434896 0.436198 0.437500 0.438802 0.440104 0.441406 0.442708 0.444010 0.445312 0.446615 0.447917 0.449219 0.450521 0.451823 0.453125 0.454427 0.455729 0.457031 0.458333 0.459635 0.460938 0.462240 0.463542 0.464844 0.466146 0.467448 0.468750 0.470052 0.471354
       0.64913        0.64913        0.64913        0.64913        0.64913        0.64913        0.64913        0.64913        0.64913        0.64913        0.64913        0.64913        0.64913        0.64913        0.64913        0.64913        0.64913        0.64913        0.64913        1.51065        2.27302        1.12777        0.31731        0.14018        0.68252        1.28758        1.17186        0.63497        0.36900        0.40677        0.42804        0.35250        0.35830        0.41494        0.34040        0.25786        0.16827        0.09652        0.01938        0.00704        0.03835        0.13978        0.37961        0.64877        0.80192        0.80300        0.77771        0.84680        1.00675        1.12344        1.02337        0.69246        0.42205        0.42298        0.56781        0.55645        0.41747        0.36446        0.45893        0.56160        0.65015        0.71834        0.81430        0.85747        0.83892        0.77072        0.67552        0.61802        0.57736        0.57651        0.62887        0.73619        0.78798        0.68597        0.56551        0.56289        0.62507        0.62938        0.58350        0.60454        0.70110        0.70986        0.63425        0.53376        0.55672        0.63140        0.69745        0.69354        0.63823        0.54656        0.47978        0.52227        0.61997        0.68015        0.63853        0.61005        0.68454        0.79551        0.80739        0.72510        0.67521        0.68090        0.69668        0.67710        0.64884        0.63928        0.61312        0.58287        0.53736        0.50383        0.52220        0.58898        0.65174        0.67780        0.69567        0.73423        0.75364        0.74877        0.70260        0.61444        0.52328        0.50247        0.61237        0.75735        0.79145        0.71568        0.64047        0.63129        0.65871        0.66626        0.66724        0.65840        0.60846        0.52410        0.48179        0.54623        0.64266        0.66109        0.65238        0.69487        0.76140        0.73635        0.65190        0.62511        0.67850        0.70347        0.67090        0.63192        0.63262        0.62029        0.61028        0.64012        0.69691        0.69377        0.61101        0.52373        0.50305        0.55808        0.63389        0.67344        0.68351        0.66362        0.60251        0.55170        0.59282        0.69914        0.75974        0.72780        0.68122        0.69652        0.70787        0.70426        0.70209        0.71374        0.70973        0.68441        0.67462        0.66499        0.60570        0.54755        0.55208        0.61689        0.68988        0.70646        0.64639        0.56808        0.55755        0.62546        0.67963        0.65274        0.59833        0.58965        0.61291        0.62962        0.62965        0.62593        0.63173        0.65226        0.70364        0.72569        0.68099        0.61815        0.60539        0.64500        0.69811        0.71683        0.68135        0.61263        0.58868        0.64474        0.70136        0.69332        0.66027        0.65084        0.65859        0.65044        0.66062        0.69909        0.70837        0.67073        0.60618        0.57319        0.59044        0.65273        0.70150        0.69301        0.64113        0.60739        0.60467        0.63997        0.69217        0.72898        0.69657        0.61026        0.55396        0.58215        0.63671        0.68384        0.69502        0.69760        0.67231        0.64831        0.63796        0.64506        0.65986        0.68593        0.72143        0.71627        0.66254        0.62881        0.62251        0.63435        0.61962        0.59358        0.57916        0.60145        0.64642        0.66409        0.64458        0.64406        0.67332        0.68588        0.65533        0.62453        0.64699        0.72623        0.72728        0.66449        0.62169        0.63141        0.65489        0.63077        0.59449        0.58426        0.59757        0.63560        0.66461        0.67147        0.63290        0.59663        0.64056        0.71270        0.73873        0.67418        0.60893        0.62857        0.69112        0.68171        0.57963        0.52393        0.59017        0.73129        0.80655        0.78330        0.70493        0.61425        0.53717        0.53282        0.61913        0.66474        0.61430        0.54316        0.52765        0.54951        0.55322        0.61653        0.68265        0.64255        0.61709        0.65374        0.72457        0.67945        0.67129        0.73289        0.78466        0.70870        0.61766        0.71891        0.83129        0.77062        0.57394        0.54393        0.57966        0.58585        0.58402        0.73061        0.78783        0.71090        0.60911        0.51557        0.46732        0.46589        0.55220        0.66440        0.70879        0.76072        0.70839        0.59806        0.59309        0.70781        0.77846        0.71472        0.67928        0.73037        0.55341        0.40727        0.53601        0.83931        0.76831        0.37198        0.24604        0.54862        0.81553        0.78886        0.71499        0.81999        0.92727        0.73103        0.28368       -0.22722       -0.63311       -0.81137       -0.87427
0.649135 0.649135 0.649135 0.649135 0.649135 0.649135 0.649135 0.649135 0.649135 0.649135 0.649135 0.649135 0.649135 0.649135 0.649135 0.649135 0.649135 0.649135 0.649135 1.550689 2.316383 1.304034 0.300777 0.025620 0.568004 1.427823 1.157397 0.614462 0.401564 0.442730 0.335400 0.352483 0.412646 0.398780 0.363948 0.257780 0.161632 0.123326 0.001533 0.047407 0.042771 0.103895 0.325172 0.695226 0.798363 0.782193 0.784010 0.798354 1.004801 1.110926 1.117257 0.707451 0.428120 0.421549 0.620654 0.508624 0.449014 0.285578 0.430732 0.608644 0.638496 0.715499 0.798314 0.850321 0.878164 0.742365 0.704263 0.601518 0.561886 0.592626 0.597008 0.759738 0.768363 0.735496 0.583459 0.557000 0.630021 0.587785 0.568207 0.609973 0.671531 0.735919 0.674149 0.535341 0.550103 0.591183 0.682041 0.711173 0.633139 0.556391 0.480398 0.517413 0.606277 0.684325 0.633842 0.593437 0.644315 0.787464 0.837831 0.768405 0.630814 0.790692 0.681235 0.669691 0.644410 0.640826 0.635994 0.612579 0.553212 0.480183 0.506099 0.563269 0.660758 0.653728 0.678658 0.733329 0.740322 0.756635 0.731879 0.650901 0.547140 0.473867 0.566450 0.715882 0.821276 0.745847 0.638576 0.652653 0.663815 0.666413 0.653908 0.653035 0.636021 0.558439 0.488303 0.514550 0.605318 0.654880 0.683237 0.658925 0.744223 0.758818 0.681032 0.622126 0.637515 0.701144 0.712255 0.632402 0.644303 0.621217 0.605973 0.611734 0.692494 0.706615 0.638851 0.563124 0.498954 0.531963 0.618561 0.664596 0.672089 0.703035 0.634113 0.549017 0.551271 0.649089 0.736314 0.748175 0.690759 0.699424 0.695636 0.703329 0.696998 0.726886 0.728876 0.696448 0.675727 0.669617 0.631035 0.572954 0.531049 0.602232 0.656309 0.680295 0.680070 0.601584 0.542027 0.596964 0.669947 0.691991 0.615738 0.582745 0.581235 0.626948 0.660024 0.619511 0.621131 0.643422 0.683986 0.728771 0.709581 0.649150 0.607829 0.606333 0.659637 0.722026 0.704218 0.672603 0.602925 0.598131 0.641310 0.712073 0.711538 0.628740 0.655104 0.677054 0.644629 0.659780 0.722252 0.692798 0.632050 0.584260 0.573301 0.608840 0.670415 0.692863 0.672346 0.623403 0.615375 0.622096 0.668786 0.699538 0.715667 0.658436 0.576216 0.557062 0.609825 0.634581 0.700160 0.694318 0.697865 0.656922 0.633978 0.643512 0.652064 0.633915 0.701862 0.734789 0.702507 0.623538 0.614641 0.668647 0.633743 0.592393 0.592293 0.583458 0.613066 0.670105 0.658290 0.629479 0.654429 0.697059 0.672589 0.640758 0.635229 0.663909 0.736529 0.719624 0.613336 0.597063 0.653671 0.646973 0.624021 0.600576 0.578096 0.609099 0.652171 0.665794 0.675923 0.605870 0.584698 0.657223 0.721092 0.726354 0.631916 0.589630 0.651007 0.695707 0.654062 0.513749 0.523607 0.620631 0.764488 0.831084 0.781034 0.710603 0.590218 0.509706 0.576802 0.642537 0.669305 0.581960 0.537054 0.542063 0.546242 0.584802 0.586383 0.701314 0.643518 0.613492 0.676922 0.715185 0.707457 0.650925 0.732502 0.796451 0.691655 0.650604 0.791013 0.842339 0.697178 0.597762 0.570354 0.546247 0.548232 0.649362 0.706834 0.805103 0.705116 0.618695 0.549910 0.432269 0.470989 0.571489 0.628370 0.763207 0.744125 0.663639 0.584779 0.482175 0.800927 0.761634 0.630247 0.805516 0.701061 0.510767 0.355942 0.578014 0.863697 0.650152 0.287768 0.161613 0.699914 0.800260 0.732721 0.682686 0.766801 0.905784 0.787222 0.129360 -0.251484 -0.563158 -0.788152
0.072396 0.073464 0.076669 0.082008 0.089479 0.099076 0.110794 0.124623 0.140548 0.158553 0.178614 0.200700 0.224773 0.250783 0.278672 0.308367 0.339779 0.372806 0.407324 0.443192 0.480243 0.518290 0.557118 0.596485 0.636121 0.675725 0.714968 0.753488 0.790892 0.826760 0.860639 0.892052 0.920497 0.945451 0.966377 0.982726 0.993947 0.999492 0.998827 0.991441 0.976858 0.954648 0.924442 0.885941 0.838936 0.783321 0.719105 0.646428 0.565575 0.476989 0.381279 0.279228 0.171802 0.060148 0.054405 0.170356 0.286041 0.399651 0.509257 0.612840 0.708324 0.793619 0.866670 0.925512 0.968323 0.993488 0.999658 0.985820 0.951348 0.896068 0.820301 0.724907 0.611315 0.481530 0.338136 0.184271 0.023579 0.139850 0.301574 0.456910 0.601067 0.729299 0.837066 0.920221 0.975180 0.999108 0.990085 0.947250 0.870929 0.762708 0.625481 0.463432 0.281962 0.087557 0.112403 0.309907 0.496612 0.664204 0.804783 0.911259 0.977759 0.999992 0.975578 0.904304 0.788282 0.632002 0.442258 0.227932 0.000350 0.230700 0.450554 0.647361 0.809318 0.926125 0.989703 0.994836 0.939677 0.826071 0.659664 0.449764 0.208939 0.047647 0.303118 0.539970 0.741286 0.891981 0.980022 0.997496 0.941434 0.814325 0.624216 0.384393 0.112590 0.170201 0.441293 0.678110 0.860106 0.970648 0.998664 0.939918 0.797736 0.583091 0.313982 0.014097 0.289142 0.567036 0.792329 0.941977 0.999654 0.957723 0.818444 0.594201 0.306681 0.015007 0.337123 0.624784 0.845762 0.974228 0.993967 0.900681 0.703014 0.422115 0.089666 0.255484 0.571739 0.819789 0.967615 0.994852 0.895894 0.681237 0.376783 0.021047 0.339484 0.656315 0.885526 0.994030 0.964657 0.799229 0.519054 0.162606 0.219421 0.571162 0.839714 0.983292 0.978017 0.822314 0.537993 0.167710 0.231081 0.594806 0.863921 0.992848 0.958075 0.762911 0.437896 0.036558 0.373023 0.719609 0.941265 0.996736 0.873613 0.591591 0.199987 0.230393 0.619772 0.894167 0.999713 0.913731 0.650188 0.258192 0.186576 0.596105 0.887435 0.999717 0.907458 0.626969 0.214300 0.245316 0.654717 0.925334 0.996692 0.850554 0.516282 0.065780 0.401349 0.779552 0.981290 0.957813 0.711695 0.297789 0.188168 0.631208 0.924250 0.994348 0.821583 0.445559 0.042713 0.522171 0.871477 0.999999 0.872030 0.517647 0.026716 0.473098 0.849202 0.999471 0.880713 0.522068 0.019038 0.491090 0.866358 0.999906 0.851200 0.459401 0.065723 0.573685 0.916153 0.990617 0.772039 0.322378 0.225736 0.707383 0.974843 0.943556 0.619961 0.101866 0.449994 0.861236 0.999201 0.816653 0.369272 0.199931 0.705365 0.979251 0.927969 0.565338 0.010625 0.549476 0.923168 0.979648 0.696070 0.168176 0.420595 0.862059 0.997122 0.774179 0.270361 0.333503 0.816860 0.999995 0.811876 0.319314 0.295041 0.799306 0.999874 0.816746 0.317107 0.307468 0.813347 0.999827 0.789856 0.263637 0.370111 0.855850 0.994323 0.725555 0.156705 0.478799 0.916027 0.969360 0.612761 0.005650 0.623335 0.974051 0.903332 0.438294 0.220387 0.783497 0.999953 0.769959 0.193071 0.472682 0.925027 0.954975 0.545112 0.118397 0.728423 0.998471 0.798305 0.218922 0.466386 0.929573 0.945181 0.501912 0.187553 0.786600 0.998582 0.715007 0.073523 0.606459 0.981651 0.858933 0.297019 0.418858 0.920006 0.944299 0.475270 0.244549 0.836865 0.986030 0.608910 0.096051 0.750786 0.999435 0.703169 0.020367 0.675205 0.997836 0.764781 0.102486 0.619029 0.991436 0.800005
1.000000 1.000000 1.000000 1.000000 1.000000 1.000000 1.000000 1.000000 1.000000 1.000000 1.000000 1.000000 1.000000 1.000000 1.000000 1.000000 1.000000 1.000000 1.000000 1.000000 -0.049525 -0.049525 -0.049525 -0.049525 -0.049525 -0.049525 -0.049525 -0.049525 -0.049525 -0.049525 -0.049525 -0.049525 -0.049525 -0.049525 -0.049525 -0.049525 -0.049525 -0.049525 -0.121791 -0.121791 -0.121791 -0.121791 -0.121791 -0.121791 -0.121791 -0.121791 -0.121791 -0.121791 -0.121791 -0.121791 -0.121791 -0.121791 -0.121791 -0.121791 -0.120835 -0.088046 -0.062303 -0.053557 -0.069650 -0.100766 -0.086892 -0.069891 -0.071100 -0.067350 -0.054963 -0.040388 0.050819 0.106039 0.174360 0.207344 0.227441 0.235383 0.228739 0.196285 0.213448 0.230703 0.247212 0.263827 0.284874 0.301133 0.327715 0.376456 0.410303 0.414010 0.406114 0.399181 0.340590 0.345729 0.330314 0.318034 0.329963 0.393779 0.406705 0.426771 0.438468 0.453628 0.467131 0.459022 0.447446 0.529483 0.557426 0.556229 0.565863 0.575949 0.584162 0.589317 0.644606 0.683482 0.695411 0.663537 0.612826 0.617663 0.626665 0.632780 0.630068 0.718860 0.703847 0.645966 0.620377 0.577986 0.577373 0.593483 0.586307 0.611351 0.615348 0.611281 0.611588 0.550394 0.535087 0.484913 0.460816 0.459212 0.417355 0.324160 0.303917 0.304147 0.239973 0.158132 0.162693 0.150129 0.125002 0.112553 0.118096 0.055977 0.042018 0.057746 0.081740 0.037895 0.014855 -0.067025 -0.071146 -0.019600 0.063328 0.081233 0.061604 0.076213 0.107930 0.156050 0.162196 0.194072 0.252290 0.240783 0.261299 0.285835 0.255400 0.220562 0.230777 0.201316 0.188592 0.223100 0.164105 0.119163 0.121110 0.098648 0.128578 0.202917 0.250846 0.303511 0.314952 0.306877 0.332884 0.377987 0.404780 0.413970 0.443049 0.456895 0.470858 0.463744 0.432310 0.501835 0.513361 0.489362 0.456132 0.468952 0.400047 0.355563 0.337951 0.351519 0.361839 0.345073 0.342839 0.354331 0.322918 0.299987 0.304240 0.264018 0.231786 0.221382 0.200518 0.266218 0.255270 0.249691 0.319048 0.371747 0.417496 0.424011 0.401079 0.409926 0.381301 0.365821 0.484049 0.486617 0.454997 0.406750 0.413050 0.368619 0.300487 0.305151 0.254292 0.268236 0.233149 0.257547 0.271653 0.299195 0.278707 0.288744 0.291731 0.276005 0.306089 0.288321 0.315399 0.284003 0.253667 0.269952 0.272736 0.238344 0.267865 0.268730 0.303349 0.248300 0.249821 0.179018 0.188945 0.114310 0.121248 0.135110 0.088649 0.069086 0.069166 0.033291 0.044933 0.035546 0.005868 -0.048858 -0.117622 -0.128856 -0.142132 -0.118028 -0.162797 -0.131428 -0.116467 -0.085259 -0.069731 -0.065331 -0.117296 -0.094203 -0.110532 -0.125679 -0.116569 -0.080962 -0.070662 -0.092598 -0.136956 -0.137681 -0.132470 -0.149091 -0.170006 -0.152218 -0.209929 -0.225130 -0.211710 -0.194695 -0.171382 -0.160330 -0.192435 -0.230592 -0.209133 -0.179694 -0.143425 -0.186541 -0.178518 -0.167305 -0.098713 -0.087645 -0.081668 -0.050093 -0.068045 -0.076309 -0.062374 -0.087195 -0.078858 -0.068264 -0.045871 -0.045485 -0.013366 0.008060 0.006374 -0.028432 0.075581 0.079601 0.086302 0.089077 0.072850 0.109708 0.096409 0.114345 0.092059 0.135880 0.033855 0.093627 0.096735 0.127504 0.143967 0.180442 0.221503 0.232508 0.061280 0.061280 0.061280 0.061280 0.061280 0.112174 0.112174 0.112174 0.112174 0.088508 0.088508 0.088508 0.088508 0.088508 0.088508 0.088508 0.088508 0.096000 0.096000 0.096000 0.096000 0.096000 0.069057 0.069057 0.069057 0.069057 0.069057
0.000000 0.000000 0.000000 0.000000 2098712901358755328.000000 969182811434069120.000000 520119924995058368.000000 1129072143152301056.000000 767394939907367040.000000 441552672343659200.000000 814417753915829888.000000 846951203415820928.000000 914489804560788736.000000 570623792501303168.000000 828823005404425984.000000 913343563691386496.000000 451966971639378240.000000 751826405137464320.000000 1494828129998870528.000000 563410446551832448.000000 0.216930 0.216930 0.216930 0.216930 0.216930 0.216930 0.216930 0.216930 0.216930 0.216930 0.216930 0.216930 0.216930 0.216930 0.216930 0.216930 0.216930 0.216930 0.240772 0.240772 0.240772 0.240772 0.240772 0.240772 0.240772 0.240772 0.240772 0.240772 0.240772 0.240772 0.240772 0.240772 0.240772 0.240772 0.240772 0.240772 0.240772 0.240772 0.240772 0.240772 0.240772 0.240772 0.240772 0.240772 0.240772 0.240772 0.269680 0.269680 0.269680 0.269680 0.269680 0.269680 0.269680 0.269680 0.269680 0.269680 0.269680 0.269680 0.269680 0.269680 0.269680 0.269680 0.269680 0.269680 0.269680 0.269680 0.298142 0.298142 0.298142 0.298142 0.298142 0.298142 0.298142 0.298142 0.298142 0.298142 0.298142 0.298142 0.298142 0.298142 0.298142 0.298142 0.298142 0.298142 0.298142 0.298142 0.298142 0.298142 0.298142 0.298142 0.298142 0.298142 0.298142 0.298142 0.298142 0.312348 0.312348 0.312348 0.312348 0.312348 0.312348 0.312348 0.312348 0.312348 0.312348 0.312348 0.312348 0.312348 0.312348 0.312348 0.312348 0.312348 0.312348 0.312348 0.312348 0.312348 0.312348 0.312348 0.304997 0.304997 0.304997 0.304997 0.304997 0.304997 0.304997 0.304997 0.304997 0.304997 0.304997 0.320256 0.320256 0.320256 0.320256 0.320256 0.320256 0.320256 0.320256 0.320256 0.312348 0.312348 0.312348 0.312348 0.312348 0.312348 0.312348 0.312348 0.312348 0.304997 0.304997 0.304997 0.304997 0.304997 0.304997 0.304997 0.304997 0.304997 0.320256 0.320256 0.320256 0.320256 0.320256 0.320256 0.320256 0.320256 0.312348 0.312348 0.312348 0.312348 0.312348 0.312348 0.312348 0.312348 0.320256 0.320256 0.320256 0.320256 0.320256 0.320256 0.320256 0.298142 0.298142 0.298142 0.298142 0.298142 0.298142 0.298142 0.298142 0.312348 0.312348 0.312348 0.312348 0.312348 0.312348 0.312348 0.328798 0.328798 0.328798 0.328798 0.328798 0.328798 0.298142 0.298142 0.298142 0.298142 0.298142 0.298142 0.298142 0.312348 0.312348 0.312348 0.312348 0.312348 0.312348 0.285714 0.285714 0.285714 0.285714 0.285714 0.285714 0.285714 0.304997 0.304997 0.304997 0.304997 0.304997 0.304997 0.320256 0.320256 0.320256 0.320256 0.320256 0.291730 0.291730 0.291730 0.291730 0.291730 0.291730 0.291730 0.291730 0.291730 0.291730 0.291730 0.291730 0.304997 0.304997 0.304997 0.304997 0.304997 0.280056 0.280056 0.280056 0.280056 0.280056 0.280056 0.298142 0.298142 0.298142 0.298142 0.298142 0.298142 0.298142 0.298142 0.298142 0.298142 0.291730 0.291730 0.291730 0.291730 0.291730 0.264906 0.264906 0.264906 0.264906 0.264906 0.264906 0.312348 0.312348 0.312348 0.312348 0.280056 0.280056 0.280056 0.280056 0.280056 0.280056 0.280056 0.280056 0.280056 0.280056 0.274721 0.274721 0.274721 0.274721 0.274721 0.298142 0.298142 0.298142 0.298142 0.269680 0.269680 0.269680 0.269680 0.269680 0.264906 0.264906 0.264906 0.264906 0.264906 0.285714 0.285714 0.285714 0.285714 0.285714 0.285714 0.285714 0.285714 0.256074 0.256074 0.256074 0.256074 0.256074 0.280056 0.280056 0.280056 0.280056 0.274721 0.274721 0.274721 0.274721 0.274721 0.274721 0.274721 0.274721 0.248069 0.248069 0.248069 0.248069 0.248069 0.269680 0.269680 0.269680 0.269680 0.269680
