# Output from CTFFind version 4.1.9, run on 2019-11-24 11:56:22
# Input file: stack1_bm3d_averaged_1_3.0_0_0_half.mrc ; Number of micrographs: 1
# Pixel size: 1.500 Angstroms ; acceleration voltage: 300.0 keV ; spherical aberration: 0.00 mm ; amplitude contrast: 0.07
# Box size: 512 pixels ; min. res.: 40.0 Angstroms ; max. res.: 6.0 Angstroms ; min. def.: 5000.0 um; max. def. 50000.0 um; num. frames averaged: 1
# 6 lines per micrograph: #1 - spatial frequency (1/Angstroms); #2 - 1D rotational average of spectrum (assuming no astigmatism); #3 - 1D rotational average of spectrum; #4 - CTF fit; #5 - cross-correlation between spectrum and CTF fit; #6 - 2sigma of expected cross correlation of noise
0.000000 0.001302 0.002604 0.003906 0.005208 0.006510 0.007812 0.009115 0.010417 0.011719 0.013021 0.014323 0.015625 0.016927 0.018229 0.019531 0.020833 0.022135 0.023438 0.024740 0.026042 0.027344 0.028646 0.029948 0.031250 0.032552 0.033854 0.035156 0.036458 0.037760 0.039062 0.040365 0.041667 0.042969 0.044271 0.045573 0.046875 0.048177 0.049479 0.050781 0.052083 0.053385 0.054688 0.055990 0.057292 0.058594 0.059896 0.061198 0.062500 0.063802 0.065104 0.066406 0.067708 0.069010 0.070312 0.071615 0.072917 0.074219 0.075521 0.076823 0.078125 0.079427 0.080729 0.082031 0.083333 0.084635 0.085938 0.087240 0.088542 0.089844 0.091146 0.092448 0.093750 0.095052 0.096354 0.097656 0.098958 0.100260 0.101562 0.102865 0.104167 0.105469 0.106771 0.108073 0.109375 0.110677 0.111979 0.113281 0.114583 0.115885 0.117188 0.118490 0.119792 0.121094 0.122396 0.123698 0.125000 0.126302 0.127604 0.128906 0.130208 0.131510 0.132812 0.134115 0.135417 0.136719 0.138021 0.139323 0.140625 0.141927 0.143229 0.144531 0.145833 0.147135 0.148438 0.149740 0.151042 0.152344 0.153646 0.154948 0.156250 0.157552 0.158854 0.160156 0.161458 0.162760 0.164062 0.165365 0.166667 0.167969 0.169271 0.170573 0.171875 0.173177 0.174479 0.175781 0.177083 0.178385 0.179688 0.180990 0.182292 0.183594 0.184896 0.186198 0.187500 0.188802 0.190104 0.191406 0.192708 0.194010 0.195312 0.196615 0.197917 0.199219 0.200521 0.201823 0.203125 0.204427 0.205729 0.207031 0.208333 0.209635 0.210938 0.212240 0.213542 0.214844 0.216146 0.217448 0.218750 0.220052 0.221354 0.222656 0.223958 0.225260 0.226562 0.227865 0.229167 0.230469 0.231771 0.233073 0.234375 0.235677 0.236979 0.238281 0.239583 0.240885 0.242188 0.243490 0.244792 0.246094 0.247396 0.248698 0.250000 0.251302 0.252604 0.253906 0.255208 0.256510 0.257812 0.259115 0.260417 0.261719 0.263021 0.264323 0.265625 0.266927 0.268229 0.269531 0.270833 0.272135 0.273438 0.274740 0.276042 0.277344 0.278646 0.279948 0.281250 0.282552 0.283854 0.285156 0.286458 0.287760 0.289062 0.290365 0.291667 0.292969 0.294271 0.295573 0.296875 0.298177 0.299479 0.300781 0.302083 0.303385 0.304688 0.305990 0.307292 0.308594 0.309896 0.311198 0.312500 0.313802 0.315104 0.316406 0.317708 0.319010 0.320312 0.321615 0.322917 0.324219 0.325521 0.326823 0.328125 0.329427 0.330729 0.332031 0.333333 0.334635 0.335938 0.337240 0.338542 0.339844 0.341146 0.342448 0.343750 0.345052 0.346354 0.347656 0.348958 0.350260 0.351562 0.352865 0.354167 0.355469 0.356771 0.358073 0.359375 0.360677 0.361979 0.363281 0.364583 0.365885 0.367188 0.368490 0.369792 0.371094 0.372396 0.373698 0.375000 0.376302 0.377604 0.378906 0.380208 0.381510 0.382812 0.384115 0.385417 0.386719 0.388021 0.389323 0.390625 0.391927 0.393229 0.394531 0.395833 0.397135 0.398438 0.399740 0.401042 0.402344 0.403646 0.404948 0.406250 0.407552 0.408854 0.410156 0.411458 0.412760 0.414062 0.415365 0.416667 0.417969 0.419271 0.420573 0.421875 0.423177 0.424479 0.425781 0.427083 0.428385 0.429688 0.430990 0.432292 0.433594 0.434896 0.436198 0.437500 0.438802 0.440104 0.441406 0.442708 0.444010 0.445312 0.446615 0.447917 0.449219 0.450521 0.451823 0.453125 0.454427 0.455729 0.457031 0.458333 0.459635 0.460938 0.462240 0.463542 0.464844 0.466146 0.467448 0.468750 0.470052 0.471354
       0.80365        0.80365        0.80365        0.80365        0.80365        0.80365        0.80365        0.80365        0.80365        0.80365        0.80365        0.80365        0.80365        0.80365        0.80365        0.80365        0.80365        0.80365        0.80365        0.91809        0.88133        0.62305        0.63479        0.82474        0.95907        0.91528        0.84924        0.83487        0.83096        0.79268        0.76361        0.80367        0.86368        0.91581        0.91969        0.82800        0.70431        0.62829        0.72886        0.86522        0.89029        0.73107        0.53281        0.46011        0.60218        0.81492        0.95275        0.96233        0.91385        0.90095        0.88595        0.79544        0.65118        0.59007        0.71194        0.90069        0.92835        0.83141        0.74137        0.74133        0.75605        0.74535        0.77782        0.85266        0.86772        0.81200        0.77087        0.77629        0.84721        0.90084        0.89976        0.81848        0.75011        0.80938        0.92971        0.90218        0.74195        0.62241        0.65187        0.74214        0.78794        0.79296        0.79720        0.81779        0.79540        0.76523        0.75575        0.82478        0.91671        0.90435        0.78135        0.70274        0.71934        0.75103        0.75833        0.78336        0.86524        0.88537        0.82305        0.76099        0.75632        0.77381        0.79683        0.84983        0.93056        0.95930        0.89919        0.80733        0.74971        0.77740        0.83519        0.81850        0.72125        0.66540        0.76933        0.89209        0.86761        0.73770        0.67045        0.73024        0.81025        0.82524        0.80109        0.81490        0.84780        0.87267        0.85001        0.82026        0.80716        0.83777        0.83232        0.78659        0.74352        0.74284        0.75924        0.75875        0.76171        0.80757        0.84151        0.80040        0.73608        0.71894        0.76667        0.81721        0.79498        0.75091        0.75735        0.86589        0.98461        1.00424        0.90690        0.80867        0.79215        0.80831        0.77419        0.70795        0.67561        0.69838        0.76367        0.82867        0.86521        0.86176        0.84889        0.84303        0.83057        0.79980        0.75262        0.69899        0.64984        0.68313        0.80189        0.89423        0.86502        0.78454        0.80393        0.87899        0.88215        0.81081        0.76290        0.78771        0.82070        0.83962        0.84883        0.82654        0.77019        0.72865        0.74978        0.77951        0.77942        0.74909        0.75430        0.78987        0.85686        0.89110        0.87107        0.84933        0.86008        0.89237        0.87685        0.81465        0.76170        0.72808        0.69728        0.69780        0.73129        0.79035        0.82279        0.84515        0.86091        0.83653        0.78758        0.75427        0.78011        0.85472        0.91139        0.92005        0.86497        0.80298        0.78300        0.79405        0.79268        0.76028        0.75056        0.80356        0.86220        0.84846        0.77967        0.73150        0.75911        0.80874        0.81485        0.77394        0.74606        0.75301        0.78274        0.80783        0.82649        0.82851        0.81114        0.78268        0.78541        0.79679        0.78405        0.77130        0.79684        0.86394        0.89055        0.84085        0.78826        0.80075        0.87783        0.92915        0.90272        0.84106        0.77851        0.75051        0.78217        0.80049        0.77402        0.73755        0.73069        0.75737        0.80469        0.83597        0.83153        0.79584        0.77096        0.77647        0.79953        0.80320        0.77539        0.74759        0.74519        0.78221        0.84327        0.90309        0.88284        0.84445        0.79115        0.73004        0.67669        0.67467        0.73305        0.81765        0.85976        0.86959        0.83486        0.76163        0.71308        0.76468        0.86762        0.88434        0.83075        0.82168        0.87415        0.82941        0.76110        0.84852        0.97139        0.95849        0.81706        0.80909        0.83426        0.74660        0.63534        0.68867        0.78916        0.75692        0.67031        0.66375        0.75414        0.74121        0.75791        0.87731        0.96592        0.86806        0.75266        0.82182        0.87347        0.77508        0.64565        0.71115        0.78915        0.73991        0.68120        0.78008        0.94401        0.93311        0.84761        0.91890        0.97982        0.87227        0.79503        0.91830        0.84662        0.61046        0.46557        0.71006        0.93219        0.88162        0.82662        0.88999        0.93483        0.81582        0.77117        0.88433        0.94611        0.91944        0.73110        0.60738        0.48639        0.54389        0.62347        0.75977        0.94015        1.04091        0.85428        0.40264       -0.02314       -0.25645       -0.37324       -0.42445       -0.44539
0.803648 0.803648 0.803648 0.803648 0.803648 0.803648 0.803648 0.803648 0.803648 0.803648 0.803648 0.803648 0.803648 0.803648 0.803648 0.803648 0.803648 0.803648 0.803648 0.956953 0.941387 0.651777 0.521462 0.746040 1.025126 0.886134 0.842479 0.837221 0.874099 0.788725 0.742794 0.782231 0.847450 0.959227 0.910376 0.883072 0.662725 0.648674 0.708753 0.880252 0.875230 0.764528 0.559123 0.438846 0.572078 0.820345 0.947995 0.956992 0.913307 0.910609 0.896273 0.784806 0.686088 0.583689 0.654525 0.943829 0.919442 0.850967 0.717974 0.778854 0.719071 0.749775 0.753355 0.839913 0.897868 0.818365 0.778683 0.781632 0.841050 0.873350 0.916309 0.813369 0.760144 0.804791 0.879443 0.948040 0.772951 0.609115 0.626235 0.752239 0.780647 0.783277 0.762591 0.855779 0.782562 0.786060 0.741713 0.815591 0.896164 0.936089 0.785681 0.699002 0.696718 0.763099 0.731154 0.774153 0.849225 0.901181 0.842548 0.748203 0.739773 0.776582 0.817337 0.823332 0.931733 0.972990 0.931543 0.834974 0.751532 0.763476 0.848744 0.825821 0.742765 0.661640 0.739433 0.867793 0.869652 0.763882 0.675586 0.709629 0.790359 0.858336 0.805992 0.793778 0.832559 0.838086 0.908199 0.836961 0.800984 0.819137 0.858736 0.818199 0.767836 0.739831 0.766839 0.746539 0.767167 0.787281 0.841421 0.812614 0.765959 0.734790 0.748476 0.798043 0.796548 0.714659 0.761176 0.827457 0.954146 0.970639 0.983253 0.816403 0.790377 0.820139 0.787838 0.731543 0.679667 0.682659 0.751952 0.788707 0.845633 0.874008 0.853487 0.854943 0.830003 0.813450 0.776268 0.715329 0.697845 0.651148 0.720673 0.873125 0.874804 0.783971 0.795717 0.844365 0.881159 0.873232 0.762405 0.745125 0.813004 0.822454 0.848021 0.841334 0.793036 0.758576 0.706269 0.748744 0.796729 0.746378 0.746059 0.775435 0.825639 0.871734 0.886224 0.876407 0.841902 0.850013 0.896025 0.855362 0.783213 0.774646 0.699927 0.680744 0.704135 0.751833 0.822040 0.828662 0.862934 0.859317 0.806067 0.755919 0.766960 0.813636 0.876161 0.927210 0.906851 0.833885 0.783605 0.790447 0.811687 0.778615 0.740116 0.765248 0.834438 0.864403 0.844289 0.731916 0.747835 0.788539 0.805267 0.795734 0.758039 0.760036 0.759288 0.781182 0.811045 0.851003 0.853113 0.790797 0.779813 0.805806 0.790408 0.779217 0.772131 0.820098 0.906458 0.888344 0.806739 0.787827 0.812202 0.877694 0.931409 0.882741 0.817718 0.750629 0.769369 0.781733 0.799445 0.762986 0.729915 0.726010 0.777152 0.808754 0.845057 0.810422 0.787242 0.767526 0.783638 0.793812 0.811577 0.758360 0.743353 0.754282 0.798906 0.853150 0.894012 0.881484 0.827683 0.766132 0.706078 0.676284 0.663240 0.735068 0.821445 0.864281 0.888262 0.805873 0.735942 0.691474 0.819005 0.932463 0.881572 0.800253 0.846803 0.860648 0.829667 0.724240 0.905058 0.960574 0.975647 0.765535 0.836408 0.819177 0.695423 0.631817 0.736171 0.790720 0.718021 0.634157 0.653184 0.751089 0.740229 0.809421 0.873109 0.951603 0.888403 0.769955 0.793179 0.853273 0.777048 0.705764 0.647577 0.727035 0.724834 0.764576 0.773036 0.896703 0.966133 0.853254 0.967188 0.978466 0.827825 0.755484 0.978445 0.801928 0.537212 0.525495 0.746759 0.936339 0.885289 0.817941 0.917670 0.928351 0.767017 0.725930 0.872863 1.186182 0.959161 0.577361 0.567391 0.623447 0.402245 0.759818 0.709367 0.876720 1.402404 0.823991 0.316304 -0.128754 -0.271972 -0.354276 -0.416723
0.072396 0.074856 0.082232 0.094516 0.111689 0.133719 0.160554 0.192114 0.228282 0.268892 0.313717 0.362455 0.414715 0.470000 0.527696 0.587052 0.647175 0.707013 0.765355 0.820824 0.871887 0.916870 0.953976 0.981322 0.996986 0.999067 0.985755 0.955422 0.906715 0.838672 0.750831 0.643350 0.517117 0.373852 0.216186 0.047702 0.127054 0.302629 0.472772 0.630620 0.768953 0.880533 0.958502 0.996846 0.990883 0.937768 0.836957 0.690599 0.503810 0.284761 0.044563 0.203112 0.442675 0.657547 0.831315 0.949083 0.998909 0.973207 0.869974 0.693672 0.455617 0.173737 0.128395 0.423276 0.681857 0.876466 0.983983 0.988947 0.886165 0.682442 0.397014 0.060453 0.288073 0.605067 0.848117 0.981839 0.983563 0.847823 0.588794 0.239967 0.149275 0.520072 0.812815 0.977006 0.980651 0.817426 0.509982 0.108253 0.317568 0.688724 0.932482 0.997048 0.863707 0.553269 0.124728 0.334529 0.725802 0.960342 0.980385 0.774873 0.385443 0.099903 0.565270 0.894085 0.998935 0.846385 0.469511 0.036609 0.537025 0.892171 0.997446 0.815864 0.393285 0.150182 0.652317 0.956703 0.962585 0.660662 0.141602 0.428172 0.858304 0.998456 0.793093 0.306571 0.293252 0.790591 0.999202 0.834224 0.350191 0.272611 0.792513 0.999926 0.804154 0.276971 0.368975 0.863104 0.990356 0.687802 0.080095 0.567142 0.961159 0.915741 0.443355 0.241202 0.814275 0.995633 0.688609 0.036889 0.637082 0.989134 0.830983 0.236218 0.487187 0.952437 0.901512 0.353319 0.394895 0.923824 0.927139 0.393868 0.372744 0.922188 0.921230 0.361273 0.423134 0.948470 0.880459 0.252725 0.540278 0.985782 0.785496 0.062392 0.705806 0.997972 0.606177 0.208019 0.879723 0.930456 0.314623 0.531580 0.992214 0.721025 0.089923 0.836194 0.947747 0.329687 0.547256 0.997429 0.657579 0.210665 0.911554 0.869814 0.109947 0.744253 0.975207 0.378529 0.544824 0.999680 0.582532 0.349783 0.973816 0.725035 0.181884 0.925294 0.816850 0.052828 0.875549 0.870578 0.032788 0.839150 0.896776 0.073984 0.824467 0.901872 0.070848 0.834490 0.887248 0.023365 0.867194 0.849064 0.068514 0.915309 0.778751 0.203468 0.965513 0.664443 0.376139 0.997698 0.493770 0.573480 0.985234 0.258719 0.770912 0.897657 0.037407 0.929916 0.707317 0.371785 0.999833 0.400987 0.695308 0.927021 0.004911 0.932457 0.673757 0.450048 0.994275 0.245244 0.826651 0.809108 0.284156 0.998896 0.368271 0.763313 0.853507 0.230658 0.996984 0.373880 0.775199 0.830164 0.296178 0.999889 0.262784 0.856776 0.726207 0.472355 0.973471 0.025316 0.962003 0.499368 0.721906 0.841835 0.332172 0.993731 0.109393 0.947231 0.512506 0.735126 0.811585 0.414111 0.972532 0.047791 0.990985 0.306599 0.885173 0.606233 0.686773 0.825611 0.432198 0.955546 0.155924 0.999824 0.113811 0.970865 0.356916 0.885598 0.561454 0.762051 0.722612 0.616980 0.841088 0.464486 0.921243 0.315472 0.969580 0.177620 0.993421 0.055897 0.999998 0.046968 0.995858 0.129800 0.986521 0.192412 0.976342 0.235120 0.968465 0.258371 0.964850 0.262473 0.966309 0.247518 0.972520 0.213256 0.982022 0.159285 0.992184 0.085208 0.999177 0.009088 0.997973 0.122922 0.982438 0.254269 0.945576 0.399248 0.880017 0.551377 0.778763 0.701199 0.636361 0.835963 0.450305 0.939924 0.222840 0.995381 0.037389 0.984576 0.313841 0.892672 0.581702 0.711597 0.808823 0.444471 0.958926 0.109463 0.997323 0.258010 0.898838 0.606262 0.657024 0.873066 0.292561
1.000000 1.000000 1.000000 1.000000 1.000000 1.000000 1.000000 1.000000 1.000000 1.000000 1.000000 1.000000 1.000000 1.000000 1.000000 1.000000 1.000000 1.000000 1.000000 1.000000 -0.121389 -0.121389 -0.121389 -0.121389 -0.121389 -0.169606 -0.169606 -0.169606 -0.169606 -0.169606 -0.169606 -0.169606 -0.169606 -0.169606 -0.169606 -0.169606 -0.169606 -0.169606 -0.169606 -0.169606 -0.169606 -0.169606 -0.169606 -0.169606 -0.217357 -0.217578 -0.192911 -0.222222 -0.253675 -0.266156 -0.253382 -0.244725 -0.243328 -0.198715 -0.147853 -0.164481 -0.174269 -0.225688 -0.192296 -0.101479 -0.002877 0.041020 -0.032713 -0.036390 -0.020217 -0.051648 -0.063901 -0.039089 -0.036953 -0.080891 -0.091634 -0.093188 -0.108336 -0.181488 -0.124444 -0.132299 -0.173723 -0.216583 -0.232476 -0.233483 -0.158864 -0.101059 -0.054054 -0.024703 0.000030 0.022050 -0.018864 0.038123 0.057316 -0.006249 -0.067486 0.022421 0.040123 0.059696 0.082564 0.172410 0.243269 0.256475 0.291215 0.315258 0.362477 0.358852 0.434693 0.471536 0.512120 0.520880 0.546544 0.630640 0.607638 0.617638 0.601450 0.612373 0.615529 0.599504 0.649452 0.651457 0.648409 0.673064 0.681743 0.662530 0.713069 0.586476 0.449553 0.465864 0.476623 0.423443 0.429868 0.382448 0.349038 0.252783 0.203583 0.094881 0.065744 0.042066 -0.041944 -0.044058 0.137706 0.101656 0.158975 0.143953 0.169445 0.113047 0.081027 0.082477 0.034841 0.047659 0.019829 0.011491 -0.012949 0.037791 -0.037518 0.041899 0.053831 0.187886 0.141532 0.142269 0.045187 0.095110 0.028565 0.092347 0.073679 0.157183 0.210962 0.224904 0.179160 0.181743 0.062164 0.062825 0.040249 0.028761 -0.106755 -0.053724 -0.032170 -0.040814 -0.073299 -0.106032 -0.097838 -0.069927 -0.051792 -0.058139 -0.098454 -0.160933 -0.184209 -0.236212 -0.028572 -0.067414 -0.135682 -0.179890 -0.017288 0.018516 -0.058444 -0.100315 -0.147652 -0.152751 -0.135200 -0.114920 -0.090689 -0.059481 -0.191785 -0.116750 -0.124486 -0.078748 -0.101084 -0.156863 -0.132286 -0.116522 -0.133566 -0.152751 -0.186838 -0.193428 -0.196459 -0.150279 -0.116410 -0.148651 -0.147374 -0.126511 -0.157766 -0.131486 -0.149642 -0.132137 -0.145346 -0.159964 -0.116276 -0.124417 -0.105063 -0.085345 -0.006979 -0.004772 -0.015226 -0.015303 -0.007205 -0.045605 -0.033153 -0.083121 -0.030656 -0.057026 -0.062762 -0.037746 -0.030375 0.004722 -0.021369 -0.149999 -0.133105 -0.105155 -0.037934 -0.039635 -0.098069 -0.082342 -0.073105 -0.062792 -0.102280 -0.128676 -0.087978 -0.096949 -0.113311 -0.155820 -0.168703 -0.144636 -0.178462 -0.178778 -0.192963 -0.187800 -0.183248 -0.200075 -0.267793 -0.304768 -0.165297 -0.181008 -0.218415 -0.375449 -0.312871 -0.249830 -0.224986 -0.194089 -0.187649 -0.230378 -0.235681 -0.263151 -0.237672 -0.198678 -0.141535 -0.141395 -0.152907 -0.183281 -0.128617 -0.141046 -0.123137 -0.083574 -0.096410 -0.148753 -0.174977 -0.186312 -0.218669 -0.218007 -0.191268 -0.197755 -0.189802 -0.183595 -0.190361 -0.185490 -0.187248 -0.205634 -0.233054 -0.248720 -0.223509 -0.187966 -0.205570 -0.258695 -0.230941 -0.196956 -0.164971 -0.186984 -0.177192 -0.176376 -0.166956 -0.168714 -0.160529 -0.117223 -0.160977 -0.151282 -0.127008 -0.124707 -0.125642 -0.139987 -0.136607 -0.151929 -0.160466 -0.140276 -0.118225 -0.232549 -0.158640 -0.167663 -0.202128 -0.158108 -0.170321 -0.170321 -0.144757 -0.144757 -0.144757 -0.144757 -0.144757 -0.144757 -0.144757 -0.144757 -0.130863 -0.130863 -0.116819 -0.130863 -0.130863 -0.129046 -0.129046 -0.129046 -0.129046 -0.129046 -0.129046 -0.112165 -0.111740 -0.111740 -0.111740 -0.111740 -0.111740 -0.111740 -0.111740
0.000000 0.000000 0.000000 0.000000 249491319213408640.000000 855641743258978048.000000 1018631147851258240.000000 446946876344569984.000000 1009455723427450112.000000 0.000000 0.000000 0.000000 0.000000 0.000000 0.000000 0.000000 0.000000 0.000000 0.000000 686101998080375168.000000 0.264906 0.264906 0.264906 0.264906 0.264906 0.285714 0.285714 0.285714 0.285714 0.285714 0.285714 0.285714 0.285714 0.285714 0.285714 0.285714 0.285714 0.285714 0.285714 0.285714 0.285714 0.285714 0.285714 0.285714 0.328798 0.328798 0.328798 0.328798 0.328798 0.328798 0.328798 0.328798 0.328798 0.328798 0.328798 0.328798 0.328798 0.359211 0.359211 0.359211 0.359211 0.359211 0.359211 0.359211 0.359211 0.359211 0.359211 0.359211 0.359211 0.359211 0.359211 0.359211 0.359211 0.359211 0.359211 0.359211 0.371391 0.371391 0.371391 0.371391 0.371391 0.371391 0.371391 0.371391 0.384900 0.384900 0.384900 0.384900 0.384900 0.384900 0.384900 0.371391 0.371391 0.371391 0.371391 0.371391 0.371391 0.371391 0.384900 0.384900 0.384900 0.384900 0.384900 0.384900 0.371391 0.371391 0.371391 0.371391 0.371391 0.371391 0.371391 0.371391 0.371391 0.371391 0.371391 0.371391 0.384900 0.384900 0.384900 0.384900 0.384900 0.348155 0.348155 0.348155 0.348155 0.348155 0.348155 0.371391 0.371391 0.371391 0.371391 0.371391 0.400000 0.400000 0.400000 0.400000 0.359211 0.359211 0.359211 0.359211 0.359211 0.384900 0.384900 0.384900 0.384900 0.348155 0.348155 0.348155 0.348155 0.348155 0.371391 0.371391 0.371391 0.371391 0.359211 0.359211 0.359211 0.359211 0.359211 0.359211 0.359211 0.359211 0.348155 0.348155 0.348155 0.348155 0.348155 0.348155 0.348155 0.348155 0.384900 0.384900 0.384900 0.338062 0.338062 0.338062 0.338062 0.328798 0.328798 0.328798 0.328798 0.371391 0.371391 0.371391 0.320256 0.320256 0.320256 0.320256 0.359211 0.359211 0.359211 0.348155 0.348155 0.348155 0.312348 0.312348 0.312348 0.312348 0.348155 0.348155 0.348155 0.338062 0.338062 0.338062 0.338062 0.338062 0.338062 0.328798 0.328798 0.328798 0.328798 0.328798 0.328798 0.328798 0.328798 0.328798 0.320256 0.320256 0.320256 0.320256 0.320256 0.320256 0.312348 0.312348 0.312348 0.312348 0.312348 0.312348 0.359211 0.359211 0.304997 0.304997 0.304997 0.304997 0.304997 0.304997 0.298142 0.298142 0.298142 0.348155 0.348155 0.298142 0.298142 0.298142 0.338062 0.338062 0.291730 0.291730 0.291730 0.285714 0.285714 0.285714 0.328798 0.328798 0.285714 0.285714 0.285714 0.328798 0.328798 0.320256 0.320256 0.274721 0.274721 0.274721 0.320256 0.320256 0.274721 0.274721 0.274721 0.312348 0.312348 0.312348 0.312348 0.264906 0.264906 0.264906 0.304997 0.304997 0.304997 0.304997 0.260378 0.260378 0.260378 0.298142 0.298142 0.298142 0.298142 0.298142 0.298142 0.291730 0.291730 0.251976 0.251976 0.251976 0.291730 0.291730 0.285714 0.285714 0.285714 0.285714 0.285714 0.285714 0.285714 0.285714 0.280056 0.280056 0.280056 0.280056 0.240772 0.240772 0.240772 0.274721 0.274721 0.274721 0.274721 0.274721 0.274721 0.269680 0.269680 0.269680 0.269680 0.269680 0.269680 0.269680 0.269680 0.264906 0.264906 0.264906 0.264906 0.320256 0.260378 0.260378 0.260378 0.260378 0.260378 0.260378 0.256074 0.256074 0.256074 0.256074 0.256074 0.256074 0.256074 0.256074 0.251976 0.251976 0.304997 0.251976 0.251976 0.248069 0.248069 0.248069 0.248069 0.248069 0.248069 0.298142 0.244339 0.244339 0.244339 0.244339 0.244339 0.244339 0.244339
