# Output from CTFFind version 4.1.9, run on 2019-11-24 11:56:27
# Input file: stack1_bm3d_averaged_1_3.0_0_1500_half.mrc ; Number of micrographs: 1
# Pixel size: 1.500 Angstroms ; acceleration voltage: 300.0 keV ; spherical aberration: 0.00 mm ; amplitude contrast: 0.07
# Box size: 512 pixels ; min. res.: 40.0 Angstroms ; max. res.: 6.0 Angstroms ; min. def.: 5000.0 um; max. def. 50000.0 um; num. frames averaged: 1
# 6 lines per micrograph: #1 - spatial frequency (1/Angstroms); #2 - 1D rotational average of spectrum (assuming no astigmatism); #3 - 1D rotational average of spectrum; #4 - CTF fit; #5 - cross-correlation between spectrum and CTF fit; #6 - 2sigma of expected cross correlation of noise
0.000000 0.001302 0.002604 0.003906 0.005208 0.006510 0.007812 0.009115 0.010417 0.011719 0.013021 0.014323 0.015625 0.016927 0.018229 0.019531 0.020833 0.022135 0.023438 0.024740 0.026042 0.027344 0.028646 0.029948 0.031250 0.032552 0.033854 0.035156 0.036458 0.037760 0.039062 0.040365 0.041667 0.042969 0.044271 0.045573 0.046875 0.048177 0.049479 0.050781 0.052083 0.053385 0.054688 0.055990 0.057292 0.058594 0.059896 0.061198 0.062500 0.063802 0.065104 0.066406 0.067708 0.069010 0.070312 0.071615 0.072917 0.074219 0.075521 0.076823 0.078125 0.079427 0.080729 0.082031 0.083333 0.084635 0.085938 0.087240 0.088542 0.089844 0.091146 0.092448 0.093750 0.095052 0.096354 0.097656 0.098958 0.100260 0.101562 0.102865 0.104167 0.105469 0.106771 0.108073 0.109375 0.110677 0.111979 0.113281 0.114583 0.115885 0.117188 0.118490 0.119792 0.121094 0.122396 0.123698 0.125000 0.126302 0.127604 0.128906 0.130208 0.131510 0.132812 0.134115 0.135417 0.136719 0.138021 0.139323 0.140625 0.141927 0.143229 0.144531 0.145833 0.147135 0.148438 0.149740 0.151042 0.152344 0.153646 0.154948 0.156250 0.157552 0.158854 0.160156 0.161458 0.162760 0.164062 0.165365 0.166667 0.167969 0.169271 0.170573 0.171875 0.173177 0.174479 0.175781 0.177083 0.178385 0.179688 0.180990 0.182292 0.183594 0.184896 0.186198 0.187500 0.188802 0.190104 0.191406 0.192708 0.194010 0.195312 0.196615 0.197917 0.199219 0.200521 0.201823 0.203125 0.204427 0.205729 0.207031 0.208333 0.209635 0.210938 0.212240 0.213542 0.214844 0.216146 0.217448 0.218750 0.220052 0.221354 0.222656 0.223958 0.225260 0.226562 0.227865 0.229167 0.230469 0.231771 0.233073 0.234375 0.235677 0.236979 0.238281 0.239583 0.240885 0.242188 0.243490 0.244792 0.246094 0.247396 0.248698 0.250000 0.251302 0.252604 0.253906 0.255208 0.256510 0.257812 0.259115 0.260417 0.261719 0.263021 0.264323 0.265625 0.266927 0.268229 0.269531 0.270833 0.272135 0.273438 0.274740 0.276042 0.277344 0.278646 0.279948 0.281250 0.282552 0.283854 0.285156 0.286458 0.287760 0.289062 0.290365 0.291667 0.292969 0.294271 0.295573 0.296875 0.298177 0.299479 0.300781 0.302083 0.303385 0.304688 0.305990 0.307292 0.308594 0.309896 0.311198 0.312500 0.313802 0.315104 0.316406 0.317708 0.319010 0.320312 0.321615 0.322917 0.324219 0.325521 0.326823 0.328125 0.329427 0.330729 0.332031 0.333333 0.334635 0.335938 0.337240 0.338542 0.339844 0.341146 0.342448 0.343750 0.345052 0.346354 0.347656 0.348958 0.350260 0.351562 0.352865 0.354167 0.355469 0.356771 0.358073 0.359375 0.360677 0.361979 0.363281 0.364583 0.365885 0.367188 0.368490 0.369792 0.371094 0.372396 0.373698 0.375000 0.376302 0.377604 0.378906 0.380208 0.381510 0.382812 0.384115 0.385417 0.386719 0.388021 0.389323 0.390625 0.391927 0.393229 0.394531 0.395833 0.397135 0.398438 0.399740 0.401042 0.402344 0.403646 0.404948 0.406250 0.407552 0.408854 0.410156 0.411458 0.412760 0.414062 0.415365 0.416667 0.417969 0.419271 0.420573 0.421875 0.423177 0.424479 0.425781 0.427083 0.428385 0.429688 0.430990 0.432292 0.433594 0.434896 0.436198 0.437500 0.438802 0.440104 0.441406 0.442708 0.444010 0.445312 0.446615 0.447917 0.449219 0.450521 0.451823 0.453125 0.454427 0.455729 0.457031 0.458333 0.459635 0.460938 0.462240 0.463542 0.464844 0.466146 0.467448 0.468750 0.470052 0.471354
       0.69947        0.69947        0.69947        0.69947        0.69947        0.69947        0.69947        0.69947        0.69947        0.69947        0.69947        0.69947        0.69947        0.69947        0.69947        0.69947        0.69947        0.69947        0.69947        1.57022        2.30842        1.13214        0.33980        0.19706        0.73776        1.32083        1.21899        0.72618        0.46418        0.44976        0.43990        0.38841        0.43672        0.49516        0.39037        0.28356        0.19537        0.15109        0.08326        0.05735        0.08456        0.20011        0.44393        0.69204        0.81777        0.80943        0.78144        0.85687        1.05275        1.21427        1.13011        0.78249        0.48037        0.46069        0.59701        0.62396        0.51889        0.44516        0.46305        0.51810        0.63071        0.76331        0.91777        0.97398        0.91342        0.78099        0.66665        0.64860        0.65386        0.65172        0.67968        0.78660        0.87419        0.80962        0.69637        0.65423        0.65728        0.63703        0.61849        0.67640        0.77454        0.76947        0.68500        0.56595        0.55410        0.62421        0.72529        0.75481        0.70061        0.61236        0.55993        0.59577        0.66795        0.73353        0.71106        0.67541        0.70042        0.77985        0.81332        0.76315        0.72543        0.73071        0.74747        0.73799        0.71989        0.71479        0.68128        0.64842        0.61546        0.59466        0.58540        0.62921        0.69302        0.74715        0.76221        0.76865        0.75314        0.72633        0.67923        0.63414        0.61466        0.62321        0.68713        0.76841        0.77997        0.72273        0.67547        0.69581        0.74072        0.72158        0.67806        0.67094        0.67753        0.66228        0.62690        0.64026        0.66873        0.66898        0.68175        0.73751        0.79720        0.77660        0.71976        0.71250        0.73412        0.72859        0.70661        0.68574        0.68253        0.66088        0.66322        0.70418        0.74701        0.70674        0.58145        0.50230        0.54554        0.70312        0.82002        0.80180        0.71267        0.66662        0.67885        0.68105        0.66974        0.67880        0.70942        0.73497        0.75552        0.78260        0.77001        0.74241        0.74266        0.75956        0.74933        0.69023        0.63819        0.62403        0.62738        0.63484        0.65538        0.67849        0.71603        0.76049        0.78005        0.75838        0.74336        0.77144        0.79082        0.74602        0.67173        0.63635        0.63970        0.63922        0.61329        0.60129        0.63385        0.69095        0.74405        0.73647        0.67919        0.63721        0.65277        0.68544        0.72598        0.75103        0.74309        0.68926        0.66532        0.73162        0.80571        0.78908        0.71345        0.67642        0.68173        0.68300        0.68977        0.73364        0.76002        0.73040        0.67321        0.65464        0.65758        0.66022        0.66495        0.69161        0.72271        0.74436        0.73495        0.71975        0.70487        0.70393        0.70269        0.68257        0.66318        0.67993        0.70868        0.71466        0.68847        0.66381        0.64826        0.64818        0.67101        0.70834        0.74898        0.78400        0.80072        0.78992        0.74830        0.72252        0.71971        0.71779        0.69840        0.67325        0.64547        0.62000        0.61521        0.63385        0.67339        0.73152        0.75594        0.75033        0.73310        0.69763        0.67879        0.69269        0.68547        0.66028        0.64778        0.66173        0.68439        0.71909        0.76858        0.77148        0.69569        0.61886        0.62447        0.65806        0.67873        0.69722        0.76134        0.81465        0.79127        0.74105        0.68811        0.64572        0.59872        0.53350        0.54479        0.65225        0.78300        0.82013        0.74797        0.73111        0.75945        0.74265        0.67999        0.65307        0.70111        0.67464        0.57622        0.58703        0.70444        0.71521        0.57140        0.54431        0.71496        0.77318        0.68362        0.67059        0.79472        0.82945        0.75096        0.66598        0.75075        0.86084        0.88509        0.81561        0.72874        0.64625        0.59497        0.63864        0.72658        0.70989        0.60557        0.62345        0.72319        0.77966        0.69713        0.50420        0.48208        0.68330        0.89383        0.83067        0.60571        0.58698        0.78062        0.83286        0.63667        0.56512        0.75568        0.86884        0.75197        0.67037        0.69336        0.71208        0.61176        0.57002        0.56649        0.51752        0.51601        0.68308        0.85975        0.82613        0.61746        0.54110        0.64348        0.59570        0.26786       -0.17859       -0.51942       -0.64621       -0.68565
0.699472 0.699472 0.699472 0.699472 0.699472 0.699472 0.699472 0.699472 0.699472 0.699472 0.699472 0.699472 0.699472 0.699472 0.699472 0.699472 0.699472 0.699472 0.699472 1.608035 2.359201 1.310166 0.311860 0.087916 0.627225 1.452328 1.206543 0.717721 0.496714 0.490638 0.342232 0.383451 0.480177 0.494230 0.413936 0.287114 0.185925 0.175666 0.069810 0.096380 0.081823 0.166721 0.393118 0.736253 0.818557 0.794036 0.783165 0.810606 1.030278 1.198957 1.223733 0.810368 0.495672 0.451675 0.646870 0.573949 0.541225 0.382528 0.450464 0.561306 0.615563 0.748036 0.899246 0.973045 0.962442 0.736961 0.710762 0.639205 0.638759 0.665783 0.652638 0.812643 0.850483 0.847689 0.720404 0.654027 0.674833 0.595474 0.605869 0.672733 0.752501 0.790242 0.723239 0.574351 0.545055 0.601738 0.693436 0.751478 0.702749 0.643350 0.544249 0.593358 0.647930 0.733436 0.697117 0.680400 0.666681 0.770733 0.843381 0.795467 0.686409 0.815611 0.724114 0.733309 0.715700 0.721056 0.697038 0.679188 0.625571 0.586598 0.576605 0.598644 0.682435 0.726870 0.762101 0.760034 0.729542 0.748592 0.706818 0.654160 0.629878 0.601222 0.647924 0.749344 0.816938 0.742779 0.672126 0.692405 0.732044 0.736143 0.695382 0.664786 0.665090 0.676020 0.642235 0.646286 0.661295 0.655896 0.685465 0.705339 0.789515 0.808029 0.741481 0.700725 0.709784 0.724439 0.745652 0.693258 0.677306 0.659188 0.645823 0.668686 0.759595 0.743179 0.607243 0.532836 0.503915 0.628839 0.803930 0.833972 0.728433 0.667283 0.682803 0.701413 0.662041 0.664802 0.693160 0.732121 0.735014 0.774348 0.780938 0.743788 0.727832 0.781371 0.768856 0.692242 0.676910 0.633406 0.633158 0.641523 0.624358 0.687474 0.685526 0.726414 0.770453 0.769477 0.729139 0.755001 0.809733 0.802819 0.692984 0.646753 0.620241 0.643098 0.657887 0.594162 0.611660 0.652820 0.723535 0.743597 0.730768 0.637155 0.636533 0.665302 0.687681 0.734405 0.773097 0.732294 0.670844 0.673375 0.764443 0.816434 0.753783 0.663008 0.687525 0.678920 0.687904 0.703469 0.764936 0.754802 0.703486 0.655601 0.643068 0.651307 0.674743 0.650731 0.696670 0.726513 0.749930 0.722711 0.732482 0.691666 0.712577 0.696168 0.663109 0.672315 0.701318 0.699442 0.695250 0.696582 0.656803 0.634548 0.643007 0.678170 0.731162 0.776729 0.801598 0.786649 0.789690 0.740917 0.711087 0.737318 0.703893 0.688098 0.666701 0.643978 0.609877 0.625170 0.631837 0.674552 0.760463 0.769993 0.767856 0.714460 0.687206 0.689782 0.682764 0.681704 0.647635 0.651132 0.674683 0.668982 0.726284 0.772104 0.783345 0.662542 0.600631 0.621876 0.672783 0.678442 0.712958 0.776686 0.807823 0.784073 0.719195 0.675467 0.648108 0.569089 0.535896 0.575969 0.682436 0.799964 0.828081 0.720774 0.757953 0.798540 0.710370 0.660688 0.663181 0.722826 0.649974 0.541964 0.611739 0.713777 0.683565 0.574431 0.525985 0.711942 0.800199 0.667043 0.688465 0.839743 0.850267 0.761561 0.633980 0.806067 0.905441 0.851406 0.800930 0.705280 0.639015 0.591321 0.599230 0.726468 0.723324 0.633210 0.631118 0.767781 0.776182 0.689564 0.504900 0.443023 0.707563 0.922656 0.822144 0.578480 0.663874 0.767403 0.825718 0.582863 0.612084 0.799188 0.858921 0.842130 0.594226 0.695255 0.726373 0.671618 0.481161 0.577632 0.508651 0.475157 0.640038 1.003803 0.614415 0.590929 0.549897 0.672551 0.567691 0.138797 -0.309118 -0.618147 -0.685653
0.072396 0.073467 0.076677 0.082026 0.089511 0.099127 0.110867 0.124721 0.140677 0.158716 0.178814 0.200941 0.225058 0.251116 0.279055 0.308801 0.340268 0.373351 0.407926 0.443849 0.480956 0.519057 0.557935 0.597347 0.637023 0.676661 0.715928 0.754461 0.791866 0.827720 0.861569 0.892933 0.921308 0.946170 0.966978 0.983184 0.994233 0.999576 0.998680 0.991033 0.976157 0.953626 0.923069 0.884192 0.836789 0.780756 0.716110 0.642996 0.561708 0.472696 0.376577 0.274149 0.166386 0.054449 0.060321 0.176410 0.292141 0.405694 0.515129 0.618415 0.713469 0.798196 0.870541 0.928537 0.970368 0.994429 0.999388 0.984248 0.948411 0.891731 0.814565 0.717813 0.602944 0.472010 0.327643 0.173024 0.011843 0.151769 0.313338 0.468154 0.611410 0.738356 0.844464 0.925610 0.978254 0.999620 0.987862 0.942209 0.863087 0.752199 0.612554 0.448455 0.265418 0.070036 0.130227 0.327291 0.512779 0.678375 0.816213 0.919281 0.981819 0.999694 0.970717 0.894891 0.774568 0.614483 0.421666 0.205219 0.024051 0.254122 0.472367 0.666240 0.824026 0.935600 0.993137 0.991750 0.929973 0.810076 0.638137 0.423880 0.180237 0.077341 0.331797 0.565588 0.761893 0.905883 0.985928 0.994642 0.929687 0.794235 0.597024 0.351971 0.077344 0.205505 0.473736 0.704858 0.878667 0.979113 0.995918 0.925793 0.773091 0.549802 0.274826 0.027454 0.329213 0.601701 0.818005 0.955805 0.999835 0.943774 0.791326 0.556308 0.261671 0.062536 0.382088 0.662145 0.871104 0.984300 0.987127 0.877181 0.665082 0.373800 0.036447 0.307286 0.615705 0.850202 0.980226 0.987515 0.868954 0.637625 0.321764 0.038364 0.395384 0.700963 0.912417 0.998891 0.946171 0.759372 0.462984 0.098060 0.283136 0.624503 0.874338 0.993395 0.961368 0.780782 0.477452 0.097288 0.300304 0.651541 0.898508 0.998963 0.933944 0.711836 0.367925 0.040693 0.444246 0.772078 0.965152 0.987020 0.831215 0.523481 0.118148 0.310982 0.683848 0.929098 0.998062 0.874932 0.580966 0.171530 0.273754 0.666210 0.925777 0.997661 0.864488 0.551132 0.120869 0.336820 0.724552 0.957837 0.983893 0.794259 0.428068 0.035220 0.492493 0.839753 0.995957 0.922528 0.633654 0.194559 0.292457 0.711441 0.960403 0.976613 0.753199 0.342497 0.155277 0.615908 0.922039 0.993459 0.808904 0.413294 0.092161 0.575160 0.906726 0.996001 0.815960 0.412584 0.105748 0.596659 0.922640 0.989970 0.776578 0.340310 0.195605 0.676602 0.961265 0.963418 0.679275 0.190750 0.357018 0.798149 0.996365 0.887846 0.502996 0.040654 0.573312 0.925580 0.982763 0.723279 0.228054 0.343392 0.803578 0.998616 0.860555 0.432410 0.143676 0.672562 0.971930 0.935797 0.573352 0.008518 0.561088 0.932787 0.971389 0.659651 0.107339 0.485912 0.902053 0.985082 0.700758 0.152322 0.455347 0.891476 0.987264 0.702497 0.144126 0.472199 0.904561 0.980015 0.665141 0.082584 0.534968 0.936937 0.956974 0.583312 0.032925 0.637165 0.975907 0.903806 0.447761 0.200831 0.764855 0.999573 0.799890 0.249402 0.412447 0.893232 0.976939 0.622539 0.013800 0.645538 0.984024 0.871162 0.355265 0.327183 0.858318 0.986908 0.648679 0.000746 0.649175 0.988027 0.849036 0.295965 0.403521 0.905833 0.960312 0.536136 0.157910 0.774001 0.999073 0.715182 0.063840 0.621981 0.986870 0.837983 0.249326 0.472164 0.945010 0.915173 0.394711 0.339670 0.891677 0.959136 0.501365 0.233557 0.840812 0.981398 0.573084 0.158564 0.802141 0.991053 0.613900
1.000000 1.000000 1.000000 1.000000 1.000000 1.000000 1.000000 1.000000 1.000000 1.000000 1.000000 1.000000 1.000000 1.000000 1.000000 1.000000 1.000000 1.000000 1.000000 1.000000 -0.139183 -0.139183 -0.139183 -0.139183 -0.139183 -0.139183 -0.139183 -0.139183 -0.139183 -0.139183 -0.139183 -0.139183 -0.139183 -0.139183 -0.139183 -0.139183 -0.139183 -0.139183 -0.216967 -0.216967 -0.216967 -0.216967 -0.216967 -0.216967 -0.216967 -0.216967 -0.216967 -0.216967 -0.216967 -0.216967 -0.216967 -0.216967 -0.216967 -0.216967 -0.217456 -0.200949 -0.174652 -0.163273 -0.178092 -0.204413 -0.209854 -0.208013 -0.198175 -0.195738 -0.182383 -0.162370 -0.102625 -0.068239 -0.016387 0.017934 0.033052 0.044473 0.045473 0.016742 0.039961 0.055668 0.075249 0.086617 0.103992 0.125104 0.158936 0.215448 0.246256 0.257401 0.245743 0.234992 0.169338 0.157410 0.147247 0.138552 0.197157 0.283720 0.317144 0.361647 0.362341 0.375237 0.393230 0.419220 0.433121 0.499641 0.510957 0.513255 0.523634 0.524949 0.491009 0.473180 0.507969 0.562312 0.596533 0.602379 0.608319 0.608576 0.603865 0.595222 0.555253 0.723552 0.683817 0.603871 0.559497 0.535291 0.526935 0.524811 0.496467 0.489546 0.479882 0.475386 0.481053 0.494449 0.483143 0.439476 0.445116 0.432507 0.366864 0.282070 0.266476 0.224584 0.148171 0.077034 0.057227 0.088953 0.089296 0.018079 0.025255 0.068737 0.066566 0.059658 0.056657 0.006986 0.007965 -0.029519 -0.094492 -0.107836 -0.118772 -0.137020 -0.122856 -0.099435 -0.076819 -0.069219 -0.010163 0.054639 0.108603 0.096080 0.126997 0.110199 0.093126 0.084689 0.092599 0.047953 0.046502 0.000240 0.011882 -0.001206 0.001935 -0.022225 0.076783 0.141553 0.165432 0.227724 0.216075 0.211937 0.243231 0.237616 0.216328 0.257524 0.271607 0.263056 0.292263 0.339759 0.352010 0.393767 0.383865 0.422306 0.442791 0.458705 0.385878 0.342414 0.332162 0.362320 0.357324 0.382405 0.362656 0.314133 0.339075 0.360506 0.387562 0.352990 0.308126 0.309444 0.319936 0.358004 0.338871 0.360383 0.365766 0.355578 0.372603 0.327032 0.364521 0.349349 0.367750 0.358464 0.390455 0.370906 0.311792 0.310388 0.316867 0.263058 0.203080 0.245505 0.198902 0.198667 0.173380 0.218850 0.225586 0.240413 0.212446 0.216687 0.199057 0.190667 0.174807 0.139911 0.147493 0.151137 0.142288 0.165221 0.187141 0.184540 0.110789 0.098530 0.122141 0.162267 0.170939 0.213645 0.222407 0.264751 0.279689 0.254544 0.203847 0.194074 0.160078 0.139005 0.194125 0.206776 0.186790 0.144609 0.114807 0.124752 0.163907 0.124376 0.023055 0.039963 0.065763 0.064270 0.059256 0.081733 0.050485 0.056041 0.071427 0.090521 0.094550 0.166854 0.195236 0.224849 0.239437 0.272160 0.302330 0.304259 0.251429 0.264605 0.214271 0.218997 0.171929 0.155408 0.136921 0.190912 0.214936 0.205810 0.222526 0.207640 0.150324 0.142079 0.136094 0.129722 0.116696 0.118543 0.133301 0.157782 0.119676 0.147965 0.126473 0.090168 0.059862 0.047114 0.011476 -0.013643 0.112846 0.126251 0.087909 0.062344 -0.063476 -0.064252 -0.053795 -0.071110 -0.060186 -0.131919 -0.132928 -0.215336 -0.194031 -0.016995 -0.033538 -0.010095 -0.055979 -0.020181 -0.185182 -0.167585 -0.150134 -0.116910 -0.181361 -0.142501 -0.164992 -0.164992 -0.040763 -0.040763 -0.040763 -0.040763 -0.040763 -0.168244 -0.168244 -0.168244 -0.168244 -0.168244 -0.168244 -0.168244 -0.168244 -0.153676 -0.153676 -0.153676 -0.153676 -0.153676 -0.153676 -0.153676 -0.153676 -0.153676 -0.153676
0.000000 0.000000 0.000000 0.000000 2756687337826640384.000000 1184588829621575424.000000 628134645607044736.000000 862954045259374592.000000 396028218036712832.000000 334155125310554432.000000 1382416260010034688.000000 868747372003848320.000000 522549295911655488.000000 870861732817543808.000000 759626340595186176.000000 633897185922677248.000000 312401287776510784.000000 1091551858576443648.000000 1137391597899161216.000000 422903305922866368.000000 0.216930 0.216930 0.216930 0.216930 0.216930 0.216930 0.216930 0.216930 0.216930 0.216930 0.216930 0.216930 0.216930 0.216930 0.216930 0.216930 0.216930 0.216930 0.240772 0.240772 0.240772 0.240772 0.240772 0.240772 0.240772 0.240772 0.240772 0.240772 0.240772 0.240772 0.240772 0.240772 0.240772 0.240772 0.240772 0.240772 0.240772 0.240772 0.240772 0.240772 0.240772 0.240772 0.240772 0.240772 0.240772 0.240772 0.269680 0.269680 0.269680 0.269680 0.269680 0.269680 0.269680 0.269680 0.269680 0.269680 0.269680 0.269680 0.269680 0.269680 0.269680 0.269680 0.269680 0.269680 0.269680 0.269680 0.298142 0.298142 0.298142 0.298142 0.298142 0.298142 0.298142 0.298142 0.298142 0.298142 0.298142 0.298142 0.298142 0.298142 0.298142 0.298142 0.298142 0.298142 0.298142 0.298142 0.298142 0.298142 0.298142 0.298142 0.298142 0.298142 0.298142 0.298142 0.298142 0.312348 0.312348 0.312348 0.312348 0.312348 0.312348 0.312348 0.312348 0.312348 0.312348 0.312348 0.312348 0.312348 0.312348 0.312348 0.312348 0.312348 0.312348 0.312348 0.312348 0.312348 0.312348 0.312348 0.320256 0.320256 0.320256 0.320256 0.320256 0.320256 0.320256 0.320256 0.320256 0.320256 0.312348 0.312348 0.312348 0.312348 0.312348 0.312348 0.312348 0.312348 0.312348 0.312348 0.312348 0.312348 0.312348 0.312348 0.312348 0.312348 0.312348 0.312348 0.312348 0.304997 0.304997 0.304997 0.304997 0.304997 0.304997 0.304997 0.304997 0.304997 0.320256 0.320256 0.320256 0.320256 0.320256 0.320256 0.320256 0.320256 0.312348 0.312348 0.312348 0.312348 0.312348 0.312348 0.312348 0.312348 0.320256 0.320256 0.320256 0.320256 0.320256 0.320256 0.320256 0.312348 0.312348 0.312348 0.312348 0.312348 0.312348 0.312348 0.312348 0.312348 0.312348 0.312348 0.312348 0.312348 0.312348 0.304997 0.304997 0.304997 0.304997 0.304997 0.304997 0.304997 0.298142 0.298142 0.298142 0.298142 0.298142 0.298142 0.298142 0.312348 0.312348 0.312348 0.312348 0.312348 0.312348 0.304997 0.304997 0.304997 0.304997 0.304997 0.304997 0.304997 0.304997 0.304997 0.304997 0.304997 0.304997 0.298142 0.298142 0.298142 0.298142 0.298142 0.298142 0.291730 0.291730 0.291730 0.291730 0.291730 0.291730 0.291730 0.291730 0.291730 0.291730 0.291730 0.291730 0.304997 0.304997 0.304997 0.304997 0.304997 0.280056 0.280056 0.280056 0.280056 0.280056 0.280056 0.298142 0.298142 0.298142 0.298142 0.298142 0.298142 0.298142 0.298142 0.298142 0.298142 0.291730 0.291730 0.291730 0.291730 0.291730 0.285714 0.285714 0.285714 0.285714 0.285714 0.285714 0.285714 0.285714 0.285714 0.285714 0.280056 0.280056 0.280056 0.280056 0.280056 0.280056 0.280056 0.280056 0.280056 0.280056 0.274721 0.274721 0.274721 0.274721 0.274721 0.298142 0.298142 0.298142 0.298142 0.269680 0.269680 0.269680 0.269680 0.269680 0.291730 0.291730 0.291730 0.291730 0.264906 0.264906 0.264906 0.264906 0.264906 0.285714 0.285714 0.285714 0.285714 0.280056 0.280056 0.280056 0.280056 0.256074 0.256074 0.256074 0.256074 0.256074 0.274721 0.274721 0.274721 0.274721 0.274721 0.274721 0.274721 0.274721 0.269680 0.269680 0.269680 0.269680 0.269680 0.269680 0.269680 0.269680 0.269680 0.269680
