# Output from CTFFind version 4.1.9, run on 2019-11-24 11:56:26
# Input file: stack1_bm3d_averaged_1_4.0_0_1500_half.mrc ; Number of micrographs: 1
# Pixel size: 1.500 Angstroms ; acceleration voltage: 300.0 keV ; spherical aberration: 0.00 mm ; amplitude contrast: 0.07
# Box size: 512 pixels ; min. res.: 40.0 Angstroms ; max. res.: 6.0 Angstroms ; min. def.: 5000.0 um; max. def. 50000.0 um; num. frames averaged: 1
# 6 lines per micrograph: #1 - spatial frequency (1/Angstroms); #2 - 1D rotational average of spectrum (assuming no astigmatism); #3 - 1D rotational average of spectrum; #4 - CTF fit; #5 - cross-correlation between spectrum and CTF fit; #6 - 2sigma of expected cross correlation of noise
0.000000 0.001302 0.002604 0.003906 0.005208 0.006510 0.007812 0.009115 0.010417 0.011719 0.013021 0.014323 0.015625 0.016927 0.018229 0.019531 0.020833 0.022135 0.023438 0.024740 0.026042 0.027344 0.028646 0.029948 0.031250 0.032552 0.033854 0.035156 0.036458 0.037760 0.039062 0.040365 0.041667 0.042969 0.044271 0.045573 0.046875 0.048177 0.049479 0.050781 0.052083 0.053385 0.054688 0.055990 0.057292 0.058594 0.059896 0.061198 0.062500 0.063802 0.065104 0.066406 0.067708 0.069010 0.070312 0.071615 0.072917 0.074219 0.075521 0.076823 0.078125 0.079427 0.080729 0.082031 0.083333 0.084635 0.085938 0.087240 0.088542 0.089844 0.091146 0.092448 0.093750 0.095052 0.096354 0.097656 0.098958 0.100260 0.101562 0.102865 0.104167 0.105469 0.106771 0.108073 0.109375 0.110677 0.111979 0.113281 0.114583 0.115885 0.117188 0.118490 0.119792 0.121094 0.122396 0.123698 0.125000 0.126302 0.127604 0.128906 0.130208 0.131510 0.132812 0.134115 0.135417 0.136719 0.138021 0.139323 0.140625 0.141927 0.143229 0.144531 0.145833 0.147135 0.148438 0.149740 0.151042 0.152344 0.153646 0.154948 0.156250 0.157552 0.158854 0.160156 0.161458 0.162760 0.164062 0.165365 0.166667 0.167969 0.169271 0.170573 0.171875 0.173177 0.174479 0.175781 0.177083 0.178385 0.179688 0.180990 0.182292 0.183594 0.184896 0.186198 0.187500 0.188802 0.190104 0.191406 0.192708 0.194010 0.195312 0.196615 0.197917 0.199219 0.200521 0.201823 0.203125 0.204427 0.205729 0.207031 0.208333 0.209635 0.210938 0.212240 0.213542 0.214844 0.216146 0.217448 0.218750 0.220052 0.221354 0.222656 0.223958 0.225260 0.226562 0.227865 0.229167 0.230469 0.231771 0.233073 0.234375 0.235677 0.236979 0.238281 0.239583 0.240885 0.242188 0.243490 0.244792 0.246094 0.247396 0.248698 0.250000 0.251302 0.252604 0.253906 0.255208 0.256510 0.257812 0.259115 0.260417 0.261719 0.263021 0.264323 0.265625 0.266927 0.268229 0.269531 0.270833 0.272135 0.273438 0.274740 0.276042 0.277344 0.278646 0.279948 0.281250 0.282552 0.283854 0.285156 0.286458 0.287760 0.289062 0.290365 0.291667 0.292969 0.294271 0.295573 0.296875 0.298177 0.299479 0.300781 0.302083 0.303385 0.304688 0.305990 0.307292 0.308594 0.309896 0.311198 0.312500 0.313802 0.315104 0.316406 0.317708 0.319010 0.320312 0.321615 0.322917 0.324219 0.325521 0.326823 0.328125 0.329427 0.330729 0.332031 0.333333 0.334635 0.335938 0.337240 0.338542 0.339844 0.341146 0.342448 0.343750 0.345052 0.346354 0.347656 0.348958 0.350260 0.351562 0.352865 0.354167 0.355469 0.356771 0.358073 0.359375 0.360677 0.361979 0.363281 0.364583 0.365885 0.367188 0.368490 0.369792 0.371094 0.372396 0.373698 0.375000 0.376302 0.377604 0.378906 0.380208 0.381510 0.382812 0.384115 0.385417 0.386719 0.388021 0.389323 0.390625 0.391927 0.393229 0.394531 0.395833 0.397135 0.398438 0.399740 0.401042 0.402344 0.403646 0.404948 0.406250 0.407552 0.408854 0.410156 0.411458 0.412760 0.414062 0.415365 0.416667 0.417969 0.419271 0.420573 0.421875 0.423177 0.424479 0.425781 0.427083 0.428385 0.429688 0.430990 0.432292 0.433594 0.434896 0.436198 0.437500 0.438802 0.440104 0.441406 0.442708 0.444010 0.445312 0.446615 0.447917 0.449219 0.450521 0.451823 0.453125 0.454427 0.455729 0.457031 0.458333 0.459635 0.460938 0.462240 0.463542 0.464844 0.466146 0.467448 0.468750 0.470052 0.471354
       0.71269        0.71269        0.71269        0.71269        0.71269        0.71269        0.71269        0.71269        0.71269        0.71269        0.71269        0.71269        0.71269        0.71270        0.71270        0.71269        0.71269        0.71269        0.71269        1.53623        2.23030        1.13541        0.32380        0.14271        0.70591        1.33590        1.28824        0.79143        0.48233        0.44971        0.47325        0.46783        0.48115        0.45358        0.35078        0.36325        0.39663        0.32283        0.19013        0.16438        0.23431        0.28537        0.36556        0.53217        0.73683        0.84898        0.85363        0.87941        1.03836        1.17823        1.08070        0.76386        0.51468        0.51589        0.63480        0.69853        0.66900        0.60497        0.51172        0.44370        0.52976        0.71893        0.91775        0.97514        0.89425        0.74757        0.63937        0.63715        0.65746        0.65150        0.66435        0.75859        0.85927        0.82179        0.73527        0.71682        0.70894        0.65533        0.61197        0.67537        0.79664        0.80692        0.73041        0.60758        0.55373        0.58787        0.69683        0.77082        0.76834        0.71365        0.68990        0.69488        0.66535        0.63583        0.63750        0.70357        0.77404        0.82575        0.82333        0.76664        0.72689        0.74470        0.79094        0.76995        0.69153        0.66321        0.68062        0.69708        0.65677        0.63238        0.67265        0.72743        0.70484        0.64517        0.64553        0.72770        0.79437        0.78489        0.72981        0.69262        0.69396        0.67964        0.67318        0.68201        0.68332        0.68302        0.69439        0.72975        0.73827        0.70176        0.67034        0.71999        0.76719        0.75514        0.69096        0.67493        0.70102        0.72751        0.75868        0.78470        0.77982        0.72884        0.68493        0.69515        0.71519        0.72561        0.73183        0.74437        0.72054        0.64669        0.62127        0.67340        0.75621        0.75877        0.66072        0.60298        0.63452        0.71359        0.73257        0.68381        0.64992        0.66512        0.72545        0.75803        0.75727        0.71028        0.68293        0.70522        0.72405        0.68670        0.62501        0.67212        0.82537        0.92664        0.86311        0.70158        0.61283        0.64116        0.72059        0.73827        0.71458        0.69349        0.72865        0.77546        0.78140        0.72599        0.67938        0.67597        0.70191        0.71653        0.69763        0.64317        0.60946        0.63278        0.69275        0.72334        0.70411        0.68440        0.70607        0.73318        0.74074        0.75371        0.78079        0.78879        0.77221        0.73443        0.70683        0.69515        0.72869        0.79071        0.80484        0.73107        0.65074        0.64050        0.67587        0.68098        0.66961        0.69736        0.74687        0.76941        0.74740        0.72718        0.71345        0.69485        0.65874        0.65973        0.69310        0.74331        0.74948        0.70750        0.65996        0.64810        0.67250        0.72302        0.77283        0.76679        0.70281        0.63196        0.64220        0.70930        0.72880        0.69240        0.68914        0.72765        0.75885        0.74964        0.75523        0.79696        0.80409        0.77147        0.74229        0.73789        0.74250        0.72677        0.69084        0.66181        0.65518        0.64445        0.62892        0.60798        0.63433        0.69287        0.75775        0.76734        0.73212        0.71774        0.69500        0.66688        0.67860        0.75225        0.82197        0.82059        0.75643        0.67477        0.64515        0.67433        0.73005        0.71786        0.69086        0.68264        0.71402        0.73130        0.73346        0.76056        0.78697        0.77383        0.70845        0.64841        0.62078        0.63760        0.65316        0.65257        0.63773        0.68426        0.74240        0.69946        0.59803        0.58109        0.71465        0.80658        0.78443        0.77676        0.80753        0.76431        0.66131        0.66545        0.79887        0.81800        0.69909        0.58645        0.63198        0.68125        0.67170        0.70415        0.79050        0.78686        0.68359        0.65089        0.71282        0.77392        0.78098        0.79219        0.80138        0.72232        0.62614        0.63400        0.67884        0.67723        0.62836        0.59268        0.64425        0.68080        0.65189        0.57764        0.56638        0.66308        0.83127        0.93427        0.89307        0.80590        0.82039        0.87154        0.75878        0.50506        0.47406        0.77171        0.99646        0.82071        0.45472        0.39729        0.70728        1.07095        1.05480        0.78539        0.56462        0.57462        0.63180        0.46065        0.08987       -0.27664       -0.50622       -0.57789       -0.59821
3.807343 3.710258 3.614421 3.519833 3.426493 3.334403 3.243561 3.153967 3.065623 2.978527 2.892680 2.808081 2.724731 2.642630 2.561778 2.482174 2.403819 2.326712 2.250855 4.184337 5.746954 3.361668 0.989649 0.324848 1.568850 3.174057 3.298901 2.038607 1.037602 0.868550 0.750362 0.826796 0.890946 0.679580 0.300303 0.428761 0.343042 0.134047 -0.135091 -0.363081 -0.301966 -0.055071 -0.046718 0.318581 0.717553 1.003174 0.960184 0.898424 1.268345 1.637951 1.484707 0.588696 0.015802 -0.136013 0.304106 0.173288 0.233957 -0.029934 -0.116456 -0.383578 -0.382449 1.614424 -2.825285 -1.395617 -0.639716 -0.112664 0.150095 0.160356 0.168896 0.041421 0.051741 -0.214444 -0.406541 -0.395157 -0.100382 -0.004910 0.223845 -0.299469 -0.716086 -0.583697 0.467380 0.216282 0.108366 -0.051635 -0.064929 -0.233020 0.193842 0.268483 0.321156 0.173704 0.137539 0.165641 0.074368 -0.015195 -0.103858 0.103839 0.320865 0.414789 0.494801 0.379421 0.277205 0.154988 0.363988 0.266877 0.261677 -0.022485 -0.010462 0.051114 -0.017583 -0.090867 -0.040093 0.070234 0.016531 -0.023531 -0.051032 -0.010799 0.213601 0.236240 0.101866 -0.015398 0.098316 -0.040416 -0.013351 -0.426469 -0.326489 -0.074939 -0.755220 0.961016 -2.167296 0.381576 0.703468 0.242187 -1.997460 -0.941885 0.080426 0.524812 0.141654 -0.027066 0.186174 0.514958 -0.586440 -0.400285 0.194865 0.111092 0.049225 0.057443 0.049093 -0.036301 -0.040624 0.055268 0.166572 0.125362 -0.036912 -0.122319 0.035253 0.159977 0.189376 0.061717 -1.241771 0.141834 0.067464 -0.003439 0.146112 0.206789 0.127409 0.076862 -0.026470 -0.009017 0.117331 -0.048980 0.584196 0.664615 0.037713 -0.319623 -0.353892 -0.113992 0.273133 0.288857 0.160632 0.023270 0.053299 0.231678 0.220307 -0.117383 0.371306 0.209268 0.058296 0.012669 0.027121 0.094083 1.412143 -1.015981 -1.293308 -1.890769 -0.059479 0.066336 0.001962 -0.061846 0.004848 -0.027445 0.113870 -0.000754 0.080952 0.107007 0.073824 0.065797 -0.039173 -0.034465 -0.016138 0.011454 0.253098 0.172460 -0.011348 -0.244631 -0.102717 -0.091371 -0.052834 -0.113979 0.005975 0.119636 0.160218 0.048434 0.020373 -0.054040 -0.039318 -0.131449 -0.091486 0.064070 0.095299 0.086028 -0.078185 -0.095088 -0.122211 -0.063338 0.072293 0.208139 0.175541 -0.045176 -0.144816 -0.107561 0.037902 -0.046944 -0.058595 -0.067646 0.116803 0.112423 -0.053001 -0.070344 0.029744 0.091379 0.059729 -0.027548 0.033777 0.065239 0.032638 -0.015411 -0.053035 0.029209 -0.053448 -0.030192 -0.185322 -0.031228 0.086098 0.159552 0.142817 0.079115 -0.058564 -0.112663 -0.179519 -0.079762 0.090277 0.218341 0.189417 0.023708 -0.180029 -0.182744 -0.049743 0.111923 -0.104937 -0.077488 -0.080139 -0.121991 -0.045818 -0.016001 0.080759 0.154630 0.191207 -0.006451 -0.178792 -0.227815 -0.106153 0.008687 0.026071 -0.010320 0.118905 0.153845 0.069949 -0.300167 -0.271021 0.010969 0.178808 0.090742 0.122010 0.175972 -0.018187 -0.309036 -0.088967 0.177660 0.332131 0.071828 -0.271363 -0.314164 -0.165961 -0.105617 0.017545 0.217735 0.260277 -0.110823 -0.337600 -0.037810 0.066452 0.107569 0.147740 0.127018 0.063928 -0.055308 -0.102340 -0.026026 0.007263 0.156936 -0.110769 0.280495 0.233346 -0.030962 -0.165322 -0.339361 -0.178533 0.210332 0.326577 0.583101 0.019929 0.234696 0.450644 -0.124895 -0.450669 -0.262000 0.741314 0.659806 0.101976 -0.684089 -1.074078 -0.135381 0.727127 0.755113 0.175063 -0.367140 -0.135152 -0.114663 0.581335 0.148310 -0.695571 -1.100161 -1.381957
0.072396 0.074558 0.081040 0.091837 0.106934 0.126307 0.149920 0.177715 0.209609 0.245487 0.285188 0.328504 0.375160 0.424813 0.477033 0.531298 0.586979 0.643336 0.699507 0.754507 0.807223 0.856421 0.900751 0.938766 0.968938 0.989694 0.999451 0.996663 0.979881 0.947819 0.899422 0.833952 0.751071 0.650923 0.534218 0.402301 0.257217 0.101742 0.060601 0.225573 0.388274 0.543264 0.684718 0.806642 0.903135 0.968694 0.998562 0.989079 0.938051 0.845084 0.711862 0.542353 0.342888 0.122104 0.109287 0.338908 0.553317 0.738781 0.882200 0.972119 0.999775 0.960084 0.852479 0.681479 0.456910 0.193687 0.088898 0.368396 0.620897 0.823087 0.954536 0.999996 0.951459 0.809715 0.585141 0.297532 0.025173 0.349271 0.638652 0.858856 0.981406 0.987886 0.873181 0.647322 0.335470 0.024189 0.384644 0.695983 0.912391 0.999275 0.939407 0.736981 0.418646 0.030972 0.365651 0.706100 0.931297 0.998966 0.892417 0.625435 0.241945 0.190119 0.590173 0.879873 0.998917 0.918529 0.649569 0.242899 0.218859 0.637290 0.919043 0.997274 0.848746 0.502023 0.033923 0.446108 0.820959 0.994732 0.918451 0.605555 0.132060 0.380099 0.793531 0.992422 0.916254 0.580169 0.074840 0.455958 0.855308 0.999923 0.839876 0.418102 0.138236 0.654144 0.961320 0.954147 0.628344 0.087601 0.486718 0.895122 0.989846 0.730548 0.204291 0.400423 0.859367 0.995987 0.751579 0.213731 0.411409 0.876107 0.989507 0.698579 0.116410 0.517896 0.935542 0.952719 0.554690 0.090292 0.698396 0.993894 0.836000 0.289979 0.394824 0.895828 0.969346 0.572432 0.107744 0.737733 0.999888 0.754814 0.120318 0.579800 0.978263 0.858285 0.276182 0.458772 0.944931 0.908258 0.361307 0.393195 0.925449 0.923434 0.380337 0.390297 0.930729 0.910879 0.334706 0.450355 0.958000 0.864685 0.221221 0.566888 0.990501 0.767082 0.035474 0.722665 0.996447 0.592918 0.219649 0.882865 0.930163 0.319988 0.520774 0.989473 0.740543 0.052572 0.809566 0.964365 0.392685 0.479667 0.986847 0.731608 0.095999 0.850694 0.931602 0.265733 0.617212 0.999459 0.560563 0.344870 0.964517 0.772108 0.077944 0.863683 0.904506 0.156400 0.731468 0.973319 0.345804 0.595125 0.998111 0.488298 0.473612 0.997582 0.587660 0.378673 0.986976 0.649687 0.316807 0.977067 0.679567 0.291086 0.973994 0.680287 0.302570 0.979358 0.651925 0.350797 0.990286 0.591635 0.433590 0.999336 0.494290 0.545952 0.994427 0.354098 0.678420 0.959181 0.167077 0.814981 0.874306 0.065192 0.931603 0.720751 0.330980 0.996228 0.485352 0.603974 0.971986 0.168817 0.840722 0.825113 0.205044 0.983297 0.538155 0.582401 0.970103 0.126734 0.879995 0.756851 0.345819 0.999999 0.345037 0.765820 0.862581 0.191733 0.990180 0.452108 0.701250 0.897396 0.140643 0.985516 0.459643 0.710600 0.881462 0.196378 0.995754 0.368776 0.790690 0.805021 0.354690 0.995546 0.168612 0.909414 0.631958 0.593890 0.925143 0.146700 0.995898 0.318445 0.850826 0.701909 0.541514 0.937269 0.143782 0.998003 0.263215 0.893745 0.612832 0.660141 0.860164 0.346405 0.984446 0.003785 0.986470 0.322910 0.882989 0.600455 0.700139 0.808730 0.467394 0.939981 0.212798 0.996392 0.040136 0.987079 0.273838 0.925105 0.477025 0.824931 0.644079 0.700569 0.773938 0.564349 0.868872 0.426354 0.933285 0.294174 0.972714 0.173180 0.993014 0.066809 0.999804 0.022974 0.998116 0.095363 0.992165 0.150105 0.985286 0.187393 0.979889 0.207458 0.977459
1.000000 1.000000 1.000000 1.000000 1.000000 1.000000 1.000000 1.000000 1.000000 1.000000 1.000000 1.000000 1.000000 1.000000 1.000000 1.000000 1.000000 1.000000 1.000000 1.000000 0.408923 0.408923 0.408923 0.408923 0.408923 0.408923 0.408923 0.389750 0.389750 0.389750 0.389750 0.389750 0.389750 0.389750 0.389750 0.389750 0.389750 0.389750 0.389750 0.389750 0.389750 0.389750 0.389750 0.389750 0.389750 0.383953 0.428505 0.507929 0.509912 0.505040 0.490545 0.495150 0.408719 0.425539 0.441994 0.439782 0.397870 0.355507 0.323232 0.278436 0.301105 0.254665 0.225790 0.212263 0.235960 0.245725 0.237606 0.232507 0.251849 0.304886 0.252834 0.227920 0.269871 0.313853 0.328446 0.360472 0.462620 0.578761 0.582139 0.575503 0.559441 0.589053 0.614420 0.610833 0.638438 0.670914 0.666115 0.748727 0.754559 0.701497 0.749519 0.825690 0.784172 0.781313 0.706940 0.689173 0.632684 0.549929 0.568480 0.563230 0.570565 0.585743 0.532057 0.518467 0.522578 0.469806 0.478914 0.484592 0.482996 0.452268 0.373959 0.291712 0.303430 0.276158 0.219899 0.191970 0.132899 0.130432 0.091259 0.026420 0.049269 0.005769 0.061057 0.033597 0.067006 0.011987 0.065570 0.103865 0.024614 0.103162 0.078440 -0.026776 -0.071610 -0.102775 -0.197334 -0.200373 -0.284358 -0.274943 -0.254262 -0.251506 -0.273007 -0.252981 -0.281103 -0.247989 -0.207500 -0.190791 -0.114300 -0.149092 -0.112899 -0.069656 0.001884 -0.012647 0.073595 0.076988 0.120736 0.147272 0.078497 0.055343 -0.006858 -0.033341 0.003472 0.026200 0.021148 0.020808 -0.090373 -0.104367 -0.044742 -0.007808 0.020934 0.079392 0.085468 0.155035 0.168924 0.153716 0.160064 0.163742 0.115388 0.095555 -0.031152 0.006035 0.006598 -0.015023 -0.086240 -0.043241 -0.095554 -0.098767 -0.100175 -0.111268 -0.073116 -0.082668 -0.085208 -0.065919 -0.040301 0.045094 0.090286 0.054066 0.048752 0.080419 0.051015 0.078451 0.037302 0.099990 0.067747 0.147647 0.022115 0.046030 0.085226 0.177213 0.131893 0.155336 0.114164 0.291912 0.246883 0.237621 0.215255 0.228253 0.208542 0.174068 0.170350 0.159126 0.128549 0.198776 0.168611 0.167345 0.079354 0.059080 0.055052 0.082436 0.100211 0.093225 0.005208 0.015656 0.042457 0.063558 -0.063982 -0.029187 -0.000470 0.032923 0.111170 0.118355 0.132284 0.031969 0.011078 -0.033147 -0.088507 -0.066573 -0.053291 -0.128689 -0.163694 -0.205748 -0.160223 -0.175967 -0.075788 -0.176023 -0.122226 -0.178861 -0.170503 -0.158638 -0.146538 -0.206231 -0.233397 -0.230987 -0.291542 -0.236652 -0.222540 -0.220768 -0.286256 -0.290502 -0.278346 -0.261380 -0.282142 -0.306820 -0.303777 -0.254763 -0.326206 -0.327622 -0.299165 -0.275990 -0.246952 -0.236224 -0.236500 -0.257047 -0.333678 -0.337776 -0.262160 -0.298506 -0.303006 -0.366676 -0.326023 -0.337794 -0.303153 -0.304969 -0.248775 -0.298547 -0.261107 -0.220489 -0.194526 -0.357729 -0.351904 -0.300069 -0.270930 -0.123698 -0.091554 -0.137962 -0.104721 -0.085669 -0.147598 -0.158315 -0.141457 -0.027326 -0.060193 -0.027605 -0.052828 -0.109169 -0.080251 -0.056288 -0.018569 -0.010279 0.004263 -0.009543 0.005878 -0.005471 -0.062056 -0.031419 0.015228 -0.105307 -0.047186 0.000800 -0.028064 -0.022234 0.011808 0.060997 0.079282 0.026314 0.026314 0.026314 0.062864 0.076850 0.067691 0.067691 0.067691 0.067691 0.067691 0.067691 0.067691 0.067691 0.064994 0.064994 0.064994 0.064994 0.064994 0.064994 -0.001400 -0.001400 -0.001400 0.078379 0.078379 0.078379 0.078379 0.054243 0.054243 0.054243 0.054243
0.000000 0.000000 0.000000 0.000000 1070284005073246592.000000 708861888795870464.000000 725797116710411392.000000 731363394144671616.000000 360994753960294784.000000 257279160150503936.000000 566053122728879744.000000 673767126910121472.000000 299315999884320256.000000 1140361378664705792.000000 972374693737753472.000000 507551682455572544.000000 693482469982125696.000000 1699252629926373632.000000 857073307513802752.000000 417518997483959808.000000 0.256074 0.256074 0.256074 0.256074 0.256074 0.256074 0.256074 0.280056 0.280056 0.280056 0.280056 0.280056 0.280056 0.280056 0.280056 0.280056 0.280056 0.280056 0.280056 0.280056 0.280056 0.280056 0.280056 0.280056 0.280056 0.280056 0.280056 0.328798 0.328798 0.328798 0.328798 0.328798 0.328798 0.328798 0.328798 0.328798 0.328798 0.328798 0.328798 0.328798 0.348155 0.348155 0.348155 0.348155 0.348155 0.348155 0.348155 0.348155 0.348155 0.348155 0.348155 0.348155 0.348155 0.348155 0.348155 0.348155 0.348155 0.348155 0.348155 0.348155 0.348155 0.348155 0.348155 0.348155 0.348155 0.348155 0.348155 0.348155 0.348155 0.348155 0.384900 0.384900 0.384900 0.384900 0.384900 0.384900 0.384900 0.348155 0.348155 0.348155 0.348155 0.348155 0.348155 0.348155 0.348155 0.384900 0.384900 0.384900 0.384900 0.384900 0.384900 0.348155 0.348155 0.348155 0.348155 0.348155 0.348155 0.348155 0.371391 0.371391 0.371391 0.371391 0.371391 0.371391 0.384900 0.384900 0.384900 0.384900 0.384900 0.348155 0.348155 0.348155 0.348155 0.348155 0.348155 0.371391 0.371391 0.371391 0.371391 0.371391 0.359211 0.359211 0.359211 0.359211 0.359211 0.359211 0.359211 0.359211 0.359211 0.359211 0.348155 0.348155 0.348155 0.348155 0.348155 0.348155 0.348155 0.348155 0.348155 0.348155 0.371391 0.371391 0.371391 0.371391 0.328798 0.328798 0.328798 0.328798 0.328798 0.359211 0.359211 0.359211 0.359211 0.348155 0.348155 0.348155 0.348155 0.348155 0.348155 0.348155 0.348155 0.338062 0.338062 0.338062 0.338062 0.338062 0.338062 0.338062 0.338062 0.328798 0.328798 0.328798 0.328798 0.371391 0.371391 0.371391 0.320256 0.320256 0.320256 0.320256 0.320256 0.320256 0.320256 0.320256 0.348155 0.348155 0.348155 0.312348 0.312348 0.312348 0.312348 0.348155 0.348155 0.348155 0.338062 0.338062 0.338062 0.298142 0.298142 0.298142 0.298142 0.328798 0.328798 0.328798 0.328798 0.328798 0.328798 0.328798 0.328798 0.328798 0.285714 0.285714 0.285714 0.285714 0.320256 0.320256 0.320256 0.312348 0.312348 0.312348 0.312348 0.312348 0.312348 0.312348 0.312348 0.312348 0.304997 0.304997 0.304997 0.304997 0.304997 0.304997 0.348155 0.348155 0.298142 0.298142 0.298142 0.298142 0.298142 0.298142 0.291730 0.291730 0.291730 0.291730 0.291730 0.291730 0.328798 0.328798 0.285714 0.285714 0.285714 0.285714 0.285714 0.285714 0.328798 0.328798 0.280056 0.280056 0.280056 0.274721 0.274721 0.274721 0.320256 0.320256 0.274721 0.274721 0.274721 0.312348 0.312348 0.269680 0.269680 0.269680 0.304997 0.304997 0.264906 0.264906 0.264906 0.304997 0.304997 0.304997 0.304997 0.260378 0.260378 0.260378 0.298142 0.298142 0.256074 0.256074 0.256074 0.291730 0.291730 0.291730 0.291730 0.251976 0.251976 0.251976 0.285714 0.285714 0.285714 0.285714 0.285714 0.285714 0.244339 0.244339 0.244339 0.280056 0.280056 0.280056 0.280056 0.280056 0.280056 0.274721 0.274721 0.237356 0.237356 0.237356 0.274721 0.274721 0.269680 0.269680 0.269680 0.269680 0.269680 0.269680 0.269680 0.269680 0.264906 0.264906 0.264906 0.264906 0.264906 0.264906 0.227921 0.227921 0.227921 0.260378 0.260378 0.260378 0.260378 0.256074 0.256074 0.256074 0.256074
