# Output from CTFFind version 4.1.9, run on 2019-11-24 11:56:25
# Input file: stack1_bm3d_averaged_1_2.0_0_1000_half.mrc ; Number of micrographs: 1
# Pixel size: 1.500 Angstroms ; acceleration voltage: 300.0 keV ; spherical aberration: 0.00 mm ; amplitude contrast: 0.07
# Box size: 512 pixels ; min. res.: 40.0 Angstroms ; max. res.: 6.0 Angstroms ; min. def.: 5000.0 um; max. def. 50000.0 um; num. frames averaged: 1
# 6 lines per micrograph: #1 - spatial frequency (1/Angstroms); #2 - 1D rotational average of spectrum (assuming no astigmatism); #3 - 1D rotational average of spectrum; #4 - CTF fit; #5 - cross-correlation between spectrum and CTF fit; #6 - 2sigma of expected cross correlation of noise
0.000000 0.001302 0.002604 0.003906 0.005208 0.006510 0.007812 0.009115 0.010417 0.011719 0.013021 0.014323 0.015625 0.016927 0.018229 0.019531 0.020833 0.022135 0.023438 0.024740 0.026042 0.027344 0.028646 0.029948 0.031250 0.032552 0.033854 0.035156 0.036458 0.037760 0.039062 0.040365 0.041667 0.042969 0.044271 0.045573 0.046875 0.048177 0.049479 0.050781 0.052083 0.053385 0.054688 0.055990 0.057292 0.058594 0.059896 0.061198 0.062500 0.063802 0.065104 0.066406 0.067708 0.069010 0.070312 0.071615 0.072917 0.074219 0.075521 0.076823 0.078125 0.079427 0.080729 0.082031 0.083333 0.084635 0.085938 0.087240 0.088542 0.089844 0.091146 0.092448 0.093750 0.095052 0.096354 0.097656 0.098958 0.100260 0.101562 0.102865 0.104167 0.105469 0.106771 0.108073 0.109375 0.110677 0.111979 0.113281 0.114583 0.115885 0.117188 0.118490 0.119792 0.121094 0.122396 0.123698 0.125000 0.126302 0.127604 0.128906 0.130208 0.131510 0.132812 0.134115 0.135417 0.136719 0.138021 0.139323 0.140625 0.141927 0.143229 0.144531 0.145833 0.147135 0.148438 0.149740 0.151042 0.152344 0.153646 0.154948 0.156250 0.157552 0.158854 0.160156 0.161458 0.162760 0.164062 0.165365 0.166667 0.167969 0.169271 0.170573 0.171875 0.173177 0.174479 0.175781 0.177083 0.178385 0.179688 0.180990 0.182292 0.183594 0.184896 0.186198 0.187500 0.188802 0.190104 0.191406 0.192708 0.194010 0.195312 0.196615 0.197917 0.199219 0.200521 0.201823 0.203125 0.204427 0.205729 0.207031 0.208333 0.209635 0.210938 0.212240 0.213542 0.214844 0.216146 0.217448 0.218750 0.220052 0.221354 0.222656 0.223958 0.225260 0.226562 0.227865 0.229167 0.230469 0.231771 0.233073 0.234375 0.235677 0.236979 0.238281 0.239583 0.240885 0.242188 0.243490 0.244792 0.246094 0.247396 0.248698 0.250000 0.251302 0.252604 0.253906 0.255208 0.256510 0.257812 0.259115 0.260417 0.261719 0.263021 0.264323 0.265625 0.266927 0.268229 0.269531 0.270833 0.272135 0.273438 0.274740 0.276042 0.277344 0.278646 0.279948 0.281250 0.282552 0.283854 0.285156 0.286458 0.287760 0.289062 0.290365 0.291667 0.292969 0.294271 0.295573 0.296875 0.298177 0.299479 0.300781 0.302083 0.303385 0.304688 0.305990 0.307292 0.308594 0.309896 0.311198 0.312500 0.313802 0.315104 0.316406 0.317708 0.319010 0.320312 0.321615 0.322917 0.324219 0.325521 0.326823 0.328125 0.329427 0.330729 0.332031 0.333333 0.334635 0.335938 0.337240 0.338542 0.339844 0.341146 0.342448 0.343750 0.345052 0.346354 0.347656 0.348958 0.350260 0.351562 0.352865 0.354167 0.355469 0.356771 0.358073 0.359375 0.360677 0.361979 0.363281 0.364583 0.365885 0.367188 0.368490 0.369792 0.371094 0.372396 0.373698 0.375000 0.376302 0.377604 0.378906 0.380208 0.381510 0.382812 0.384115 0.385417 0.386719 0.388021 0.389323 0.390625 0.391927 0.393229 0.394531 0.395833 0.397135 0.398438 0.399740 0.401042 0.402344 0.403646 0.404948 0.406250 0.407552 0.408854 0.410156 0.411458 0.412760 0.414062 0.415365 0.416667 0.417969 0.419271 0.420573 0.421875 0.423177 0.424479 0.425781 0.427083 0.428385 0.429688 0.430990 0.432292 0.433594 0.434896 0.436198 0.437500 0.438802 0.440104 0.441406 0.442708 0.444010 0.445312 0.446615 0.447917 0.449219 0.450521 0.451823 0.453125 0.454427 0.455729 0.457031 0.458333 0.459635 0.460938 0.462240 0.463542 0.464844 0.466146 0.467448 0.468750 0.470052 0.471354
       0.66550        0.66550        0.66550        0.66550        0.66550        0.66550        0.66550        0.66549        0.66550        0.66549        0.66550        0.66550        0.66550        0.66549        0.66550        0.66549        0.66549        0.66549        0.66550        1.52898        2.27278        1.12190        0.31165        0.14906        0.67871        1.26384        1.15976        0.64585        0.39379        0.42501        0.44553        0.37792        0.39211        0.45386        0.38543        0.29553        0.18145        0.09278        0.01464        0.01537        0.06731        0.17942        0.41221        0.66810        0.81865        0.83254        0.80891        0.86367        1.00808        1.11750        1.02221        0.70552        0.44717        0.44950        0.57500        0.56464        0.44374        0.40050        0.47446        0.54069        0.61711        0.70845        0.85023        0.91499        0.88627        0.79961        0.70494        0.64857        0.59815        0.58291        0.63820        0.76201        0.81340        0.70902        0.59586        0.60017        0.65232        0.64130        0.58915        0.61045        0.70613        0.72848        0.67385        0.57101        0.55636        0.60412        0.68931        0.72729        0.70087        0.60361        0.51143        0.51965        0.60315        0.67328        0.63789        0.59049        0.64655        0.77811        0.82843        0.76669        0.71301        0.71013        0.71740        0.69713        0.68356        0.69396        0.66102        0.59399        0.52786        0.51664        0.55015        0.61380        0.65716        0.68148        0.70374        0.74166        0.76428        0.76942        0.72948        0.64050        0.55040        0.52849        0.63055        0.74364        0.74777        0.66953        0.62178        0.65398        0.69830        0.69541        0.68237        0.67686        0.64420        0.57053        0.51722        0.56766        0.65529        0.68024        0.66354        0.67064        0.71035        0.72197        0.71639        0.72151        0.72400        0.69465        0.67936        0.69697        0.70387        0.64914        0.61032        0.65187        0.71821        0.70980        0.61259        0.53804        0.53961        0.60564        0.65435        0.63416        0.61161        0.62428        0.63146        0.60138        0.61080        0.70252        0.77558        0.73571        0.65479        0.66966        0.73142        0.74984        0.71573        0.69078        0.69758        0.69732        0.68943        0.67967        0.64282        0.62069        0.64852        0.71362        0.75437        0.72221        0.65143        0.61433        0.64431        0.69463        0.69716        0.64000        0.59109        0.60064        0.62675        0.61528        0.57781        0.58217        0.63402        0.68521        0.69190        0.65058        0.60590        0.61600        0.67596        0.73429        0.75543        0.74249        0.72850        0.70987        0.69636        0.68174        0.65864        0.62391        0.61691        0.63854        0.64824        0.63650        0.66390        0.71443        0.72277        0.66540        0.61846        0.64265        0.67842        0.68176        0.65526        0.66344        0.71069        0.74220        0.70378        0.65502        0.65431        0.69603        0.70462        0.65697        0.60376        0.61051        0.63767        0.66708        0.66787        0.65302        0.62222        0.61307        0.64414        0.69062        0.70937        0.70715        0.71147        0.70730        0.68983        0.68305        0.67714        0.66441        0.64678        0.64122        0.64532        0.64549        0.65327        0.66349        0.66771        0.68880        0.71017        0.72698        0.70385        0.64768        0.61738        0.64990        0.66901        0.66629        0.64699        0.63283        0.62742        0.61708        0.63242        0.66826        0.69359        0.69757        0.67637        0.65379        0.64317        0.62841        0.61692        0.60481        0.61971        0.64730        0.66134        0.68662        0.72358        0.70275        0.64987        0.60645        0.60313        0.66549        0.74974        0.83951        0.82087        0.70963        0.60559        0.55218        0.58459        0.57322        0.55931        0.59991        0.62812        0.59375        0.55661        0.63108        0.71238        0.68797        0.67781        0.73403        0.75625        0.69471        0.67297        0.71017        0.72876        0.72893        0.81492        0.90024        0.77473        0.56674        0.48411        0.60867        0.66980        0.63569        0.63320        0.69434        0.63094        0.53036        0.53395        0.51312        0.48331        0.55002        0.70821        0.74721        0.67913        0.72528        0.75905        0.77060        0.78856        0.86487        0.77373        0.64374        0.58777        0.64530        0.54235        0.57578        0.68956        0.72325        0.61125        0.62541        0.73848        0.72683        0.52521        0.48278        0.66278        0.78930        0.70675        0.41160        0.01446       -0.33893       -0.53304       -0.56967       -0.57300
0.665495 0.665495 0.665495 0.665495 0.665495 0.665495 0.665495 0.665495 0.665495 0.665495 0.665495 0.665495 0.665495 0.665495 0.665495 0.665495 0.665495 0.665495 0.665495 1.569003 2.318096 1.296976 0.297495 0.031312 0.564662 1.405540 1.144109 0.627115 0.428917 0.459497 0.352189 0.375256 0.442025 0.438855 0.413565 0.299197 0.172810 0.084379 0.026905 0.048245 0.068640 0.147628 0.359337 0.715009 0.811565 0.810348 0.822047 0.823629 0.994371 1.105683 1.113155 0.720656 0.462749 0.438666 0.628242 0.519612 0.470452 0.320517 0.455568 0.591601 0.607093 0.693535 0.831339 0.904509 0.916251 0.849192 0.674149 0.673970 0.595976 0.587453 0.606590 0.785052 0.791643 0.760326 0.605904 0.596356 0.661842 0.599433 0.581389 0.617444 0.678524 0.747841 0.703432 0.575554 0.560724 0.565476 0.689681 0.732787 0.719996 0.629335 0.506524 0.520047 0.582038 0.670445 0.648593 0.583916 0.600513 0.751787 0.841759 0.808666 0.715354 0.701744 0.725528 0.702064 0.672293 0.689847 0.686437 0.636441 0.542192 0.493773 0.523732 0.598340 0.647277 0.684836 0.687145 0.735118 0.729381 0.781398 0.752938 0.674362 0.573103 0.506131 0.605827 0.705844 0.769056 0.698314 0.648859 0.620551 0.688397 0.682493 0.695547 0.666142 0.676876 0.603456 0.520894 0.547956 0.621725 0.692633 0.644038 0.663144 0.698791 0.736628 0.716628 0.716834 0.717498 0.708327 0.671272 0.679357 0.736935 0.630019 0.620869 0.617610 0.701006 0.740777 0.631358 0.582112 0.513717 0.564756 0.626829 0.662499 0.605595 0.626125 0.637776 0.617602 0.583837 0.655309 0.751991 0.781901 0.688730 0.641731 0.690412 0.744131 0.734374 0.717952 0.689305 0.707759 0.653911 0.709285 0.657172 0.631191 0.617910 0.675986 0.739518 0.763558 0.682301 0.633554 0.609586 0.684184 0.720166 0.673752 0.604702 0.576367 0.612485 0.614420 0.615894 0.554885 0.601037 0.660817 0.702779 0.684599 0.623880 0.602112 0.636430 0.683948 0.740904 0.779575 0.751420 0.662124 0.727542 0.687291 0.656105 0.640005 0.623022 0.648875 0.626726 0.638398 0.642669 0.693999 0.735621 0.707402 0.619291 0.661303 0.659475 0.682521 0.670094 0.638338 0.666776 0.719616 0.745247 0.686146 0.653792 0.667155 0.700689 0.686615 0.626749 0.587109 0.631690 0.639945 0.665540 0.674941 0.647469 0.623122 0.616320 0.658492 0.699789 0.714610 0.716342 0.711523 0.689963 0.680234 0.677664 0.675551 0.683222 0.630080 0.635588 0.656682 0.663152 0.655013 0.646843 0.681212 0.691578 0.734412 0.715784 0.685770 0.648745 0.601256 0.671440 0.674796 0.650422 0.640297 0.640513 0.617506 0.615180 0.642000 0.685306 0.680282 0.713908 0.655637 0.644053 0.639838 0.632299 0.591802 0.629046 0.618270 0.665930 0.639341 0.683419 0.751598 0.705541 0.631496 0.591523 0.603434 0.705054 0.782251 0.819081 0.827767 0.668226 0.611229 0.554769 0.581813 0.586635 0.550942 0.620029 0.647468 0.583647 0.525381 0.631607 0.754362 0.694247 0.668760 0.740264 0.745164 0.701402 0.637860 0.733441 0.692689 0.753175 0.819544 0.901641 0.811275 0.491477 0.523027 0.622409 0.682347 0.683174 0.620436 0.676755 0.616264 0.520663 0.572531 0.466044 0.481657 0.563531 0.657389 0.728154 0.708244 0.717624 0.773448 0.731836 0.849409 0.844013 0.731551 0.655707 0.619685 0.504017 0.685158 0.509152 0.690117 0.746115 0.561940 0.628463 0.806749 0.626754 0.533096 0.480286 0.669388 0.797619 0.694244 0.352255 -0.110545 -0.365649 -0.532485 -0.573003
0.072396 0.073455 0.076630 0.081920 0.089322 0.098831 0.110442 0.124144 0.139924 0.157766 0.177645 0.199533 0.223391 0.249172 0.276818 0.306259 0.337408 0.370164 0.404409 0.440003 0.476785 0.514572 0.553155 0.592297 0.631735 0.671176 0.710299 0.748750 0.786145 0.822074 0.856093 0.887736 0.916511 0.941904 0.963388 0.980423 0.992464 0.998971 0.999414 0.993285 0.980106 0.959445 0.930924 0.894236 0.849156 0.795558 0.733424 0.662867 0.584135 0.497631 0.403915 0.303723 0.197964 0.087727 0.025720 0.140938 0.256324 0.370129 0.480480 0.585404 0.682865 0.770802 0.847174 0.910011 0.957469 0.987890 0.999860 0.992271 0.964385 0.915884 0.846926 0.758188 0.650892 0.526828 0.388357 0.238391 0.080361 0.081845 0.243957 0.401426 0.549551 0.683613 0.799042 0.891579 0.957459 0.993581 0.997681 0.968482 0.905828 0.810774 0.685649 0.534058 0.360840 0.171962 0.025646 0.224316 0.415922 0.592207 0.745147 0.867343 0.952409 0.995355 0.992925 0.943882 0.849216 0.712236 0.538568 0.336005 0.114235 0.115566 0.341260 0.550374 0.730798 0.871519 0.963348 0.999593 0.976627 0.894303 0.756181 0.569519 0.345022 0.096330 0.160725 0.409086 0.631590 0.812177 0.937115 0.996130 0.983369 0.898087 0.744986 0.534153 0.280557 0.003118 0.276604 0.536056 0.753506 0.909934 0.990793 0.987515 0.898569 0.729959 0.495061 0.213762 0.089061 0.385644 0.647847 0.849863 0.970866 0.997319 0.924688 0.758334 0.513423 0.213798 0.110145 0.424421 0.694984 0.891478 0.990782 0.979954 0.858155 0.637290 0.341174 0.003231 0.337092 0.638852 0.864577 0.985062 0.983396 0.857629 0.621652 0.304043 0.055077 0.408916 0.710035 0.916785 0.999266 0.943969 0.756328 0.460700 0.097609 0.281519 0.621489 0.871392 0.992413 0.964202 0.788683 0.490604 0.114532 0.281483 0.634675 0.887530 0.997384 0.943993 0.733729 0.399465 0.004049 0.408815 0.744899 0.952618 0.993462 0.857707 0.567177 0.172365 0.255854 0.638710 0.903997 0.999994 0.906017 0.637462 0.244013 0.198984 0.604601 0.891359 0.999851 0.905584 0.625146 0.214092 0.243448 0.651626 0.922941 0.997344 0.856122 0.527304 0.080918 0.385300 0.767027 0.976802 0.964542 0.730239 0.325481 0.157103 0.604513 0.909748 0.997721 0.844434 0.484348 0.003603 0.479892 0.845119 0.998453 0.898316 0.567359 0.088432 0.415344 0.811850 0.994765 0.912732 0.584741 0.096928 0.419169 0.821627 0.997360 0.894588 0.539133 0.029188 0.490925 0.871191 0.999442 0.835296 0.423988 0.114865 0.621139 0.941614 0.976779 0.712761 0.227839 0.329561 0.785590 0.995279 0.889361 0.498405 0.054517 0.591545 0.936855 0.974705 0.689358 0.172809 0.403521 0.844979 0.999579 0.811298 0.341803 0.248199 0.752991 0.993475 0.881521 0.453712 0.138890 0.682903 0.979153 0.916289 0.514098 0.080843 0.647221 0.970924 0.926604 0.527715 0.075513 0.651231 0.974603 0.916319 0.495836 0.122996 0.694368 0.987716 0.881590 0.415620 0.222230 0.770063 0.999391 0.811432 0.281523 0.369022 0.864124 0.990188 0.689571 0.088958 0.552095 0.952379 0.932923 0.498731 0.159622 0.747885 0.999230 0.796349 0.228270 0.446407 0.915971 0.959822 0.553825 0.114344 0.729959 0.998908 0.789279 0.198275 0.490404 0.941425 0.931441 0.461630 0.238497 0.821245 0.993083 0.663958 0.003042 0.670071 0.994689 0.806614 0.199430 0.513265 0.958260 0.898674 0.362201 0.368707 0.903550 0.952433 0.485132 0.247613 0.846343 0.980214 0.571583 0.156138 0.798096
1.000000 1.000000 1.000000 1.000000 1.000000 1.000000 1.000000 1.000000 1.000000 1.000000 1.000000 1.000000 1.000000 1.000000 1.000000 1.000000 1.000000 1.000000 1.000000 1.000000 -0.062496 -0.062496 -0.062496 -0.062496 -0.062496 -0.062496 -0.062496 -0.062496 -0.062496 -0.062496 -0.062496 -0.062496 -0.062496 -0.062496 -0.062496 -0.062496 -0.062496 -0.062496 -0.128382 -0.128382 -0.128382 -0.128382 -0.128382 -0.128382 -0.128382 -0.128382 -0.128382 -0.128382 -0.128382 -0.128382 -0.128382 -0.128382 -0.128382 -0.128382 -0.128382 -0.128382 -0.117420 -0.100652 -0.098640 -0.077819 -0.079163 -0.081121 -0.080059 -0.075487 -0.074507 -0.056952 -0.035239 0.121247 0.129861 0.177690 0.181985 0.171595 0.173046 0.177832 0.169766 0.188415 0.219740 0.254022 0.253754 0.255492 0.249322 0.283465 0.327066 0.343340 0.334018 0.326698 0.308459 0.304703 0.286984 0.272496 0.267629 0.277025 0.337932 0.402646 0.421175 0.421077 0.425667 0.451183 0.484816 0.489906 0.498547 0.511004 0.520633 0.530098 0.520360 0.506071 0.540710 0.598893 0.636461 0.620288 0.575602 0.564130 0.580765 0.611706 0.616567 0.622805 0.692274 0.694949 0.600651 0.548737 0.537453 0.539913 0.520024 0.472291 0.415281 0.423920 0.412324 0.393987 0.398187 0.330889 0.275694 0.257203 0.247313 0.193974 0.192157 0.182712 0.144169 0.108169 0.049667 0.036126 0.005412 -0.103120 -0.148102 -0.104758 -0.037284 -0.002760 -0.001404 0.022729 0.026488 -0.018193 -0.044665 -0.078193 -0.092168 -0.064679 -0.071671 -0.121454 -0.152942 -0.143325 -0.187692 -0.127102 -0.029649 -0.032461 -0.049501 -0.001935 0.058511 0.105778 0.117358 0.101129 0.001590 0.006544 -0.066760 -0.077974 -0.083112 -0.084389 -0.047303 0.029137 0.026740 0.060882 0.060920 0.075646 0.098371 0.064342 0.027653 -0.007748 -0.047749 -0.076334 -0.051265 -0.090535 -0.101722 -0.091084 -0.046724 -0.010777 0.011051 0.047260 0.035105 -0.008039 -0.012663 -0.026737 -0.040445 -0.103171 -0.087495 -0.093005 -0.141420 -0.194576 -0.196096 -0.176833 -0.165575 -0.189628 -0.169281 -0.116291 -0.059226 -0.022348 0.004413 0.045794 0.044170 -0.000823 0.003147 -0.031300 -0.029911 -0.005358 0.014895 -0.046918 -0.063838 -0.016006 0.046344 0.062130 0.058890 0.123873 0.080492 0.093857 0.110079 0.076300 0.086831 0.055758 0.037246 0.026804 0.000983 -0.053571 -0.043747 0.018028 0.041846 0.059833 0.121279 0.113785 0.097709 0.080155 0.093787 0.124567 0.133070 0.138655 0.172987 0.138865 0.146409 0.066777 0.070682 0.102615 0.099369 0.108700 0.113894 0.134887 0.141454 0.159449 0.136861 0.121333 0.087035 0.093830 0.082731 0.055241 0.050735 0.029501 -0.004659 -0.044781 -0.103979 -0.084743 -0.087596 -0.084455 -0.003677 -0.012201 -0.020107 -0.040762 -0.115235 -0.138272 -0.156623 -0.150775 -0.106971 -0.063174 -0.062684 -0.060293 -0.047468 -0.045064 0.004037 -0.039723 -0.019511 -0.034223 -0.071639 -0.062714 -0.096219 -0.141697 -0.130358 -0.135536 -0.101023 -0.137512 -0.128722 -0.152595 -0.142829 -0.139260 -0.112833 -0.091027 -0.116848 -0.112156 -0.137878 -0.090499 -0.073103 -0.061562 -0.046682 -0.142815 -0.137754 -0.081290 -0.054518 -0.062493 -0.056225 -0.061524 -0.057024 -0.091183 -0.066243 -0.115945 -0.104926 -0.075046 -0.050858 -0.113733 -0.098713 -0.123987 -0.076408 -0.002185 0.001891 -0.061349 -0.065216 0.020215 0.002097 0.002097 0.002097 0.002097 -0.076142 -0.076142 -0.076142 -0.076142 -0.076142 0.030638 0.030638 0.030638 0.030638 0.030638 0.030638 0.030638 0.030638 -0.001608 -0.001608 -0.001608 -0.001608 -0.001608 -0.001608 -0.001608 -0.001608
0.000000 0.000000 0.000000 0.000000 1973289410878771456.000000 976325238981580800.000000 559399703030622912.000000 1456465069663791360.000000 717882831872513536.000000 403654705568189184.000000 646595445820648448.000000 1509636352619735808.000000 915448578606843136.000000 655478400044905856.000000 680056883155219456.000000 1030173271222114688.000000 540983707887679168.000000 1063283414620026624.000000 1193878603292665088.000000 597261458659651584.000000 0.216930 0.216930 0.216930 0.216930 0.216930 0.216930 0.216930 0.216930 0.216930 0.216930 0.216930 0.216930 0.216930 0.216930 0.216930 0.216930 0.216930 0.216930 0.234082 0.234082 0.234082 0.234082 0.234082 0.234082 0.234082 0.234082 0.234082 0.234082 0.234082 0.234082 0.234082 0.234082 0.234082 0.234082 0.234082 0.234082 0.234082 0.234082 0.234082 0.234082 0.234082 0.234082 0.234082 0.234082 0.234082 0.234082 0.234082 0.274721 0.274721 0.274721 0.274721 0.274721 0.274721 0.274721 0.274721 0.274721 0.274721 0.274721 0.274721 0.274721 0.274721 0.274721 0.274721 0.274721 0.274721 0.274721 0.291730 0.291730 0.291730 0.291730 0.291730 0.291730 0.291730 0.291730 0.291730 0.291730 0.291730 0.291730 0.291730 0.291730 0.291730 0.291730 0.298142 0.298142 0.298142 0.298142 0.298142 0.298142 0.298142 0.298142 0.298142 0.298142 0.298142 0.298142 0.298142 0.298142 0.312348 0.312348 0.312348 0.312348 0.312348 0.312348 0.312348 0.312348 0.312348 0.312348 0.312348 0.312348 0.312348 0.312348 0.312348 0.312348 0.312348 0.312348 0.312348 0.312348 0.312348 0.312348 0.312348 0.320256 0.320256 0.320256 0.320256 0.320256 0.320256 0.320256 0.320256 0.320256 0.320256 0.312348 0.312348 0.312348 0.312348 0.312348 0.312348 0.312348 0.312348 0.312348 0.312348 0.312348 0.312348 0.312348 0.312348 0.312348 0.312348 0.312348 0.312348 0.312348 0.304997 0.304997 0.304997 0.304997 0.304997 0.304997 0.304997 0.304997 0.304997 0.320256 0.320256 0.320256 0.320256 0.320256 0.320256 0.320256 0.320256 0.312348 0.312348 0.312348 0.312348 0.312348 0.312348 0.312348 0.312348 0.320256 0.320256 0.320256 0.320256 0.320256 0.320256 0.320256 0.298142 0.298142 0.298142 0.298142 0.298142 0.298142 0.298142 0.298142 0.312348 0.312348 0.312348 0.312348 0.312348 0.312348 0.312348 0.328798 0.328798 0.328798 0.328798 0.328798 0.328798 0.298142 0.298142 0.298142 0.298142 0.298142 0.298142 0.298142 0.312348 0.312348 0.312348 0.312348 0.312348 0.312348 0.285714 0.285714 0.285714 0.285714 0.285714 0.285714 0.285714 0.304997 0.304997 0.304997 0.304997 0.304997 0.304997 0.298142 0.298142 0.298142 0.298142 0.298142 0.298142 0.320256 0.320256 0.320256 0.320256 0.320256 0.291730 0.291730 0.291730 0.291730 0.291730 0.291730 0.285714 0.285714 0.285714 0.285714 0.285714 0.285714 0.304997 0.304997 0.304997 0.304997 0.304997 0.298142 0.298142 0.298142 0.298142 0.298142 0.274721 0.274721 0.274721 0.274721 0.274721 0.274721 0.291730 0.291730 0.291730 0.291730 0.291730 0.285714 0.285714 0.285714 0.285714 0.285714 0.285714 0.285714 0.285714 0.285714 0.285714 0.280056 0.280056 0.280056 0.280056 0.280056 0.280056 0.280056 0.280056 0.280056 0.280056 0.298142 0.298142 0.298142 0.298142 0.269680 0.269680 0.269680 0.269680 0.269680 0.269680 0.269680 0.269680 0.269680 0.269680 0.291730 0.291730 0.291730 0.291730 0.264906 0.264906 0.264906 0.264906 0.264906 0.285714 0.285714 0.285714 0.285714 0.280056 0.280056 0.280056 0.280056 0.256074 0.256074 0.256074 0.256074 0.256074 0.274721 0.274721 0.274721 0.274721 0.274721 0.274721 0.274721 0.274721 0.269680 0.269680 0.269680 0.269680 0.269680 0.269680 0.269680 0.269680
