# Output from CTFFind version 4.1.9, run on 2019-11-24 11:56:25
# Input file: stack1_bm3d_averaged_1_3.0_0_1000_half.mrc ; Number of micrographs: 1
# Pixel size: 1.500 Angstroms ; acceleration voltage: 300.0 keV ; spherical aberration: 0.00 mm ; amplitude contrast: 0.07
# Box size: 512 pixels ; min. res.: 40.0 Angstroms ; max. res.: 6.0 Angstroms ; min. def.: 5000.0 um; max. def. 50000.0 um; num. frames averaged: 1
# 6 lines per micrograph: #1 - spatial frequency (1/Angstroms); #2 - 1D rotational average of spectrum (assuming no astigmatism); #3 - 1D rotational average of spectrum; #4 - CTF fit; #5 - cross-correlation between spectrum and CTF fit; #6 - 2sigma of expected cross correlation of noise
0.000000 0.001302 0.002604 0.003906 0.005208 0.006510 0.007812 0.009115 0.010417 0.011719 0.013021 0.014323 0.015625 0.016927 0.018229 0.019531 0.020833 0.022135 0.023438 0.024740 0.026042 0.027344 0.028646 0.029948 0.031250 0.032552 0.033854 0.035156 0.036458 0.037760 0.039062 0.040365 0.041667 0.042969 0.044271 0.045573 0.046875 0.048177 0.049479 0.050781 0.052083 0.053385 0.054688 0.055990 0.057292 0.058594 0.059896 0.061198 0.062500 0.063802 0.065104 0.066406 0.067708 0.069010 0.070312 0.071615 0.072917 0.074219 0.075521 0.076823 0.078125 0.079427 0.080729 0.082031 0.083333 0.084635 0.085938 0.087240 0.088542 0.089844 0.091146 0.092448 0.093750 0.095052 0.096354 0.097656 0.098958 0.100260 0.101562 0.102865 0.104167 0.105469 0.106771 0.108073 0.109375 0.110677 0.111979 0.113281 0.114583 0.115885 0.117188 0.118490 0.119792 0.121094 0.122396 0.123698 0.125000 0.126302 0.127604 0.128906 0.130208 0.131510 0.132812 0.134115 0.135417 0.136719 0.138021 0.139323 0.140625 0.141927 0.143229 0.144531 0.145833 0.147135 0.148438 0.149740 0.151042 0.152344 0.153646 0.154948 0.156250 0.157552 0.158854 0.160156 0.161458 0.162760 0.164062 0.165365 0.166667 0.167969 0.169271 0.170573 0.171875 0.173177 0.174479 0.175781 0.177083 0.178385 0.179688 0.180990 0.182292 0.183594 0.184896 0.186198 0.187500 0.188802 0.190104 0.191406 0.192708 0.194010 0.195312 0.196615 0.197917 0.199219 0.200521 0.201823 0.203125 0.204427 0.205729 0.207031 0.208333 0.209635 0.210938 0.212240 0.213542 0.214844 0.216146 0.217448 0.218750 0.220052 0.221354 0.222656 0.223958 0.225260 0.226562 0.227865 0.229167 0.230469 0.231771 0.233073 0.234375 0.235677 0.236979 0.238281 0.239583 0.240885 0.242188 0.243490 0.244792 0.246094 0.247396 0.248698 0.250000 0.251302 0.252604 0.253906 0.255208 0.256510 0.257812 0.259115 0.260417 0.261719 0.263021 0.264323 0.265625 0.266927 0.268229 0.269531 0.270833 0.272135 0.273438 0.274740 0.276042 0.277344 0.278646 0.279948 0.281250 0.282552 0.283854 0.285156 0.286458 0.287760 0.289062 0.290365 0.291667 0.292969 0.294271 0.295573 0.296875 0.298177 0.299479 0.300781 0.302083 0.303385 0.304688 0.305990 0.307292 0.308594 0.309896 0.311198 0.312500 0.313802 0.315104 0.316406 0.317708 0.319010 0.320312 0.321615 0.322917 0.324219 0.325521 0.326823 0.328125 0.329427 0.330729 0.332031 0.333333 0.334635 0.335938 0.337240 0.338542 0.339844 0.341146 0.342448 0.343750 0.345052 0.346354 0.347656 0.348958 0.350260 0.351562 0.352865 0.354167 0.355469 0.356771 0.358073 0.359375 0.360677 0.361979 0.363281 0.364583 0.365885 0.367188 0.368490 0.369792 0.371094 0.372396 0.373698 0.375000 0.376302 0.377604 0.378906 0.380208 0.381510 0.382812 0.384115 0.385417 0.386719 0.388021 0.389323 0.390625 0.391927 0.393229 0.394531 0.395833 0.397135 0.398438 0.399740 0.401042 0.402344 0.403646 0.404948 0.406250 0.407552 0.408854 0.410156 0.411458 0.412760 0.414062 0.415365 0.416667 0.417969 0.419271 0.420573 0.421875 0.423177 0.424479 0.425781 0.427083 0.428385 0.429688 0.430990 0.432292 0.433594 0.434896 0.436198 0.437500 0.438802 0.440104 0.441406 0.442708 0.444010 0.445312 0.446615 0.447917 0.449219 0.450521 0.451823 0.453125 0.454427 0.455729 0.457031 0.458333 0.459635 0.460938 0.462240 0.463542 0.464844 0.466146 0.467448 0.468750 0.470052 0.471354
       0.71312        0.71312        0.71312        0.71312        0.71312        0.71312        0.71312        0.71312        0.71312        0.71312        0.71312        0.71312        0.71312        0.71312        0.71312        0.71312        0.71312        0.71312        0.71312        1.57772        2.30812        1.13362        0.34446        0.21068        0.75399        1.32670        1.21764        0.72200        0.46380        0.45005        0.44833        0.40525        0.45412        0.50760        0.41009        0.31237        0.21605        0.14717        0.07161        0.06500        0.11537        0.22786        0.45126        0.69840        0.84241        0.85697        0.83190        0.89220        1.07267        1.23104        1.15353        0.80084        0.48376        0.45813        0.60800        0.65070        0.54331        0.45329        0.46431        0.52021        0.62716        0.75138        0.91064        0.98771        0.94515        0.81344        0.68530        0.64683        0.64417        0.64899        0.69119        0.81044        0.90645        0.85132        0.73495        0.67942        0.67302        0.66109        0.64876        0.69385        0.78005        0.78304        0.72401        0.60700        0.55990        0.59794        0.70128        0.74919        0.70888        0.61760        0.57442        0.62458        0.69483        0.73649        0.69018        0.64915        0.68789        0.79058        0.84145        0.79383        0.75521        0.77000        0.79426        0.76578        0.71368        0.69404        0.67402        0.65561        0.62982        0.62418        0.62512        0.65491        0.68590        0.72922        0.77084        0.81075        0.80569        0.75902        0.69456        0.65130        0.64567        0.64988        0.69279        0.74501        0.74838        0.69971        0.67307        0.71442        0.76847        0.74648        0.69762        0.69032        0.69861        0.67448        0.63267        0.65384        0.70265        0.70613        0.69439        0.71870        0.77350        0.79400        0.77173        0.75457        0.74580        0.73804        0.74532        0.74727        0.74019        0.69629        0.68133        0.71288        0.74051        0.67101        0.53632        0.49244        0.58592        0.73459        0.78139        0.72997        0.69054        0.70766        0.72333        0.69412        0.68350        0.72236        0.76722        0.77364        0.75577        0.75151        0.73840        0.73210        0.75809        0.78247        0.76605        0.70352        0.65396        0.64366        0.66013        0.68192        0.71263        0.73918        0.76353        0.78166        0.77363        0.75298        0.75238        0.77573        0.77584        0.72770        0.67243        0.66006        0.65954        0.63447        0.58990        0.60305        0.67650        0.74208        0.74932        0.70707        0.66595        0.66820        0.70515        0.73590        0.75886        0.75707        0.74460        0.72206        0.72434        0.75467        0.76159        0.72507        0.69308        0.69758        0.71102        0.70944        0.72564        0.76507        0.76801        0.72354        0.68285        0.71102        0.73952        0.74078        0.71110        0.70262        0.70108        0.71871        0.71827        0.71435        0.69543        0.69125        0.70041        0.70423        0.68160        0.66741        0.66575        0.68235        0.69766        0.71476        0.72629        0.72599        0.72988        0.74716        0.77383        0.79050        0.78573        0.75674        0.71428        0.68735        0.68337        0.70459        0.73876        0.74366        0.68889        0.62770        0.63350        0.70240        0.75160        0.76234        0.76720        0.79588        0.79187        0.70416        0.62527        0.63061        0.65727        0.64852        0.63048        0.64033        0.66787        0.73414        0.83678        0.88161        0.81504        0.70314        0.65192        0.65120        0.67172        0.71619        0.75498        0.71784        0.63036        0.64028        0.72509        0.77528        0.71187        0.60407        0.57189        0.66918        0.80723        0.84953        0.74851        0.67503        0.71260        0.76664        0.71025        0.60773        0.64826        0.72482        0.73238        0.73070        0.71699        0.65762        0.54127        0.58201        0.76188        0.83068        0.77392        0.74704        0.80618        0.79234        0.70072        0.64313        0.72703        0.82777        0.84867        0.83907        0.82477        0.72333        0.56377        0.53803        0.69585        0.78837        0.71027        0.62513        0.61273        0.64374        0.63555        0.58398        0.63985        0.75850        0.77397        0.65119        0.53497        0.70486        0.92095        0.90494        0.63598        0.52008        0.70286        0.89004        0.80666        0.64031        0.63704        0.70979        0.66137        0.60036        0.63209        0.70648        0.77882        0.85243        0.88859        0.86507        0.77871        0.68130        0.55719        0.28317       -0.05867       -0.34080       -0.51382       -0.57322       -0.59197
0.713123 0.713123 0.713123 0.713123 0.713123 0.713123 0.713123 0.713123 0.713123 0.713123 0.713123 0.713123 0.713123 0.713123 0.713123 0.713123 0.713123 0.713123 0.713123 1.615307 2.362769 1.309900 0.312608 0.104075 0.645418 1.456806 1.205077 0.713019 0.495507 0.494431 0.343231 0.405611 0.494786 0.510022 0.432881 0.319151 0.208011 0.157358 0.056957 0.101004 0.114159 0.194479 0.407746 0.735465 0.841509 0.838333 0.840893 0.851694 1.040428 1.218817 1.247000 0.826388 0.507252 0.443202 0.658618 0.601250 0.563545 0.386928 0.458729 0.566825 0.615386 0.731884 0.881429 0.984825 0.977936 0.876003 0.697278 0.639753 0.629983 0.661905 0.659551 0.835332 0.877824 0.886938 0.760263 0.686919 0.688917 0.624990 0.632286 0.692451 0.761461 0.787909 0.768635 0.621138 0.565436 0.586940 0.677271 0.741415 0.725554 0.651332 0.554679 0.615017 0.681655 0.740867 0.688785 0.651036 0.648461 0.772658 0.865827 0.826534 0.747166 0.755260 0.801083 0.763162 0.717941 0.698831 0.690660 0.675892 0.636127 0.621412 0.613963 0.633929 0.672331 0.731611 0.748649 0.770655 0.798821 0.787386 0.721989 0.661182 0.650220 0.635964 0.683530 0.725840 0.771578 0.718423 0.685894 0.668218 0.759795 0.735874 0.728615 0.688105 0.686539 0.688905 0.642660 0.655564 0.691935 0.714336 0.674830 0.707277 0.749913 0.811465 0.787254 0.763613 0.742005 0.727050 0.743042 0.737650 0.770348 0.665256 0.693111 0.680578 0.755019 0.720200 0.569667 0.494315 0.509128 0.662747 0.779288 0.787833 0.677408 0.687245 0.736362 0.711810 0.686180 0.696663 0.747368 0.773705 0.762122 0.753825 0.743918 0.711233 0.740049 0.798080 0.774217 0.752432 0.671392 0.645212 0.668310 0.679491 0.688308 0.716976 0.753080 0.782510 0.773332 0.767703 0.740414 0.753424 0.820327 0.749720 0.693067 0.639445 0.661742 0.650527 0.616219 0.582893 0.637755 0.720773 0.759930 0.727574 0.679073 0.649521 0.692370 0.705397 0.748973 0.773860 0.774754 0.682947 0.738690 0.729801 0.757340 0.737684 0.730956 0.705999 0.686189 0.708226 0.700742 0.750835 0.784790 0.746069 0.687287 0.731531 0.727487 0.736115 0.734719 0.690977 0.711954 0.685182 0.739091 0.712512 0.716634 0.684692 0.695516 0.705815 0.687464 0.660520 0.683057 0.668899 0.673850 0.713367 0.704667 0.729386 0.728869 0.726620 0.760852 0.779131 0.792028 0.775874 0.734346 0.713780 0.682322 0.684799 0.718520 0.733869 0.731725 0.674893 0.624488 0.653598 0.744917 0.751080 0.761416 0.790479 0.796238 0.774733 0.670646 0.609438 0.635699 0.648641 0.655693 0.648906 0.635211 0.686219 0.743319 0.858031 0.892615 0.737897 0.700370 0.643180 0.630532 0.689289 0.762684 0.733168 0.714853 0.624808 0.657272 0.704097 0.790241 0.681952 0.560516 0.579286 0.682586 0.825032 0.830815 0.739960 0.645088 0.732722 0.756047 0.698987 0.563992 0.670247 0.756257 0.709000 0.742093 0.710566 0.658081 0.547029 0.569056 0.816240 0.882074 0.743657 0.748027 0.791729 0.788048 0.679959 0.653596 0.773726 0.870391 0.827469 0.826523 0.845032 0.696127 0.518942 0.553025 0.697924 0.798195 0.715850 0.594403 0.654784 0.599588 0.653799 0.584678 0.649161 0.711341 0.792339 0.685413 0.507636 0.720329 0.964072 0.878629 0.580295 0.517247 0.781434 0.926776 0.719173 0.691198 0.616221 0.707941 0.656528 0.571171 0.602101 0.746516 0.789934 0.828126 0.903863 0.868440 0.769295 0.689099 0.542316 0.228042 -0.161132 -0.359411 -0.513110 -0.591972
0.072396 0.073454 0.076629 0.081918 0.089318 0.098826 0.110434 0.124133 0.139910 0.157748 0.177623 0.199506 0.223360 0.249136 0.276776 0.306211 0.337354 0.370104 0.404343 0.439930 0.476707 0.514488 0.553065 0.592201 0.631635 0.671073 0.710193 0.748642 0.786037 0.821967 0.855989 0.887637 0.916419 0.941822 0.963319 0.980369 0.992428 0.998957 0.999425 0.993324 0.980177 0.959551 0.931068 0.894421 0.849385 0.795832 0.733746 0.663237 0.584553 0.498096 0.404426 0.304277 0.198556 0.088352 0.025069 0.140269 0.255646 0.369454 0.479820 0.584773 0.682277 0.770272 0.846717 0.909643 0.957205 0.987743 0.999843 0.992395 0.964658 0.916311 0.847509 0.758923 0.651771 0.527841 0.389485 0.239613 0.081648 0.080524 0.242638 0.400148 0.548355 0.682542 0.798137 0.890880 0.957002 0.993397 0.997792 0.968903 0.906560 0.811810 0.686966 0.535622 0.362604 0.173867 0.023671 0.222349 0.414047 0.590510 0.743713 0.866250 0.951725 0.995133 0.993198 0.944663 0.850490 0.713964 0.540683 0.338415 0.116825 0.112928 0.338717 0.548073 0.728881 0.870115 0.962564 0.999504 0.977269 0.895669 0.758215 0.572119 0.348042 0.099587 0.157439 0.405998 0.628921 0.810135 0.935870 0.995806 0.984028 0.899716 0.747501 0.537391 0.284293 0.007074 0.272743 0.532610 0.750781 0.908185 0.990207 0.988186 0.900484 0.732991 0.498973 0.218226 0.084442 0.381302 0.644209 0.847307 0.969681 0.997670 0.926592 0.761647 0.517848 0.218908 0.104874 0.419550 0.691062 0.888967 0.990011 0.981065 0.861080 0.641747 0.346683 0.009172 0.331424 0.634157 0.861465 0.983969 0.984522 0.860896 0.626699 0.310264 0.048471 0.402801 0.705254 0.914029 0.998977 0.946257 0.760944 0.467047 0.104815 0.274483 0.615671 0.867694 0.991455 0.966203 0.793414 0.497403 0.122377 0.273813 0.628417 0.883741 0.996754 0.946708 0.739420 0.407245 0.004542 0.400880 0.739022 0.949888 0.994444 0.862315 0.574665 0.181436 0.246848 0.631449 0.899900 0.999915 0.910069 0.644956 0.253564 0.189221 0.596568 0.886715 0.999622 0.909919 0.633255 0.224360 0.233131 0.643455 0.918721 0.998079 0.861765 0.536720 0.092095 0.374832 0.759651 0.974270 0.967545 0.738200 0.336643 0.145308 0.594882 0.904642 0.998472 0.850982 0.495203 0.016161 0.468743 0.838223 0.997654 0.903945 0.578094 0.101575 0.403200 0.803942 0.993291 0.918220 0.595838 0.110715 0.406438 0.813518 0.996228 0.900892 0.551227 0.043712 0.478111 0.863844 0.999828 0.843449 0.437621 0.099717 0.609036 0.936295 0.979998 0.723685 0.243210 0.314472 0.775557 0.993579 0.896693 0.512577 0.037994 0.578029 0.930853 0.978344 0.701593 0.189675 0.387651 0.835545 0.999934 0.821492 0.358461 0.230814 0.741002 0.991240 0.890007 0.470047 0.120500 0.669147 0.975160 0.923706 0.530351 0.061697 0.632369 0.966084 0.933793 0.544363 0.055704 0.635933 0.969900 0.924242 0.513442 0.102604 0.679348 0.984252 0.891278 0.434692 0.201502 0.756270 0.998411 0.823878 0.302341 0.348577 0.852822 0.993045 0.705565 0.111305 0.533107 0.945196 0.940922 0.518567 0.136693 0.732195 0.998034 0.810407 0.251342 0.424892 0.906058 0.966331 0.573929 0.089975 0.712896 0.997442 0.804347 0.222805 0.468255 0.932561 0.940431 0.484269 0.213318 0.806133 0.995814 0.683391 0.023415 0.650082 0.991577 0.822234 0.225879 0.489702 0.950071 0.910418 0.387873 0.342667 0.891193 0.960642 0.509712 0.219915 0.830734 0.985509 0.595116 0.127304 0.780104
1.000000 1.000000 1.000000 1.000000 1.000000 1.000000 1.000000 1.000000 1.000000 1.000000 1.000000 1.000000 1.000000 1.000000 1.000000 1.000000 1.000000 1.000000 1.000000 1.000000 -0.105336 -0.105336 -0.105336 -0.105336 -0.105336 -0.105336 -0.105336 -0.105336 -0.105336 -0.105336 -0.105336 -0.105336 -0.105336 -0.105336 -0.105336 -0.105336 -0.105336 -0.105336 -0.172492 -0.172492 -0.172492 -0.172492 -0.172492 -0.172492 -0.172492 -0.172492 -0.172492 -0.172492 -0.172492 -0.172492 -0.172492 -0.172492 -0.172492 -0.172492 -0.172492 -0.172492 -0.156041 -0.152225 -0.158239 -0.150025 -0.141670 -0.143062 -0.145104 -0.142560 -0.142455 -0.123882 -0.101794 0.032547 0.029645 0.064385 0.075650 0.062091 0.063940 0.070150 0.062417 0.083881 0.116502 0.151446 0.168758 0.167480 0.159259 0.183304 0.225405 0.263191 0.260765 0.254232 0.219708 0.224236 0.208042 0.194635 0.191214 0.246100 0.309133 0.338984 0.367651 0.363454 0.366668 0.394253 0.454484 0.482092 0.497231 0.452668 0.461249 0.469110 0.459159 0.410183 0.443455 0.491539 0.549264 0.559507 0.555916 0.551414 0.575462 0.603136 0.593948 0.602405 0.752736 0.742401 0.657942 0.617998 0.607724 0.603560 0.574826 0.534605 0.506863 0.502171 0.499235 0.491534 0.507298 0.483860 0.446491 0.431818 0.405914 0.364443 0.380340 0.372705 0.333461 0.306535 0.312237 0.307482 0.323242 0.224408 0.192979 0.218318 0.249120 0.267504 0.266368 0.306303 0.287568 0.289423 0.273805 0.295922 0.301383 0.258937 0.261167 0.222894 0.181515 0.140609 0.124223 0.181330 0.223718 0.215060 0.204299 0.242059 0.282066 0.306463 0.303335 0.295937 0.201185 0.204282 0.135658 0.120763 0.096962 0.083124 0.120784 0.175156 0.138547 0.140778 0.078269 0.042976 0.090470 0.068664 0.044165 0.023352 -0.009521 -0.044391 -0.010197 -0.060477 -0.063000 -0.072127 -0.114955 -0.134781 -0.180115 -0.196789 -0.212050 -0.247430 -0.240599 -0.206376 -0.208676 -0.258729 -0.217073 -0.215485 -0.265953 -0.269009 -0.276417 -0.302564 -0.290908 -0.311494 -0.329465 -0.290601 -0.289348 -0.218903 -0.192968 -0.165747 -0.156379 -0.235098 -0.222750 -0.254956 -0.262063 -0.173921 -0.137518 -0.150145 -0.171679 -0.133413 -0.072096 -0.055094 -0.064752 -0.016188 -0.031401 -0.017755 0.005537 0.028100 0.084688 0.111948 0.035820 0.079269 0.091113 0.043531 0.049565 0.109820 0.115087 0.158524 0.217111 0.181005 0.156236 0.190624 0.267138 0.223753 0.179280 0.183636 0.208454 0.170371 0.195253 0.128431 0.118126 0.176314 0.165486 0.124083 0.223667 0.237453 0.262730 0.232137 0.231893 0.236234 0.267922 0.302277 0.289637 0.305798 0.281168 0.283628 0.265134 0.237557 0.207973 0.225073 0.224398 0.241802 0.261903 0.274032 0.307177 0.296849 0.196094 0.193543 0.155175 0.147000 0.173190 0.179196 0.228441 0.212032 0.233992 0.210439 0.211660 0.189454 0.179494 0.152076 0.179423 0.230799 0.223571 0.232668 0.269608 0.251687 0.284580 0.309591 0.319404 0.270557 0.252571 0.257005 0.227477 0.223758 0.254353 0.228386 0.263416 0.174816 0.181504 0.242532 0.216692 0.316432 0.284368 0.306391 0.322537 0.326871 0.340734 0.372292 0.382231 0.335776 0.307427 0.306060 0.321174 0.298950 0.293432 0.272808 0.263599 0.229190 0.237816 0.294878 0.421921 0.363770 0.344844 0.432620 0.356879 0.356879 0.356879 0.356879 0.235009 0.235009 0.235009 0.235009 0.235009 0.362417 0.362417 0.362417 0.362417 0.362417 0.362417 0.362417 0.362417 0.303749 0.303749 0.303749 0.303749 0.303749 0.303749 0.303749 0.303749
0.000000 0.000000 0.000000 0.000000 2117139616508098560.000000 973718846706715648.000000 425031410699205760.000000 547188251981663104.000000 444999916215243200.000000 383387132799658816.000000 976768342219613056.000000 897969642228519680.000000 407996402100678400.000000 1428292282906110464.000000 815540355167945728.000000 813068103303590784.000000 468337050514652160.000000 846912720390902912.000000 732379342986625280.000000 284679127384019808.000000 0.216930 0.216930 0.216930 0.216930 0.216930 0.216930 0.216930 0.216930 0.216930 0.216930 0.216930 0.216930 0.216930 0.216930 0.216930 0.216930 0.216930 0.216930 0.234082 0.234082 0.234082 0.234082 0.234082 0.234082 0.234082 0.234082 0.234082 0.234082 0.234082 0.234082 0.234082 0.234082 0.234082 0.234082 0.234082 0.234082 0.234082 0.234082 0.234082 0.234082 0.234082 0.234082 0.234082 0.234082 0.234082 0.234082 0.234082 0.274721 0.274721 0.274721 0.274721 0.274721 0.274721 0.274721 0.274721 0.274721 0.274721 0.274721 0.274721 0.274721 0.274721 0.274721 0.274721 0.274721 0.274721 0.274721 0.291730 0.291730 0.291730 0.291730 0.291730 0.291730 0.291730 0.291730 0.291730 0.291730 0.291730 0.291730 0.291730 0.291730 0.291730 0.291730 0.298142 0.298142 0.298142 0.298142 0.298142 0.298142 0.298142 0.298142 0.298142 0.298142 0.298142 0.298142 0.298142 0.298142 0.312348 0.312348 0.312348 0.312348 0.312348 0.312348 0.312348 0.312348 0.312348 0.312348 0.312348 0.312348 0.312348 0.312348 0.312348 0.312348 0.312348 0.312348 0.312348 0.312348 0.312348 0.312348 0.312348 0.320256 0.320256 0.320256 0.320256 0.320256 0.320256 0.320256 0.320256 0.320256 0.320256 0.312348 0.312348 0.312348 0.312348 0.312348 0.312348 0.312348 0.312348 0.312348 0.312348 0.312348 0.312348 0.312348 0.312348 0.312348 0.312348 0.312348 0.312348 0.312348 0.304997 0.304997 0.304997 0.304997 0.304997 0.304997 0.304997 0.304997 0.304997 0.320256 0.320256 0.320256 0.320256 0.320256 0.320256 0.320256 0.320256 0.312348 0.312348 0.312348 0.312348 0.312348 0.312348 0.312348 0.312348 0.320256 0.320256 0.320256 0.320256 0.320256 0.320256 0.320256 0.298142 0.298142 0.298142 0.298142 0.298142 0.298142 0.298142 0.298142 0.312348 0.312348 0.312348 0.312348 0.312348 0.312348 0.312348 0.328798 0.328798 0.328798 0.328798 0.328798 0.328798 0.298142 0.298142 0.298142 0.298142 0.298142 0.298142 0.298142 0.312348 0.312348 0.312348 0.312348 0.312348 0.312348 0.285714 0.285714 0.285714 0.285714 0.285714 0.285714 0.285714 0.304997 0.304997 0.304997 0.304997 0.304997 0.304997 0.298142 0.298142 0.298142 0.298142 0.298142 0.298142 0.320256 0.320256 0.320256 0.320256 0.320256 0.291730 0.291730 0.291730 0.291730 0.291730 0.291730 0.285714 0.285714 0.285714 0.285714 0.285714 0.285714 0.304997 0.304997 0.304997 0.304997 0.304997 0.298142 0.298142 0.298142 0.298142 0.298142 0.274721 0.274721 0.274721 0.274721 0.274721 0.274721 0.291730 0.291730 0.291730 0.291730 0.291730 0.285714 0.285714 0.285714 0.285714 0.285714 0.285714 0.285714 0.285714 0.285714 0.285714 0.280056 0.280056 0.280056 0.280056 0.280056 0.280056 0.280056 0.280056 0.280056 0.280056 0.298142 0.298142 0.298142 0.298142 0.269680 0.269680 0.269680 0.269680 0.269680 0.269680 0.269680 0.269680 0.269680 0.269680 0.291730 0.291730 0.291730 0.291730 0.264906 0.264906 0.264906 0.264906 0.264906 0.285714 0.285714 0.285714 0.285714 0.280056 0.280056 0.280056 0.280056 0.256074 0.256074 0.256074 0.256074 0.256074 0.274721 0.274721 0.274721 0.274721 0.274721 0.274721 0.274721 0.274721 0.269680 0.269680 0.269680 0.269680 0.269680 0.269680 0.269680 0.269680
