# Output from CTFFind version 4.1.9, run on 2019-11-24 12:06:07
# Input file: stack1_ubbm3d_averaged_1_0.0_0_500_half.mrc ; Number of micrographs: 1
# Pixel size: 1.500 Angstroms ; acceleration voltage: 300.0 keV ; spherical aberration: 0.00 mm ; amplitude contrast: 0.07
# Box size: 512 pixels ; min. res.: 40.0 Angstroms ; max. res.: 6.0 Angstroms ; min. def.: 5000.0 um; max. def. 50000.0 um; num. frames averaged: 1
# 6 lines per micrograph: #1 - spatial frequency (1/Angstroms); #2 - 1D rotational average of spectrum (assuming no astigmatism); #3 - 1D rotational average of spectrum; #4 - CTF fit; #5 - cross-correlation between spectrum and CTF fit; #6 - 2sigma of expected cross correlation of noise
0.000000 0.001302 0.002604 0.003906 0.005208 0.006510 0.007812 0.009115 0.010417 0.011719 0.013021 0.014323 0.015625 0.016927 0.018229 0.019531 0.020833 0.022135 0.023438 0.024740 0.026042 0.027344 0.028646 0.029948 0.031250 0.032552 0.033854 0.035156 0.036458 0.037760 0.039062 0.040365 0.041667 0.042969 0.044271 0.045573 0.046875 0.048177 0.049479 0.050781 0.052083 0.053385 0.054688 0.055990 0.057292 0.058594 0.059896 0.061198 0.062500 0.063802 0.065104 0.066406 0.067708 0.069010 0.070312 0.071615 0.072917 0.074219 0.075521 0.076823 0.078125 0.079427 0.080729 0.082031 0.083333 0.084635 0.085938 0.087240 0.088542 0.089844 0.091146 0.092448 0.093750 0.095052 0.096354 0.097656 0.098958 0.100260 0.101562 0.102865 0.104167 0.105469 0.106771 0.108073 0.109375 0.110677 0.111979 0.113281 0.114583 0.115885 0.117188 0.118490 0.119792 0.121094 0.122396 0.123698 0.125000 0.126302 0.127604 0.128906 0.130208 0.131510 0.132812 0.134115 0.135417 0.136719 0.138021 0.139323 0.140625 0.141927 0.143229 0.144531 0.145833 0.147135 0.148438 0.149740 0.151042 0.152344 0.153646 0.154948 0.156250 0.157552 0.158854 0.160156 0.161458 0.162760 0.164062 0.165365 0.166667 0.167969 0.169271 0.170573 0.171875 0.173177 0.174479 0.175781 0.177083 0.178385 0.179688 0.180990 0.182292 0.183594 0.184896 0.186198 0.187500 0.188802 0.190104 0.191406 0.192708 0.194010 0.195312 0.196615 0.197917 0.199219 0.200521 0.201823 0.203125 0.204427 0.205729 0.207031 0.208333 0.209635 0.210938 0.212240 0.213542 0.214844 0.216146 0.217448 0.218750 0.220052 0.221354 0.222656 0.223958 0.225260 0.226562 0.227865 0.229167 0.230469 0.231771 0.233073 0.234375 0.235677 0.236979 0.238281 0.239583 0.240885 0.242188 0.243490 0.244792 0.246094 0.247396 0.248698 0.250000 0.251302 0.252604 0.253906 0.255208 0.256510 0.257812 0.259115 0.260417 0.261719 0.263021 0.264323 0.265625 0.266927 0.268229 0.269531 0.270833 0.272135 0.273438 0.274740 0.276042 0.277344 0.278646 0.279948 0.281250 0.282552 0.283854 0.285156 0.286458 0.287760 0.289062 0.290365 0.291667 0.292969 0.294271 0.295573 0.296875 0.298177 0.299479 0.300781 0.302083 0.303385 0.304688 0.305990 0.307292 0.308594 0.309896 0.311198 0.312500 0.313802 0.315104 0.316406 0.317708 0.319010 0.320312 0.321615 0.322917 0.324219 0.325521 0.326823 0.328125 0.329427 0.330729 0.332031 0.333333 0.334635 0.335938 0.337240 0.338542 0.339844 0.341146 0.342448 0.343750 0.345052 0.346354 0.347656 0.348958 0.350260 0.351562 0.352865 0.354167 0.355469 0.356771 0.358073 0.359375 0.360677 0.361979 0.363281 0.364583 0.365885 0.367188 0.368490 0.369792 0.371094 0.372396 0.373698 0.375000 0.376302 0.377604 0.378906 0.380208 0.381510 0.382812 0.384115 0.385417 0.386719 0.388021 0.389323 0.390625 0.391927 0.393229 0.394531 0.395833 0.397135 0.398438 0.399740 0.401042 0.402344 0.403646 0.404948 0.406250 0.407552 0.408854 0.410156 0.411458 0.412760 0.414062 0.415365 0.416667 0.417969 0.419271 0.420573 0.421875 0.423177 0.424479 0.425781 0.427083 0.428385 0.429688 0.430990 0.432292 0.433594 0.434896 0.436198 0.437500 0.438802 0.440104 0.441406 0.442708 0.444010 0.445312 0.446615 0.447917 0.449219 0.450521 0.451823 0.453125 0.454427 0.455729 0.457031 0.458333 0.459635 0.460938 0.462240 0.463542 0.464844 0.466146 0.467448 0.468750 0.470052 0.471354
       0.44808        0.44808        0.44808        0.44808        0.44808        0.44808        0.44808        0.44808        0.44808        0.44808        0.44808        0.44808        0.44808        0.44808        0.44808        0.44808        0.44808        0.44808        0.44808        1.28422        1.97066        0.82988        0.04325       -0.07811        0.50934        1.11683        1.01990        0.49773        0.17282        0.13108        0.16594        0.18246        0.18963        0.15638        0.07015        0.09433        0.09105       -0.02392       -0.14035       -0.11607       -0.02716        0.02965        0.15146        0.37073        0.57548        0.66713        0.69295        0.73925        0.83804        0.86235        0.71687        0.42413        0.20150        0.19713        0.33421        0.39929        0.31551        0.19372        0.15837        0.22121        0.35418        0.47058        0.60822        0.71876        0.74669        0.64992        0.49534        0.40592        0.35240        0.31576        0.35729        0.50570        0.64268        0.58645        0.46147        0.42064        0.44366        0.42357        0.35188        0.34520        0.45746        0.52531        0.48057        0.34052        0.29413        0.37912        0.49187        0.51066        0.45968        0.40003        0.39122        0.40738        0.39450        0.36074        0.31863        0.35543        0.45563        0.54893        0.57745        0.53737        0.50933        0.50071        0.52148        0.51425        0.47475        0.43039        0.39556        0.38717        0.36968        0.37180        0.41765        0.47378        0.45466        0.39300        0.40815        0.50999        0.57139        0.52575        0.44975        0.42669        0.43761        0.42872        0.44045        0.48072        0.50355        0.47750        0.41128        0.36031        0.37664        0.44004        0.49141        0.47194        0.39520        0.36773        0.43070        0.54766        0.57018        0.46716        0.35431        0.35238        0.43503        0.51721        0.52646        0.48401        0.44832        0.42899        0.45302        0.48264        0.51156        0.48147        0.43628        0.41222        0.41596        0.40692        0.36665        0.35282        0.40011        0.47925        0.50058        0.45803        0.42339        0.43593        0.45055        0.41158        0.38045        0.43606        0.51472        0.54763        0.50396        0.46222        0.42734        0.40676        0.40858        0.44983        0.49994        0.51156        0.49263        0.46166        0.44366        0.43947        0.46081        0.48453        0.50489        0.48333        0.44294        0.41713        0.42202        0.43868        0.43240        0.40894        0.40271        0.43123        0.44081        0.40392        0.38553        0.44413        0.51909        0.51200        0.44503        0.40848        0.41781        0.42407        0.43289        0.46125        0.49572        0.47203        0.42902        0.42346        0.46559        0.51867        0.53612        0.50799        0.45855        0.43149        0.45457        0.48430        0.49177        0.46428        0.43349        0.39703        0.39702        0.44630        0.48757        0.47015        0.39672        0.35918        0.38377        0.42721        0.43424        0.44255        0.47035        0.50386        0.50675        0.46665        0.43432        0.43541        0.45580        0.46490        0.43744        0.40919        0.40121        0.42261        0.45450        0.48320        0.49029        0.48733        0.47930        0.48105        0.47132        0.45093        0.43523        0.43312        0.43260        0.43432        0.44381        0.45772        0.44756        0.41500        0.41315        0.44954        0.45851        0.41918        0.39761        0.41381        0.44735        0.45108        0.41908        0.40844        0.44058        0.47953        0.48274        0.46951        0.48357        0.49077        0.45729        0.42642        0.45019        0.48298        0.45509        0.37424        0.33999        0.38459        0.44564        0.47319        0.46899        0.44730        0.43795        0.44666        0.45177        0.44998        0.45205        0.47915        0.49345        0.47080        0.42685        0.44462        0.46857        0.43214        0.37100        0.36334        0.40147        0.44529        0.45568        0.47508        0.49040        0.47571        0.44433        0.43638        0.44739        0.44356        0.44333        0.44981        0.44706        0.42268        0.46349        0.52242        0.49491        0.42345        0.42096        0.47425        0.47357        0.40417        0.38754        0.43426        0.44491        0.38599        0.36110        0.38644        0.39344        0.37323        0.40458        0.44078        0.43114        0.39360        0.40946        0.49119        0.55840        0.55800        0.53828        0.58240        0.54434        0.34036        0.18193        0.33068        0.60803        0.61936        0.39814        0.31423        0.36215        0.40078        0.42566        0.50418        0.45492        0.29482        0.31760        0.55433        0.65592        0.46941        0.21473        0.04106       -0.10487       -0.20267       -0.24599
0.448084 0.448084 0.448084 0.448084 0.448084 0.448084 0.448084 0.448084 0.448084 0.448084 0.448084 0.448084 0.448084 0.448084 0.448084 0.448084 0.448084 0.448084 0.448084 1.318347 2.037691 0.998435 0.009754 -0.192458 0.416023 1.224204 1.025902 0.477257 0.218384 0.147845 0.066705 0.191980 0.251468 0.145837 0.098021 0.082573 0.090998 0.008727 -0.184965 -0.077151 -0.020209 0.009448 0.095327 0.402578 0.555153 0.649796 0.696511 0.732369 0.807347 0.862711 0.796206 0.407738 0.238133 0.171439 0.406074 0.349523 0.333676 0.130913 0.169946 0.259390 0.333407 0.458574 0.567724 0.703485 0.764376 0.695687 0.532114 0.418957 0.355170 0.322431 0.327969 0.535121 0.591811 0.608021 0.499633 0.414249 0.463750 0.409112 0.341880 0.346536 0.416695 0.510163 0.540628 0.374352 0.278368 0.375514 0.455855 0.500561 0.485224 0.400511 0.400487 0.420763 0.401091 0.376174 0.288958 0.347832 0.407072 0.526195 0.598549 0.574911 0.501751 0.537001 0.489813 0.493323 0.485440 0.441768 0.398359 0.397430 0.375908 0.377827 0.394201 0.463927 0.478948 0.393250 0.369050 0.477902 0.532741 0.556192 0.480657 0.423159 0.433928 0.426355 0.448010 0.463581 0.508572 0.484731 0.429333 0.393230 0.364169 0.405985 0.488767 0.470145 0.437502 0.365833 0.389751 0.525105 0.561758 0.551881 0.377318 0.332711 0.385541 0.520465 0.550405 0.502960 0.453678 0.428552 0.440956 0.450898 0.521937 0.464698 0.463396 0.415508 0.405585 0.414017 0.380538 0.347388 0.357196 0.448029 0.514508 0.477107 0.423709 0.422347 0.456453 0.432250 0.375383 0.393025 0.503579 0.536205 0.518851 0.477783 0.436066 0.410753 0.391868 0.439194 0.474649 0.524229 0.496641 0.485110 0.434063 0.445151 0.449276 0.466398 0.493196 0.523116 0.462690 0.410078 0.399188 0.437209 0.458974 0.417000 0.409098 0.401879 0.445527 0.430965 0.386522 0.385774 0.490488 0.532206 0.493730 0.412384 0.409249 0.438605 0.427116 0.436426 0.461377 0.516425 0.463619 0.407791 0.449797 0.474316 0.527455 0.533892 0.489957 0.451929 0.427944 0.455237 0.508136 0.489017 0.438534 0.425823 0.398383 0.411541 0.449435 0.488655 0.450789 0.355986 0.358283 0.414135 0.426503 0.440307 0.465285 0.488918 0.502292 0.494669 0.455398 0.433634 0.441178 0.465738 0.469343 0.425821 0.392472 0.419538 0.428964 0.452158 0.497200 0.485355 0.484350 0.472290 0.480464 0.465547 0.461551 0.429727 0.425688 0.438884 0.431653 0.443105 0.466143 0.452140 0.405392 0.416406 0.449839 0.466891 0.401497 0.403431 0.440373 0.451494 0.439108 0.426045 0.403922 0.452288 0.489731 0.462455 0.468682 0.484398 0.489166 0.424385 0.425252 0.471464 0.484077 0.454885 0.355955 0.348531 0.397301 0.461833 0.482899 0.456635 0.442288 0.436611 0.454216 0.456592 0.434851 0.462221 0.499354 0.486839 0.450092 0.425372 0.477868 0.475066 0.411414 0.367650 0.372269 0.403259 0.470089 0.456966 0.469067 0.507590 0.451360 0.448442 0.426074 0.456681 0.429292 0.455319 0.454200 0.414288 0.456423 0.459252 0.515137 0.484162 0.404144 0.433523 0.501653 0.463720 0.378474 0.397236 0.444160 0.426579 0.397948 0.357043 0.401054 0.375984 0.337867 0.429121 0.457954 0.417725 0.378539 0.438246 0.498130 0.557850 0.558991 0.536283 0.591494 0.569388 0.391802 0.171671 0.374941 0.652036 0.575171 0.373575 0.294456 0.404782 0.369394 0.446875 0.526978 0.485184 0.320630 0.457410 0.522259 0.675487 0.519614 0.310358 0.100119 -0.103842 -0.245991
0.072396 0.073452 0.076620 0.081898 0.089283 0.098771 0.110355 0.124025 0.139770 0.157571 0.177405 0.199243 0.223048 0.248773 0.276358 0.305735 0.336819 0.369509 0.403685 0.439211 0.475927 0.513649 0.552170 0.591256 0.630644 0.670044 0.709136 0.747569 0.784961 0.820903 0.854955 0.886653 0.915507 0.941008 0.962627 0.979829 0.992071 0.998814 0.999529 0.993707 0.980874 0.960594 0.932489 0.896248 0.851644 0.798543 0.736926 0.666896 0.588692 0.502707 0.409491 0.309767 0.204431 0.094557 0.018602 0.133622 0.248915 0.362748 0.473260 0.578492 0.676417 0.764982 0.842150 0.905951 0.954536 0.986237 0.999625 0.993572 0.967309 0.920488 0.853227 0.766156 0.660449 0.537843 0.400643 0.251707 0.094410 0.067409 0.229524 0.387424 0.536429 0.671834 0.789062 0.883835 0.952345 0.991431 0.998747 0.972920 0.913676 0.821943 0.699911 0.551042 0.380035 0.192726 0.004074 0.202789 0.395355 0.573540 0.729305 0.855185 0.944683 0.992648 0.995620 0.952120 0.862863 0.730871 0.561478 0.362200 0.142478 0.086706 0.313345 0.525012 0.709552 0.855810 0.954352 0.998151 0.983160 0.908757 0.777987 0.597594 0.377803 0.131843 0.124758 0.375107 0.602045 0.789334 0.922885 0.991897 0.989846 0.915211 0.771871 0.569096 0.321125 0.046294 0.234218 0.497971 0.723057 0.889978 0.983429 0.993845 0.918534 0.762266 0.537221 0.262250 0.038539 0.337792 0.607340 0.820888 0.956669 0.999819 0.944198 0.793432 0.560989 0.269254 0.052438 0.370605 0.651058 0.862613 0.980691 0.990378 0.888549 0.684756 0.400667 0.068051 0.274581 0.586339 0.828836 0.971062 0.993558 0.891379 0.675331 0.371227 0.017128 0.341197 0.656091 0.884387 0.993515 0.966430 0.804626 0.528659 0.175953 0.203945 0.556167 0.828408 0.978873 0.982971 0.837741 0.563129 0.199728 0.196827 0.564182 0.843024 0.986848 0.970061 0.792983 0.482738 0.089630 0.320630 0.677720 0.918804 0.999860 0.904172 0.646282 0.270441 0.156473 0.556535 0.854928 0.994167 0.945594 0.715860 0.346821 0.091486 0.513731 0.835784 0.991680 0.947594 0.709816 0.324740 0.129519 0.558538 0.871118 0.998926 0.911967 0.626338 0.202117 0.268583 0.681261 0.942209 0.990193 0.811501 0.444562 0.027463 0.494913 0.846896 0.997811 0.908779 0.598484 0.140285 0.354357 0.762597 0.980801 0.951396 0.678919 0.230633 0.279193 0.717881 0.968882 0.963259 0.699524 0.245914 0.276285 0.724583 0.974178 0.953244 0.664585 0.186855 0.345845 0.781054 0.991676 0.913769 0.567033 0.051187 0.481693 0.871625 0.998954 0.821986 0.391829 0.161069 0.665586 0.962726 0.956261 0.645042 0.125763 0.435864 0.857409 0.999170 0.811428 0.353236 0.224721 0.728728 0.986841 0.908284 0.516716 0.055236 0.609682 0.951528 0.957670 0.622588 0.063139 0.520813 0.917163 0.978995 0.680276 0.128331 0.473172 0.898603 0.985316 0.697058 0.140774 0.471432 0.902350 0.981854 0.675389 0.100688 0.515754 0.927158 0.965629 0.612129 0.007527 0.601844 0.963896 0.925653 0.499533 0.138300 0.719214 0.994794 0.844006 0.328230 0.331568 0.848148 0.993008 0.698807 0.092725 0.556471 0.956639 0.924277 0.470442 0.200296 0.780360 0.999797 0.753159 0.152327 0.521943 0.950017 0.925373 0.456106 0.234693 0.813149 0.995632 0.689230 0.041427 0.628535 0.985937 0.848611 0.282020 0.429271 0.922834 0.943288 0.476330 0.239233 0.831471 0.988283 0.623463 0.073291 0.732508 0.999998 0.728385 0.060935 0.641259 0.993346 0.798552 0.160712 0.568077
1.000000 1.000000 1.000000 1.000000 1.000000 1.000000 1.000000 1.000000 1.000000 1.000000 1.000000 1.000000 1.000000 1.000000 1.000000 1.000000 1.000000 1.000000 1.000000 1.000000 -0.048061 -0.048061 -0.048061 -0.048061 -0.048061 -0.048061 -0.048061 -0.048061 -0.048061 -0.048061 -0.048061 -0.048061 -0.048061 -0.048061 -0.048061 -0.048061 -0.048061 -0.048061 -0.186996 -0.186996 -0.186996 -0.186996 -0.186996 -0.186996 -0.186996 -0.186996 -0.186996 -0.186996 -0.186996 -0.186996 -0.186996 -0.186996 -0.186996 -0.186996 -0.186996 -0.186996 -0.208151 -0.168142 -0.101107 -0.088371 -0.093903 -0.097209 -0.095536 -0.089999 -0.086750 -0.062648 -0.039839 0.093873 0.197758 0.245848 0.254932 0.246921 0.245583 0.249427 0.240935 0.264814 0.290038 0.322808 0.340472 0.341986 0.338520 0.374848 0.433497 0.465533 0.441602 0.427543 0.439631 0.420480 0.398509 0.386509 0.362746 0.329235 0.371454 0.454350 0.512129 0.512476 0.493947 0.513984 0.549789 0.537823 0.567733 0.555085 0.545056 0.555221 0.526361 0.467645 0.398798 0.404473 0.450133 0.436133 0.427116 0.454264 0.471981 0.464662 0.474038 0.499916 0.416327 0.423575 0.385978 0.323909 0.290337 0.292229 0.247802 0.196917 0.159272 0.148267 0.143349 0.143907 0.168792 0.123971 0.085985 0.094752 0.113530 0.124439 0.167938 0.217009 0.190296 0.158737 0.166787 0.156355 0.172206 0.130937 0.153125 0.154483 0.170703 0.198250 0.213293 0.266969 0.358758 0.382546 0.407690 0.418846 0.458446 0.460591 0.424675 0.416440 0.440394 0.444538 0.399875 0.436587 0.519622 0.548837 0.540937 0.576326 0.635622 0.631816 0.596805 0.592321 0.518030 0.516927 0.466754 0.447318 0.421366 0.399067 0.403976 0.354700 0.286004 0.323680 0.235559 0.217750 0.189425 0.145447 0.143955 0.148365 0.127038 0.100508 0.099974 0.044423 -0.004516 -0.043558 -0.091801 -0.153590 -0.177064 -0.267858 -0.271685 -0.317913 -0.338728 -0.334448 -0.343416 -0.332745 -0.317181 -0.300303 -0.325806 -0.317524 -0.332667 -0.348624 -0.394201 -0.456330 -0.434788 -0.405550 -0.437706 -0.477707 -0.471176 -0.440312 -0.408822 -0.417710 -0.437817 -0.478418 -0.475053 -0.475248 -0.486146 -0.473793 -0.450817 -0.484073 -0.497079 -0.521830 -0.509722 -0.430507 -0.411901 -0.431306 -0.438476 -0.414834 -0.391390 -0.406768 -0.387583 -0.353950 -0.336717 -0.364168 -0.390630 -0.378102 -0.442653 -0.422435 -0.422474 -0.394423 -0.382497 -0.396265 -0.374240 -0.389431 -0.396307 -0.399060 -0.361322 -0.351660 -0.316270 -0.350846 -0.356654 -0.357477 -0.351737 -0.392068 -0.425005 -0.339821 -0.356554 -0.350814 -0.335897 -0.358163 -0.365829 -0.349197 -0.356421 -0.356716 -0.351250 -0.344749 -0.427255 -0.409346 -0.424666 -0.413150 -0.388782 -0.329034 -0.332315 -0.323618 -0.324379 -0.321754 -0.292656 -0.301657 -0.294564 -0.261955 -0.236748 -0.256081 -0.179638 -0.169866 -0.161702 -0.187698 -0.128932 -0.119593 -0.109465 -0.117420 -0.059327 -0.089719 -0.059645 -0.070550 -0.007759 -0.020103 0.038026 0.051510 0.104750 0.112776 0.126342 0.115473 0.124795 0.144464 0.127377 0.130840 0.136102 0.097230 0.067675 0.075395 0.029669 0.062144 0.205602 0.189417 0.127558 0.099345 0.072528 0.109578 0.109071 0.091628 0.065093 0.094034 0.099079 0.117374 0.130211 -0.017933 -0.006924 -0.022096 -0.002864 0.049917 -0.042413 -0.046038 -0.083181 -0.020792 0.011189 0.011189 0.011189 0.011189 0.011189 0.003059 0.003059 0.003059 0.003059 -0.002897 -0.002897 -0.002897 -0.002897 -0.002897 -0.002897 -0.002897 -0.002897 0.012984 0.012984 0.012984 0.012984 0.012984 0.012984 0.012984 0.012984
0.000000 0.000000 0.000000 0.000000 1337192247321034240.000000 514042099510480768.000000 785972838288520448.000000 624008728083490560.000000 636724030446726144.000000 446378703760930240.000000 757057331723313920.000000 699635337130219264.000000 514268873836408768.000000 957183291283221248.000000 1126113357297460352.000000 1574091923042659328.000000 617838818744648704.000000 881591866797071488.000000 1070668284537811200.000000 315573653786637568.000000 0.216930 0.216930 0.216930 0.216930 0.216930 0.216930 0.216930 0.216930 0.216930 0.216930 0.216930 0.216930 0.216930 0.216930 0.216930 0.216930 0.216930 0.216930 0.234082 0.234082 0.234082 0.234082 0.234082 0.234082 0.234082 0.234082 0.234082 0.234082 0.234082 0.234082 0.234082 0.234082 0.234082 0.234082 0.234082 0.234082 0.234082 0.234082 0.234082 0.234082 0.234082 0.234082 0.234082 0.234082 0.234082 0.234082 0.234082 0.274721 0.274721 0.274721 0.274721 0.274721 0.274721 0.274721 0.274721 0.274721 0.274721 0.274721 0.274721 0.274721 0.274721 0.274721 0.274721 0.274721 0.274721 0.274721 0.291730 0.291730 0.291730 0.291730 0.291730 0.291730 0.291730 0.291730 0.291730 0.291730 0.291730 0.291730 0.291730 0.291730 0.291730 0.291730 0.298142 0.298142 0.298142 0.298142 0.298142 0.298142 0.298142 0.298142 0.298142 0.298142 0.298142 0.298142 0.298142 0.298142 0.312348 0.312348 0.312348 0.312348 0.312348 0.312348 0.312348 0.312348 0.312348 0.312348 0.312348 0.312348 0.312348 0.312348 0.312348 0.312348 0.312348 0.312348 0.312348 0.312348 0.312348 0.312348 0.312348 0.320256 0.320256 0.320256 0.320256 0.320256 0.320256 0.320256 0.320256 0.320256 0.320256 0.312348 0.312348 0.312348 0.312348 0.312348 0.312348 0.312348 0.312348 0.312348 0.312348 0.312348 0.312348 0.312348 0.312348 0.312348 0.312348 0.312348 0.312348 0.312348 0.304997 0.304997 0.304997 0.304997 0.304997 0.304997 0.304997 0.304997 0.304997 0.320256 0.320256 0.320256 0.320256 0.320256 0.320256 0.320256 0.320256 0.312348 0.312348 0.312348 0.312348 0.312348 0.312348 0.312348 0.312348 0.320256 0.320256 0.320256 0.320256 0.320256 0.320256 0.320256 0.298142 0.298142 0.298142 0.298142 0.298142 0.298142 0.298142 0.298142 0.312348 0.312348 0.312348 0.312348 0.312348 0.312348 0.312348 0.304997 0.304997 0.304997 0.304997 0.304997 0.304997 0.304997 0.320256 0.320256 0.320256 0.320256 0.320256 0.320256 0.291730 0.291730 0.291730 0.291730 0.291730 0.291730 0.291730 0.304997 0.304997 0.304997 0.304997 0.304997 0.304997 0.304997 0.304997 0.304997 0.304997 0.304997 0.304997 0.298142 0.298142 0.298142 0.298142 0.298142 0.298142 0.291730 0.291730 0.291730 0.291730 0.291730 0.291730 0.312348 0.312348 0.312348 0.312348 0.312348 0.285714 0.285714 0.285714 0.285714 0.285714 0.285714 0.304997 0.304997 0.304997 0.304997 0.304997 0.280056 0.280056 0.280056 0.280056 0.280056 0.280056 0.298142 0.298142 0.298142 0.298142 0.298142 0.291730 0.291730 0.291730 0.291730 0.291730 0.285714 0.285714 0.285714 0.285714 0.285714 0.285714 0.285714 0.285714 0.285714 0.285714 0.280056 0.280056 0.280056 0.280056 0.280056 0.280056 0.280056 0.280056 0.280056 0.280056 0.274721 0.274721 0.274721 0.274721 0.274721 0.298142 0.298142 0.298142 0.298142 0.269680 0.269680 0.269680 0.269680 0.269680 0.291730 0.291730 0.291730 0.291730 0.264906 0.264906 0.264906 0.264906 0.264906 0.285714 0.285714 0.285714 0.285714 0.256074 0.256074 0.256074 0.256074 0.256074 0.280056 0.280056 0.280056 0.280056 0.274721 0.274721 0.274721 0.274721 0.274721 0.274721 0.274721 0.274721 0.248069 0.248069 0.248069 0.248069 0.248069 0.248069 0.248069 0.248069
