# Output from CTFFind version 4.1.9, run on 2019-11-24 11:56:26
# Input file: stack1_bm3d_averaged_1_1.0_0_1500_half.mrc ; Number of micrographs: 1
# Pixel size: 1.500 Angstroms ; acceleration voltage: 300.0 keV ; spherical aberration: 0.00 mm ; amplitude contrast: 0.07
# Box size: 512 pixels ; min. res.: 40.0 Angstroms ; max. res.: 6.0 Angstroms ; min. def.: 5000.0 um; max. def. 50000.0 um; num. frames averaged: 1
# 6 lines per micrograph: #1 - spatial frequency (1/Angstroms); #2 - 1D rotational average of spectrum (assuming no astigmatism); #3 - 1D rotational average of spectrum; #4 - CTF fit; #5 - cross-correlation between spectrum and CTF fit; #6 - 2sigma of expected cross correlation of noise
0.000000 0.001302 0.002604 0.003906 0.005208 0.006510 0.007812 0.009115 0.010417 0.011719 0.013021 0.014323 0.015625 0.016927 0.018229 0.019531 0.020833 0.022135 0.023438 0.024740 0.026042 0.027344 0.028646 0.029948 0.031250 0.032552 0.033854 0.035156 0.036458 0.037760 0.039062 0.040365 0.041667 0.042969 0.044271 0.045573 0.046875 0.048177 0.049479 0.050781 0.052083 0.053385 0.054688 0.055990 0.057292 0.058594 0.059896 0.061198 0.062500 0.063802 0.065104 0.066406 0.067708 0.069010 0.070312 0.071615 0.072917 0.074219 0.075521 0.076823 0.078125 0.079427 0.080729 0.082031 0.083333 0.084635 0.085938 0.087240 0.088542 0.089844 0.091146 0.092448 0.093750 0.095052 0.096354 0.097656 0.098958 0.100260 0.101562 0.102865 0.104167 0.105469 0.106771 0.108073 0.109375 0.110677 0.111979 0.113281 0.114583 0.115885 0.117188 0.118490 0.119792 0.121094 0.122396 0.123698 0.125000 0.126302 0.127604 0.128906 0.130208 0.131510 0.132812 0.134115 0.135417 0.136719 0.138021 0.139323 0.140625 0.141927 0.143229 0.144531 0.145833 0.147135 0.148438 0.149740 0.151042 0.152344 0.153646 0.154948 0.156250 0.157552 0.158854 0.160156 0.161458 0.162760 0.164062 0.165365 0.166667 0.167969 0.169271 0.170573 0.171875 0.173177 0.174479 0.175781 0.177083 0.178385 0.179688 0.180990 0.182292 0.183594 0.184896 0.186198 0.187500 0.188802 0.190104 0.191406 0.192708 0.194010 0.195312 0.196615 0.197917 0.199219 0.200521 0.201823 0.203125 0.204427 0.205729 0.207031 0.208333 0.209635 0.210938 0.212240 0.213542 0.214844 0.216146 0.217448 0.218750 0.220052 0.221354 0.222656 0.223958 0.225260 0.226562 0.227865 0.229167 0.230469 0.231771 0.233073 0.234375 0.235677 0.236979 0.238281 0.239583 0.240885 0.242188 0.243490 0.244792 0.246094 0.247396 0.248698 0.250000 0.251302 0.252604 0.253906 0.255208 0.256510 0.257812 0.259115 0.260417 0.261719 0.263021 0.264323 0.265625 0.266927 0.268229 0.269531 0.270833 0.272135 0.273438 0.274740 0.276042 0.277344 0.278646 0.279948 0.281250 0.282552 0.283854 0.285156 0.286458 0.287760 0.289062 0.290365 0.291667 0.292969 0.294271 0.295573 0.296875 0.298177 0.299479 0.300781 0.302083 0.303385 0.304688 0.305990 0.307292 0.308594 0.309896 0.311198 0.312500 0.313802 0.315104 0.316406 0.317708 0.319010 0.320312 0.321615 0.322917 0.324219 0.325521 0.326823 0.328125 0.329427 0.330729 0.332031 0.333333 0.334635 0.335938 0.337240 0.338542 0.339844 0.341146 0.342448 0.343750 0.345052 0.346354 0.347656 0.348958 0.350260 0.351562 0.352865 0.354167 0.355469 0.356771 0.358073 0.359375 0.360677 0.361979 0.363281 0.364583 0.365885 0.367188 0.368490 0.369792 0.371094 0.372396 0.373698 0.375000 0.376302 0.377604 0.378906 0.380208 0.381510 0.382812 0.384115 0.385417 0.386719 0.388021 0.389323 0.390625 0.391927 0.393229 0.394531 0.395833 0.397135 0.398438 0.399740 0.401042 0.402344 0.403646 0.404948 0.406250 0.407552 0.408854 0.410156 0.411458 0.412760 0.414062 0.415365 0.416667 0.417969 0.419271 0.420573 0.421875 0.423177 0.424479 0.425781 0.427083 0.428385 0.429688 0.430990 0.432292 0.433594 0.434896 0.436198 0.437500 0.438802 0.440104 0.441406 0.442708 0.444010 0.445312 0.446615 0.447917 0.449219 0.450521 0.451823 0.453125 0.454427 0.455729 0.457031 0.458333 0.459635 0.460938 0.462240 0.463542 0.464844 0.466146 0.467448 0.468750 0.470052 0.471354
       0.66554        0.66554        0.66554        0.66554        0.66554        0.66554        0.66554        0.66554        0.66554        0.66554        0.66554        0.66554        0.66554        0.66554        0.66554        0.66554        0.66554        0.66554        0.66554        1.52685        2.28803        1.13963        0.32865        0.15410        0.69822        1.30383        1.18826        0.65403        0.38483        0.42032        0.44310        0.36751        0.37160        0.43054        0.36054        0.27681        0.17575        0.09725        0.02328        0.01789        0.05590        0.16328        0.40725        0.67272        0.81820        0.81505        0.79188        0.86397        1.02612        1.14120        1.03885        0.70586        0.43362        0.43477        0.57790        0.56935        0.43578        0.38550        0.47606        0.57272        0.66229        0.73821        0.84140        0.88487        0.86244        0.79412        0.70151        0.64290        0.59315        0.58534        0.63973        0.75195        0.79990        0.68931        0.56864        0.57329        0.63960        0.64223        0.59395        0.61631        0.71678        0.73262        0.66299        0.56061        0.57535        0.64460        0.71564        0.71853        0.66258        0.56605        0.49661        0.54121        0.64006        0.70109        0.65413        0.61854        0.69003        0.80536        0.82121        0.73836        0.68608        0.69287        0.70862        0.68861        0.66329        0.65969        0.63356        0.59497        0.54393        0.51405        0.53867        0.61077        0.67540        0.70431        0.72167        0.75590        0.76927        0.76125        0.71697        0.63518        0.54963        0.52806        0.63319        0.77406        0.80482        0.72968        0.65676        0.64735        0.66638        0.66243        0.66274        0.66525        0.62849        0.55388        0.51674        0.58158        0.66695        0.66773        0.64559        0.68635        0.76361        0.75238        0.68131        0.65720        0.70656        0.72526        0.68719        0.64463        0.64733        0.64207        0.63263        0.65482        0.70296        0.70263        0.62566        0.53790        0.51302        0.57344        0.65600        0.69558        0.70430        0.68961        0.62945        0.56532        0.59047        0.70287        0.78472        0.75734        0.69110        0.69029        0.71369        0.72785        0.72344        0.71780        0.71079        0.70518        0.71297        0.69920        0.62425        0.56267        0.57703        0.64682        0.70612        0.70669        0.65109        0.59490        0.59782        0.65153        0.68303        0.64698        0.60141        0.60846        0.64092        0.65347        0.64011        0.63121        0.64579        0.67780        0.72957        0.74082        0.69255        0.63718        0.63394        0.66619        0.69935        0.70700        0.68570        0.64140        0.62316        0.66102        0.70603        0.70351        0.68283        0.67739        0.67970        0.66565        0.67019        0.70328        0.71103        0.67580        0.61751        0.59503        0.61964        0.67916        0.71707        0.70360        0.66202        0.64161        0.64003        0.66010        0.69330        0.72533        0.70586        0.63208        0.57204        0.59233        0.65138        0.70827        0.71940        0.71308        0.68244        0.65687        0.64776        0.65693        0.67591        0.70348        0.73682        0.73628        0.69104        0.65468        0.63295        0.63306        0.62225        0.60888        0.60059        0.61789        0.65367        0.66991        0.66183        0.67295        0.70318        0.71341        0.69199        0.67344        0.68721        0.73801        0.71379        0.65416        0.63777        0.66150        0.66578        0.61736        0.58950        0.61441        0.65159        0.67164        0.67068        0.66324        0.64482        0.62693        0.67456        0.72752        0.73971        0.67974        0.62476        0.64907        0.70784        0.69745        0.59941        0.53997        0.59881        0.72274        0.79403        0.80203        0.75847        0.69031        0.58049        0.52181        0.58712        0.65837        0.63644        0.57853        0.56491        0.58056        0.57271        0.62033        0.67883        0.64601        0.63539        0.67599        0.72425        0.66414        0.67619        0.76685        0.82182        0.74100        0.67350        0.78733        0.84647        0.72561        0.54126        0.59395        0.65758        0.61394        0.57228        0.72275        0.78318        0.68043        0.57038        0.49932        0.48252        0.51336        0.62051        0.70218        0.70959        0.77167        0.73998        0.62814        0.58581        0.70937        0.78064        0.67309        0.63144        0.82302        0.78024        0.59679        0.54354        0.75481        0.77020        0.48447        0.31804        0.45219        0.61316        0.67277        0.81437        0.99488        0.95423        0.60586        0.17698       -0.22699       -0.59311       -0.79623       -0.87690
0.665543 0.665543 0.665543 0.665543 0.665543 0.665543 0.665543 0.665543 0.665543 0.665543 0.665543 0.665543 0.665543 0.665543 0.665543 0.665543 0.665543 0.665543 0.665543 1.566468 2.332847 1.315197 0.312964 0.038673 0.583276 1.443204 1.174844 0.633895 0.418201 0.455017 0.351041 0.366390 0.427115 0.412502 0.385572 0.279837 0.166982 0.127031 0.003720 0.057816 0.057567 0.129043 0.353649 0.721430 0.813878 0.793056 0.796074 0.817679 1.023408 1.127761 1.133885 0.721706 0.440301 0.432281 0.633033 0.519960 0.465874 0.307788 0.447366 0.619099 0.651754 0.733500 0.826451 0.876733 0.902509 0.765933 0.732256 0.625592 0.578986 0.600346 0.608228 0.777751 0.781851 0.736877 0.585371 0.565859 0.645915 0.599944 0.579735 0.621690 0.685953 0.758358 0.698798 0.564369 0.572136 0.612248 0.695503 0.735196 0.660242 0.577597 0.494996 0.537415 0.622177 0.705441 0.651407 0.603793 0.649978 0.795445 0.850554 0.782986 0.642439 0.798453 0.696553 0.683855 0.656574 0.660468 0.654097 0.627073 0.561445 0.489554 0.517761 0.584808 0.684988 0.680283 0.705651 0.755733 0.756303 0.769331 0.744879 0.670667 0.571321 0.500231 0.592005 0.734724 0.834308 0.755889 0.661790 0.661874 0.673049 0.664587 0.649897 0.652621 0.651465 0.587739 0.521036 0.554166 0.633846 0.670569 0.668580 0.647684 0.743401 0.768790 0.709057 0.654907 0.666993 0.732983 0.723747 0.644014 0.644160 0.645833 0.628796 0.631872 0.700346 0.712541 0.650753 0.585214 0.508646 0.539123 0.650612 0.685970 0.689555 0.727197 0.665233 0.574561 0.552558 0.639961 0.757903 0.773905 0.710463 0.694624 0.694605 0.719395 0.724267 0.739783 0.726335 0.709553 0.700430 0.713384 0.654841 0.588723 0.548728 0.630145 0.679330 0.714916 0.665544 0.607218 0.576914 0.634493 0.684550 0.686361 0.612616 0.585336 0.607215 0.660864 0.680005 0.619525 0.627234 0.663594 0.715970 0.739663 0.726575 0.664479 0.628318 0.630603 0.671119 0.722794 0.693395 0.681251 0.638983 0.629360 0.651196 0.715999 0.722529 0.674982 0.670115 0.694509 0.661190 0.667050 0.724156 0.691189 0.639857 0.602481 0.600222 0.638915 0.695173 0.705373 0.685554 0.647301 0.654310 0.654159 0.684296 0.692146 0.728169 0.665552 0.584987 0.573541 0.617071 0.655376 0.725548 0.713947 0.713132 0.668639 0.639510 0.653720 0.664489 0.682086 0.708673 0.750738 0.717773 0.655707 0.661501 0.622412 0.640003 0.598827 0.613410 0.605580 0.619613 0.685649 0.664941 0.654416 0.681019 0.730768 0.695020 0.679604 0.691427 0.694932 0.741612 0.697349 0.629866 0.628427 0.676893 0.653057 0.599109 0.607285 0.618388 0.659091 0.686414 0.659654 0.664636 0.623267 0.633306 0.690352 0.732269 0.729658 0.635044 0.607799 0.666284 0.720662 0.687520 0.591231 0.552224 0.622836 0.764723 0.809865 0.791233 0.769887 0.656100 0.546492 0.524255 0.603782 0.643235 0.612165 0.566002 0.579032 0.575468 0.587268 0.589641 0.703960 0.644842 0.629819 0.701682 0.715292 0.693224 0.679040 0.751749 0.829051 0.731476 0.665678 0.744733 0.861488 0.639021 0.560247 0.628201 0.626319 0.560774 0.650780 0.700270 0.812267 0.665407 0.580694 0.520272 0.462787 0.520076 0.656663 0.651750 0.757927 0.756010 0.700445 0.617679 0.488749 0.812830 0.748005 0.558074 0.782746 0.782021 0.778332 0.527510 0.582288 0.784742 0.696013 0.423386 0.226677 0.522115 0.622754 0.669525 0.806040 0.970092 1.001183 0.539308 0.052871 -0.238619 -0.516799 -0.766442
0.072396 0.073464 0.076667 0.082005 0.089472 0.099067 0.110780 0.124604 0.140524 0.158523 0.178576 0.200655 0.224719 0.250720 0.278600 0.308284 0.339687 0.372703 0.407211 0.443067 0.480109 0.518145 0.556964 0.596322 0.635950 0.675548 0.714786 0.753303 0.790708 0.826578 0.860463 0.891885 0.920343 0.945315 0.966263 0.982639 0.993892 0.999475 0.998853 0.991517 0.976989 0.954841 0.924700 0.886270 0.839341 0.783804 0.719669 0.647075 0.566305 0.477800 0.382167 0.280187 0.172825 0.061225 0.053286 0.169210 0.284886 0.398506 0.508144 0.611783 0.707346 0.792748 0.865932 0.924934 0.967929 0.993301 0.999701 0.986108 0.951894 0.896878 0.821376 0.726240 0.612890 0.483324 0.340116 0.186395 0.025798 0.137593 0.299344 0.454775 0.599100 0.727571 0.835650 0.919181 0.974576 0.998987 0.990480 0.948179 0.872387 0.764673 0.627907 0.466249 0.285080 0.090867 0.109029 0.306608 0.493535 0.661497 0.802587 0.909702 0.976946 1.000000 0.976449 0.906037 0.790833 0.635280 0.446126 0.232213 0.004132 0.226256 0.446398 0.643745 0.806477 0.924263 0.988975 0.995339 0.941433 0.829024 0.663676 0.454618 0.214347 0.042027 0.297662 0.535067 0.737307 0.889250 0.978791 0.997915 0.943538 0.818019 0.629277 0.390472 0.119240 0.163499 0.435092 0.672946 0.856459 0.968888 0.999016 0.942427 0.802255 0.589280 0.321328 0.021954 0.281506 0.560362 0.787305 0.939157 0.999397 0.960142 0.823381 0.601224 0.315118 0.006013 0.328529 0.617550 0.840736 0.972048 0.994974 0.904859 0.709977 0.431124 0.099705 0.245600 0.563230 0.813753 0.964888 0.995881 0.900660 0.689230 0.387046 0.032279 0.328770 0.647595 0.880061 0.992677 0.967726 0.806407 0.529423 0.174743 0.207260 0.560780 0.832736 0.980868 0.980647 0.829725 0.549151 0.180940 0.217847 0.583717 0.856850 0.991076 0.962038 0.772086 0.450851 0.051158 0.359285 0.709175 0.936071 0.997849 0.880988 0.604037 0.215327 0.214956 0.607144 0.886820 0.999189 0.920297 0.662729 0.274370 0.169902 0.582285 0.879344 0.999150 0.914711 0.640706 0.231777 0.227733 0.640805 0.918189 0.998031 0.860273 0.532409 0.084837 0.383617 0.767220 0.977322 0.963316 0.725583 0.316966 0.168165 0.615173 0.916156 0.996346 0.833396 0.464459 0.021324 0.503643 0.860596 0.999722 0.882650 0.536614 0.049202 0.452988 0.836898 0.998456 0.891488 0.541913 0.042654 0.470197 0.854114 0.999945 0.863751 0.481107 0.040964 0.553042 0.905769 0.993767 0.788043 0.346672 0.200362 0.688640 0.968626 0.952026 0.640754 0.128670 0.425548 0.846991 0.999923 0.832385 0.395152 0.172204 0.684932 0.973046 0.938331 0.589066 0.039888 0.524610 0.911348 0.985212 0.717382 0.198004 0.392675 0.846055 0.998993 0.793554 0.300485 0.303499 0.798065 0.999583 0.830317 0.349976 0.263579 0.779050 0.998795 0.835581 0.348852 0.275042 0.793028 0.999876 0.810590 0.297059 0.337330 0.837075 0.997474 0.749689 0.192132 0.446696 0.900800 0.977718 0.641524 0.031508 0.593655 0.964841 0.918931 0.472241 0.182809 0.758921 0.999574 0.794314 0.231524 0.437427 0.909161 0.966100 0.578476 0.078008 0.699843 0.995358 0.822510 0.259307 0.428971 0.913235 0.958159 0.538306 0.145285 0.759252 0.999951 0.744826 0.117218 0.570768 0.972213 0.880951 0.339621 0.377397 0.901238 0.958356 0.515230 0.199443 0.810492 0.992743 0.645562 0.048847 0.718490 0.999898 0.736571 0.068746 0.638492 0.993419 0.795576 0.151609 0.579175 0.983656 0.829190
1.000000 1.000000 1.000000 1.000000 1.000000 1.000000 1.000000 1.000000 1.000000 1.000000 1.000000 1.000000 1.000000 1.000000 1.000000 1.000000 1.000000 1.000000 1.000000 1.000000 -0.057898 -0.057898 -0.057898 -0.057898 -0.057898 -0.057898 -0.057898 -0.057898 -0.057898 -0.057898 -0.057898 -0.057898 -0.057898 -0.057898 -0.057898 -0.057898 -0.057898 -0.057898 -0.120205 -0.120205 -0.120205 -0.120205 -0.120205 -0.120205 -0.120205 -0.120205 -0.120205 -0.120205 -0.120205 -0.120205 -0.120205 -0.120205 -0.120205 -0.120205 -0.119158 -0.085966 -0.060123 -0.051218 -0.066926 -0.097722 -0.100336 -0.082903 -0.078913 -0.075511 -0.063421 -0.049299 0.055230 0.092721 0.162575 0.191590 0.211425 0.219332 0.213708 0.181539 0.198921 0.216493 0.233082 0.246157 0.266508 0.282517 0.309124 0.358424 0.392493 0.395970 0.387706 0.380211 0.319355 0.324962 0.309144 0.296325 0.308108 0.371500 0.384563 0.405111 0.417005 0.432328 0.445646 0.437136 0.424739 0.508121 0.536297 0.534813 0.544453 0.554720 0.566496 0.571894 0.627091 0.666667 0.682097 0.655972 0.601386 0.603286 0.613649 0.626445 0.628657 0.732907 0.722730 0.656264 0.597234 0.525692 0.524477 0.538692 0.524354 0.544698 0.548350 0.544089 0.545540 0.478380 0.460250 0.411843 0.388915 0.385939 0.346736 0.257024 0.234679 0.235937 0.174373 0.094744 0.108317 0.094908 0.072082 0.053499 0.053924 -0.011400 -0.033477 -0.016672 0.008732 -0.023341 -0.053818 -0.141529 -0.146194 -0.093920 -0.023538 -0.020295 -0.044654 -0.047585 -0.017869 0.037224 0.050385 0.108075 0.193528 0.183843 0.202649 0.236385 0.192461 0.149687 0.164561 0.141281 0.133777 0.160634 0.103280 0.070629 0.075721 0.055611 0.102061 0.182183 0.227889 0.284139 0.286489 0.288130 0.315256 0.362102 0.398539 0.413004 0.442284 0.453864 0.459850 0.446956 0.415155 0.464988 0.496684 0.473227 0.463422 0.475954 0.448147 0.391403 0.370907 0.391634 0.418731 0.377734 0.372137 0.374592 0.333605 0.310180 0.326772 0.278410 0.245672 0.255004 0.246556 0.302748 0.260392 0.264260 0.334415 0.361867 0.387458 0.388663 0.363777 0.362748 0.337231 0.315932 0.454973 0.451229 0.422358 0.390079 0.391757 0.348890 0.289004 0.300891 0.264843 0.279850 0.229884 0.216293 0.242612 0.260259 0.236890 0.229532 0.226224 0.209176 0.212923 0.200629 0.204516 0.168312 0.142972 0.164794 0.175082 0.143777 0.146863 0.164751 0.137605 0.103428 0.130324 0.102078 0.147708 0.127781 0.108172 0.070974 0.047848 -0.049873 -0.051007 -0.087566 -0.087386 -0.100769 -0.135968 -0.207961 -0.286199 -0.298658 -0.319696 -0.302564 -0.306988 -0.272723 -0.249459 -0.239626 -0.215214 -0.221524 -0.250416 -0.248753 -0.277667 -0.296921 -0.280970 -0.266586 -0.240852 -0.253060 -0.289908 -0.293051 -0.309329 -0.321504 -0.334624 -0.339146 -0.347771 -0.345674 -0.360939 -0.357312 -0.371515 -0.372115 -0.352589 -0.320867 -0.300156 -0.278769 -0.255508 -0.239240 -0.191607 -0.161767 -0.155529 -0.137310 -0.118824 -0.074829 -0.090814 -0.089600 -0.076634 -0.103344 -0.090066 -0.071004 -0.056148 -0.051938 -0.015283 0.030824 0.010866 0.050193 0.087885 0.018947 0.001436 -0.000845 0.038302 0.154286 0.144009 0.116358 0.091993 0.097764 0.135795 0.135561 0.137560 0.106320 0.122007 0.163641 0.202505 0.221904 0.043004 0.043004 0.043004 0.043004 0.043004 0.102936 0.102936 0.102936 0.102936 0.078136 0.078136 0.078136 0.078136 0.053999 0.053999 0.053999 0.053999 0.053999 0.052494 0.052494 0.052494 0.052494 0.052494 0.052494 0.052494 0.052494 0.052494
0.000000 0.000000 0.000000 0.000000 2307699565997057536.000000 990324770779124736.000000 557563793482964032.000000 1245712879901650944.000000 713773407096512640.000000 467173217414942912.000000 972102564717825152.000000 987346193860531200.000000 977502266188185344.000000 583256429017698048.000000 754612017837919744.000000 938119958704903168.000000 476593008442309760.000000 868142640712609792.000000 1505127255372354304.000000 600255978474861952.000000 0.216930 0.216930 0.216930 0.216930 0.216930 0.216930 0.216930 0.216930 0.216930 0.216930 0.216930 0.216930 0.216930 0.216930 0.216930 0.216930 0.216930 0.216930 0.240772 0.240772 0.240772 0.240772 0.240772 0.240772 0.240772 0.240772 0.240772 0.240772 0.240772 0.240772 0.240772 0.240772 0.240772 0.240772 0.240772 0.240772 0.240772 0.240772 0.240772 0.240772 0.240772 0.240772 0.240772 0.240772 0.240772 0.240772 0.269680 0.269680 0.269680 0.269680 0.269680 0.269680 0.269680 0.269680 0.269680 0.269680 0.269680 0.269680 0.269680 0.269680 0.269680 0.269680 0.269680 0.269680 0.269680 0.269680 0.298142 0.298142 0.298142 0.298142 0.298142 0.298142 0.298142 0.298142 0.298142 0.298142 0.298142 0.298142 0.298142 0.298142 0.298142 0.298142 0.298142 0.298142 0.298142 0.298142 0.298142 0.298142 0.298142 0.298142 0.298142 0.298142 0.298142 0.298142 0.298142 0.312348 0.312348 0.312348 0.312348 0.312348 0.312348 0.312348 0.312348 0.312348 0.312348 0.312348 0.312348 0.312348 0.312348 0.312348 0.312348 0.312348 0.312348 0.312348 0.312348 0.312348 0.312348 0.312348 0.304997 0.304997 0.304997 0.304997 0.304997 0.304997 0.304997 0.304997 0.304997 0.304997 0.304997 0.320256 0.320256 0.320256 0.320256 0.320256 0.320256 0.320256 0.320256 0.320256 0.312348 0.312348 0.312348 0.312348 0.312348 0.312348 0.312348 0.312348 0.312348 0.304997 0.304997 0.304997 0.304997 0.304997 0.304997 0.304997 0.304997 0.304997 0.320256 0.320256 0.320256 0.320256 0.320256 0.320256 0.320256 0.320256 0.312348 0.312348 0.312348 0.312348 0.312348 0.312348 0.312348 0.312348 0.320256 0.320256 0.320256 0.320256 0.320256 0.320256 0.320256 0.298142 0.298142 0.298142 0.298142 0.298142 0.298142 0.298142 0.298142 0.312348 0.312348 0.312348 0.312348 0.312348 0.312348 0.312348 0.328798 0.328798 0.328798 0.328798 0.328798 0.328798 0.298142 0.298142 0.298142 0.298142 0.298142 0.298142 0.298142 0.312348 0.312348 0.312348 0.312348 0.312348 0.312348 0.285714 0.285714 0.285714 0.285714 0.285714 0.285714 0.285714 0.304997 0.304997 0.304997 0.304997 0.304997 0.304997 0.298142 0.298142 0.298142 0.298142 0.298142 0.298142 0.320256 0.320256 0.320256 0.320256 0.320256 0.291730 0.291730 0.291730 0.291730 0.291730 0.291730 0.304997 0.304997 0.304997 0.304997 0.304997 0.280056 0.280056 0.280056 0.280056 0.280056 0.280056 0.298142 0.298142 0.298142 0.298142 0.298142 0.298142 0.298142 0.298142 0.298142 0.298142 0.269680 0.269680 0.269680 0.269680 0.269680 0.269680 0.285714 0.285714 0.285714 0.285714 0.285714 0.285714 0.285714 0.285714 0.285714 0.285714 0.304997 0.304997 0.304997 0.304997 0.280056 0.280056 0.280056 0.280056 0.280056 0.274721 0.274721 0.274721 0.274721 0.274721 0.269680 0.269680 0.269680 0.269680 0.269680 0.291730 0.291730 0.291730 0.291730 0.264906 0.264906 0.264906 0.264906 0.264906 0.285714 0.285714 0.285714 0.285714 0.285714 0.285714 0.285714 0.285714 0.256074 0.256074 0.256074 0.256074 0.256074 0.280056 0.280056 0.280056 0.280056 0.274721 0.274721 0.274721 0.274721 0.251976 0.251976 0.251976 0.251976 0.251976 0.269680 0.269680 0.269680 0.269680 0.269680 0.269680 0.269680 0.269680 0.269680
