# Output from CTFFind version 4.1.9, run on 2019-11-24 11:56:25
# Input file: stack1_bm3d_averaged_1_4.0_0_1000_half.mrc ; Number of micrographs: 1
# Pixel size: 1.500 Angstroms ; acceleration voltage: 300.0 keV ; spherical aberration: 0.00 mm ; amplitude contrast: 0.07
# Box size: 512 pixels ; min. res.: 40.0 Angstroms ; max. res.: 6.0 Angstroms ; min. def.: 5000.0 um; max. def. 50000.0 um; num. frames averaged: 1
# 6 lines per micrograph: #1 - spatial frequency (1/Angstroms); #2 - 1D rotational average of spectrum (assuming no astigmatism); #3 - 1D rotational average of spectrum; #4 - CTF fit; #5 - cross-correlation between spectrum and CTF fit; #6 - 2sigma of expected cross correlation of noise
0.000000 0.001302 0.002604 0.003906 0.005208 0.006510 0.007812 0.009115 0.010417 0.011719 0.013021 0.014323 0.015625 0.016927 0.018229 0.019531 0.020833 0.022135 0.023438 0.024740 0.026042 0.027344 0.028646 0.029948 0.031250 0.032552 0.033854 0.035156 0.036458 0.037760 0.039062 0.040365 0.041667 0.042969 0.044271 0.045573 0.046875 0.048177 0.049479 0.050781 0.052083 0.053385 0.054688 0.055990 0.057292 0.058594 0.059896 0.061198 0.062500 0.063802 0.065104 0.066406 0.067708 0.069010 0.070312 0.071615 0.072917 0.074219 0.075521 0.076823 0.078125 0.079427 0.080729 0.082031 0.083333 0.084635 0.085938 0.087240 0.088542 0.089844 0.091146 0.092448 0.093750 0.095052 0.096354 0.097656 0.098958 0.100260 0.101562 0.102865 0.104167 0.105469 0.106771 0.108073 0.109375 0.110677 0.111979 0.113281 0.114583 0.115885 0.117188 0.118490 0.119792 0.121094 0.122396 0.123698 0.125000 0.126302 0.127604 0.128906 0.130208 0.131510 0.132812 0.134115 0.135417 0.136719 0.138021 0.139323 0.140625 0.141927 0.143229 0.144531 0.145833 0.147135 0.148438 0.149740 0.151042 0.152344 0.153646 0.154948 0.156250 0.157552 0.158854 0.160156 0.161458 0.162760 0.164062 0.165365 0.166667 0.167969 0.169271 0.170573 0.171875 0.173177 0.174479 0.175781 0.177083 0.178385 0.179688 0.180990 0.182292 0.183594 0.184896 0.186198 0.187500 0.188802 0.190104 0.191406 0.192708 0.194010 0.195312 0.196615 0.197917 0.199219 0.200521 0.201823 0.203125 0.204427 0.205729 0.207031 0.208333 0.209635 0.210938 0.212240 0.213542 0.214844 0.216146 0.217448 0.218750 0.220052 0.221354 0.222656 0.223958 0.225260 0.226562 0.227865 0.229167 0.230469 0.231771 0.233073 0.234375 0.235677 0.236979 0.238281 0.239583 0.240885 0.242188 0.243490 0.244792 0.246094 0.247396 0.248698 0.250000 0.251302 0.252604 0.253906 0.255208 0.256510 0.257812 0.259115 0.260417 0.261719 0.263021 0.264323 0.265625 0.266927 0.268229 0.269531 0.270833 0.272135 0.273438 0.274740 0.276042 0.277344 0.278646 0.279948 0.281250 0.282552 0.283854 0.285156 0.286458 0.287760 0.289062 0.290365 0.291667 0.292969 0.294271 0.295573 0.296875 0.298177 0.299479 0.300781 0.302083 0.303385 0.304688 0.305990 0.307292 0.308594 0.309896 0.311198 0.312500 0.313802 0.315104 0.316406 0.317708 0.319010 0.320312 0.321615 0.322917 0.324219 0.325521 0.326823 0.328125 0.329427 0.330729 0.332031 0.333333 0.334635 0.335938 0.337240 0.338542 0.339844 0.341146 0.342448 0.343750 0.345052 0.346354 0.347656 0.348958 0.350260 0.351562 0.352865 0.354167 0.355469 0.356771 0.358073 0.359375 0.360677 0.361979 0.363281 0.364583 0.365885 0.367188 0.368490 0.369792 0.371094 0.372396 0.373698 0.375000 0.376302 0.377604 0.378906 0.380208 0.381510 0.382812 0.384115 0.385417 0.386719 0.388021 0.389323 0.390625 0.391927 0.393229 0.394531 0.395833 0.397135 0.398438 0.399740 0.401042 0.402344 0.403646 0.404948 0.406250 0.407552 0.408854 0.410156 0.411458 0.412760 0.414062 0.415365 0.416667 0.417969 0.419271 0.420573 0.421875 0.423177 0.424479 0.425781 0.427083 0.428385 0.429688 0.430990 0.432292 0.433594 0.434896 0.436198 0.437500 0.438802 0.440104 0.441406 0.442708 0.444010 0.445312 0.446615 0.447917 0.449219 0.450521 0.451823 0.453125 0.454427 0.455729 0.457031 0.458333 0.459635 0.460938 0.462240 0.463542 0.464844 0.466146 0.467448 0.468750 0.470052 0.471354
       0.70017        0.70244        0.70435        0.70503        0.70531        0.70556        0.70565        0.70576        0.70583        0.70588        0.70593        0.70595        0.70600        0.70602        0.70604        0.70606        0.70607        0.70609        0.70610        1.53739        2.28687        1.12229        0.26536        0.08296        0.69701        1.37651        1.30400        0.77047        0.43238        0.40713        0.43921        0.43074        0.44986        0.42605        0.31101        0.31511        0.34961        0.27682        0.13537        0.10474        0.17997        0.23280        0.31705        0.50523        0.74614        0.88710        0.89360        0.91050        1.07375        1.21329        1.09956        0.74833        0.47762        0.48430        0.61750        0.68523        0.64775        0.58035        0.48630        0.41247        0.49536        0.69891        0.92681        1.00202        0.91720        0.75594        0.64122        0.62838        0.62957        0.61179        0.63250        0.74833        0.86944        0.83708        0.74889        0.72636        0.71389        0.66177        0.61266        0.66610        0.78955        0.81112        0.74368        0.60795        0.52407        0.53921        0.65447        0.75229        0.76894        0.70873        0.67884        0.69316        0.67417        0.63373        0.61259        0.67149        0.76100        0.84176        0.85564        0.78771        0.71980        0.72412        0.78731        0.77760        0.68043        0.61937        0.63717        0.68325        0.66254        0.63273        0.65991        0.71598        0.69303        0.63454        0.64089        0.73091        0.79694        0.78230        0.73755        0.71111        0.71052        0.67236        0.64989        0.65869        0.66510        0.66796        0.68228        0.72402        0.73898        0.71364        0.69089        0.73607        0.75862        0.72100        0.65800        0.66413        0.70967        0.73098        0.73497        0.73312        0.72946        0.72038        0.71301        0.70599        0.68437        0.68298        0.71457        0.75692        0.75183        0.69209        0.67705        0.71359        0.76258        0.72541        0.61905        0.58181        0.63609        0.70376        0.69038        0.63361        0.62766        0.66031        0.70601        0.71920        0.72829        0.70157        0.68349        0.70836        0.72162        0.67863        0.62215        0.68581        0.83979        0.92619        0.85840        0.71655        0.63844        0.64766        0.70449        0.71659        0.70664        0.70429        0.73930        0.76100        0.73688        0.67920        0.64914        0.65142        0.66868        0.69180        0.69717        0.65909        0.62028        0.63173        0.69098        0.73448        0.73956        0.73206        0.73131        0.72904        0.73423        0.76016        0.77845        0.75267        0.71433        0.67743        0.67245        0.69293        0.73985        0.77958        0.75934        0.67894        0.62710        0.64730        0.70882        0.73065        0.71101        0.69758        0.70990        0.73111        0.74012        0.74404        0.74013        0.71528        0.66026        0.62885        0.65207        0.72056        0.75258        0.72087        0.67037        0.65757        0.67857        0.71409        0.74428        0.73117        0.67431        0.61655        0.62655        0.69549        0.73010        0.70436        0.68684        0.70891        0.75227        0.77193        0.78204        0.79418        0.77318        0.74823        0.73191        0.73102        0.73273        0.71548        0.66592        0.62541        0.61999        0.63035        0.63567        0.62668        0.67287        0.74262        0.78507        0.76074        0.69775        0.68562        0.67250        0.65974        0.66517        0.71719        0.77014        0.78731        0.76216        0.71366        0.68714        0.72057        0.76660        0.70970        0.62477        0.62215        0.69050        0.72824        0.72051        0.74275        0.77697        0.75615        0.69150        0.66111        0.66156        0.69116        0.69522        0.67597        0.60493        0.61551        0.68496        0.68247        0.60348        0.57199        0.67946        0.78177        0.80929        0.86766        0.88036        0.75457        0.57922        0.57509        0.75054        0.85428        0.79111        0.65981        0.58457        0.53921        0.56167        0.69493        0.83150        0.80212        0.66900        0.66435        0.80444        0.85276        0.78702        0.73504        0.73151        0.69929        0.59557        0.58715        0.67771        0.75626        0.66078        0.49189        0.52187        0.63252        0.63464        0.56099        0.61684        0.78864        0.92086        0.88142        0.74886        0.72293        0.87996        0.95585        0.77290        0.49905        0.57883        0.87223        0.94854        0.70976        0.46225        0.51259        0.68799        0.84516        0.82143        0.77855        0.78361        0.72009        0.48196        0.13870       -0.09493       -0.25762       -0.46434       -0.61924       -0.68733
0.700168 0.703242 0.704267 0.704780 0.705548 0.705438 0.705702 0.705702 0.705804 0.705955 0.705878 0.705975 0.705955 0.706037 0.706037 0.706024 0.706097 0.706097 0.706097 1.576249 2.356916 1.284392 0.231322 -0.026158 0.583726 1.511458 1.291964 0.744089 0.479003 0.442573 0.328525 0.442784 0.499606 0.435936 0.277167 0.354396 0.304587 0.332001 0.134495 0.108737 0.150968 0.259742 0.326331 0.467964 0.798171 0.911544 0.900429 0.860248 1.048209 1.230620 1.172061 0.757329 0.507831 0.450169 0.685165 0.629936 0.666189 0.504975 0.514074 0.487644 0.470167 0.664094 0.876851 1.037237 0.947787 0.732945 0.660420 0.637151 0.619851 0.625326 0.611957 0.751202 0.885668 0.810762 0.757379 0.739206 0.723889 0.665920 0.588635 0.671416 0.755295 0.805626 0.787243 0.594761 0.551736 0.495030 0.676984 0.717564 0.785386 0.730418 0.667322 0.698174 0.685421 0.635869 0.580619 0.637011 0.743366 0.865549 0.823044 0.809510 0.774406 0.699103 0.782291 0.762074 0.689435 0.625021 0.620096 0.704861 0.679406 0.627641 0.636842 0.702665 0.702501 0.649041 0.627822 0.699144 0.771252 0.779404 0.755024 0.695590 0.739007 0.641190 0.692026 0.665850 0.656084 0.670876 0.663370 0.700208 0.742987 0.752806 0.684331 0.712630 0.764514 0.750658 0.642160 0.684912 0.702972 0.722617 0.721301 0.721807 0.730233 0.743817 0.728988 0.709084 0.671629 0.683992 0.673737 0.754679 0.791180 0.702779 0.676032 0.673444 0.765915 0.767129 0.650282 0.581363 0.582293 0.674799 0.721792 0.668147 0.618495 0.627708 0.715438 0.700466 0.734459 0.727355 0.663227 0.699935 0.718687 0.713524 0.678866 0.608224 0.785739 0.921587 0.909068 0.787111 0.649020 0.628140 0.672905 0.730426 0.705132 0.704536 0.713913 0.778118 0.756657 0.707427 0.645108 0.635271 0.672007 0.676023 0.714339 0.675806 0.632830 0.605346 0.661002 0.724094 0.736189 0.739652 0.741307 0.732423 0.710379 0.750784 0.772919 0.754518 0.723599 0.709635 0.680032 0.686214 0.698956 0.762241 0.785692 0.674341 0.627128 0.647590 0.667526 0.716090 0.718394 0.707546 0.716474 0.711042 0.751321 0.747870 0.739025 0.738642 0.705345 0.632917 0.625529 0.666308 0.735492 0.757425 0.700035 0.657343 0.666286 0.694069 0.714440 0.752863 0.711575 0.622354 0.605021 0.641919 0.720639 0.734001 0.686190 0.690796 0.725340 0.780745 0.791140 0.763786 0.789263 0.768507 0.754062 0.741215 0.713685 0.750777 0.707179 0.641293 0.618899 0.616340 0.626250 0.635402 0.641053 0.665595 0.766770 0.790402 0.759095 0.690033 0.662948 0.671117 0.662378 0.684892 0.731742 0.771920 0.814844 0.742519 0.694688 0.695514 0.727416 0.766865 0.682866 0.628001 0.621607 0.712247 0.712397 0.728859 0.748969 0.774420 0.771107 0.647396 0.660037 0.659086 0.723964 0.694277 0.656831 0.603603 0.637276 0.684066 0.666672 0.570404 0.608839 0.654953 0.808969 0.824428 0.900170 0.852504 0.725525 0.561872 0.579171 0.797795 0.861631 0.737851 0.634669 0.593270 0.543229 0.538772 0.690785 0.830377 0.794586 0.625679 0.708510 0.767653 0.881333 0.778008 0.740434 0.734564 0.683839 0.598497 0.569274 0.725247 0.707775 0.646496 0.503127 0.501047 0.663091 0.639294 0.491110 0.660477 0.801064 0.943138 0.873758 0.636569 0.788770 0.844233 1.071564 0.648765 0.540206 0.537622 0.963920 0.909267 0.709079 0.498818 0.467437 0.787322 0.748019 0.843251 0.779128 0.784091 0.723927 0.438367 0.177885 -0.075889 -0.254297 -0.462724 -0.687334
0.072396 0.073205 0.075630 0.079671 0.085326 0.092593 0.101469 0.111947 0.124022 0.137685 0.152924 0.169725 0.188069 0.207934 0.229293 0.252110 0.276347 0.301955 0.328879 0.357053 0.386402 0.416839 0.448265 0.480569 0.513626 0.547295 0.581420 0.615829 0.650335 0.684730 0.718792 0.752278 0.784931 0.816475 0.846616 0.875046 0.901441 0.925467 0.946776 0.965012 0.979815 0.990820 0.997667 1.000000 0.997472 0.989754 0.976539 0.957545 0.932527 0.901280 0.863646 0.819524 0.768876 0.711732 0.648201 0.578474 0.502832 0.421652 0.335409 0.244681 0.150151 0.052606 0.047065 0.147872 0.248732 0.348479 0.445869 0.539602 0.628330 0.710682 0.785281 0.850773 0.905849 0.949277 0.979927 0.996809 0.999097 0.986165 0.957616 0.913308 0.853381 0.778279 0.688762 0.585924 0.471189 0.346310 0.213358 0.074695 0.067052 0.209038 0.348248 0.481558 0.605811 0.717885 0.814783 0.893720 0.952215 0.988176 0.999991 0.986606 0.947594 0.883215 0.794454 0.683043 0.551459 0.402899 0.241227 0.070899 0.103153 0.275636 0.441068 0.593939 0.728908 0.840999 0.925801 0.979666 0.999891 0.984875 0.934247 0.848960 0.731326 0.585010 0.414960 0.227281 0.029045 0.171948 0.367468 0.549182 0.709018 0.839547 0.934343 0.988349 0.998176 0.962362 0.881540 0.758523 0.598279 0.407796 0.195831 0.027447 0.250917 0.463043 0.652474 0.808669 0.922515 0.986913 0.997268 0.951885 0.852203 0.702862 0.511579 0.288836 0.047359 0.198549 0.433843 0.643643 0.814211 0.933877 0.993920 0.989265 0.919000 0.786618 0.599972 0.370918 0.114656 0.151219 0.407882 0.636603 0.820142 0.944100 0.998133 0.976909 0.880739 0.715780 0.493785 0.231398 0.051010 0.330843 0.585085 0.792194 0.933991 0.997357 0.975557 0.869084 0.685895 0.440985 0.155304 0.145922 0.435366 0.686066 0.873969 0.980340 0.993749 0.911461 0.740015 0.494918 0.199424 0.117552 0.424165 0.688830 0.883524 0.986844 0.986531 0.881089 0.680335 0.404703 0.083374 0.248700 0.554504 0.799111 0.953754 0.999353 0.929074 0.749540 0.480486 0.152833 0.194713 0.520115 0.783095 0.950204 0.999240 0.922424 0.727854 0.438959 0.091940 0.268582 0.595215 0.844038 0.980624 0.985020 0.854919 0.606521 0.272834 0.100453 0.461077 0.757459 0.946185 0.998549 0.905196 0.678083 0.349317 0.033087 0.411997 0.729658 0.936536 0.999269 0.906331 0.670482 0.327426 0.069270 0.456317 0.770736 0.960213 0.992028 0.859061 0.581687 0.205082 0.207801 0.586571 0.865394 0.994584 0.949789 0.736971 0.392158 0.024244 0.437747 0.773000 0.967625 0.984101 0.817416 0.496846 0.081299 0.351155 0.717790 0.947094 0.993008 0.844590 0.529063 0.107368 0.337224 0.715356 0.949588 0.990558 0.827836 0.493049 0.054291 0.397300 0.766317 0.973306 0.972238 0.761249 0.384103 0.078302 0.524923 0.856522 0.997900 0.915404 0.625508 0.192233 0.286464 0.700517 0.953105 0.983596 0.782682 0.395756 0.086698 0.549805 0.881520 0.999977 0.874197 0.532856 0.058513 0.431815 0.815257 0.994029 0.920838 0.612080 0.145022 0.360909 0.774319 0.986065 0.938512 0.641951 0.173273 0.343223 0.768489 0.986158 0.934909 0.626473 0.143903 0.380023 0.799030 0.994212 0.908359 0.563508 0.056261 0.468569 0.858967 0.999953 0.848060 0.445621 0.090073 0.600305 0.931745 0.982877 0.735848 0.263593 0.290783 0.756838 0.989172 0.913348 0.550662 0.013257 0.529718 0.905014 0.990850 0.757208 0.277340 0.294193 0.770647 0.994166 0.888640 0.486656
1.000000 1.000000 1.000000 1.000000 1.000000 1.000000 1.000000 1.000000 1.000000 1.000000 1.000000 1.000000 1.000000 1.000000 1.000000 1.000000 1.000000 1.000000 1.000000 1.000000 -0.007569 -0.007569 -0.007569 -0.007569 -0.007569 -0.007569 -0.007569 -0.007569 -0.007569 -0.007569 -0.007569 -0.007569 -0.007569 -0.007569 -0.007569 -0.007569 -0.007569 -0.007569 -0.007569 -0.007569 -0.007569 -0.007569 -0.007569 -0.103427 -0.103427 -0.103427 -0.103427 -0.103427 -0.103427 -0.103427 -0.103427 -0.103427 -0.103427 -0.103427 -0.103427 -0.103427 -0.103427 -0.103427 -0.103427 -0.103427 -0.100563 -0.053749 -0.026857 -0.039594 -0.053102 -0.035141 0.019022 0.029099 0.015666 0.036178 0.038663 0.036149 0.040243 0.042704 0.037198 0.054815 0.171795 0.197151 0.179355 0.145286 0.151120 0.146116 0.151238 0.176151 0.174555 0.154040 0.169572 0.183611 0.198482 0.192588 0.163937 0.169789 0.209106 0.254077 0.302707 0.341136 0.348438 0.359172 0.367321 0.385697 0.384004 0.382076 0.369782 0.353832 0.359028 0.365078 0.338855 0.353570 0.359098 0.335129 0.316968 0.283257 0.265198 0.249631 0.231284 0.228196 0.217931 0.346676 0.354317 0.373988 0.353359 0.322772 0.284657 0.273889 0.267415 0.257434 0.272065 0.273103 0.227491 0.197721 0.191676 0.139850 0.108589 0.118515 0.105498 0.085142 0.056470 0.039501 0.033375 0.039614 -0.024379 -0.086722 -0.111479 -0.137081 -0.130037 -0.118379 -0.127874 -0.174008 -0.270427 -0.294392 -0.317782 -0.323305 -0.318634 -0.261906 -0.225719 -0.222159 -0.269879 -0.322094 -0.302709 -0.292662 -0.264327 -0.246406 -0.234632 -0.144803 -0.055904 -0.027508 -0.030003 -0.027287 -0.011632 -0.032919 -0.055958 -0.107475 -0.110634 -0.121422 -0.164816 -0.170827 -0.158564 -0.160290 -0.149532 -0.115985 -0.075393 -0.088820 -0.081324 -0.035923 0.047673 0.083917 0.096138 0.164354 0.241923 0.214304 0.179681 0.161514 0.157246 0.129238 0.151744 0.197082 0.204399 0.230239 0.268853 0.281829 0.225147 0.179985 0.183339 0.233149 0.238903 0.229164 0.225027 0.250151 0.243737 0.205846 0.188591 0.197523 0.194807 0.211714 0.177875 0.149054 0.173195 0.185517 0.130127 0.135370 0.099659 0.153798 0.223630 0.249622 0.216444 0.188345 0.179199 0.141977 0.140962 0.069956 0.044704 0.068776 0.064359 0.041804 0.106562 0.186244 0.199880 0.131122 0.100342 0.112728 0.092972 0.057507 0.063852 0.044657 -0.017663 -0.058439 -0.085766 -0.116894 -0.127155 -0.113485 -0.141832 -0.145529 -0.130559 -0.127258 -0.120659 -0.164551 -0.159415 -0.159355 -0.183398 -0.209207 -0.248821 -0.226540 -0.249718 -0.261703 -0.255388 -0.209717 -0.204242 -0.192025 -0.189650 -0.152503 -0.188967 -0.220758 -0.223868 -0.195357 -0.148433 -0.140978 -0.126068 -0.123020 -0.123970 -0.121171 -0.124816 -0.111218 -0.086468 -0.089837 -0.090348 -0.072656 -0.003577 0.033774 0.008411 0.023410 0.044306 0.119806 0.117741 0.131502 0.186980 0.229710 0.283183 0.306926 0.314265 0.318614 0.306959 0.330807 0.292510 0.315475 0.290086 0.281482 0.300862 0.281233 0.230168 0.246538 0.247864 0.227561 0.227285 0.230849 0.284410 0.358016 0.342437 0.348927 0.341804 0.299617 0.296016 0.219803 0.220742 0.196885 0.172453 0.145220 0.105786 0.113586 0.134906 0.129503 0.098783 0.100377 0.087520 -0.002382 0.004448 -0.011674 -0.090262 -0.140853 0.030587 0.030587 0.030587 0.030587 0.030587 0.030587 0.036795 0.036795 0.036795 0.036795 0.036795 0.036795 -0.058003 -0.058003 -0.058003 -0.058003 -0.058003 0.072032 0.072032 0.072032 0.072032 0.072032 0.072032 0.072032 0.072032
0.000000 0.000000 0.000000 0.000000 909517263155147648.000000 651251327739515648.000000 678770454668807808.000000 643594878450268544.000000 373767230806301184.000000 287916364457969120.000000 791629275763682176.000000 777932109672162304.000000 293276107633376256.000000 1229444505605922304.000000 1374238092582642176.000000 657215628605549184.000000 636514023824247936.000000 1773767632532933376.000000 714233552895117824.000000 406449389307412672.000000 0.203069 0.203069 0.203069 0.203069 0.203069 0.203069 0.203069 0.203069 0.203069 0.203069 0.203069 0.203069 0.203069 0.203069 0.203069 0.203069 0.203069 0.203069 0.203069 0.203069 0.203069 0.203069 0.203069 0.222222 0.222222 0.222222 0.222222 0.222222 0.222222 0.222222 0.222222 0.222222 0.222222 0.222222 0.222222 0.222222 0.222222 0.222222 0.222222 0.222222 0.222222 0.222222 0.222222 0.222222 0.222222 0.222222 0.222222 0.222222 0.222222 0.222222 0.222222 0.222222 0.222222 0.222222 0.222222 0.222222 0.260378 0.260378 0.260378 0.260378 0.260378 0.260378 0.260378 0.260378 0.260378 0.260378 0.260378 0.260378 0.260378 0.260378 0.260378 0.260378 0.260378 0.260378 0.260378 0.260378 0.260378 0.260378 0.264906 0.264906 0.264906 0.264906 0.264906 0.264906 0.264906 0.264906 0.264906 0.264906 0.264906 0.264906 0.264906 0.264906 0.264906 0.264906 0.264906 0.264906 0.264906 0.285714 0.285714 0.285714 0.285714 0.285714 0.285714 0.285714 0.285714 0.285714 0.285714 0.285714 0.285714 0.285714 0.285714 0.285714 0.285714 0.285714 0.285714 0.285714 0.285714 0.285714 0.285714 0.285714 0.285714 0.285714 0.285714 0.285714 0.285714 0.285714 0.291730 0.291730 0.291730 0.291730 0.291730 0.291730 0.291730 0.291730 0.291730 0.291730 0.291730 0.291730 0.291730 0.291730 0.291730 0.291730 0.291730 0.291730 0.291730 0.291730 0.291730 0.291730 0.291730 0.291730 0.291730 0.298142 0.298142 0.298142 0.298142 0.298142 0.298142 0.298142 0.298142 0.298142 0.298142 0.298142 0.298142 0.298142 0.298142 0.298142 0.298142 0.298142 0.298142 0.298142 0.298142 0.298142 0.291730 0.291730 0.291730 0.291730 0.291730 0.291730 0.291730 0.291730 0.291730 0.291730 0.298142 0.298142 0.298142 0.298142 0.298142 0.298142 0.298142 0.298142 0.298142 0.291730 0.291730 0.291730 0.291730 0.291730 0.291730 0.291730 0.291730 0.291730 0.285714 0.285714 0.285714 0.285714 0.285714 0.285714 0.285714 0.285714 0.285714 0.298142 0.298142 0.298142 0.298142 0.298142 0.298142 0.298142 0.298142 0.291730 0.291730 0.291730 0.291730 0.291730 0.291730 0.291730 0.291730 0.285714 0.285714 0.285714 0.285714 0.285714 0.285714 0.285714 0.285714 0.280056 0.280056 0.280056 0.280056 0.280056 0.280056 0.280056 0.280056 0.291730 0.291730 0.291730 0.291730 0.291730 0.291730 0.291730 0.285714 0.285714 0.285714 0.285714 0.285714 0.285714 0.285714 0.285714 0.285714 0.285714 0.285714 0.285714 0.285714 0.285714 0.280056 0.280056 0.280056 0.280056 0.280056 0.280056 0.280056 0.274721 0.274721 0.274721 0.274721 0.274721 0.274721 0.274721 0.291730 0.291730 0.291730 0.291730 0.291730 0.291730 0.285714 0.285714 0.285714 0.285714 0.285714 0.285714 0.264906 0.264906 0.264906 0.264906 0.264906 0.264906 0.264906 0.280056 0.280056 0.280056 0.280056 0.280056 0.280056 0.274721 0.274721 0.274721 0.274721 0.274721 0.274721 0.269680 0.269680 0.269680 0.269680 0.269680 0.269680 0.285714 0.285714 0.285714 0.285714 0.285714 0.264906 0.264906 0.264906 0.264906 0.264906 0.264906 0.260378 0.260378 0.260378 0.260378 0.260378 0.260378 0.280056 0.280056 0.280056 0.280056 0.280056 0.256074 0.256074 0.256074 0.256074 0.256074 0.256074 0.256074 0.256074
