# Output from CTFFind version 4.1.9, run on 2019-11-24 11:56:24
# Input file: stack1_bm3d_averaged_1_1.0_0_500_half.mrc ; Number of micrographs: 1
# Pixel size: 1.500 Angstroms ; acceleration voltage: 300.0 keV ; spherical aberration: 0.00 mm ; amplitude contrast: 0.07
# Box size: 512 pixels ; min. res.: 40.0 Angstroms ; max. res.: 6.0 Angstroms ; min. def.: 5000.0 um; max. def. 50000.0 um; num. frames averaged: 1
# 6 lines per micrograph: #1 - spatial frequency (1/Angstroms); #2 - 1D rotational average of spectrum (assuming no astigmatism); #3 - 1D rotational average of spectrum; #4 - CTF fit; #5 - cross-correlation between spectrum and CTF fit; #6 - 2sigma of expected cross correlation of noise
0.000000 0.001302 0.002604 0.003906 0.005208 0.006510 0.007812 0.009115 0.010417 0.011719 0.013021 0.014323 0.015625 0.016927 0.018229 0.019531 0.020833 0.022135 0.023438 0.024740 0.026042 0.027344 0.028646 0.029948 0.031250 0.032552 0.033854 0.035156 0.036458 0.037760 0.039062 0.040365 0.041667 0.042969 0.044271 0.045573 0.046875 0.048177 0.049479 0.050781 0.052083 0.053385 0.054688 0.055990 0.057292 0.058594 0.059896 0.061198 0.062500 0.063802 0.065104 0.066406 0.067708 0.069010 0.070312 0.071615 0.072917 0.074219 0.075521 0.076823 0.078125 0.079427 0.080729 0.082031 0.083333 0.084635 0.085938 0.087240 0.088542 0.089844 0.091146 0.092448 0.093750 0.095052 0.096354 0.097656 0.098958 0.100260 0.101562 0.102865 0.104167 0.105469 0.106771 0.108073 0.109375 0.110677 0.111979 0.113281 0.114583 0.115885 0.117188 0.118490 0.119792 0.121094 0.122396 0.123698 0.125000 0.126302 0.127604 0.128906 0.130208 0.131510 0.132812 0.134115 0.135417 0.136719 0.138021 0.139323 0.140625 0.141927 0.143229 0.144531 0.145833 0.147135 0.148438 0.149740 0.151042 0.152344 0.153646 0.154948 0.156250 0.157552 0.158854 0.160156 0.161458 0.162760 0.164062 0.165365 0.166667 0.167969 0.169271 0.170573 0.171875 0.173177 0.174479 0.175781 0.177083 0.178385 0.179688 0.180990 0.182292 0.183594 0.184896 0.186198 0.187500 0.188802 0.190104 0.191406 0.192708 0.194010 0.195312 0.196615 0.197917 0.199219 0.200521 0.201823 0.203125 0.204427 0.205729 0.207031 0.208333 0.209635 0.210938 0.212240 0.213542 0.214844 0.216146 0.217448 0.218750 0.220052 0.221354 0.222656 0.223958 0.225260 0.226562 0.227865 0.229167 0.230469 0.231771 0.233073 0.234375 0.235677 0.236979 0.238281 0.239583 0.240885 0.242188 0.243490 0.244792 0.246094 0.247396 0.248698 0.250000 0.251302 0.252604 0.253906 0.255208 0.256510 0.257812 0.259115 0.260417 0.261719 0.263021 0.264323 0.265625 0.266927 0.268229 0.269531 0.270833 0.272135 0.273438 0.274740 0.276042 0.277344 0.278646 0.279948 0.281250 0.282552 0.283854 0.285156 0.286458 0.287760 0.289062 0.290365 0.291667 0.292969 0.294271 0.295573 0.296875 0.298177 0.299479 0.300781 0.302083 0.303385 0.304688 0.305990 0.307292 0.308594 0.309896 0.311198 0.312500 0.313802 0.315104 0.316406 0.317708 0.319010 0.320312 0.321615 0.322917 0.324219 0.325521 0.326823 0.328125 0.329427 0.330729 0.332031 0.333333 0.334635 0.335938 0.337240 0.338542 0.339844 0.341146 0.342448 0.343750 0.345052 0.346354 0.347656 0.348958 0.350260 0.351562 0.352865 0.354167 0.355469 0.356771 0.358073 0.359375 0.360677 0.361979 0.363281 0.364583 0.365885 0.367188 0.368490 0.369792 0.371094 0.372396 0.373698 0.375000 0.376302 0.377604 0.378906 0.380208 0.381510 0.382812 0.384115 0.385417 0.386719 0.388021 0.389323 0.390625 0.391927 0.393229 0.394531 0.395833 0.397135 0.398438 0.399740 0.401042 0.402344 0.403646 0.404948 0.406250 0.407552 0.408854 0.410156 0.411458 0.412760 0.414062 0.415365 0.416667 0.417969 0.419271 0.420573 0.421875 0.423177 0.424479 0.425781 0.427083 0.428385 0.429688 0.430990 0.432292 0.433594 0.434896 0.436198 0.437500 0.438802 0.440104 0.441406 0.442708 0.444010 0.445312 0.446615 0.447917 0.449219 0.450521 0.451823 0.453125 0.454427 0.455729 0.457031 0.458333 0.459635 0.460938 0.462240 0.463542 0.464844 0.466146 0.467448 0.468750 0.470052 0.471354
       0.70606        0.70606        0.70606        0.70606        0.70606        0.70606        0.70606        0.70606        0.70606        0.70606        0.70606        0.70606        0.70606        0.70606        0.70606        0.70606        0.70606        0.70606        0.70606        1.55960        2.28227        1.14207        0.36243        0.21750        0.73789        1.31062        1.21071        0.70821        0.44546        0.43033        0.42028        0.36984        0.42117        0.51182        0.45022        0.34435        0.20661        0.10090        0.04873        0.08517        0.14429        0.22225        0.41046        0.66123        0.84473        0.90707        0.91084        0.94442        1.05298        1.14918        1.07349        0.77127        0.50792        0.49283        0.62797        0.63129        0.50634        0.44213        0.50159        0.55241        0.58852        0.65304        0.83191        0.98327        0.99444        0.86755        0.70589        0.63724        0.61193        0.61187        0.66234        0.79150        0.88251        0.81546        0.68934        0.65011        0.69185        0.71851        0.68243        0.67004        0.73386        0.77137        0.73366        0.60910        0.55247        0.60878        0.71248        0.74206        0.70692        0.63998        0.60056        0.61046        0.64307        0.67565        0.64559        0.61902        0.67564        0.79171        0.85319        0.82728        0.81832        0.84751        0.85320        0.77622        0.67946        0.64480        0.63996        0.62577        0.58673        0.58088        0.62422        0.68841        0.70361        0.69833        0.73875        0.81896        0.84989        0.79393        0.69412        0.62198        0.61420        0.64997        0.72015        0.75477        0.72287        0.67708        0.67617        0.71833        0.74758        0.74592        0.73419        0.70353        0.64888        0.59090        0.58214        0.65914        0.74760        0.75002        0.69458        0.67659        0.72714        0.78999        0.80514        0.77111        0.73141        0.70667        0.73197        0.76106        0.76477        0.71067        0.68767        0.72096        0.73967        0.66434        0.55713        0.54252        0.62505        0.71699        0.72834        0.68094        0.64198        0.65230        0.66858        0.65217        0.63869        0.70414        0.79635        0.82495        0.75914        0.69421        0.67729        0.68759        0.69294        0.69265        0.71459        0.74129        0.75900        0.73128        0.66778        0.63760        0.70509        0.82863        0.90325        0.85562        0.74267        0.67567        0.68717        0.72791        0.72023        0.65429        0.59567        0.62049        0.67599        0.67622        0.62876        0.63169        0.68988        0.73148        0.71645        0.68503        0.67322        0.67810        0.70295        0.74679        0.76725        0.74048        0.73080        0.75674        0.78960        0.76720        0.70906        0.66327        0.66668        0.69924        0.73719        0.73420        0.71934        0.68877        0.66552        0.62971        0.63140        0.68876        0.75105        0.75393        0.69835        0.67701        0.72381        0.80321        0.81409        0.77753        0.72991        0.69369        0.66705        0.64435        0.65110        0.69986        0.74362        0.74808        0.70100        0.65666        0.64864        0.66787        0.69836        0.72255        0.72757        0.71355        0.69561        0.70293        0.72502        0.73884        0.72890        0.71655        0.72309        0.73615        0.73296        0.73517        0.73686        0.70844        0.64887        0.67090        0.75954        0.80790        0.72724        0.62283        0.60880        0.65791        0.65911        0.65040        0.67920        0.73219        0.73641        0.70300        0.67913        0.68497        0.72882        0.76817        0.78888        0.74548        0.67496        0.62250        0.63576        0.67022        0.71926        0.73584        0.70671        0.66311        0.68564        0.72790        0.73493        0.72113        0.72171        0.72221        0.69480        0.69591        0.71515        0.71433        0.68350        0.62219        0.60188        0.63237        0.64999        0.69979        0.76153        0.83068        0.80856        0.73020        0.65931        0.65462        0.69964        0.72312        0.67860        0.62682        0.60562        0.62179        0.76965        0.94923        0.95322        0.82682        0.72895        0.77000        0.74916        0.65710        0.58321        0.60596        0.59817        0.57877        0.59503        0.64672        0.65257        0.62606        0.57084        0.54395        0.60077        0.82977        0.98038        0.89785        0.70584        0.64964        0.73138        0.80726        0.79696        0.68232        0.61668        0.59696        0.69034        0.74242        0.76155        0.90473        0.89522        0.69702        0.41481        0.53153        0.86306        1.00046        0.79127        0.58043        0.50983        0.32134       -0.06640       -0.46454       -0.69298       -0.74285       -0.75111
0.706057 0.706057 0.706057 0.706057 0.706057 0.706057 0.706057 0.706057 0.706057 0.706057 0.706057 0.706057 0.706057 0.706057 0.706057 0.706057 0.706057 0.706057 0.706057 1.599143 2.332228 1.313078 0.340302 0.103641 0.633335 1.443098 1.198359 0.693679 0.478417 0.469154 0.315704 0.371362 0.472956 0.495683 0.478238 0.344782 0.219062 0.121962 0.022575 0.134004 0.147398 0.186186 0.370325 0.701844 0.829848 0.878190 0.928374 0.919410 1.026408 1.143485 1.152599 0.782807 0.527347 0.479731 0.690512 0.583817 0.526765 0.363391 0.497221 0.611848 0.585868 0.627674 0.788822 0.962858 1.031016 0.845637 0.712006 0.627639 0.610720 0.620510 0.626463 0.810317 0.847947 0.852893 0.716549 0.657791 0.699783 0.677603 0.663563 0.688321 0.711379 0.766232 0.790375 0.629776 0.544657 0.568499 0.680274 0.737835 0.729449 0.645792 0.595592 0.623046 0.635076 0.681140 0.641106 0.617963 0.632927 0.759168 0.861657 0.858367 0.795352 0.844469 0.867840 0.773924 0.697018 0.638269 0.652179 0.645631 0.602755 0.569553 0.603669 0.671976 0.707105 0.680727 0.736430 0.793158 0.840370 0.828268 0.731184 0.636026 0.615790 0.626252 0.699711 0.743725 0.763920 0.678869 0.671846 0.731803 0.762213 0.715456 0.749836 0.703631 0.685786 0.612553 0.569054 0.623597 0.715900 0.790476 0.701201 0.679323 0.686719 0.783679 0.822602 0.794267 0.747587 0.703934 0.723873 0.743337 0.751183 0.742608 0.687815 0.697739 0.757395 0.707241 0.579283 0.527368 0.563621 0.716273 0.718598 0.714710 0.651196 0.640999 0.657622 0.660157 0.640961 0.653130 0.785674 0.816554 0.768304 0.729160 0.676587 0.675117 0.694637 0.713873 0.697054 0.732936 0.753669 0.755766 0.686686 0.633389 0.653537 0.775750 0.871379 0.894038 0.765491 0.684742 0.661746 0.716773 0.754292 0.683631 0.638320 0.569789 0.657491 0.691876 0.674721 0.603882 0.652371 0.698781 0.736776 0.733256 0.681213 0.692861 0.675276 0.700140 0.751105 0.793264 0.739500 0.741614 0.767618 0.784028 0.728151 0.681891 0.662828 0.688951 0.705384 0.735320 0.739388 0.716623 0.675061 0.658759 0.605644 0.644871 0.727425 0.765648 0.749180 0.671154 0.681896 0.782274 0.832384 0.791527 0.766721 0.722813 0.687912 0.645024 0.649286 0.660728 0.726691 0.729854 0.762036 0.702136 0.633912 0.665946 0.677681 0.702965 0.726528 0.720632 0.712671 0.684609 0.708956 0.729535 0.742719 0.721699 0.718835 0.721214 0.738389 0.725800 0.740276 0.763315 0.683014 0.640224 0.701075 0.787967 0.787205 0.650514 0.602351 0.621855 0.659677 0.658820 0.653028 0.692234 0.756470 0.727979 0.681339 0.680422 0.702138 0.760873 0.748122 0.819325 0.726829 0.650462 0.629230 0.648870 0.685822 0.719606 0.756338 0.692740 0.640939 0.705071 0.737465 0.731207 0.714040 0.732963 0.714892 0.688693 0.682764 0.748314 0.689188 0.663463 0.636446 0.593497 0.657153 0.638955 0.696723 0.819431 0.792691 0.828464 0.678209 0.674854 0.648210 0.679728 0.721986 0.692989 0.606795 0.593432 0.647328 0.798384 0.999256 0.996613 0.784871 0.733550 0.767852 0.773694 0.618967 0.608199 0.599152 0.618645 0.532034 0.643730 0.605878 0.679048 0.618150 0.542375 0.568404 0.578729 0.866655 0.991044 0.938346 0.659088 0.623142 0.770043 0.790301 0.845919 0.606145 0.581188 0.610052 0.666163 0.738996 0.790803 0.820358 1.038951 0.654972 0.505444 0.412933 0.882350 1.002922 0.769513 0.621982 0.426164 0.274854 -0.202610 -0.494912 -0.692294 -0.751111
0.072396 0.073461 0.076655 0.081977 0.089424 0.098990 0.110670 0.124454 0.140329 0.158277 0.178274 0.200290 0.224287 0.250217 0.278021 0.307626 0.338946 0.371878 0.406301 0.442072 0.479030 0.516986 0.555728 0.595016 0.634583 0.674130 0.713332 0.751828 0.789230 0.825120 0.859050 0.890545 0.919107 0.944218 0.965341 0.981933 0.993444 0.999329 0.999056 0.992114 0.978027 0.956363 0.926750 0.888888 0.842561 0.787655 0.724170 0.652237 0.572128 0.484270 0.389256 0.287853 0.181005 0.069840 0.044335 0.160040 0.275633 0.389327 0.499212 0.603284 0.699482 0.785725 0.859963 0.920228 0.964690 0.991717 0.999939 0.988306 0.956153 0.903254 0.829873 0.736804 0.625402 0.497597 0.355894 0.203352 0.043540 0.119521 0.281450 0.437609 0.583235 0.713590 0.824121 0.910637 0.969488 0.997742 0.993353 0.955314 0.883773 0.780134 0.647087 0.488613 0.309917 0.117306 0.081995 0.280090 0.468704 0.639535 0.784630 0.896781 0.969924 0.999511 0.982848 0.919352 0.810738 0.661081 0.476762 0.266291 0.039972 0.190541 0.412817 0.614310 0.783087 0.908572 0.982273 0.998436 0.954570 0.851812 0.695072 0.492943 0.257354 0.002961 0.253692 0.495220 0.704569 0.866266 0.967633 0.999887 0.959017 0.846357 0.668780 0.438465 0.172216 0.109646 0.384761 0.630477 0.825744 0.953006 0.999900 0.960613 0.836741 0.637520 0.379364 0.084707 0.219820 0.505706 0.745248 0.914290 0.994796 0.976966 0.860627 0.655703 0.381663 0.065890 0.258871 0.557838 0.797922 0.951489 0.999722 0.935175 0.763134 0.501567 0.179555 0.165707 0.493075 0.762327 0.939209 0.999987 0.934921 0.750099 0.467318 0.121857 0.241654 0.574862 0.832128 0.976928 0.987300 0.859528 0.609401 0.270705 0.108970 0.474711 0.772151 0.955673 0.995679 0.883747 0.634749 0.285401 0.110746 0.491232 0.794492 0.969938 0.986726 0.839633 0.550864 0.167261 0.246847 0.620235 0.886994 0.998426 0.932361 0.698095 0.335789 0.089866 0.500824 0.819907 0.985464 0.963703 0.756165 0.400620 0.035176 0.465939 0.805394 0.983723 0.962358 0.742970 0.368418 0.084913 0.522239 0.850046 0.996305 0.926847 0.654047 0.235552 0.237203 0.658553 0.932198 0.993586 0.825823 0.465068 0.006374 0.478190 0.837641 0.996692 0.914198 0.607383 0.149302 0.347749 0.759365 0.980234 0.951634 0.677924 0.227224 0.284629 0.723321 0.971320 0.959894 0.689092 0.229641 0.294514 0.739108 0.979239 0.945086 0.643190 0.156672 0.376626 0.802671 0.995835 0.896681 0.531360 0.006051 0.522884 0.895097 0.995162 0.789319 0.338076 0.220271 0.711186 0.978368 0.934128 0.589388 0.052640 0.503037 0.895262 0.992535 0.759372 0.270613 0.311163 0.788894 0.997752 0.862912 0.427759 0.158444 0.690644 0.979463 0.919292 0.528313 0.055168 0.620307 0.959498 0.945187 0.579261 0.004661 0.588562 0.950870 0.951066 0.585617 0.007515 0.599451 0.958086 0.939711 0.548094 0.063710 0.651626 0.977409 0.905905 0.462781 0.172513 0.737955 0.996642 0.837043 0.322907 0.330083 0.843475 0.994763 0.715129 0.122769 0.525066 0.942754 0.942707 0.521305 0.135612 0.732902 0.998228 0.807271 0.244076 0.433637 0.911017 0.962612 0.560502 0.108423 0.727315 0.998824 0.789045 0.195806 0.494468 0.943709 0.928127 0.451666 0.251486 0.830051 0.990831 0.648809 0.025370 0.688125 0.997095 0.789033 0.168490 0.541961 0.967959 0.881148 0.323864 0.408490 0.922128 0.936728 0.440490 0.298380 0.874443 0.967178 0.521262 0.217616 0.835582 0.981935
1.000000 1.000000 1.000000 1.000000 1.000000 1.000000 1.000000 1.000000 1.000000 1.000000 1.000000 1.000000 1.000000 1.000000 1.000000 1.000000 1.000000 1.000000 1.000000 1.000000 -0.109083 -0.109083 -0.109083 -0.109083 -0.109083 -0.109083 -0.109083 -0.109083 -0.109083 -0.109083 -0.109083 -0.109083 -0.109083 -0.109083 -0.109083 -0.109083 -0.109083 -0.109083 -0.210882 -0.210882 -0.210882 -0.210882 -0.210882 -0.210882 -0.210882 -0.210882 -0.210882 -0.210882 -0.210882 -0.210882 -0.210882 -0.210882 -0.210882 -0.210882 -0.213503 -0.192700 -0.173405 -0.170205 -0.172062 -0.193797 -0.198841 -0.179493 -0.174937 -0.173187 -0.161542 -0.142130 -0.075068 -0.039624 0.017665 0.045488 0.060580 0.068002 0.072738 0.071977 0.087906 0.108247 0.123978 0.137843 0.149718 0.162013 0.173689 0.225834 0.261903 0.263739 0.252582 0.240581 0.210559 0.200371 0.178814 0.165550 0.170208 0.200208 0.278896 0.342919 0.380254 0.375927 0.384640 0.429051 0.475246 0.472826 0.485114 0.499647 0.513744 0.512895 0.481900 0.488484 0.543311 0.646398 0.638027 0.626158 0.616924 0.610994 0.655785 0.650890 0.635428 0.737308 0.726143 0.731478 0.658130 0.578183 0.527898 0.518947 0.457863 0.386579 0.371700 0.366325 0.364168 0.387651 0.399106 0.401867 0.362743 0.270176 0.268770 0.266446 0.247637 0.260041 0.271626 0.278149 0.243768 0.195847 0.178434 0.116733 0.141051 0.186313 0.209817 0.234599 0.227478 0.228354 0.239501 0.240973 0.236651 0.255634 0.308114 0.309404 0.292641 0.275486 0.261920 0.234162 0.236817 0.295433 0.366459 0.389049 0.397332 0.462343 0.523900 0.517622 0.509097 0.490703 0.499212 0.478443 0.411765 0.391207 0.390987 0.387261 0.447293 0.507455 0.541345 0.499989 0.460720 0.454952 0.470813 0.428176 0.414528 0.431510 0.420610 0.421799 0.442863 0.438180 0.411316 0.345149 0.313928 0.312381 0.278239 0.248678 0.230059 0.180771 0.156755 0.168622 0.139672 0.095648 0.061260 0.000736 0.006080 -0.059765 -0.138781 -0.144324 -0.157994 -0.139509 -0.129867 -0.148974 -0.163177 -0.139459 -0.123558 -0.163617 -0.182448 -0.211567 -0.220755 -0.235576 -0.219864 -0.243330 -0.276833 -0.259671 -0.305213 -0.349228 -0.357920 -0.370125 -0.372103 -0.305204 -0.321234 -0.364361 -0.373863 -0.412375 -0.416021 -0.376914 -0.424641 -0.393505 -0.369012 -0.393355 -0.356823 -0.317722 -0.331258 -0.281698 -0.267067 -0.264708 -0.237280 -0.184615 -0.213103 -0.186056 -0.188215 -0.187571 -0.199222 -0.247291 -0.258313 -0.251036 -0.273404 -0.283010 -0.282542 -0.272921 -0.202872 -0.237159 -0.280429 -0.243095 -0.253518 -0.180052 -0.200300 -0.141043 -0.133480 -0.140368 -0.131733 -0.144233 -0.155772 -0.144795 -0.152282 -0.133802 -0.108391 -0.100282 -0.107056 -0.088255 -0.060110 -0.038380 -0.083145 -0.069544 -0.053758 -0.034894 -0.011693 0.007637 -0.006780 0.027107 0.024980 0.031171 -0.009683 -0.020549 -0.065953 -0.046177 -0.011285 0.002339 0.017543 -0.025321 -0.010862 0.035036 0.011012 0.026735 0.033491 0.055819 0.053664 0.070980 0.083540 0.038461 0.032990 0.016337 0.013694 0.001725 -0.039685 -0.053988 0.030378 0.032035 0.078249 0.054092 0.023305 0.027226 0.015194 0.004665 0.032733 0.005846 0.000199 -0.010944 0.007157 0.000687 0.092905 0.119716 0.129059 0.130081 0.159239 0.057744 0.068138 0.057551 0.104211 -0.004019 -0.015689 -0.015689 -0.015689 0.059136 0.059136 0.059136 0.059136 0.059136 0.006081 0.006081 0.006081 0.006081 0.006081 0.006081 0.006081 0.006081 0.019894 0.019894 0.019894 0.019894 0.019894 0.019894 0.019894 0.019894 0.019894
0.000000 0.000000 0.000000 0.000000 258367126890697824.000000 567794199475941568.000000 900364378713236864.000000 405993641600402752.000000 650673534436919040.000000 288473166005062656.000000 2267295521645794816.000000 328827166858672896.000000 1020885696351881856.000000 887716146498331648.000000 871431829779464064.000000 558344721583156544.000000 645625126667973504.000000 277287248096388288.000000 781064618402027776.000000 920953283852434688.000000 0.216930 0.216930 0.216930 0.216930 0.216930 0.216930 0.216930 0.216930 0.216930 0.216930 0.216930 0.216930 0.216930 0.216930 0.216930 0.216930 0.216930 0.216930 0.240772 0.240772 0.240772 0.240772 0.240772 0.240772 0.240772 0.240772 0.240772 0.240772 0.240772 0.240772 0.240772 0.240772 0.240772 0.240772 0.240772 0.240772 0.240772 0.240772 0.240772 0.240772 0.240772 0.240772 0.240772 0.240772 0.240772 0.240772 0.269680 0.269680 0.269680 0.269680 0.269680 0.269680 0.269680 0.269680 0.269680 0.269680 0.269680 0.269680 0.269680 0.269680 0.269680 0.269680 0.269680 0.269680 0.269680 0.269680 0.291730 0.291730 0.291730 0.291730 0.291730 0.291730 0.291730 0.291730 0.291730 0.291730 0.291730 0.291730 0.291730 0.291730 0.291730 0.291730 0.304997 0.304997 0.304997 0.304997 0.304997 0.304997 0.304997 0.304997 0.304997 0.304997 0.304997 0.304997 0.304997 0.312348 0.312348 0.312348 0.312348 0.312348 0.312348 0.312348 0.312348 0.312348 0.312348 0.312348 0.312348 0.298142 0.298142 0.298142 0.298142 0.298142 0.298142 0.298142 0.298142 0.298142 0.298142 0.298142 0.298142 0.320256 0.320256 0.320256 0.320256 0.320256 0.320256 0.320256 0.320256 0.320256 0.320256 0.320256 0.320256 0.320256 0.320256 0.320256 0.320256 0.320256 0.320256 0.320256 0.312348 0.312348 0.312348 0.312348 0.312348 0.312348 0.312348 0.312348 0.312348 0.304997 0.304997 0.304997 0.304997 0.304997 0.304997 0.304997 0.304997 0.304997 0.320256 0.320256 0.320256 0.320256 0.320256 0.320256 0.320256 0.320256 0.312348 0.312348 0.312348 0.312348 0.312348 0.312348 0.312348 0.312348 0.304997 0.304997 0.304997 0.304997 0.304997 0.304997 0.304997 0.304997 0.312348 0.312348 0.312348 0.312348 0.312348 0.312348 0.312348 0.312348 0.312348 0.312348 0.312348 0.312348 0.312348 0.312348 0.304997 0.304997 0.304997 0.304997 0.304997 0.304997 0.304997 0.320256 0.320256 0.320256 0.320256 0.320256 0.320256 0.291730 0.291730 0.291730 0.291730 0.291730 0.291730 0.291730 0.304997 0.304997 0.304997 0.304997 0.304997 0.304997 0.304997 0.304997 0.304997 0.304997 0.304997 0.304997 0.298142 0.298142 0.298142 0.298142 0.298142 0.298142 0.291730 0.291730 0.291730 0.291730 0.291730 0.291730 0.312348 0.312348 0.312348 0.312348 0.312348 0.285714 0.285714 0.285714 0.285714 0.285714 0.285714 0.304997 0.304997 0.304997 0.304997 0.304997 0.280056 0.280056 0.280056 0.280056 0.280056 0.280056 0.298142 0.298142 0.298142 0.298142 0.298142 0.291730 0.291730 0.291730 0.291730 0.291730 0.285714 0.285714 0.285714 0.285714 0.285714 0.285714 0.285714 0.285714 0.285714 0.285714 0.280056 0.280056 0.280056 0.280056 0.280056 0.280056 0.280056 0.280056 0.280056 0.280056 0.298142 0.298142 0.298142 0.298142 0.269680 0.269680 0.269680 0.269680 0.269680 0.269680 0.269680 0.269680 0.269680 0.269680 0.291730 0.291730 0.291730 0.291730 0.264906 0.264906 0.264906 0.264906 0.264906 0.285714 0.285714 0.285714 0.285714 0.280056 0.280056 0.280056 0.280056 0.256074 0.256074 0.256074 0.256074 0.256074 0.274721 0.274721 0.274721 0.274721 0.274721 0.274721 0.274721 0.274721 0.269680 0.269680 0.269680 0.269680 0.269680 0.269680 0.269680 0.269680 0.269680
