# Output from CTFFind version 4.1.9, run on 2019-11-24 12:06:08
# Input file: stack1_ubbm3d_averaged_1_2.0_0_500_half.mrc ; Number of micrographs: 1
# Pixel size: 1.500 Angstroms ; acceleration voltage: 300.0 keV ; spherical aberration: 0.00 mm ; amplitude contrast: 0.07
# Box size: 512 pixels ; min. res.: 40.0 Angstroms ; max. res.: 6.0 Angstroms ; min. def.: 5000.0 um; max. def. 50000.0 um; num. frames averaged: 1
# 6 lines per micrograph: #1 - spatial frequency (1/Angstroms); #2 - 1D rotational average of spectrum (assuming no astigmatism); #3 - 1D rotational average of spectrum; #4 - CTF fit; #5 - cross-correlation between spectrum and CTF fit; #6 - 2sigma of expected cross correlation of noise
0.000000 0.001302 0.002604 0.003906 0.005208 0.006510 0.007812 0.009115 0.010417 0.011719 0.013021 0.014323 0.015625 0.016927 0.018229 0.019531 0.020833 0.022135 0.023438 0.024740 0.026042 0.027344 0.028646 0.029948 0.031250 0.032552 0.033854 0.035156 0.036458 0.037760 0.039062 0.040365 0.041667 0.042969 0.044271 0.045573 0.046875 0.048177 0.049479 0.050781 0.052083 0.053385 0.054688 0.055990 0.057292 0.058594 0.059896 0.061198 0.062500 0.063802 0.065104 0.066406 0.067708 0.069010 0.070312 0.071615 0.072917 0.074219 0.075521 0.076823 0.078125 0.079427 0.080729 0.082031 0.083333 0.084635 0.085938 0.087240 0.088542 0.089844 0.091146 0.092448 0.093750 0.095052 0.096354 0.097656 0.098958 0.100260 0.101562 0.102865 0.104167 0.105469 0.106771 0.108073 0.109375 0.110677 0.111979 0.113281 0.114583 0.115885 0.117188 0.118490 0.119792 0.121094 0.122396 0.123698 0.125000 0.126302 0.127604 0.128906 0.130208 0.131510 0.132812 0.134115 0.135417 0.136719 0.138021 0.139323 0.140625 0.141927 0.143229 0.144531 0.145833 0.147135 0.148438 0.149740 0.151042 0.152344 0.153646 0.154948 0.156250 0.157552 0.158854 0.160156 0.161458 0.162760 0.164062 0.165365 0.166667 0.167969 0.169271 0.170573 0.171875 0.173177 0.174479 0.175781 0.177083 0.178385 0.179688 0.180990 0.182292 0.183594 0.184896 0.186198 0.187500 0.188802 0.190104 0.191406 0.192708 0.194010 0.195312 0.196615 0.197917 0.199219 0.200521 0.201823 0.203125 0.204427 0.205729 0.207031 0.208333 0.209635 0.210938 0.212240 0.213542 0.214844 0.216146 0.217448 0.218750 0.220052 0.221354 0.222656 0.223958 0.225260 0.226562 0.227865 0.229167 0.230469 0.231771 0.233073 0.234375 0.235677 0.236979 0.238281 0.239583 0.240885 0.242188 0.243490 0.244792 0.246094 0.247396 0.248698 0.250000 0.251302 0.252604 0.253906 0.255208 0.256510 0.257812 0.259115 0.260417 0.261719 0.263021 0.264323 0.265625 0.266927 0.268229 0.269531 0.270833 0.272135 0.273438 0.274740 0.276042 0.277344 0.278646 0.279948 0.281250 0.282552 0.283854 0.285156 0.286458 0.287760 0.289062 0.290365 0.291667 0.292969 0.294271 0.295573 0.296875 0.298177 0.299479 0.300781 0.302083 0.303385 0.304688 0.305990 0.307292 0.308594 0.309896 0.311198 0.312500 0.313802 0.315104 0.316406 0.317708 0.319010 0.320312 0.321615 0.322917 0.324219 0.325521 0.326823 0.328125 0.329427 0.330729 0.332031 0.333333 0.334635 0.335938 0.337240 0.338542 0.339844 0.341146 0.342448 0.343750 0.345052 0.346354 0.347656 0.348958 0.350260 0.351562 0.352865 0.354167 0.355469 0.356771 0.358073 0.359375 0.360677 0.361979 0.363281 0.364583 0.365885 0.367188 0.368490 0.369792 0.371094 0.372396 0.373698 0.375000 0.376302 0.377604 0.378906 0.380208 0.381510 0.382812 0.384115 0.385417 0.386719 0.388021 0.389323 0.390625 0.391927 0.393229 0.394531 0.395833 0.397135 0.398438 0.399740 0.401042 0.402344 0.403646 0.404948 0.406250 0.407552 0.408854 0.410156 0.411458 0.412760 0.414062 0.415365 0.416667 0.417969 0.419271 0.420573 0.421875 0.423177 0.424479 0.425781 0.427083 0.428385 0.429688 0.430990 0.432292 0.433594 0.434896 0.436198 0.437500 0.438802 0.440104 0.441406 0.442708 0.444010 0.445312 0.446615 0.447917 0.449219 0.450521 0.451823 0.453125 0.454427 0.455729 0.457031 0.458333 0.459635 0.460938 0.462240 0.463542 0.464844 0.466146 0.467448 0.468750 0.470052 0.471354
       0.45372        0.45372        0.45372        0.45372        0.45372        0.45372        0.45372        0.45372        0.45372        0.45372        0.45372        0.45372        0.45372        0.45372        0.45372        0.45372        0.45372        0.45372        0.45372        1.27649        1.92069        0.85441        0.09743       -0.03706        0.50778        1.09033        1.01919        0.52128        0.19255        0.14197        0.18051        0.21866        0.24308        0.21656        0.12571        0.13144        0.12107        0.01185       -0.10883       -0.10369       -0.02058        0.05490        0.18076        0.36891        0.54209        0.63246        0.68037        0.74392        0.84017        0.85826        0.72231        0.45948        0.26319        0.25074        0.34297        0.38256        0.31879        0.22657        0.19507        0.24559        0.37664        0.48693        0.58360        0.64359        0.66166        0.60487        0.50274        0.44739        0.39888        0.34423        0.35861        0.49489        0.63920        0.60455        0.49001        0.43922        0.44697        0.42718        0.37056        0.37168        0.47057        0.52458        0.47943        0.34371        0.28808        0.35891        0.48019        0.51988        0.48034        0.42384        0.41812        0.43409        0.40446        0.35354        0.31632        0.39242        0.53155        0.60249        0.55519        0.45352        0.43454        0.47578        0.52462        0.53278        0.51125        0.47928        0.41786        0.37278        0.36331        0.39836        0.46043        0.49927        0.45861        0.38976        0.40556        0.50594        0.56567        0.53082        0.46592        0.45020        0.45381        0.44278        0.44933        0.46124        0.43169        0.38154        0.37071        0.42165        0.47740        0.50661        0.50264        0.47137        0.41145        0.38357        0.42443        0.51720        0.53782        0.47052        0.40511        0.41846        0.48138        0.53043        0.53232        0.48968        0.44168        0.40761        0.42334        0.45038        0.46177        0.43421        0.43359        0.46295        0.47140        0.42450        0.35174        0.33851        0.40668        0.50798        0.54340        0.49087        0.42181        0.41134        0.43594        0.43531        0.43339        0.48424        0.53568        0.53561        0.49138        0.45341        0.41760        0.39315        0.41616        0.48615        0.52720        0.49965        0.46197        0.45547        0.45423        0.44974        0.46837        0.50708        0.54019        0.52827        0.49294        0.45867        0.41890        0.39304        0.38673        0.39690        0.40473        0.41937        0.42478        0.42159        0.44121        0.48399        0.50763        0.46195        0.39974        0.38665        0.41151        0.42766        0.43431        0.45410        0.48175        0.47711        0.45844        0.45457        0.47697        0.51385        0.53136        0.51922        0.49238        0.48058        0.48760        0.48234        0.47191        0.45527        0.44902        0.44270        0.45966        0.48801        0.48354        0.43023        0.38417        0.39181        0.42759        0.44572        0.43784        0.45259        0.48472        0.49138        0.46624        0.43024        0.42089        0.44049        0.46027        0.46794        0.44678        0.41254        0.40400        0.43884        0.48483        0.48500        0.44585        0.42426        0.45112        0.49432        0.49407        0.45348        0.42659        0.44301        0.47802        0.49265        0.47269        0.44626        0.42701        0.42028        0.44024        0.48407        0.49453        0.44499        0.38417        0.39003        0.44943        0.48598        0.45581        0.43025        0.45167        0.46661        0.44360        0.43147        0.45785        0.47271        0.45969        0.45317        0.48592        0.48654        0.45612        0.41933        0.40843        0.40928        0.42933        0.47413        0.51742        0.50809        0.44697        0.39568        0.39485        0.42294        0.44992        0.46875        0.46695        0.45375        0.44585        0.47816        0.48905        0.43154        0.36668        0.37514        0.42702        0.46809        0.45785        0.45114        0.47278        0.48336        0.45872        0.45342        0.48569        0.51387        0.51577        0.48495        0.42694        0.36859        0.40086        0.46657        0.47559        0.41787        0.40537        0.45582        0.47698        0.41545        0.36919        0.40678        0.47760        0.44886        0.40409        0.43043        0.48645        0.48191        0.45298        0.44823        0.45192        0.42413        0.42870        0.48337        0.54142        0.51607        0.47288        0.47048        0.43675        0.33063        0.29698        0.44679        0.58682        0.54050        0.39049        0.40222        0.46787        0.47087        0.43982        0.43375        0.35056        0.23013        0.27816        0.45816        0.54786        0.53220        0.52964        0.44272        0.17874       -0.05037       -0.15290
4.267211 4.152531 4.039367 3.927717 3.817583 3.708962 3.601857 3.496266 3.392191 3.289629 3.188583 3.089052 2.991035 2.894533 2.799546 2.706073 2.614115 2.523672 2.434744 4.094039 5.354697 3.311707 1.322008 0.779109 1.874373 3.125927 3.156423 2.041185 1.125798 0.877967 0.825268 0.946611 1.037196 0.769632 0.515444 0.589652 0.389946 0.129468 -0.096311 -0.281135 -0.176381 0.072719 0.135274 0.532828 0.788902 0.939668 0.968164 1.089595 1.216792 1.319529 1.017313 0.333668 0.000583 -0.182344 0.152670 -0.022448 -0.071047 -0.406173 -0.205447 -0.238839 -0.085340 0.422512 1.878621 -1.652840 -0.732444 -0.226930 -0.160493 0.042934 0.201669 0.221838 0.170031 -0.116106 -0.309767 -0.336525 -0.049003 0.088595 0.080718 0.325904 0.776194 0.865604 0.207839 0.197235 0.155524 -0.117537 -0.167675 -0.217780 0.151751 0.243369 0.191333 0.142234 0.066093 0.168629 0.111735 0.011939 -0.145027 -0.030838 0.340135 0.491699 0.429427 0.211134 0.190098 0.142409 0.310697 0.285953 0.325360 0.185969 0.032599 -0.031656 -0.089357 -0.071056 0.053088 0.260178 0.151561 -0.014595 -0.032137 0.086040 0.376134 0.417129 0.152059 0.125492 0.124729 0.088696 0.147740 0.037036 0.027990 -0.016181 -0.076046 -0.030184 0.086039 0.424774 0.337113 -0.022176 0.076151 0.186167 0.249837 -0.041130 -0.162073 -0.106217 0.249324 0.249793 0.072920 -0.049094 -0.099107 -0.004721 0.070656 0.071153 0.090403 0.073312 0.024274 0.087891 0.042359 -0.039367 -0.040521 -0.044986 0.263473 0.399872 0.379406 0.500763 1.186376 1.818925 0.070414 -1.697382 -2.086602 -5.575006 2.559823 -1.814183 0.741760 0.924806 0.276162 0.157762 0.484367 0.281211 0.215334 0.107327 -0.196586 -0.170882 0.087097 0.154551 0.179432 0.162224 0.164760 0.041866 -0.054325 -0.255014 -0.054970 0.193549 3.772303 85.898991 -44.361994 -27.136742 0.442095 0.417357 -0.007659 0.109677 0.048994 0.163273 0.105817 0.078264 0.010889 -0.120323 -0.101235 -0.037780 -0.088020 -0.057588 -0.022733 0.063280 -0.013550 -0.043860 -0.059303 -0.049740 0.128141 0.088309 0.032195 0.003785 -0.009367 -0.009637 -0.017708 -0.031462 -0.062911 -0.030456 -0.057256 0.034349 0.105290 0.063313 -0.102532 -0.135229 -0.073364 0.034920 0.021456 0.001248 0.054555 0.109121 0.083310 0.022305 -0.059694 -0.073198 -0.052612 0.052897 0.050029 -0.012682 -0.100579 -0.078375 -0.021711 0.055073 0.044385 -0.028372 -0.063233 0.043266 0.085893 0.057703 -0.063743 -0.013956 0.000959 0.116380 0.029442 0.044134 -0.028258 -0.059623 -0.072307 -0.001016 0.087258 0.092652 -0.051934 -0.169712 -0.099207 0.008032 0.037040 -0.023914 -0.012188 0.059975 0.045733 -0.062697 -0.070150 -0.010595 0.033431 -0.030690 0.046172 0.125116 0.073925 -0.061935 -0.048657 -0.141557 -0.105746 -0.086174 0.067050 0.163525 0.120104 -0.047764 -0.163911 -0.103200 -0.070090 -0.008218 0.028489 0.000867 -0.000265 -0.012043 0.059516 0.075582 -0.101039 -0.198092 -0.117274 -0.002208 0.053627 0.015340 -0.008672 0.034220 -0.000245 -0.051065 -0.010301 0.037467 0.108627 0.181131 0.043213 -0.023773 -0.114044 -0.109841 0.062485 0.085325 0.006057 -0.016165 0.093652 0.072983 -0.087860 -0.112408 -0.042593 0.049757 0.084150 -0.018690 0.013683 0.155520 0.040859 0.049827 -0.013674 -0.075183 -0.074110 -0.073583 -0.009599 0.172571 0.183005 0.069696 0.073700 -0.071320 -0.141666 -0.262772 0.114243 0.358316 0.068356 -0.169438 -0.210543 0.002120 0.156967 0.123217 0.089468 -0.001068 -0.316945 -0.346346 -0.060070 0.259312 0.246904 0.111573 0.935786 0.528364 -0.310263
0.072396 0.074557 0.081039 0.091834 0.106928 0.126298 0.149907 0.177697 0.209586 0.245457 0.285153 0.328461 0.375111 0.424757 0.476970 0.531227 0.586902 0.643254 0.699421 0.754419 0.807136 0.856337 0.900674 0.938698 0.968885 0.989661 0.999442 0.996685 0.979939 0.947918 0.899567 0.834149 0.751321 0.651229 0.534579 0.402717 0.257681 0.102247 0.060067 0.225024 0.387728 0.542741 0.684242 0.806237 0.902826 0.968508 0.998519 0.989199 0.938347 0.845559 0.712512 0.543162 0.343830 0.123137 0.108213 0.337853 0.552348 0.737970 0.881613 0.971816 0.999802 0.960469 0.853223 0.682554 0.458259 0.195223 0.087290 0.366849 0.619554 0.822084 0.953993 0.999999 0.952049 0.810872 0.586786 0.299522 0.023033 0.347211 0.636915 0.857669 0.980948 0.988260 0.874393 0.649265 0.337932 0.021513 0.382114 0.693967 0.911213 0.999159 0.940432 0.739051 0.421491 0.034177 0.362601 0.703729 0.930047 0.999119 0.894017 0.628264 0.245539 0.186406 0.587056 0.877998 0.998723 0.920137 0.652729 0.247013 0.214639 0.633891 0.917266 0.997601 0.851195 0.506110 0.038734 0.441717 0.818102 0.994199 0.920479 0.609723 0.137348 0.375076 0.790162 0.991718 0.918521 0.584875 0.080705 0.450633 0.852148 0.999981 0.843257 0.423870 0.131840 0.649173 0.959466 0.956147 0.633662 0.094530 0.480541 0.891909 0.990852 0.735558 0.211600 0.393466 0.855413 0.996654 0.756764 0.221546 0.403997 0.872110 0.990677 0.704597 0.124908 0.510459 0.932403 0.955387 0.562171 0.081189 0.691746 0.992816 0.841166 0.299158 0.385868 0.891409 0.971746 0.580673 0.097586 0.730720 0.999676 0.761713 0.130941 0.570939 0.975930 0.863920 0.286943 0.448662 0.941114 0.913055 0.372223 0.382252 0.920832 0.928024 0.391654 0.378846 0.926069 0.916038 0.346756 0.438751 0.954164 0.871259 0.234244 0.555706 0.988530 0.775863 0.049408 0.712854 0.997545 0.604437 0.205455 0.875880 0.935503 0.334133 0.507806 0.987148 0.750817 0.037016 0.800235 0.968444 0.407375 0.465399 0.984074 0.742753 0.079408 0.841740 0.937635 0.282205 0.603524 0.999881 0.575058 0.328138 0.959627 0.783481 0.059723 0.854250 0.912278 0.174893 0.718430 0.977522 0.363815 0.579397 0.999123 0.505452 0.455954 0.995982 0.603952 0.359657 0.983446 0.665367 0.296831 0.972342 0.695066 0.270437 0.968849 0.696161 0.281468 0.974620 0.668769 0.329532 0.986861 0.609992 0.412603 0.998213 0.514605 0.525934 0.996662 0.376526 0.660375 0.965814 0.191335 0.800326 0.886184 0.039989 0.922057 0.738282 0.306509 0.993634 0.508102 0.582714 0.977896 0.195178 0.825793 0.840176 0.178148 0.977896 0.561389 0.559402 0.976566 0.154877 0.866039 0.775383 0.318431 0.999519 0.372538 0.746401 0.877309 0.162118 0.985487 0.479114 0.679014 0.910618 0.109731 0.979711 0.487461 0.687871 0.896133 0.164668 0.992242 0.398954 0.770116 0.824220 0.323326 0.998150 0.201809 0.894746 0.658130 0.565810 0.937756 0.112068 0.992105 0.351782 0.831577 0.726972 0.510856 0.949303 0.107529 0.995007 0.298724 0.876428 0.642008 0.631357 0.878895 0.310348 0.990468 0.034859 0.979349 0.359695 0.863823 0.631664 0.671133 0.831668 0.431357 0.953057 0.172719 0.999037 0.081392 0.979565 0.313812 0.908311 0.513788 0.800127 0.676253 0.669179 0.800645 0.527848 0.889739 0.386035 0.948287 0.251253 0.982140 0.128565 0.997344 0.021202 0.999659 0.069095 0.994191 0.141721 0.985211 0.196596 0.976062 0.234046 0.969177 0.254456 0.966060
1.000000 1.000000 1.000000 1.000000 1.000000 1.000000 1.000000 1.000000 1.000000 1.000000 1.000000 1.000000 1.000000 1.000000 1.000000 1.000000 1.000000 1.000000 1.000000 1.000000 0.307765 0.307765 0.307765 0.307765 0.307765 0.307765 0.307765 0.290524 0.290524 0.290524 0.290524 0.290524 0.290524 0.290524 0.290524 0.290524 0.290524 0.290524 0.290524 0.290524 0.290524 0.290524 0.290524 0.290524 0.290524 0.281450 0.298915 0.435403 0.459160 0.436912 0.425312 0.396556 0.314820 0.332597 0.362532 0.351882 0.303756 0.254558 0.223033 0.178371 0.197579 0.151343 0.121914 0.096219 0.093440 0.100268 0.100100 0.093118 0.136601 0.150675 0.087029 0.057142 0.096710 0.134700 0.148042 0.157912 0.229056 0.322651 0.359621 0.338112 0.321019 0.374277 0.433574 0.411392 0.486447 0.527973 0.545086 0.620977 0.627708 0.620429 0.600477 0.683858 0.693334 0.711945 0.722273 0.726930 0.690085 0.666243 0.674894 0.669250 0.671517 0.678264 0.646846 0.641031 0.666642 0.638928 0.681827 0.762361 0.761704 0.747159 0.758994 0.760287 0.761352 0.772677 0.765214 0.753587 0.743956 0.719377 0.731926 0.695012 0.612474 0.622718 0.584437 0.480617 0.514464 0.506130 0.453415 0.427851 0.382853 0.287336 0.257923 0.218129 0.166346 0.112216 0.049062 0.033647 -0.021421 -0.004186 -0.113590 -0.173900 -0.235865 -0.225762 -0.341369 -0.320194 -0.256238 -0.332116 -0.290304 -0.266871 -0.322604 -0.352181 -0.365756 -0.314329 -0.268365 -0.263298 -0.168733 -0.171002 -0.179356 -0.176772 -0.225550 -0.197520 -0.149419 -0.156237 -0.137872 -0.119823 -0.108408 -0.125151 -0.109646 -0.076831 -0.025260 -0.000030 0.029999 0.100511 0.116060 0.089731 0.061841 0.053480 -0.036923 -0.010588 -0.116302 -0.129245 -0.055432 -0.003189 0.002593 -0.013401 -0.026578 -0.039642 -0.122594 -0.135852 -0.262831 -0.235199 -0.212436 -0.181972 -0.131773 -0.235246 -0.239416 -0.206583 0.036073 0.044479 0.020185 -0.000820 0.038999 0.018590 0.014358 -0.017467 -0.043966 -0.048448 -0.079088 0.001076 -0.036656 -0.030562 -0.003050 0.138344 0.107042 0.070409 0.060223 0.049771 0.039362 0.104493 0.094599 0.081204 0.051865 0.107685 0.142947 0.167202 0.201212 0.190366 0.157409 0.134930 0.131189 0.062109 0.069568 0.071451 0.074259 0.039088 -0.045085 -0.123766 -0.101274 -0.113097 -0.067427 -0.089106 -0.076553 -0.097490 -0.067844 -0.028001 -0.052492 -0.069247 -0.078436 -0.158729 -0.187673 -0.202738 -0.202450 -0.158244 -0.267747 -0.272569 -0.180379 -0.206009 -0.218950 -0.230890 -0.237271 -0.238275 -0.259732 -0.259766 -0.267986 -0.266633 -0.248910 -0.268363 -0.250287 -0.333271 -0.307077 -0.291374 -0.272572 -0.227654 -0.229284 -0.276668 -0.311732 -0.319174 -0.250649 -0.255930 -0.227224 -0.226935 -0.195825 -0.133370 -0.261379 -0.288330 -0.186850 -0.214121 -0.212102 -0.130118 -0.156912 -0.189283 -0.192807 -0.186717 -0.149946 -0.087007 -0.175885 -0.125101 -0.143487 -0.135900 -0.127509 -0.068816 -0.115272 -0.101716 -0.149752 -0.156083 -0.087611 -0.067510 -0.222621 -0.231672 -0.215541 -0.085512 -0.138108 -0.170885 -0.190703 -0.205106 -0.204492 -0.214703 -0.190213 -0.178045 -0.187099 -0.199010 -0.219009 -0.212830 -0.055701 -0.074382 -0.070654 -0.179674 -0.154302 -0.137135 -0.071680 -0.064963 -0.031345 -0.076542 -0.054095 -0.044445 -0.044445 -0.044445 -0.059508 -0.074096 -0.062999 -0.062999 -0.062999 -0.062999 -0.062999 -0.062999 -0.062999 -0.062999 -0.045040 -0.045040 -0.045040 -0.045040 -0.061305 -0.061305 -0.061305 -0.031066 -0.031066 -0.031066 -0.031066 -0.031066 -0.031066 -0.045582 -0.045582 -0.045582 -0.045582
0.000000 0.000000 0.000000 0.000000 1048424614519485696.000000 812981241832322944.000000 754586179316527872.000000 809662365925846016.000000 635427156481668992.000000 362068152112709440.000000 1089176363738113920.000000 397391337658871168.000000 513291682897409536.000000 570087230886829504.000000 929103963406156928.000000 1532064190483003904.000000 705435810600995328.000000 1146349868741090432.000000 1974341643523451648.000000 371514331442162688.000000 0.256074 0.256074 0.256074 0.256074 0.256074 0.256074 0.256074 0.280056 0.280056 0.280056 0.280056 0.280056 0.280056 0.280056 0.280056 0.280056 0.280056 0.280056 0.280056 0.280056 0.280056 0.280056 0.280056 0.280056 0.280056 0.280056 0.280056 0.328798 0.328798 0.328798 0.328798 0.328798 0.328798 0.328798 0.328798 0.328798 0.328798 0.328798 0.328798 0.328798 0.348155 0.348155 0.348155 0.348155 0.348155 0.348155 0.348155 0.348155 0.348155 0.348155 0.348155 0.348155 0.348155 0.348155 0.348155 0.348155 0.348155 0.348155 0.348155 0.348155 0.348155 0.348155 0.348155 0.348155 0.348155 0.348155 0.348155 0.348155 0.348155 0.348155 0.384900 0.384900 0.384900 0.384900 0.384900 0.384900 0.384900 0.348155 0.348155 0.348155 0.348155 0.348155 0.348155 0.348155 0.348155 0.384900 0.384900 0.384900 0.384900 0.384900 0.384900 0.348155 0.348155 0.348155 0.348155 0.348155 0.348155 0.348155 0.371391 0.371391 0.371391 0.371391 0.371391 0.371391 0.384900 0.384900 0.384900 0.384900 0.384900 0.348155 0.348155 0.348155 0.348155 0.348155 0.348155 0.371391 0.371391 0.371391 0.371391 0.371391 0.359211 0.359211 0.359211 0.359211 0.359211 0.359211 0.359211 0.359211 0.359211 0.359211 0.348155 0.348155 0.348155 0.348155 0.348155 0.348155 0.348155 0.348155 0.348155 0.348155 0.371391 0.371391 0.371391 0.371391 0.328798 0.328798 0.328798 0.328798 0.328798 0.359211 0.359211 0.359211 0.359211 0.348155 0.348155 0.348155 0.348155 0.348155 0.348155 0.348155 0.348155 0.338062 0.338062 0.338062 0.338062 0.338062 0.338062 0.338062 0.338062 0.328798 0.328798 0.328798 0.328798 0.371391 0.371391 0.371391 0.320256 0.320256 0.320256 0.320256 0.320256 0.320256 0.320256 0.320256 0.348155 0.348155 0.348155 0.312348 0.312348 0.312348 0.312348 0.348155 0.348155 0.348155 0.338062 0.338062 0.338062 0.298142 0.298142 0.298142 0.298142 0.328798 0.328798 0.328798 0.328798 0.328798 0.328798 0.328798 0.328798 0.328798 0.285714 0.285714 0.285714 0.285714 0.320256 0.320256 0.320256 0.312348 0.312348 0.312348 0.312348 0.312348 0.312348 0.312348 0.312348 0.312348 0.304997 0.304997 0.304997 0.304997 0.304997 0.304997 0.348155 0.348155 0.298142 0.298142 0.298142 0.298142 0.298142 0.298142 0.291730 0.291730 0.291730 0.291730 0.291730 0.291730 0.328798 0.328798 0.285714 0.285714 0.285714 0.285714 0.285714 0.285714 0.328798 0.328798 0.280056 0.280056 0.280056 0.274721 0.274721 0.274721 0.320256 0.320256 0.274721 0.274721 0.274721 0.312348 0.312348 0.269680 0.269680 0.269680 0.304997 0.304997 0.264906 0.264906 0.264906 0.304997 0.304997 0.304997 0.304997 0.260378 0.260378 0.260378 0.298142 0.298142 0.256074 0.256074 0.256074 0.291730 0.291730 0.291730 0.291730 0.251976 0.251976 0.251976 0.285714 0.285714 0.285714 0.285714 0.285714 0.285714 0.244339 0.244339 0.244339 0.280056 0.280056 0.280056 0.280056 0.280056 0.280056 0.274721 0.274721 0.237356 0.237356 0.237356 0.274721 0.274721 0.269680 0.269680 0.269680 0.269680 0.269680 0.269680 0.269680 0.269680 0.264906 0.264906 0.264906 0.264906 0.227921 0.227921 0.227921 0.260378 0.260378 0.260378 0.260378 0.260378 0.260378 0.256074 0.256074 0.256074 0.256074
