# Output from CTFFind version 4.1.9, run on 2019-11-24 11:56:22
# Input file: stack1_bm3d_averaged_1_1.0_0_0_half.mrc ; Number of micrographs: 1
# Pixel size: 1.500 Angstroms ; acceleration voltage: 300.0 keV ; spherical aberration: 0.00 mm ; amplitude contrast: 0.07
# Box size: 512 pixels ; min. res.: 40.0 Angstroms ; max. res.: 6.0 Angstroms ; min. def.: 5000.0 um; max. def. 50000.0 um; num. frames averaged: 1
# 6 lines per micrograph: #1 - spatial frequency (1/Angstroms); #2 - 1D rotational average of spectrum (assuming no astigmatism); #3 - 1D rotational average of spectrum; #4 - CTF fit; #5 - cross-correlation between spectrum and CTF fit; #6 - 2sigma of expected cross correlation of noise
0.000000 0.001302 0.002604 0.003906 0.005208 0.006510 0.007812 0.009115 0.010417 0.011719 0.013021 0.014323 0.015625 0.016927 0.018229 0.019531 0.020833 0.022135 0.023438 0.024740 0.026042 0.027344 0.028646 0.029948 0.031250 0.032552 0.033854 0.035156 0.036458 0.037760 0.039062 0.040365 0.041667 0.042969 0.044271 0.045573 0.046875 0.048177 0.049479 0.050781 0.052083 0.053385 0.054688 0.055990 0.057292 0.058594 0.059896 0.061198 0.062500 0.063802 0.065104 0.066406 0.067708 0.069010 0.070312 0.071615 0.072917 0.074219 0.075521 0.076823 0.078125 0.079427 0.080729 0.082031 0.083333 0.084635 0.085938 0.087240 0.088542 0.089844 0.091146 0.092448 0.093750 0.095052 0.096354 0.097656 0.098958 0.100260 0.101562 0.102865 0.104167 0.105469 0.106771 0.108073 0.109375 0.110677 0.111979 0.113281 0.114583 0.115885 0.117188 0.118490 0.119792 0.121094 0.122396 0.123698 0.125000 0.126302 0.127604 0.128906 0.130208 0.131510 0.132812 0.134115 0.135417 0.136719 0.138021 0.139323 0.140625 0.141927 0.143229 0.144531 0.145833 0.147135 0.148438 0.149740 0.151042 0.152344 0.153646 0.154948 0.156250 0.157552 0.158854 0.160156 0.161458 0.162760 0.164062 0.165365 0.166667 0.167969 0.169271 0.170573 0.171875 0.173177 0.174479 0.175781 0.177083 0.178385 0.179688 0.180990 0.182292 0.183594 0.184896 0.186198 0.187500 0.188802 0.190104 0.191406 0.192708 0.194010 0.195312 0.196615 0.197917 0.199219 0.200521 0.201823 0.203125 0.204427 0.205729 0.207031 0.208333 0.209635 0.210938 0.212240 0.213542 0.214844 0.216146 0.217448 0.218750 0.220052 0.221354 0.222656 0.223958 0.225260 0.226562 0.227865 0.229167 0.230469 0.231771 0.233073 0.234375 0.235677 0.236979 0.238281 0.239583 0.240885 0.242188 0.243490 0.244792 0.246094 0.247396 0.248698 0.250000 0.251302 0.252604 0.253906 0.255208 0.256510 0.257812 0.259115 0.260417 0.261719 0.263021 0.264323 0.265625 0.266927 0.268229 0.269531 0.270833 0.272135 0.273438 0.274740 0.276042 0.277344 0.278646 0.279948 0.281250 0.282552 0.283854 0.285156 0.286458 0.287760 0.289062 0.290365 0.291667 0.292969 0.294271 0.295573 0.296875 0.298177 0.299479 0.300781 0.302083 0.303385 0.304688 0.305990 0.307292 0.308594 0.309896 0.311198 0.312500 0.313802 0.315104 0.316406 0.317708 0.319010 0.320312 0.321615 0.322917 0.324219 0.325521 0.326823 0.328125 0.329427 0.330729 0.332031 0.333333 0.334635 0.335938 0.337240 0.338542 0.339844 0.341146 0.342448 0.343750 0.345052 0.346354 0.347656 0.348958 0.350260 0.351562 0.352865 0.354167 0.355469 0.356771 0.358073 0.359375 0.360677 0.361979 0.363281 0.364583 0.365885 0.367188 0.368490 0.369792 0.371094 0.372396 0.373698 0.375000 0.376302 0.377604 0.378906 0.380208 0.381510 0.382812 0.384115 0.385417 0.386719 0.388021 0.389323 0.390625 0.391927 0.393229 0.394531 0.395833 0.397135 0.398438 0.399740 0.401042 0.402344 0.403646 0.404948 0.406250 0.407552 0.408854 0.410156 0.411458 0.412760 0.414062 0.415365 0.416667 0.417969 0.419271 0.420573 0.421875 0.423177 0.424479 0.425781 0.427083 0.428385 0.429688 0.430990 0.432292 0.433594 0.434896 0.436198 0.437500 0.438802 0.440104 0.441406 0.442708 0.444010 0.445312 0.446615 0.447917 0.449219 0.450521 0.451823 0.453125 0.454427 0.455729 0.457031 0.458333 0.459635 0.460938 0.462240 0.463542 0.464844 0.466146 0.467448 0.468750 0.470052 0.471354
       0.73267        0.73505        0.73704        0.73775        0.73805        0.73831        0.73841        0.73852        0.73859        0.73864        0.73870        0.73872        0.73876        0.73879        0.73881        0.73883        0.73884        0.73886        0.73887        0.63526        0.53927        0.68683        0.72947        0.78819        0.95794        1.04950        0.91544        0.76226        0.76952        0.86660        0.80835        0.66207        0.60317        0.62457        0.63936        0.63716        0.63861        0.62371        0.55120        0.56288        0.68795        0.80339        0.79734        0.75211        0.75989        0.79871        0.78326        0.74824        0.72815        0.77406        0.84904        0.88306        0.84313        0.73846        0.70262        0.70317        0.69381        0.64314        0.64198        0.70436        0.73500        0.68332        0.63609        0.69498        0.82665        0.93327        0.93876        0.79412        0.62000        0.55053        0.59708        0.67771        0.69850        0.70004        0.73258        0.79272        0.80542        0.77964        0.73415        0.71474        0.71565        0.73629        0.73748        0.70038        0.66403        0.66827        0.74736        0.81463        0.82788        0.80463        0.80620        0.80805        0.71176        0.56288        0.52801        0.65144        0.77039        0.77056        0.72742        0.72735        0.73776        0.72925        0.72667        0.77499        0.82107        0.81078        0.75034        0.69467        0.71689        0.80109        0.87540        0.82457        0.70671        0.66020        0.74981        0.85142        0.84479        0.75587        0.63341        0.54834        0.56379        0.68704        0.78608        0.75158        0.64783        0.64226        0.73521        0.80460        0.82842        0.87265        0.88790        0.82541        0.70339        0.65824        0.66516        0.62213        0.54519        0.57496        0.71818        0.83126        0.80379        0.72678        0.72432        0.78165        0.82973        0.82519        0.79202        0.74460        0.71296        0.71933        0.75015        0.76373        0.73056        0.71901        0.73816        0.75175        0.71317        0.65595        0.66624        0.75468        0.85159        0.86112        0.77225        0.67491        0.65732        0.68665        0.72048        0.72264        0.72246        0.74126        0.75389        0.76867        0.76603        0.73258        0.69355        0.69405        0.75414        0.80285        0.76757        0.69752        0.70538        0.79379        0.83684        0.78823        0.71219        0.71054        0.78260        0.83174        0.81793        0.76461        0.71216        0.68054        0.67536        0.68188        0.66525        0.64486        0.67258        0.76227        0.82422        0.77624        0.67202        0.62624        0.68627        0.73997        0.73159        0.71478        0.74281        0.79372        0.81700        0.81302        0.79336        0.79187        0.81640        0.82283        0.78367        0.71262        0.69632        0.74620        0.77468        0.70725        0.59373        0.56383        0.64361        0.76434        0.82824        0.80642        0.75147        0.73551        0.74770        0.74929        0.69963        0.66915        0.69347        0.73748        0.75816        0.76774        0.79086        0.80998        0.80084        0.79634        0.78675        0.73957        0.68915        0.70226        0.74921        0.75688        0.72998        0.74157        0.78528        0.78593        0.72850        0.70096        0.72505        0.73272        0.71568        0.72973        0.78874        0.78908        0.71945        0.66593        0.68991        0.74181        0.74869        0.74654        0.74716        0.74107        0.72607        0.72001        0.72023        0.72957        0.75818        0.77703        0.79402        0.78301        0.72977        0.66795        0.67699        0.70795        0.72262        0.71544        0.69448        0.70039        0.70603        0.71536        0.73315        0.78000        0.82804        0.81661        0.72978        0.66867        0.67741        0.72694        0.73330        0.73979        0.80721        0.85849        0.78032        0.64133        0.58704        0.66109        0.73381        0.71289        0.62595        0.56748        0.63905        0.80728        0.93834        0.91584        0.75802        0.76189        0.82418        0.76979        0.66307        0.68257        0.83120        0.84325        0.73051        0.66463        0.74586        0.78452        0.77833        0.75523        0.79520        0.85804        0.81102        0.62237        0.48203        0.56823        0.75621        0.86719        0.74799        0.65185        0.72230        0.88694        0.89452        0.74006        0.55602        0.64551        0.79603        0.73576        0.59099        0.66986        0.80087        0.73292        0.54826        0.67172        0.81679        0.77095        0.65117        0.84710        1.01135        0.93363        0.55103        0.46050        0.70063        0.79571        0.57766        0.35413        0.31890        0.15486       -0.29652       -0.66564       -0.82668
3.702356 3.630700 3.524026 3.410107 3.302827 3.181690 3.069308 2.954177 2.842909 2.734523 2.624026 2.518703 2.413265 2.311687 2.210635 2.111354 2.015647 1.920630 1.827623 0.133561 -2.476088 1.448655 0.885220 1.996191 4.776188 6.632960 4.804182 1.070782 2.187484 2.326588 2.220743 -0.347625 -1.515309 -0.994144 -1.845562 -0.855262 -1.178346 -1.919333 -2.713918 -2.890451 -0.905887 0.101318 0.055819 0.059075 0.063364 0.092202 0.325448 -0.141857 -0.088716 0.104041 -1.090903 -1.378066 -0.472698 0.075860 0.164725 0.109316 0.050286 0.217582 0.164332 0.098795 0.008836 0.115073 0.335573 0.127841 -0.027931 -0.447195 -0.467083 -0.065094 0.105007 0.404217 0.279035 0.155778 0.110281 0.360823 0.222912 -0.029130 0.241008 0.236188 0.077539 0.150637 -0.015858 0.074015 0.064338 0.044991 -0.236979 -0.461927 0.130336 0.181988 -0.549199 -0.338969 -0.131435 -0.642145 -0.056882 -1.885084 -1.573761 -0.625101 0.117813 0.317889 0.107909 -0.254911 0.002563 0.079529 0.008399 0.025739 0.107079 2.125903 0.940090 0.500281 0.505516 1.578438 3.471833 3.339072 1.084808 -0.688222 0.978496 3.192393 3.040192 2.173542 -0.296471 -1.711677 -2.185423 -0.467523 2.857423 2.185406 0.134443 -0.856849 -0.014995 0.056103 0.268178 0.306428 3.754012 -2.319077 -0.411058 0.150714 0.142739 0.144331 0.204997 0.216768 0.094182 -0.030878 -0.026785 0.064573 0.064567 -0.019587 -0.142132 -0.202326 -0.122477 -0.125879 -0.301507 -0.369388 -0.118244 0.146242 -0.006924 -0.070761 -0.064847 0.279466 0.060016 0.533620 0.467966 0.059665 -0.188577 -0.599989 -0.246999 0.206486 0.263252 0.208465 0.107670 0.088834 0.117533 0.061935 0.021500 0.301915 0.191129 0.097002 -0.041056 -0.142022 -0.028753 0.143373 0.106561 0.015497 -1.249604 -0.669440 1.254596 0.858798 -0.558177 -1.482153 -1.014243 0.619356 0.615508 0.308139 -0.138112 -1.436006 -1.342895 -0.723686 -0.788885 -0.969240 -1.224345 0.200121 1.389507 1.683343 0.319840 -1.781952 -1.009273 -0.149296 -0.336691 -0.753853 -1.407217 -0.310559 0.659591 0.456154 0.171299 0.143402 -0.093751 0.811599 0.803773 0.723657 -0.691685 -0.429348 1.268437 0.702583 -0.280558 -2.251804 -1.952516 -0.200800 0.809462 1.976422 1.020180 0.465786 -0.253098 0.398707 -0.397433 -1.684044 -1.142674 0.084544 -0.005368 0.029667 -0.114093 0.000246 0.695961 0.240994 0.699679 0.392631 -1.202301 -1.434258 -0.632492 -0.027807 -0.186864 -0.394955 1.171368 1.295822 0.772904 -0.725483 -0.878400 0.181684 -0.356152 -0.367158 0.322935 1.353441 0.382353 -1.036955 -1.296102 -1.073386 0.382549 0.790343 0.252150 0.880395 0.205880 -0.477664 -0.160838 -0.492430 -0.062237 -0.136087 0.855583 1.032270 0.573782 -0.631972 -1.141347 -0.828864 0.401496 0.395304 0.131670 -0.024430 -1.208837 -0.480693 -0.694154 -0.496567 0.529545 1.656686 0.823465 -1.119268 -1.251035 -1.418003 -0.547854 -0.360213 0.617632 1.699831 2.246017 -0.482757 -2.158171 -1.422855 1.667096 2.350135 0.730278 -2.086964 -3.210768 -1.787938 0.200079 3.486336 1.593725 -0.514053 -0.849404 0.748264 -1.247337 -0.844246 0.177744 2.752129 1.135079 -0.158508 -1.269348 -0.859933 0.110397 0.102464 0.052890 0.995354 2.424978 0.751603 -3.253778 -3.928704 0.520753 1.334788 1.601579 -0.734097 -2.249770 -1.218313 2.873596 3.557027 -1.248752 -2.495974 -1.056794 0.092701 0.450561 -1.638644 -2.315618 2.583905 0.947739 -0.087874 -2.303673 -1.451773 -0.412033 -2.523207 0.306254 4.276070 1.160093 -3.460842 -2.685164 1.618421 2.010425 4.618511 -2.297809 5.665960 0.778215 -9.525577 -14.290032
0.072396 0.074816 0.082071 0.094154 0.111047 0.132718 0.159118 0.190171 0.225764 0.265739 0.309879 0.357895 0.409414 0.463963 0.520953 0.579669 0.639256 0.698708 0.756865 0.812406 0.863860 0.909613 0.947930 0.976987 0.994911 0.999839 0.989980 0.963701 0.919616 0.856690 0.774345 0.672581 0.552073 0.414283 0.261532 0.097058 0.074969 0.249479 0.420591 0.581770 0.726051 0.846338 0.935770 0.988143 0.998380 0.963009 0.880627 0.752310 0.581918 0.376261 0.145064 0.099290 0.342276 0.568000 0.760227 0.903601 0.985004 0.994930 0.928761 0.787786 0.579818 0.319263 0.026544 0.273193 0.552049 0.781946 0.937577 0.999471 0.956807 0.809584 0.569766 0.261086 0.082685 0.421010 0.711189 0.913852 0.998659 0.949425 0.767774 0.474564 0.108511 0.278153 0.626705 0.880833 0.996128 0.948612 0.740600 0.402508 0.010305 0.425685 0.766891 0.966979 0.982701 0.805017 0.463578 0.023503 0.425824 0.788337 0.982077 0.958723 0.717140 0.307013 0.179460 0.627064 0.924596 0.993254 0.809133 0.413161 0.095534 0.582772 0.914164 0.992951 0.790105 0.357060 0.184534 0.675149 0.963981 0.956493 0.647740 0.129273 0.435137 0.859797 0.998563 0.797296 0.317950 0.276857 0.776733 0.997720 0.851948 0.385909 0.230076 0.761327 0.997730 0.838911 0.340567 0.300380 0.820654 0.998539 0.750990 0.176612 0.478836 0.925007 0.956268 0.550148 0.113495 0.727637 0.998753 0.789443 0.192996 0.502358 0.949524 0.916657 0.411899 0.310207 0.872459 0.971559 0.545702 0.181125 0.811281 0.989563 0.607000 0.126150 0.789566 0.991848 0.604948 0.147927 0.814285 0.982271 0.539197 0.245561 0.877456 0.947004 0.400111 0.412642 0.954266 0.856114 0.175245 0.628983 0.999571 0.669845 0.136529 0.848299 0.948405 0.354756 0.503552 0.989087 0.730190 0.086216 0.839352 0.942781 0.306388 0.575265 0.999589 0.617415 0.270042 0.938123 0.828167 0.022390 0.805137 0.946607 0.271114 0.642920 0.994471 0.464471 0.483260 0.997251 0.603476 0.346753 0.978058 0.695417 0.244999 0.954771 0.748954 0.183546 0.939278 0.770926 0.164585 0.937655 0.764610 0.188616 0.950485 0.729032 0.254991 0.972895 0.659164 0.361231 0.994275 0.547057 0.501226 0.998021 0.384165 0.662465 0.961998 0.165352 0.823110 0.860836 0.105563 0.950019 0.671270 0.408952 0.999921 0.381355 0.703650 0.926286 0.002947 0.925893 0.693983 0.416010 0.998251 0.301144 0.786246 0.852855 0.197569 0.989250 0.468459 0.679673 0.914617 0.089887 0.973354 0.520889 0.652768 0.919333 0.102268 0.981112 0.467915 0.714882 0.870835 0.234003 0.999328 0.299970 0.843081 0.735298 0.471711 0.970707 0.001101 0.971341 0.456469 0.762773 0.800153 0.411198 0.978209 0.000631 0.978945 0.394604 0.824854 0.711210 0.559723 0.915763 0.235356 0.997782 0.099324 0.966200 0.405158 0.842603 0.655924 0.654521 0.838343 0.429923 0.950136 0.193449 0.997030 0.035639 0.989718 0.244069 0.941167 0.424187 0.864556 0.572998 0.771933 0.690981 0.673460 0.780910 0.577210 0.846826 0.489176 0.893223 0.413588 0.924420 0.353239 0.944198 0.309908 0.955514 0.284581 0.960340 0.277737 0.959620 0.289524 0.953205 0.319703 0.939868 0.367678 0.917379 0.432276 0.882539 0.511500 0.831397 0.602223 0.759529 0.699727 0.662501 0.797510 0.536519 0.886953 0.379311 0.957344 0.191203 0.996239 0.023684 0.990353 0.256277 0.927097 0.491717 0.796809 0.709199 0.595583 0.882932 0.328369 0.984621 0.011783 0.987713 0.324469 0.873300 0.638150
1.000000 1.000000 1.000000 1.000000 1.000000 1.000000 1.000000 1.000000 1.000000 1.000000 1.000000 1.000000 1.000000 1.000000 1.000000 1.000000 1.000000 1.000000 1.000000 1.000000 0.363452 0.363452 0.363452 0.363452 0.363452 0.376752 0.376752 0.376752 0.376752 0.376752 0.376752 0.376752 0.376752 0.376752 0.376752 0.376752 0.376752 0.376752 0.376752 0.376752 0.376752 0.376752 0.376752 0.376752 0.308225 0.300063 0.294417 0.290023 0.297443 0.319905 0.332455 0.286817 0.279357 0.234533 0.165363 0.130186 0.134223 0.113444 0.096402 0.096488 0.119000 0.160016 0.132929 0.105419 0.223390 0.193894 0.179128 0.200455 0.322797 0.271889 0.212723 0.215096 0.175423 0.127108 0.129791 0.114409 0.159167 0.059831 0.011801 -0.014744 0.020110 0.045770 -0.013786 -0.026475 0.053610 0.049507 0.057827 0.043060 -0.012985 -0.049008 -0.097754 -0.104895 -0.060506 -0.013196 0.078952 -0.003562 0.078110 0.114158 0.120995 0.242099 0.279070 0.300426 0.422658 0.471616 0.484620 0.519974 0.507736 0.466465 0.527267 0.527771 0.530255 0.572148 0.544744 0.445874 0.525442 0.503354 0.494233 0.534966 0.517298 0.517655 0.495301 0.498485 0.422740 0.340619 0.298479 0.210132 0.167855 0.138104 0.069480 0.064570 -0.009759 -0.046737 -0.028330 -0.186973 -0.104520 -0.140622 -0.111807 0.011393 0.002495 0.002960 0.031205 -0.025919 0.013794 0.005480 0.046327 -0.030336 -0.000841 -0.042144 0.001998 -0.058726 -0.099908 -0.014225 0.012044 0.008343 0.091301 0.001419 0.065084 0.080065 0.104526 0.087926 0.127023 0.105939 0.057227 0.105882 0.136837 0.091205 0.112964 0.120592 0.096226 0.035051 -0.008110 -0.051296 -0.042101 -0.088817 -0.076074 -0.164503 -0.150615 -0.149472 -0.161081 -0.076863 -0.173012 -0.171199 -0.094440 -0.098248 -0.152695 -0.155197 -0.086898 -0.128111 -0.137981 -0.122465 -0.098990 -0.081099 -0.104713 -0.084709 -0.027204 -0.105979 -0.120101 -0.236070 -0.175895 -0.214613 -0.128222 -0.169759 -0.111181 -0.094753 -0.148538 -0.098162 -0.053736 -0.076239 -0.099220 -0.045907 -0.038170 0.036766 0.051874 0.067581 0.046574 0.014257 0.064575 0.080419 0.005617 -0.022562 -0.041648 -0.006197 0.018356 0.034151 -0.053498 -0.012662 -0.021277 0.032250 0.011957 -0.013482 0.000065 -0.046907 0.021315 0.058060 0.063639 0.104280 0.024770 0.050770 0.052265 0.021021 -0.020170 -0.002114 0.018476 -0.001596 0.009335 0.018833 -0.041189 -0.064265 0.086688 0.111328 0.109627 0.168074 0.173641 0.156378 0.110649 0.185612 0.117765 0.179191 0.190905 0.244881 0.239501 0.163325 0.213850 0.204838 0.289515 0.249356 0.155395 0.119646 0.106582 0.173334 0.240099 0.200473 0.190986 0.164281 0.124038 0.131893 0.099496 0.077386 0.112220 0.175409 0.114016 0.087425 0.064262 0.137323 0.166030 0.139299 0.124995 0.108676 0.100220 0.092159 0.065042 0.047371 0.060294 0.017776 0.011544 0.025532 0.046641 -0.002100 -0.000229 -0.021435 0.011087 0.004791 -0.020405 -0.153552 -0.114770 -0.090927 -0.160128 -0.158442 -0.119981 -0.112550 -0.112981 -0.120556 -0.134629 -0.134570 -0.143454 -0.108753 -0.105021 -0.168975 -0.124770 -0.108115 -0.046328 -0.010976 0.013564 0.031976 0.010103 0.014563 0.038085 0.055161 0.047155 0.016233 0.095335 0.095216 0.089268 0.057989 0.077046 0.077046 0.077046 0.077046 0.077046 0.056007 0.056007 0.056007 0.056007 0.056007 0.056007 0.056007 0.056007 0.126089 0.083983 0.083983 0.083983 0.083983 0.056494 0.056494 0.056494 0.056494 0.056494 0.056494 0.113068 0.065560 0.065560 0.065560 0.065560
0.000000 0.000000 0.000000 0.000000 649476166217823616.000000 356318805809843840.000000 894166981307767552.000000 724816902000812928.000000 919128094635888512.000000 0.000000 0.000000 0.000000 0.000000 0.000000 0.000000 0.000000 0.000000 0.000000 0.000000 775034346674482176.000000 0.264906 0.264906 0.264906 0.264906 0.264906 0.285714 0.285714 0.285714 0.285714 0.285714 0.285714 0.285714 0.285714 0.285714 0.285714 0.285714 0.285714 0.285714 0.285714 0.285714 0.285714 0.285714 0.285714 0.285714 0.328798 0.328798 0.328798 0.328798 0.328798 0.328798 0.328798 0.328798 0.328798 0.328798 0.328798 0.328798 0.328798 0.348155 0.348155 0.348155 0.348155 0.348155 0.348155 0.348155 0.348155 0.348155 0.348155 0.348155 0.359211 0.359211 0.359211 0.359211 0.359211 0.359211 0.359211 0.359211 0.359211 0.371391 0.371391 0.371391 0.371391 0.371391 0.371391 0.371391 0.371391 0.384900 0.384900 0.384900 0.384900 0.384900 0.384900 0.384900 0.371391 0.371391 0.371391 0.371391 0.371391 0.371391 0.371391 0.384900 0.384900 0.384900 0.384900 0.384900 0.384900 0.371391 0.371391 0.371391 0.371391 0.371391 0.371391 0.371391 0.371391 0.371391 0.371391 0.371391 0.371391 0.384900 0.384900 0.384900 0.384900 0.384900 0.348155 0.348155 0.348155 0.348155 0.348155 0.348155 0.371391 0.371391 0.371391 0.371391 0.371391 0.400000 0.400000 0.400000 0.400000 0.359211 0.359211 0.359211 0.359211 0.359211 0.348155 0.348155 0.348155 0.348155 0.348155 0.371391 0.371391 0.371391 0.371391 0.371391 0.371391 0.371391 0.371391 0.359211 0.359211 0.359211 0.359211 0.359211 0.359211 0.359211 0.359211 0.348155 0.348155 0.348155 0.348155 0.348155 0.348155 0.348155 0.348155 0.338062 0.338062 0.338062 0.338062 0.338062 0.338062 0.338062 0.338062 0.371391 0.371391 0.371391 0.328798 0.328798 0.328798 0.328798 0.359211 0.359211 0.359211 0.320256 0.320256 0.320256 0.320256 0.348155 0.348155 0.348155 0.348155 0.348155 0.348155 0.348155 0.348155 0.348155 0.304997 0.304997 0.304997 0.304997 0.338062 0.338062 0.338062 0.328798 0.328798 0.328798 0.328798 0.328798 0.328798 0.328798 0.328798 0.328798 0.320256 0.320256 0.320256 0.320256 0.320256 0.320256 0.312348 0.312348 0.312348 0.359211 0.359211 0.312348 0.312348 0.312348 0.304997 0.304997 0.304997 0.304997 0.304997 0.304997 0.348155 0.348155 0.298142 0.298142 0.298142 0.298142 0.298142 0.298142 0.338062 0.338062 0.291730 0.291730 0.291730 0.285714 0.285714 0.285714 0.328798 0.328798 0.285714 0.285714 0.285714 0.328798 0.328798 0.280056 0.280056 0.280056 0.320256 0.320256 0.274721 0.274721 0.274721 0.312348 0.312348 0.312348 0.312348 0.269680 0.269680 0.269680 0.304997 0.304997 0.304997 0.304997 0.264906 0.264906 0.264906 0.304997 0.304997 0.298142 0.298142 0.298142 0.298142 0.256074 0.256074 0.256074 0.291730 0.291730 0.291730 0.291730 0.291730 0.291730 0.285714 0.285714 0.248069 0.248069 0.248069 0.285714 0.285714 0.285714 0.285714 0.280056 0.280056 0.280056 0.280056 0.280056 0.280056 0.274721 0.274721 0.274721 0.274721 0.274721 0.274721 0.269680 0.269680 0.269680 0.269680 0.269680 0.269680 0.269680 0.269680 0.264906 0.264906 0.264906 0.264906 0.264906 0.264906 0.260378 0.260378 0.260378 0.260378 0.260378 0.260378 0.256074 0.256074 0.256074 0.256074 0.256074 0.256074 0.256074 0.256074 0.312348 0.251976 0.251976 0.251976 0.251976 0.248069 0.248069 0.248069 0.248069 0.248069 0.248069 0.298142 0.244339 0.244339 0.244339 0.244339
