# Output from CTFFind version 4.1.9, run on 2019-11-24 12:06:05
# Input file: stack1_ubbm3d_averaged_1_2.0_0_0_half.mrc ; Number of micrographs: 1
# Pixel size: 1.500 Angstroms ; acceleration voltage: 300.0 keV ; spherical aberration: 0.00 mm ; amplitude contrast: 0.07
# Box size: 512 pixels ; min. res.: 40.0 Angstroms ; max. res.: 6.0 Angstroms ; min. def.: 5000.0 um; max. def. 50000.0 um; num. frames averaged: 1
# 6 lines per micrograph: #1 - spatial frequency (1/Angstroms); #2 - 1D rotational average of spectrum (assuming no astigmatism); #3 - 1D rotational average of spectrum; #4 - CTF fit; #5 - cross-correlation between spectrum and CTF fit; #6 - 2sigma of expected cross correlation of noise
0.000000 0.001302 0.002604 0.003906 0.005208 0.006510 0.007812 0.009115 0.010417 0.011719 0.013021 0.014323 0.015625 0.016927 0.018229 0.019531 0.020833 0.022135 0.023438 0.024740 0.026042 0.027344 0.028646 0.029948 0.031250 0.032552 0.033854 0.035156 0.036458 0.037760 0.039062 0.040365 0.041667 0.042969 0.044271 0.045573 0.046875 0.048177 0.049479 0.050781 0.052083 0.053385 0.054688 0.055990 0.057292 0.058594 0.059896 0.061198 0.062500 0.063802 0.065104 0.066406 0.067708 0.069010 0.070312 0.071615 0.072917 0.074219 0.075521 0.076823 0.078125 0.079427 0.080729 0.082031 0.083333 0.084635 0.085938 0.087240 0.088542 0.089844 0.091146 0.092448 0.093750 0.095052 0.096354 0.097656 0.098958 0.100260 0.101562 0.102865 0.104167 0.105469 0.106771 0.108073 0.109375 0.110677 0.111979 0.113281 0.114583 0.115885 0.117188 0.118490 0.119792 0.121094 0.122396 0.123698 0.125000 0.126302 0.127604 0.128906 0.130208 0.131510 0.132812 0.134115 0.135417 0.136719 0.138021 0.139323 0.140625 0.141927 0.143229 0.144531 0.145833 0.147135 0.148438 0.149740 0.151042 0.152344 0.153646 0.154948 0.156250 0.157552 0.158854 0.160156 0.161458 0.162760 0.164062 0.165365 0.166667 0.167969 0.169271 0.170573 0.171875 0.173177 0.174479 0.175781 0.177083 0.178385 0.179688 0.180990 0.182292 0.183594 0.184896 0.186198 0.187500 0.188802 0.190104 0.191406 0.192708 0.194010 0.195312 0.196615 0.197917 0.199219 0.200521 0.201823 0.203125 0.204427 0.205729 0.207031 0.208333 0.209635 0.210938 0.212240 0.213542 0.214844 0.216146 0.217448 0.218750 0.220052 0.221354 0.222656 0.223958 0.225260 0.226562 0.227865 0.229167 0.230469 0.231771 0.233073 0.234375 0.235677 0.236979 0.238281 0.239583 0.240885 0.242188 0.243490 0.244792 0.246094 0.247396 0.248698 0.250000 0.251302 0.252604 0.253906 0.255208 0.256510 0.257812 0.259115 0.260417 0.261719 0.263021 0.264323 0.265625 0.266927 0.268229 0.269531 0.270833 0.272135 0.273438 0.274740 0.276042 0.277344 0.278646 0.279948 0.281250 0.282552 0.283854 0.285156 0.286458 0.287760 0.289062 0.290365 0.291667 0.292969 0.294271 0.295573 0.296875 0.298177 0.299479 0.300781 0.302083 0.303385 0.304688 0.305990 0.307292 0.308594 0.309896 0.311198 0.312500 0.313802 0.315104 0.316406 0.317708 0.319010 0.320312 0.321615 0.322917 0.324219 0.325521 0.326823 0.328125 0.329427 0.330729 0.332031 0.333333 0.334635 0.335938 0.337240 0.338542 0.339844 0.341146 0.342448 0.343750 0.345052 0.346354 0.347656 0.348958 0.350260 0.351562 0.352865 0.354167 0.355469 0.356771 0.358073 0.359375 0.360677 0.361979 0.363281 0.364583 0.365885 0.367188 0.368490 0.369792 0.371094 0.372396 0.373698 0.375000 0.376302 0.377604 0.378906 0.380208 0.381510 0.382812 0.384115 0.385417 0.386719 0.388021 0.389323 0.390625 0.391927 0.393229 0.394531 0.395833 0.397135 0.398438 0.399740 0.401042 0.402344 0.403646 0.404948 0.406250 0.407552 0.408854 0.410156 0.411458 0.412760 0.414062 0.415365 0.416667 0.417969 0.419271 0.420573 0.421875 0.423177 0.424479 0.425781 0.427083 0.428385 0.429688 0.430990 0.432292 0.433594 0.434896 0.436198 0.437500 0.438802 0.440104 0.441406 0.442708 0.444010 0.445312 0.446615 0.447917 0.449219 0.450521 0.451823 0.453125 0.454427 0.455729 0.457031 0.458333 0.459635 0.460938 0.462240 0.463542 0.464844 0.466146 0.467448 0.468750 0.470052 0.471354
       0.48051        0.48051        0.48051        0.48051        0.48051        0.48051        0.48051        0.48051        0.48051        0.48051        0.48051        0.48051        0.48051        0.48051        0.48051        0.48051        0.48051        0.48051        0.48051        0.45670        0.23578        0.13079        0.29644        0.51857        0.68080        0.64816        0.61456        0.65309        0.61035        0.40841        0.23438        0.34680        0.54198        0.54416        0.39042        0.33732        0.40621        0.47736        0.50596        0.51234        0.48416        0.45479        0.45592        0.50290        0.47354        0.40949        0.42437        0.53901        0.65226        0.60932        0.47068        0.39746        0.40408        0.46213        0.48219        0.46669        0.43441        0.40677        0.38322        0.38554        0.41219        0.40689        0.37625        0.38801        0.49022        0.61045        0.66129        0.62557        0.56167        0.51615        0.49949        0.47744        0.45598        0.44979        0.47461        0.46450        0.41656        0.39373        0.43842        0.52285        0.58782        0.59590        0.53146        0.40386        0.33899        0.40834        0.53709        0.57640        0.51227        0.44326        0.42100        0.44726        0.46763        0.49018        0.48231        0.48925        0.56456        0.65428        0.62939        0.47187        0.37205        0.41203        0.46894        0.44469        0.39185        0.41182        0.46718        0.51681        0.56095        0.58499        0.53025        0.41727        0.34185        0.35454        0.40279        0.43901        0.46228        0.47573        0.46523        0.47579        0.55287        0.61133        0.57206        0.46735        0.39038        0.39356        0.43083        0.47491        0.53471        0.55980        0.54461        0.53306        0.56122        0.57819        0.50577        0.42061        0.42393        0.52966        0.59849        0.54237        0.38250        0.27863        0.29689        0.38966        0.44259        0.43611        0.43008        0.47394        0.52682        0.52742        0.50790        0.52997        0.58752        0.60289        0.53143        0.44451        0.42625        0.47583        0.49782        0.47860        0.47461        0.52613        0.59568        0.59655        0.50008        0.36703        0.31817        0.41390        0.54191        0.55202        0.44852        0.39164        0.43302        0.48979        0.45602        0.38488        0.36202        0.44341        0.56700        0.65356        0.65766        0.58673        0.50946        0.46717        0.44870        0.44913        0.48498        0.50207        0.45563        0.37555        0.35164        0.41039        0.46532        0.46236        0.44452        0.46446        0.50452        0.50416        0.48866        0.48668        0.50921        0.53274        0.54003        0.53350        0.50599        0.47254        0.44619        0.46147        0.49235        0.52948        0.55950        0.55997        0.51768        0.46030        0.43292        0.42756        0.41910        0.39667        0.41461        0.48236        0.52423        0.51603        0.46176        0.43009        0.44382        0.50689        0.57486        0.59367        0.55781        0.51153        0.48621        0.47348        0.47212        0.49208        0.49330        0.45415        0.42314        0.44289        0.46999        0.45803        0.43669        0.44325        0.46706        0.46151        0.46462        0.49753        0.53299        0.52952        0.50639        0.49293        0.49687        0.51889        0.53377        0.51733        0.45876        0.41199        0.43131        0.47472        0.47143        0.43568        0.42213        0.45540        0.47060        0.45305        0.47312        0.52765        0.56706        0.55683        0.49663        0.46549        0.46248        0.46175        0.45038        0.44425        0.40718        0.38701        0.41407        0.50552        0.52821        0.45902        0.40417        0.44942        0.55014        0.55591        0.49737        0.46340        0.51690        0.53341        0.46648        0.37528        0.39305        0.49791        0.58776        0.56863        0.44445        0.37301        0.38368        0.42868        0.42551        0.41750        0.45045        0.54109        0.59476        0.55448        0.50345        0.51468        0.48597        0.44967        0.43317        0.46968        0.52835        0.54196        0.51037        0.42786        0.39680        0.45845        0.54790        0.52930        0.42841        0.41264        0.50995        0.59782        0.54715        0.43094        0.40623        0.43730        0.44481        0.42474        0.41488        0.39226        0.37213        0.45735        0.53455        0.55136        0.50269        0.45527        0.38661        0.33437        0.37959        0.50535        0.54961        0.50186        0.44789        0.49017        0.45990        0.42390        0.39862        0.47090        0.55906        0.60577        0.59064        0.54809        0.51824        0.49968        0.43723        0.42024        0.51551        0.53178        0.31420       -0.01975       -0.24598       -0.29936       -0.30774
-0.463371 -0.473118 -0.483630 -0.494995 -0.507318 -0.520720 -0.535346 -0.551365 -0.568981 -0.588438 -0.610032 -0.634127 -0.661176 -0.691745 -0.726554 -0.766538 -0.812923 -0.867359 -0.932113 -1.118850 -0.105333 0.150001 -0.154801 -2.112979 -3.146314 -4.071300 -5.037667 -7.543703 -22.232059 11.676306 -1.213284 1.754316 3.665870 1.648748 1.033611 0.282661 0.444305 0.764141 1.055631 0.648577 0.528999 0.357403 0.425916 0.454405 0.454100 0.167340 0.116292 0.417095 0.652060 0.545304 0.257229 -0.036947 0.054291 0.202804 0.170661 0.189008 0.074909 0.050085 -0.024738 -0.003253 0.057379 0.037810 -0.048261 -0.021984 0.083547 0.217060 0.310692 0.269472 0.151862 0.114835 0.098139 0.069473 0.035462 0.004840 0.080085 0.040431 -0.006516 -0.045686 -0.006882 0.091843 1.414339 2.455026 1.076088 -0.275597 -1.471815 -0.427441 0.742515 1.684714 1.206027 0.224003 -0.158008 0.270636 -0.101649 0.438747 0.284576 0.458560 1.601875 2.693158 2.722090 0.629383 -0.459976 -0.394442 0.181384 0.208122 -0.540702 -0.573646 0.046834 1.024649 1.891305 2.113222 2.051359 0.803299 -0.648762 -0.792651 -0.650773 0.344112 0.820275 1.116503 1.009876 0.503660 1.569823 2.689273 2.882159 1.947892 0.216770 0.092578 0.358817 0.667026 2.018626 2.207430 2.132538 1.453003 1.978055 2.549375 1.739746 0.644832 0.083584 0.912997 1.936807 0.160691 0.073006 -0.397776 -0.490880 -0.438337 -0.194120 -0.319484 -0.707954 -6.114309 -0.214904 -0.493300 -0.063405 0.002892 -0.105394 -0.222422 -0.050855 0.047503 0.137839 0.049421 0.063703 0.051769 0.054770 0.041246 -0.028844 -0.050985 0.003498 0.086511 0.224416 0.211184 0.036607 -0.040505 0.073015 0.178064 0.193469 0.076944 0.110823 0.266687 0.633327 0.500687 0.728703 1.082543 1.320926 0.885212 0.191165 0.069722 -0.075034 -0.024128 -0.011283 0.022465 0.027138 -0.038683 -0.152186 -0.086271 -0.034011 0.007307 -0.074325 -0.043431 -0.092227 0.145638 -0.007973 -0.059767 0.024397 -0.127425 -0.055992 -0.046023 -0.061478 0.080488 0.054971 0.184419 0.130986 -0.507349 -1.003167 -2.176948 0.722574 0.124594 -0.320511 -0.187698 -0.211630 -0.128762 -0.334345 -0.165901 0.182321 0.419885 0.152284 -0.275143 -0.168628 -0.052455 0.210642 0.244579 0.286993 0.231375 0.090158 0.041527 -0.150478 -0.304675 0.050137 0.070307 0.420718 0.387707 0.129362 0.184053 0.273918 0.253150 0.194176 0.117337 2.960410 0.090818 0.225079 0.276144 0.162627 0.174597 0.078023 0.118244 0.240548 0.391039 -0.071193 -0.413357 -0.708656 -0.142464 0.000252 0.217772 -0.891787 -0.641747 0.275173 -0.290412 0.448412 0.019772 -0.761483 -1.346399 -4.058367 0.698674 0.000363 -0.063541 0.066178 -0.047662 -0.043679 -0.116796 -0.115228 -0.002736 0.100372 1.474715 0.226430 0.048451 0.767563 2.141160 1.903349 0.986423 0.847128 1.596060 1.458798 0.593721 -0.049995 -0.028006 0.162677 0.286771 0.203700 -0.019146 -0.191333 -0.031002 0.072590 -0.028924 -0.074256 0.009538 4.213194 -2.427425 -0.465617 -0.025572 -0.124562 0.056999 0.441289 0.399089 -0.613818 1.285646 0.167909 0.013541 -0.044188 -0.078677 0.026426 0.126118 0.101834 -0.011260 -0.027667 0.122852 0.192893 0.123472 -0.003797 -0.252358 0.125721 0.016914 -0.056435 -0.237578 -2.180347 0.226535 0.141584 -0.110131 -0.055772 0.031212 0.024192 0.101027 0.191271 0.100586 -0.021192 -0.182968 0.060385 0.066114 0.109909 -0.370194 0.144446 0.234185 -0.257811 1.105962 1.717980 1.796365 0.616561 1.866464 0.123183 0.614507 1.299604 5.882731 6.619343 2.780034 -1.457487 -3.736712 -3.919322
0.072396 0.073586 0.077154 0.083099 0.091417 0.102102 0.115145 0.130534 0.148251 0.168273 0.190568 0.215096 0.241804 0.270628 0.301486 0.334281 0.368895 0.405186 0.442990 0.482113 0.522333 0.563396 0.605012 0.646858 0.688573 0.729758 0.769975 0.808748 0.845566 0.879883 0.911119 0.938670 0.961909 0.980193 0.992875 0.999310 0.998870 0.990952 0.974998 0.950507 0.917055 0.874311 0.822055 0.760200 0.688810 0.608117 0.518538 0.420693 0.315412 0.203752 0.086990 0.033368 0.155599 0.277777 0.397793 0.513387 0.622184 0.721743 0.809612 0.883391 0.940804 0.979773 0.998501 0.995553 0.969935 0.921175 0.849391 0.755349 0.640506 0.507035 0.357828 0.196467 0.027178 0.145261 0.315629 0.478415 0.627987 0.758797 0.865601 0.943693 0.989139 0.999009 0.971586 0.906546 0.805091 0.670025 0.505768 0.318280 0.114918 0.095809 0.304553 0.501532 0.676981 0.821664 0.927392 0.987548 0.997561 0.955317 0.861457 0.719546 0.536073 0.320278 0.083784 0.159955 0.396368 0.610630 0.788606 0.917842 0.988511 0.994269 0.932929 0.806880 0.623220 0.393532 0.133305 0.139000 0.403183 0.638785 0.826707 0.950836 0.999556 0.966984 0.853812 0.667632 0.422679 0.138938 0.159326 0.445551 0.693227 0.878403 0.982127 0.992570 0.906580 0.730473 0.479893 0.178702 0.143094 0.452195 0.715436 0.903410 0.993918 0.974831 0.845976 0.619765 0.320355 0.018617 0.357628 0.655784 0.875805 0.988856 0.978606 0.843914 0.599692 0.275691 0.086776 0.439880 0.735517 0.931960 0.999989 0.927607 0.722524 0.411914 0.039265 0.341385 0.673134 0.904786 0.998983 0.938648 0.730529 0.405128 0.012753 0.383878 0.719533 0.937247 0.998333 0.889726 0.627288 0.254184 0.165676 0.558252 0.852370 0.992845 0.951322 0.732590 0.374962 0.055762 0.477953 0.809466 0.983800 0.963920 0.750804 0.384637 0.061994 0.497978 0.832099 0.992333 0.941924 0.688588 0.284399 0.184113 0.613987 0.908391 0.998784 0.861582 0.525161 0.064997 0.412506 0.794287 0.987553 0.942936 0.668023 0.227369 0.271724 0.704792 0.961239 0.973120 0.734080 0.302985 0.209489 0.668590 0.950845 0.977782 0.738734 0.295890 0.230704 0.694966 0.965233 0.962186 0.683237 0.205594 0.333893 0.777272 0.991793 0.910439 0.554115 0.027870 0.508928 0.890363 0.995591 0.788209 0.330218 0.234992 0.726584 0.984032 0.920297 0.552657 0.000121 0.554841 0.924079 0.979937 0.699668 0.176402 0.410182 0.854727 0.998261 0.786221 0.290875 0.311495 0.802259 0.999735 0.827571 0.346009 0.267238 0.781305 0.998968 0.833397 0.344626 0.280125 0.796858 0.999967 0.805219 0.286657 0.349429 0.845258 0.996067 0.736051 0.169167 0.470313 0.913439 0.970075 0.612137 0.010414 0.630317 0.976999 0.895416 0.417466 0.247834 0.803959 0.998800 0.740320 0.142418 0.522790 0.947564 0.931410 0.477747 0.203058 0.789157 0.998943 0.727792 0.102809 0.574104 0.970763 0.888443 0.363745 0.344543 0.881097 0.972237 0.567459 0.129798 0.761826 0.999433 0.714822 0.053226 0.638274 0.991478 0.814091 0.197198 0.528262 0.967206 0.876134 0.300835 0.443069 0.941145 0.911216 0.365785 0.389101 0.923145 0.927066 0.394215 0.369493 0.918604 0.927856 0.387367 0.385214 0.928758 0.913805 0.344937 0.435500 0.950779 0.881161 0.265196 0.517486 0.977569 0.822574 0.145927 0.625201 0.997468 0.727959 0.013654 0.748001 0.994170 0.586403 0.210368 0.868852 0.947521 0.389131 0.433520 0.963256 0.835949 0.134198 0.661649 0.999925 0.641267
1.000000 1.000000 1.000000 1.000000 1.000000 1.000000 1.000000 1.000000 1.000000 1.000000 1.000000 1.000000 1.000000 1.000000 1.000000 1.000000 1.000000 1.000000 1.000000 1.000000 -0.038618 -0.038618 -0.038618 -0.038618 -0.038618 -0.038618 -0.038618 -0.038618 -0.038618 -0.038618 -0.038618 -0.038618 -0.038618 -0.038618 -0.038618 -0.038618 -0.158120 -0.158120 -0.158120 -0.158120 -0.158120 -0.158120 -0.158120 -0.158120 -0.158120 -0.158120 -0.158120 -0.158120 -0.158120 -0.158120 -0.158120 -0.158120 -0.158120 -0.137334 -0.172754 -0.205069 -0.195257 -0.169732 -0.172112 -0.172740 -0.162035 -0.149761 -0.149954 -0.103884 -0.134788 -0.120003 -0.084944 -0.086167 -0.098947 -0.087912 -0.069565 -0.077076 -0.044443 0.000113 0.047886 0.073598 0.016671 0.022986 0.075750 0.064787 0.083387 0.099054 0.127278 0.115076 0.116922 0.201655 0.271354 0.316420 0.317721 0.306258 0.299699 0.319077 0.353070 0.384877 0.383027 0.355665 0.407796 0.426087 0.412483 0.416149 0.434914 0.429997 0.416148 0.410795 0.446592 0.498922 0.553145 0.573518 0.580052 0.680561 0.697172 0.665477 0.673920 0.668728 0.661084 0.670204 0.700934 0.695504 0.685471 0.686772 0.696593 0.702874 0.781914 0.691622 0.639748 0.635969 0.602376 0.529120 0.490618 0.472460 0.483606 0.481525 0.477525 0.461316 0.381976 0.311060 0.328510 0.306941 0.257298 0.214532 0.192051 0.156616 0.143959 0.087187 0.033793 -0.027896 -0.118301 -0.176226 -0.203741 -0.218603 -0.251090 -0.290494 -0.315427 -0.299149 -0.342646 -0.430010 -0.443416 -0.463420 -0.380288 -0.350516 -0.308719 -0.341496 -0.394009 -0.331232 -0.243966 -0.228640 -0.225943 -0.353159 -0.291216 -0.283544 -0.294402 -0.181536 -0.110593 -0.119373 -0.195427 -0.186291 -0.193958 -0.179000 -0.169270 -0.171980 -0.156790 -0.115214 -0.080713 -0.000543 0.020189 0.033731 0.099543 0.141593 0.109902 0.060176 0.090778 0.062989 0.033970 0.033668 0.073851 0.091372 0.075144 0.082058 0.086059 0.045308 0.057142 0.066840 0.177659 0.185159 0.190159 0.196552 0.190854 0.135197 0.105088 0.099880 0.108473 0.124267 0.128746 0.144643 0.137680 0.070559 0.136427 0.119599 0.148520 0.152044 0.207304 0.234704 0.202062 0.146943 0.121101 0.055167 0.058448 0.054572 0.085018 0.095503 0.150203 0.138057 0.156185 0.212499 0.202118 0.186189 0.174045 0.227396 0.234075 0.239589 0.250392 0.230119 0.189123 0.160032 0.126492 0.079113 0.050336 0.006282 -0.003975 0.022120 0.050176 0.071224 0.073933 0.108103 0.154177 0.171074 0.198330 0.213103 0.232660 0.248297 0.300625 0.299301 0.311243 0.306660 0.313995 0.322977 0.367087 0.404933 0.430997 0.489948 0.473305 0.501166 0.531606 0.525953 0.484081 0.475704 0.476230 0.456320 0.453786 0.429562 0.423234 0.407348 0.417923 0.420061 0.392586 0.405161 0.461079 0.508745 0.366012 0.335061 0.354952 0.365982 0.375556 0.429240 0.404507 0.385719 0.392982 0.405491 0.429792 0.407516 0.417772 0.421203 0.382438 0.357509 0.375155 0.353376 0.365651 0.311346 0.273894 0.270799 0.276740 0.268470 0.233333 0.206024 0.175191 0.134930 0.111777 0.090704 0.043656 0.070015 0.073835 0.037551 0.042687 -0.014491 -0.020062 0.018085 0.012400 0.063397 0.065325 0.071103 0.101454 0.131960 0.139829 0.148037 0.143985 0.096210 0.095297 0.095297 0.095297 0.095297 0.095297 0.095297 0.095297 0.124173 0.124173 0.124173 0.124173 0.142611 0.142611 0.142611 0.086711 0.086711 0.086711 0.086711 0.086711 0.086711 0.086711 0.086711 0.108691 0.108691 0.108691 0.108691 0.108691
0.000000 0.000000 0.000000 0.000000 546317713645199232.000000 533524895840610624.000000 920909852954626944.000000 626074160647593984.000000 889166402573988096.000000 493633514471608320.000000 458800436365201856.000000 770830363982402304.000000 473209261455446720.000000 949292096474583168.000000 312512613255362816.000000 716897119741539072.000000 505727042855453376.000000 610314860494243584.000000 719164312824007936.000000 1878089296207749632.000000 0.222222 0.222222 0.222222 0.222222 0.222222 0.222222 0.222222 0.222222 0.222222 0.222222 0.222222 0.222222 0.222222 0.222222 0.222222 0.222222 0.244339 0.244339 0.244339 0.244339 0.244339 0.244339 0.244339 0.244339 0.244339 0.244339 0.244339 0.244339 0.244339 0.244339 0.244339 0.244339 0.244339 0.244339 0.244339 0.244339 0.244339 0.244339 0.244339 0.244339 0.244339 0.244339 0.244339 0.285714 0.285714 0.285714 0.285714 0.285714 0.285714 0.285714 0.285714 0.285714 0.285714 0.285714 0.285714 0.285714 0.285714 0.285714 0.285714 0.285714 0.285714 0.298142 0.298142 0.298142 0.298142 0.298142 0.298142 0.298142 0.298142 0.298142 0.298142 0.298142 0.298142 0.298142 0.298142 0.298142 0.304997 0.304997 0.304997 0.304997 0.304997 0.304997 0.304997 0.304997 0.304997 0.304997 0.304997 0.304997 0.304997 0.312348 0.312348 0.312348 0.312348 0.312348 0.312348 0.312348 0.312348 0.312348 0.312348 0.312348 0.312348 0.328798 0.328798 0.328798 0.328798 0.328798 0.328798 0.328798 0.328798 0.328798 0.328798 0.320256 0.320256 0.320256 0.320256 0.320256 0.320256 0.320256 0.320256 0.320256 0.320256 0.320256 0.320256 0.320256 0.320256 0.320256 0.320256 0.320256 0.320256 0.320256 0.328798 0.328798 0.328798 0.328798 0.328798 0.328798 0.328798 0.328798 0.304997 0.304997 0.304997 0.304997 0.304997 0.304997 0.304997 0.304997 0.304997 0.338062 0.338062 0.338062 0.338062 0.338062 0.338062 0.338062 0.312348 0.312348 0.312348 0.312348 0.312348 0.312348 0.312348 0.312348 0.320256 0.320256 0.320256 0.320256 0.320256 0.320256 0.320256 0.312348 0.312348 0.312348 0.312348 0.312348 0.312348 0.312348 0.328798 0.328798 0.328798 0.328798 0.328798 0.328798 0.304997 0.304997 0.304997 0.304997 0.304997 0.304997 0.304997 0.320256 0.320256 0.320256 0.320256 0.320256 0.320256 0.312348 0.312348 0.312348 0.312348 0.312348 0.312348 0.304997 0.304997 0.304997 0.304997 0.304997 0.304997 0.304997 0.304997 0.304997 0.304997 0.304997 0.304997 0.320256 0.320256 0.320256 0.320256 0.320256 0.291730 0.291730 0.291730 0.291730 0.291730 0.291730 0.312348 0.312348 0.312348 0.312348 0.312348 0.304997 0.304997 0.304997 0.304997 0.304997 0.280056 0.280056 0.280056 0.280056 0.280056 0.280056 0.298142 0.298142 0.298142 0.298142 0.298142 0.298142 0.298142 0.298142 0.298142 0.298142 0.320256 0.320256 0.320256 0.320256 0.285714 0.285714 0.285714 0.285714 0.285714 0.285714 0.285714 0.285714 0.285714 0.285714 0.304997 0.304997 0.304997 0.304997 0.280056 0.280056 0.280056 0.280056 0.280056 0.298142 0.298142 0.298142 0.298142 0.269680 0.269680 0.269680 0.269680 0.269680 0.291730 0.291730 0.291730 0.291730 0.291730 0.291730 0.291730 0.291730 0.264906 0.264906 0.264906 0.264906 0.264906 0.285714 0.285714 0.285714 0.285714 0.280056 0.280056 0.280056 0.280056 0.280056 0.280056 0.280056 0.280056 0.274721 0.274721 0.274721 0.274721 0.274721 0.274721 0.274721 0.274721 0.269680 0.269680 0.269680 0.269680 0.269680 0.269680 0.269680 0.269680 0.264906 0.264906 0.264906 0.264906 0.298142 0.298142 0.298142 0.260378 0.260378 0.260378 0.260378 0.260378 0.260378 0.260378 0.260378 0.285714 0.285714 0.285714 0.285714 0.285714
