# Output from CTFFind version 4.1.9, run on 2019-11-24 11:56:23
# Input file: stack1_bm3d_averaged_1_4.0_0_500_half.mrc ; Number of micrographs: 1
# Pixel size: 1.500 Angstroms ; acceleration voltage: 300.0 keV ; spherical aberration: 0.00 mm ; amplitude contrast: 0.07
# Box size: 512 pixels ; min. res.: 40.0 Angstroms ; max. res.: 6.0 Angstroms ; min. def.: 5000.0 um; max. def. 50000.0 um; num. frames averaged: 1
# 6 lines per micrograph: #1 - spatial frequency (1/Angstroms); #2 - 1D rotational average of spectrum (assuming no astigmatism); #3 - 1D rotational average of spectrum; #4 - CTF fit; #5 - cross-correlation between spectrum and CTF fit; #6 - 2sigma of expected cross correlation of noise
0.000000 0.001302 0.002604 0.003906 0.005208 0.006510 0.007812 0.009115 0.010417 0.011719 0.013021 0.014323 0.015625 0.016927 0.018229 0.019531 0.020833 0.022135 0.023438 0.024740 0.026042 0.027344 0.028646 0.029948 0.031250 0.032552 0.033854 0.035156 0.036458 0.037760 0.039062 0.040365 0.041667 0.042969 0.044271 0.045573 0.046875 0.048177 0.049479 0.050781 0.052083 0.053385 0.054688 0.055990 0.057292 0.058594 0.059896 0.061198 0.062500 0.063802 0.065104 0.066406 0.067708 0.069010 0.070312 0.071615 0.072917 0.074219 0.075521 0.076823 0.078125 0.079427 0.080729 0.082031 0.083333 0.084635 0.085938 0.087240 0.088542 0.089844 0.091146 0.092448 0.093750 0.095052 0.096354 0.097656 0.098958 0.100260 0.101562 0.102865 0.104167 0.105469 0.106771 0.108073 0.109375 0.110677 0.111979 0.113281 0.114583 0.115885 0.117188 0.118490 0.119792 0.121094 0.122396 0.123698 0.125000 0.126302 0.127604 0.128906 0.130208 0.131510 0.132812 0.134115 0.135417 0.136719 0.138021 0.139323 0.140625 0.141927 0.143229 0.144531 0.145833 0.147135 0.148438 0.149740 0.151042 0.152344 0.153646 0.154948 0.156250 0.157552 0.158854 0.160156 0.161458 0.162760 0.164062 0.165365 0.166667 0.167969 0.169271 0.170573 0.171875 0.173177 0.174479 0.175781 0.177083 0.178385 0.179688 0.180990 0.182292 0.183594 0.184896 0.186198 0.187500 0.188802 0.190104 0.191406 0.192708 0.194010 0.195312 0.196615 0.197917 0.199219 0.200521 0.201823 0.203125 0.204427 0.205729 0.207031 0.208333 0.209635 0.210938 0.212240 0.213542 0.214844 0.216146 0.217448 0.218750 0.220052 0.221354 0.222656 0.223958 0.225260 0.226562 0.227865 0.229167 0.230469 0.231771 0.233073 0.234375 0.235677 0.236979 0.238281 0.239583 0.240885 0.242188 0.243490 0.244792 0.246094 0.247396 0.248698 0.250000 0.251302 0.252604 0.253906 0.255208 0.256510 0.257812 0.259115 0.260417 0.261719 0.263021 0.264323 0.265625 0.266927 0.268229 0.269531 0.270833 0.272135 0.273438 0.274740 0.276042 0.277344 0.278646 0.279948 0.281250 0.282552 0.283854 0.285156 0.286458 0.287760 0.289062 0.290365 0.291667 0.292969 0.294271 0.295573 0.296875 0.298177 0.299479 0.300781 0.302083 0.303385 0.304688 0.305990 0.307292 0.308594 0.309896 0.311198 0.312500 0.313802 0.315104 0.316406 0.317708 0.319010 0.320312 0.321615 0.322917 0.324219 0.325521 0.326823 0.328125 0.329427 0.330729 0.332031 0.333333 0.334635 0.335938 0.337240 0.338542 0.339844 0.341146 0.342448 0.343750 0.345052 0.346354 0.347656 0.348958 0.350260 0.351562 0.352865 0.354167 0.355469 0.356771 0.358073 0.359375 0.360677 0.361979 0.363281 0.364583 0.365885 0.367188 0.368490 0.369792 0.371094 0.372396 0.373698 0.375000 0.376302 0.377604 0.378906 0.380208 0.381510 0.382812 0.384115 0.385417 0.386719 0.388021 0.389323 0.390625 0.391927 0.393229 0.394531 0.395833 0.397135 0.398438 0.399740 0.401042 0.402344 0.403646 0.404948 0.406250 0.407552 0.408854 0.410156 0.411458 0.412760 0.414062 0.415365 0.416667 0.417969 0.419271 0.420573 0.421875 0.423177 0.424479 0.425781 0.427083 0.428385 0.429688 0.430990 0.432292 0.433594 0.434896 0.436198 0.437500 0.438802 0.440104 0.441406 0.442708 0.444010 0.445312 0.446615 0.447917 0.449219 0.450521 0.451823 0.453125 0.454427 0.455729 0.457031 0.458333 0.459635 0.460938 0.462240 0.463542 0.464844 0.466146 0.467448 0.468750 0.470052 0.471354
       0.71637        0.71803        0.71941        0.71991        0.72012        0.72030        0.72036        0.72044        0.72049        0.72053        0.72057        0.72058        0.72061        0.72063        0.72064        0.72066        0.72067        0.72068        0.72069        1.54778        2.28834        1.11585        0.26227        0.10655        0.72695        1.39270        1.28557        0.73543        0.39968        0.38856        0.44217        0.44408        0.46155        0.43946        0.33798        0.33980        0.35749        0.29322        0.18464        0.16367        0.21239        0.22386        0.29663        0.51172        0.78147        0.93730        0.94060        0.94773        1.09871        1.21314        1.09030        0.74748        0.49333        0.49297        0.60888        0.67087        0.64305        0.60238        0.54066        0.47417        0.51318        0.66317        0.88834        1.00766        0.95855        0.79760        0.67823        0.64499        0.61429        0.57681        0.60745        0.74759        0.88309        0.86370        0.79376        0.78053        0.76554        0.70502        0.62492        0.64891        0.78752        0.85474        0.80258        0.63570        0.50327        0.49719        0.60797        0.72020        0.77534        0.74238        0.72123        0.74118        0.73659        0.68122        0.62054        0.65735        0.76776        0.86892        0.87995        0.79982        0.73333        0.74427        0.81345        0.80466        0.69672        0.59970        0.60550        0.67624        0.68594        0.65017        0.64480        0.69388        0.69694        0.67864        0.70008        0.76142        0.78317        0.74697        0.72933        0.73251        0.74396        0.70539        0.70234        0.72459        0.70125        0.65133        0.65253        0.73627        0.80099        0.80115        0.76572        0.77013        0.74055        0.67301        0.63273        0.68035        0.75074        0.75308        0.70426        0.66462        0.66927        0.73326        0.77296        0.72762        0.64063        0.62850        0.70874        0.78584        0.80464        0.80426        0.83651        0.83125        0.76929        0.66435        0.61279        0.63710        0.68225        0.67928        0.61438        0.57542        0.62908        0.70371        0.72849        0.69980        0.70838        0.73017        0.74309        0.75601        0.76022        0.74501        0.71897        0.74108        0.79203        0.81354        0.78395        0.74875        0.73633        0.72600        0.72580        0.71183        0.70855        0.72216        0.74611        0.73705        0.69525        0.65565        0.65525        0.67165        0.68080        0.69769        0.71821        0.71440        0.67385        0.62550        0.63393        0.70277        0.78672        0.80787        0.75520        0.71589        0.73981        0.78763        0.78519        0.72493        0.67151        0.64397        0.67025        0.73595        0.80560        0.81270        0.75514        0.67211        0.63180        0.63937        0.70659        0.78206        0.80710        0.75924        0.69664        0.69912        0.75064        0.77921        0.75793        0.71223        0.68580        0.69938        0.72903        0.76150        0.74357        0.70030        0.68310        0.71454        0.74082        0.72153        0.67571        0.66872        0.71145        0.73777        0.72615        0.72078        0.74479        0.75788        0.71949        0.67162        0.68376        0.76274        0.81902        0.79189        0.71337        0.70571        0.74950        0.77309        0.74431        0.70848        0.67750        0.65250        0.64791        0.67404        0.70856        0.73546        0.76803        0.78780        0.76061        0.70622        0.67603        0.70295        0.67560        0.62068        0.60638        0.67397        0.70954        0.69702        0.67750        0.69132        0.69075        0.72283        0.80193        0.81911        0.77980        0.77489        0.83817        0.82578        0.71839        0.66473        0.69517        0.70937        0.66698        0.70033        0.78391        0.82886        0.79414        0.72214        0.63797        0.60169        0.61528        0.64829        0.66797        0.70193        0.75624        0.82427        0.78776        0.75483        0.71824        0.70791        0.72609        0.73559        0.70171        0.68534        0.76052        0.78430        0.64824        0.51507        0.59544        0.73893        0.76382        0.73834        0.75849        0.77658        0.73168        0.64298        0.64255        0.73372        0.73618        0.63566        0.57777        0.69370        0.85177        0.94943        0.87641        0.66276        0.63036        0.69421        0.60756        0.56897        0.75058        0.97455        0.95370        0.68456        0.46238        0.44296        0.61555        0.86159        0.97380        0.88760        0.81406        0.74598        0.70455        0.72082        0.68389        0.64689        0.59335        0.62854        0.58742        0.58527        0.73665        0.81011        0.61290        0.35870        0.31450        0.19143       -0.26563       -0.67922       -0.86579
0.716371 0.718609 0.719355 0.719728 0.720287 0.720207 0.720399 0.720399 0.720474 0.720583 0.720527 0.720598 0.720583 0.720643 0.720643 0.720633 0.720687 0.720687 0.720687 1.588041 2.359667 1.280041 0.222056 -0.004510 0.618398 1.529118 1.276027 0.711529 0.439830 0.422567 0.328800 0.459052 0.507453 0.451062 0.304410 0.384245 0.311510 0.313485 0.191058 0.173255 0.190856 0.256868 0.284570 0.448588 0.675953 0.968153 0.944425 0.910410 1.061441 1.243285 1.151594 0.752509 0.526862 0.455857 0.684789 0.616768 0.650689 0.525031 0.568924 0.552663 0.497489 0.632352 0.821014 1.038320 0.984315 0.764925 0.703808 0.659192 0.616848 0.586516 0.581235 0.753499 0.889360 0.829509 0.809980 0.793442 0.695226 0.766717 0.617326 0.647864 0.747876 0.836745 0.859649 0.639263 0.531300 0.464148 0.612002 0.679661 0.785504 0.761467 0.718982 0.739133 0.742941 0.697574 0.604159 0.617313 0.742156 0.860952 0.904214 0.811421 0.784941 0.738120 0.818129 0.779122 0.710821 0.614242 0.573711 0.680050 0.701435 0.666938 0.624380 0.677854 0.689678 0.671570 0.697894 0.749217 0.767644 0.763096 0.722126 0.710899 0.772657 0.677915 0.732746 0.739168 0.713291 0.668088 0.617614 0.703370 0.789533 0.833339 0.758274 0.767142 0.749032 0.726564 0.611050 0.666783 0.759398 0.749527 0.705637 0.674281 0.644939 0.730838 0.786515 0.752619 0.657224 0.617875 0.669605 0.756035 0.819283 0.796826 0.820887 0.820071 0.819035 0.705456 0.611802 0.630158 0.651688 0.704538 0.643086 0.596780 0.596409 0.681242 0.739213 0.692929 0.708207 0.722757 0.744103 0.729665 0.760866 0.756976 0.756332 0.753860 0.740043 0.815810 0.780597 0.766146 0.737897 0.730899 0.724986 0.718537 0.698544 0.731935 0.739889 0.743531 0.726646 0.659596 0.643730 0.652043 0.683673 0.695783 0.721517 0.710963 0.690450 0.652494 0.607359 0.673072 0.744273 0.809730 0.807694 0.717472 0.727796 0.762622 0.787198 0.757480 0.698194 0.641833 0.662303 0.692947 0.757584 0.818778 0.800326 0.703487 0.628922 0.642702 0.644882 0.742089 0.791670 0.807808 0.739768 0.682219 0.736981 0.776200 0.762456 0.741297 0.705878 0.671761 0.723618 0.725198 0.761262 0.737320 0.674303 0.700040 0.734017 0.732050 0.702620 0.658326 0.686407 0.719982 0.765520 0.715055 0.722665 0.756067 0.751357 0.699009 0.680214 0.683994 0.774683 0.811157 0.768335 0.689239 0.730650 0.773855 0.763606 0.723379 0.688888 0.661243 0.655083 0.650836 0.681152 0.709516 0.753208 0.757282 0.792560 0.744111 0.695423 0.666625 0.714631 0.664874 0.603621 0.644686 0.698958 0.696132 0.702139 0.684946 0.681707 0.689844 0.720162 0.801922 0.811580 0.782050 0.788440 0.821680 0.820088 0.750584 0.659253 0.708074 0.725682 0.651844 0.684543 0.829208 0.782053 0.793657 0.703992 0.611450 0.587753 0.631064 0.661584 0.654864 0.735451 0.768983 0.786575 0.822625 0.756542 0.698112 0.714240 0.758030 0.688061 0.704275 0.708657 0.761268 0.747530 0.626943 0.514810 0.604000 0.731915 0.756886 0.749948 0.757086 0.828426 0.681939 0.619440 0.672202 0.786477 0.694829 0.638856 0.605489 0.640857 0.890351 0.966163 0.866780 0.636237 0.659138 0.633786 0.603006 0.593627 0.847778 1.032047 0.913524 0.691465 0.409999 0.487329 0.662534 0.863090 0.936891 0.990837 0.818337 0.705143 0.688079 0.708585 0.795723 0.484192 0.610247 0.628302 0.591000 0.581969 0.749022 0.820821 0.564725 0.333339 0.332087 0.228428 -0.261345 -0.865790
0.072396 0.073197 0.075598 0.079599 0.085198 0.092393 0.101180 0.111554 0.123510 0.137038 0.152127 0.168763 0.186928 0.206601 0.227753 0.250354 0.274362 0.299732 0.326410 0.354332 0.383424 0.413603 0.444772 0.476823 0.509634 0.543068 0.576975 0.611186 0.645518 0.679770 0.713726 0.747149 0.779787 0.811372 0.841617 0.870220 0.896867 0.921228 0.942962 0.961722 0.977153 0.988896 0.996595 0.999897 0.998460 0.991954 0.980072 0.962530 0.939077 0.909501 0.873635 0.831366 0.782638 0.727464 0.665930 0.598203 0.524534 0.445267 0.360845 0.271806 0.178792 0.082550 0.016076 0.116139 0.216602 0.316340 0.414151 0.508770 0.598884 0.683148 0.760203 0.828707 0.887350 0.934888 0.970169 0.992162 0.999992 0.992962 0.970593 0.932645 0.879143 0.810404 0.727051 0.630027 0.520599 0.400362 0.271227 0.135400 0.004639 0.146174 0.286303 0.421988 0.550125 0.667611 0.771428 0.858724 0.926902 0.973707 0.997314 0.996407 0.970254 0.918771 0.842565 0.742968 0.622047 0.482591 0.328071 0.162581 0.009253 0.182392 0.351515 0.511187 0.656029 0.780916 0.881166 0.952736 0.992411 0.997970 0.968330 0.903659 0.805438 0.676491 0.520942 0.344134 0.152476 0.046758 0.245687 0.436125 0.609914 0.759290 0.877246 0.957894 0.996791 0.991228 0.940449 0.845792 0.710735 0.540836 0.343569 0.128041 0.095388 0.315577 0.521153 0.701104 0.845388 0.945538 0.995202 0.990607 0.930896 0.818323 0.658262 0.459049 0.231614 0.011059 0.254623 0.484212 0.685341 0.844851 0.951817 0.998361 0.980311 0.897644 0.754671 0.559934 0.325797 0.067745 0.196575 0.448540 0.669848 0.843884 0.957025 0.999789 0.967726 0.861973 0.689390 0.462255 0.197516 0.084396 0.361074 0.609913 0.809961 0.943760 0.998959 0.969571 0.856740 0.668921 0.421401 0.135203 0.164605 0.451048 0.697661 0.880975 0.982848 0.992381 0.907236 0.734177 0.488732 0.193974 0.121515 0.426347 0.689422 0.883149 0.986449 0.987189 0.883786 0.685749 0.413013 0.094146 0.236532 0.542560 0.789365 0.948247 0.999866 0.936781 0.764717 0.502326 0.179386 0.166387 0.493663 0.762414 0.938885 0.999997 0.936571 0.754935 0.476606 0.136001 0.223645 0.555639 0.815919 0.968989 0.992963 0.882941 0.652201 0.330916 0.037534 0.402240 0.711753 0.921382 0.999839 0.934157 0.732131 0.421768 0.047715 0.334929 0.668653 0.902212 0.998656 0.941469 0.737710 0.417577 0.030275 0.363319 0.700100 0.924930 0.999856 0.910832 0.670710 0.317821 0.089790 0.483684 0.796454 0.973385 0.982281 0.819707 0.512356 0.113107 0.307758 0.674748 0.920756 0.999543 0.894798 0.623933 0.235713 0.198148 0.595984 0.881542 0.998778 0.923227 0.667580 0.280104 0.164008 0.576971 0.875699 0.998728 0.919247 0.651442 0.248561 0.207187 0.621137 0.905814 0.999630 0.880673 0.572344 0.139379 0.325269 0.720157 0.957545 0.983209 0.789338 0.417399 0.050156 0.507728 0.850280 0.997641 0.913709 0.615906 0.172278 0.313480 0.725977 0.965580 0.972821 0.743778 0.332245 0.162222 0.617985 0.921146 0.994317 0.816939 0.431749 0.064784 0.546093 0.887623 0.999299 0.849840 0.476259 0.024492 0.520122 0.877726 0.999662 0.850787 0.469360 0.041939 0.543062 0.894722 0.997384 0.820053 0.410461 0.116926 0.612293 0.932876 0.984467 0.749782 0.295093 0.247626 0.718479 0.976724 0.943282 0.625815 0.118092 0.426888 0.842587 0.999981 0.848249 0.432114 0.120316 0.636271 0.952183 0.965935 0.670715 0.159024 0.405358 0.839327 0.999985
1.000000 1.000000 1.000000 1.000000 1.000000 1.000000 1.000000 1.000000 1.000000 1.000000 1.000000 1.000000 1.000000 1.000000 1.000000 1.000000 1.000000 1.000000 1.000000 1.000000 0.062745 0.062745 0.062745 0.062745 0.062745 0.062745 0.062745 0.062745 0.062745 0.062745 0.062745 0.062745 0.062745 0.062745 0.062745 0.062745 0.062745 0.062745 0.062745 0.062745 0.062745 0.062745 0.062745 0.062745 -0.058955 -0.058955 -0.058955 -0.058955 -0.058955 -0.058955 -0.058955 -0.058955 -0.058955 -0.058955 -0.058955 -0.058955 -0.058955 -0.058955 -0.058955 -0.058955 -0.061975 -0.001790 0.030351 0.019359 0.001687 0.014921 0.064875 0.096306 0.105921 0.116186 0.130507 0.129453 0.130021 0.130761 0.141553 0.160949 0.180418 0.239728 0.244195 0.238121 0.235880 0.240218 0.250883 0.274287 0.269274 0.281947 0.299634 0.311612 0.321082 0.308263 0.262255 0.272312 0.303046 0.347738 0.368298 0.380718 0.421661 0.435437 0.439907 0.443760 0.453246 0.450154 0.441877 0.440654 0.425566 0.454905 0.472295 0.472062 0.407201 0.391937 0.393175 0.382177 0.364353 0.347599 0.390261 0.441111 0.474183 0.482783 0.491338 0.485256 0.474811 0.458692 0.452285 0.450487 0.440567 0.422279 0.391448 0.350785 0.349399 0.370879 0.372422 0.357070 0.328768 0.302881 0.248277 0.173700 0.132155 0.129015 0.133434 0.121862 0.094597 0.045703 -0.006754 -0.018168 0.001688 0.003599 0.034387 0.051438 0.031613 -0.061607 -0.082285 -0.093079 -0.087029 -0.063713 -0.022582 -0.013114 -0.037621 -0.079047 -0.061851 -0.021592 0.000457 0.019142 0.024222 0.048428 0.056830 0.080357 0.092442 0.091654 0.099375 0.107890 0.104039 0.063850 0.024228 0.018181 0.031703 0.026668 -0.033275 -0.078579 -0.094327 -0.078492 -0.052131 -0.018233 0.012780 0.051508 0.075569 0.094402 0.083847 0.084489 0.126754 0.156456 0.123926 0.096470 0.069190 0.018333 -0.063517 -0.065953 -0.062068 -0.080804 -0.040682 -0.013955 -0.026116 -0.048797 -0.009342 0.004988 0.023200 -0.012454 -0.036173 -0.014260 -0.036323 -0.062623 -0.119222 -0.166529 -0.124217 -0.128294 -0.115876 -0.085672 -0.084631 -0.062858 -0.045956 -0.069239 -0.044019 -0.075886 -0.027655 0.046058 0.047513 0.071783 0.082146 0.054465 0.047519 0.069097 0.032263 0.034169 0.047717 0.047163 0.056369 0.079254 0.081564 0.115602 0.158968 0.208646 0.252012 0.318251 0.360809 0.372840 0.356699 0.291780 0.265060 0.228686 0.224544 0.243202 0.227183 0.147642 0.141640 0.140276 0.118849 0.079526 0.098397 0.117846 0.143232 0.139370 0.147237 0.108706 0.090275 0.081968 0.121811 0.136556 0.199147 0.198366 0.215268 0.196065 0.202201 0.189915 0.186220 0.177457 0.157295 0.138558 0.110591 0.111175 0.105439 0.089693 0.104299 0.105899 0.119079 0.114740 0.076614 0.063752 0.055134 0.078895 0.052242 0.039718 0.149811 0.147800 0.085540 0.099320 0.111513 0.133336 0.168190 0.173099 0.203995 0.210112 0.255179 0.304204 0.311958 0.311308 0.344532 0.372466 0.394940 0.408362 0.387188 0.385455 0.346667 0.316287 0.307890 0.283508 0.253275 0.211897 0.193084 0.153383 0.118510 0.098831 0.104121 0.116690 0.096749 0.107569 0.120559 0.098115 0.096642 0.144304 0.175524 0.210750 0.209968 0.230656 0.253652 0.270362 0.147482 0.144347 0.144347 0.144347 0.144347 0.144347 0.144347 0.144347 0.144347 0.144347 0.144347 0.144347 0.125551 0.125551 0.125551 0.125551 0.125551 0.125551 0.071409 0.071409 0.071409 0.071409 0.071409 0.118611 0.118611 0.118611 0.118611 0.118611 0.118611
0.000000 0.000000 0.000000 0.000000 509117112097039296.000000 546775110506319872.000000 334857713277163328.000000 557171542647404160.000000 987665601918180736.000000 294904209531472256.000000 480529534970907392.000000 560052812926363456.000000 1594759442737736192.000000 369363411730356672.000000 405866098343227712.000000 514558320275313344.000000 739352995455921408.000000 345520227225072832.000000 876752366587266816.000000 830175404825428736.000000 0.201008 0.201008 0.201008 0.201008 0.201008 0.201008 0.201008 0.201008 0.201008 0.201008 0.201008 0.201008 0.201008 0.201008 0.201008 0.201008 0.201008 0.201008 0.201008 0.201008 0.201008 0.201008 0.201008 0.201008 0.222222 0.222222 0.222222 0.222222 0.222222 0.222222 0.222222 0.222222 0.222222 0.222222 0.222222 0.222222 0.222222 0.222222 0.222222 0.222222 0.222222 0.222222 0.222222 0.222222 0.222222 0.222222 0.222222 0.222222 0.222222 0.222222 0.222222 0.222222 0.222222 0.222222 0.222222 0.222222 0.222222 0.260378 0.260378 0.260378 0.260378 0.260378 0.260378 0.260378 0.260378 0.260378 0.260378 0.260378 0.260378 0.260378 0.260378 0.260378 0.260378 0.260378 0.260378 0.260378 0.260378 0.260378 0.260378 0.274721 0.274721 0.274721 0.274721 0.274721 0.274721 0.274721 0.274721 0.274721 0.274721 0.274721 0.274721 0.274721 0.274721 0.274721 0.274721 0.274721 0.274721 0.280056 0.280056 0.280056 0.280056 0.280056 0.280056 0.280056 0.280056 0.280056 0.280056 0.280056 0.280056 0.280056 0.280056 0.280056 0.280056 0.285714 0.285714 0.285714 0.285714 0.285714 0.285714 0.285714 0.285714 0.285714 0.285714 0.285714 0.285714 0.285714 0.285714 0.291730 0.291730 0.291730 0.291730 0.291730 0.291730 0.291730 0.291730 0.291730 0.291730 0.291730 0.291730 0.291730 0.291730 0.291730 0.291730 0.291730 0.291730 0.291730 0.291730 0.291730 0.291730 0.291730 0.291730 0.291730 0.298142 0.298142 0.298142 0.298142 0.298142 0.298142 0.298142 0.298142 0.298142 0.298142 0.298142 0.298142 0.298142 0.298142 0.298142 0.298142 0.298142 0.298142 0.298142 0.298142 0.298142 0.291730 0.291730 0.291730 0.291730 0.291730 0.291730 0.291730 0.291730 0.291730 0.291730 0.298142 0.298142 0.298142 0.298142 0.298142 0.298142 0.298142 0.298142 0.298142 0.291730 0.291730 0.291730 0.291730 0.291730 0.291730 0.291730 0.291730 0.291730 0.285714 0.285714 0.285714 0.285714 0.285714 0.285714 0.285714 0.285714 0.285714 0.280056 0.280056 0.280056 0.280056 0.280056 0.280056 0.280056 0.280056 0.280056 0.291730 0.291730 0.291730 0.291730 0.291730 0.291730 0.291730 0.291730 0.304997 0.304997 0.304997 0.304997 0.304997 0.304997 0.304997 0.280056 0.280056 0.280056 0.280056 0.280056 0.280056 0.280056 0.280056 0.291730 0.291730 0.291730 0.291730 0.291730 0.291730 0.291730 0.269680 0.269680 0.269680 0.269680 0.269680 0.269680 0.269680 0.269680 0.285714 0.285714 0.285714 0.285714 0.285714 0.285714 0.285714 0.298142 0.298142 0.298142 0.298142 0.298142 0.298142 0.274721 0.274721 0.274721 0.274721 0.274721 0.274721 0.274721 0.269680 0.269680 0.269680 0.269680 0.269680 0.269680 0.269680 0.285714 0.285714 0.285714 0.285714 0.285714 0.285714 0.280056 0.280056 0.280056 0.280056 0.280056 0.280056 0.280056 0.280056 0.280056 0.280056 0.280056 0.280056 0.274721 0.274721 0.274721 0.274721 0.274721 0.274721 0.269680 0.269680 0.269680 0.269680 0.269680 0.269680 0.264906 0.264906 0.264906 0.264906 0.264906 0.264906 0.264906 0.264906 0.264906 0.264906 0.264906 0.264906 0.260378 0.260378 0.260378 0.260378 0.260378 0.260378 0.280056 0.280056 0.280056 0.280056 0.280056 0.274721 0.274721 0.274721 0.274721 0.274721 0.274721
