# Output from CTFFind version 4.1.9, run on 2019-11-24 12:06:10
# Input file: stack1_ubbm3d_averaged_1_4.0_0_1000_half.mrc ; Number of micrographs: 1
# Pixel size: 1.500 Angstroms ; acceleration voltage: 300.0 keV ; spherical aberration: 0.00 mm ; amplitude contrast: 0.07
# Box size: 512 pixels ; min. res.: 40.0 Angstroms ; max. res.: 6.0 Angstroms ; min. def.: 5000.0 um; max. def. 50000.0 um; num. frames averaged: 1
# 6 lines per micrograph: #1 - spatial frequency (1/Angstroms); #2 - 1D rotational average of spectrum (assuming no astigmatism); #3 - 1D rotational average of spectrum; #4 - CTF fit; #5 - cross-correlation between spectrum and CTF fit; #6 - 2sigma of expected cross correlation of noise
0.000000 0.001302 0.002604 0.003906 0.005208 0.006510 0.007812 0.009115 0.010417 0.011719 0.013021 0.014323 0.015625 0.016927 0.018229 0.019531 0.020833 0.022135 0.023438 0.024740 0.026042 0.027344 0.028646 0.029948 0.031250 0.032552 0.033854 0.035156 0.036458 0.037760 0.039062 0.040365 0.041667 0.042969 0.044271 0.045573 0.046875 0.048177 0.049479 0.050781 0.052083 0.053385 0.054688 0.055990 0.057292 0.058594 0.059896 0.061198 0.062500 0.063802 0.065104 0.066406 0.067708 0.069010 0.070312 0.071615 0.072917 0.074219 0.075521 0.076823 0.078125 0.079427 0.080729 0.082031 0.083333 0.084635 0.085938 0.087240 0.088542 0.089844 0.091146 0.092448 0.093750 0.095052 0.096354 0.097656 0.098958 0.100260 0.101562 0.102865 0.104167 0.105469 0.106771 0.108073 0.109375 0.110677 0.111979 0.113281 0.114583 0.115885 0.117188 0.118490 0.119792 0.121094 0.122396 0.123698 0.125000 0.126302 0.127604 0.128906 0.130208 0.131510 0.132812 0.134115 0.135417 0.136719 0.138021 0.139323 0.140625 0.141927 0.143229 0.144531 0.145833 0.147135 0.148438 0.149740 0.151042 0.152344 0.153646 0.154948 0.156250 0.157552 0.158854 0.160156 0.161458 0.162760 0.164062 0.165365 0.166667 0.167969 0.169271 0.170573 0.171875 0.173177 0.174479 0.175781 0.177083 0.178385 0.179688 0.180990 0.182292 0.183594 0.184896 0.186198 0.187500 0.188802 0.190104 0.191406 0.192708 0.194010 0.195312 0.196615 0.197917 0.199219 0.200521 0.201823 0.203125 0.204427 0.205729 0.207031 0.208333 0.209635 0.210938 0.212240 0.213542 0.214844 0.216146 0.217448 0.218750 0.220052 0.221354 0.222656 0.223958 0.225260 0.226562 0.227865 0.229167 0.230469 0.231771 0.233073 0.234375 0.235677 0.236979 0.238281 0.239583 0.240885 0.242188 0.243490 0.244792 0.246094 0.247396 0.248698 0.250000 0.251302 0.252604 0.253906 0.255208 0.256510 0.257812 0.259115 0.260417 0.261719 0.263021 0.264323 0.265625 0.266927 0.268229 0.269531 0.270833 0.272135 0.273438 0.274740 0.276042 0.277344 0.278646 0.279948 0.281250 0.282552 0.283854 0.285156 0.286458 0.287760 0.289062 0.290365 0.291667 0.292969 0.294271 0.295573 0.296875 0.298177 0.299479 0.300781 0.302083 0.303385 0.304688 0.305990 0.307292 0.308594 0.309896 0.311198 0.312500 0.313802 0.315104 0.316406 0.317708 0.319010 0.320312 0.321615 0.322917 0.324219 0.325521 0.326823 0.328125 0.329427 0.330729 0.332031 0.333333 0.334635 0.335938 0.337240 0.338542 0.339844 0.341146 0.342448 0.343750 0.345052 0.346354 0.347656 0.348958 0.350260 0.351562 0.352865 0.354167 0.355469 0.356771 0.358073 0.359375 0.360677 0.361979 0.363281 0.364583 0.365885 0.367188 0.368490 0.369792 0.371094 0.372396 0.373698 0.375000 0.376302 0.377604 0.378906 0.380208 0.381510 0.382812 0.384115 0.385417 0.386719 0.388021 0.389323 0.390625 0.391927 0.393229 0.394531 0.395833 0.397135 0.398438 0.399740 0.401042 0.402344 0.403646 0.404948 0.406250 0.407552 0.408854 0.410156 0.411458 0.412760 0.414062 0.415365 0.416667 0.417969 0.419271 0.420573 0.421875 0.423177 0.424479 0.425781 0.427083 0.428385 0.429688 0.430990 0.432292 0.433594 0.434896 0.436198 0.437500 0.438802 0.440104 0.441406 0.442708 0.444010 0.445312 0.446615 0.447917 0.449219 0.450521 0.451823 0.453125 0.454427 0.455729 0.457031 0.458333 0.459635 0.460938 0.462240 0.463542 0.464844 0.466146 0.467448 0.468750 0.470052 0.471354
       0.47276        0.47276        0.47276        0.47276        0.47276        0.47276        0.47276        0.47276        0.47276        0.47276        0.47276        0.47276        0.47276        0.47276        0.47276        0.47276        0.47276        0.47276        0.47276        1.32883        2.03525        0.84690        0.04648       -0.08640        0.50357        1.13816        1.06230        0.55369        0.21746        0.15666        0.15922        0.15195        0.19529        0.22913        0.15501        0.11014        0.03584       -0.08709       -0.17887       -0.14714       -0.06633        0.01955        0.20318        0.44301        0.60835        0.64808        0.65520        0.72295        0.84788        0.91002        0.77999        0.47477        0.24336        0.25672        0.41007        0.44112        0.31706        0.19126        0.20661        0.30904        0.44126        0.53497        0.63422        0.72309        0.74058        0.64570        0.48238        0.37457        0.29919        0.26784        0.32976        0.50794        0.67185        0.64609        0.52915        0.46164        0.45702        0.45889        0.44936        0.47918        0.54639        0.55166        0.49863        0.39099        0.33892        0.37399        0.45850        0.48129        0.43030        0.37365        0.37854        0.42370        0.44028        0.44331        0.42787        0.45987        0.51722        0.57231        0.56799        0.51173        0.47770        0.48432        0.53268        0.56229        0.56078        0.51541        0.41202        0.35248        0.36496        0.43359        0.46203        0.43755        0.39250        0.41009        0.50143        0.59051        0.59451        0.50383        0.41765        0.40085        0.44464        0.48455        0.51311        0.50032        0.44740        0.39911        0.40491        0.46457        0.54846        0.58838        0.55932        0.46906        0.39329        0.39723        0.45222        0.51013        0.52212        0.49038        0.43253        0.41444        0.45299        0.53303        0.55724        0.49517        0.44055        0.45081        0.52625        0.56711        0.56195        0.49971        0.44361        0.42179        0.42417        0.41140        0.37073        0.36508        0.39023        0.43817        0.47156        0.51565        0.53791        0.52045        0.45873        0.41982        0.44576        0.49965        0.51808        0.50299        0.47998        0.47102        0.45179        0.43872        0.45069        0.47735        0.49714        0.50242        0.50633        0.48265        0.42339        0.39530        0.46141        0.57661        0.64367        0.60574        0.51899        0.45734        0.44027        0.44243        0.43523        0.40098        0.39990        0.47725        0.54850        0.50423        0.38541        0.37224        0.48018        0.56143        0.53028        0.45420        0.41986        0.41646        0.43611        0.47687        0.51077        0.50131        0.48040        0.47631        0.48041        0.48512        0.49923        0.51429        0.50220        0.48226        0.50625        0.53634        0.52863        0.46508        0.40405        0.39687        0.44698        0.51833        0.53371        0.48047        0.41190        0.41060        0.45209        0.47128        0.43019        0.41494        0.43296        0.45890        0.46516        0.48426        0.52886        0.56247        0.54467        0.51352        0.49480        0.48761        0.46884        0.44876        0.46627        0.49683        0.48596        0.44496        0.43557        0.47596        0.51421        0.50546        0.47484        0.46129        0.46215        0.46748        0.45982        0.44628        0.43641        0.41580        0.39951        0.42936        0.48999        0.53346        0.52601        0.46286        0.41934        0.41200        0.44399        0.48017        0.50707        0.49770        0.46340        0.45455        0.48477        0.51510        0.50113        0.49580        0.51895        0.52738        0.48913        0.42085        0.39889        0.42243        0.42401        0.40031        0.40738        0.48582        0.58654        0.58936        0.46301        0.36575        0.41293        0.51957        0.54929        0.48663        0.46644        0.50289        0.48225        0.38267        0.33486        0.37963        0.45324        0.49604        0.48971        0.47960        0.48922        0.50963        0.52020        0.50657        0.48357        0.47253        0.43111        0.40737        0.41748        0.42682        0.46367        0.51452        0.50425        0.49850        0.52346        0.53479        0.45964        0.41955        0.49914        0.55957        0.49051        0.39498        0.40541        0.45482        0.44892        0.42320        0.45515        0.46052        0.40507        0.41951        0.47870        0.49540        0.42446        0.42986        0.50949        0.49163        0.36772        0.29912        0.46629        0.65900        0.67612        0.51823        0.42475        0.50364        0.44786        0.28312        0.23333        0.42757        0.51462        0.42866        0.41900        0.51986        0.52427        0.43850        0.41076        0.31394        0.00743       -0.26436       -0.38681
0.472758 0.472758 0.472758 0.472758 0.472758 0.472758 0.472758 0.472758 0.472758 0.472758 0.472758 0.472758 0.472758 0.472758 0.472758 0.472758 0.472758 0.472758 0.472758 1.356647 2.096388 1.030913 0.019614 -0.203310 0.406238 1.244068 1.072061 0.539194 0.254606 0.185715 0.059096 0.156841 0.242722 0.223316 0.134605 0.153619 -0.005113 -0.065190 -0.164442 -0.157117 -0.116436 0.040557 0.177269 0.378797 0.634065 0.690014 0.676971 0.693056 0.805991 0.933307 0.833704 0.469268 0.279599 0.237239 0.470850 0.399005 0.345927 0.119546 0.209864 0.341095 0.440957 0.522242 0.585424 0.722715 0.766103 0.609132 0.530408 0.389765 0.311109 0.268315 0.297208 0.488653 0.659215 0.658462 0.566948 0.469493 0.430470 0.455212 0.478295 0.471661 0.511183 0.559490 0.540531 0.380780 0.352654 0.310967 0.497326 0.482460 0.465878 0.363329 0.366915 0.413329 0.444219 0.453969 0.417953 0.434616 0.486064 0.578100 0.606959 0.525536 0.498757 0.494662 0.514232 0.505117 0.575819 0.539018 0.438898 0.368583 0.359510 0.422838 0.443847 0.460354 0.400613 0.376104 0.463004 0.556873 0.620584 0.546527 0.378716 0.378011 0.444226 0.440367 0.544818 0.504722 0.468835 0.402011 0.396467 0.445120 0.529480 0.590535 0.570410 0.520631 0.394488 0.383511 0.484310 0.486070 0.538416 0.499016 0.444055 0.428795 0.403323 0.511448 0.581856 0.538802 0.451506 0.424480 0.505977 0.522045 0.638293 0.517973 0.457958 0.422857 0.436233 0.420470 0.377605 0.350583 0.371821 0.419755 0.467228 0.499827 0.530444 0.519685 0.493877 0.407014 0.425616 0.492241 0.533923 0.512552 0.473821 0.476251 0.448896 0.436342 0.452857 0.466336 0.512641 0.503046 0.505392 0.504586 0.447211 0.375919 0.422281 0.524098 0.632231 0.645866 0.574191 0.489750 0.423800 0.452112 0.460170 0.418353 0.391412 0.412081 0.528123 0.549659 0.428319 0.367770 0.413793 0.525045 0.585526 0.482569 0.441525 0.431805 0.404656 0.436464 0.504285 0.507949 0.487366 0.493940 0.484608 0.468586 0.474314 0.501234 0.527012 0.493765 0.481076 0.516952 0.545341 0.511291 0.429837 0.397711 0.408724 0.458084 0.549684 0.526178 0.439435 0.399084 0.427535 0.450476 0.482941 0.406746 0.432091 0.438316 0.456903 0.466404 0.493758 0.550058 0.575154 0.517577 0.509117 0.506108 0.470515 0.465888 0.450417 0.485843 0.495514 0.469188 0.436775 0.451459 0.490986 0.515557 0.501711 0.456385 0.456664 0.471160 0.467500 0.446728 0.454456 0.411100 0.412239 0.394485 0.449596 0.507638 0.529356 0.535450 0.444663 0.419088 0.411733 0.461784 0.486302 0.503877 0.501472 0.454471 0.456008 0.502395 0.519654 0.501882 0.491081 0.540834 0.520910 0.480525 0.418664 0.387213 0.444883 0.420690 0.401615 0.402273 0.466955 0.604706 0.563017 0.433197 0.342927 0.429584 0.552117 0.552964 0.482070 0.482167 0.480851 0.487574 0.368334 0.341417 0.421780 0.478539 0.508885 0.462781 0.493722 0.463181 0.528379 0.521421 0.495825 0.506154 0.426860 0.453485 0.412929 0.418726 0.410644 0.493041 0.509465 0.521392 0.463521 0.534474 0.524880 0.455401 0.412439 0.523307 0.576134 0.474613 0.368757 0.436268 0.459466 0.466001 0.413600 0.453752 0.461643 0.396284 0.390467 0.527438 0.469045 0.427480 0.426913 0.508343 0.504894 0.354677 0.330725 0.394869 0.715768 0.663307 0.462069 0.451012 0.484107 0.513028 0.309110 0.294118 0.401032 0.544881 0.430150 0.404043 0.528396 0.520239 0.441120 0.413674 0.335976 0.010212 -0.386812
0.072396 0.073179 0.075528 0.079442 0.084920 0.091958 0.100555 0.110704 0.122401 0.135637 0.150402 0.166681 0.184459 0.203714 0.224421 0.246549 0.270062 0.294916 0.321059 0.348432 0.376966 0.406582 0.437190 0.468686 0.500958 0.533876 0.567297 0.601065 0.635006 0.668931 0.702634 0.735895 0.768473 0.800115 0.830548 0.859488 0.886632 0.911669 0.934273 0.954109 0.970837 0.984111 0.993584 0.998915 0.999764 0.995809 0.986739 0.972268 0.952137 0.926119 0.894030 0.855731 0.811136 0.760220 0.703023 0.639662 0.570330 0.495305 0.414955 0.329743 0.240226 0.147060 0.051000 0.047104 0.146308 0.245581 0.343812 0.439820 0.532366 0.620170 0.701923 0.776316 0.842052 0.897877 0.942602 0.975134 0.994502 0.999884 0.990642 0.966343 0.926791 0.872046 0.802449 0.718635 0.621549 0.512444 0.392886 0.264743 0.130166 0.008435 0.148427 0.286995 0.421203 0.548044 0.664516 0.767697 0.854819 0.923358 0.971110 0.996280 0.997554 0.974171 0.925984 0.853507 0.757942 0.641196 0.505870 0.355224 0.193125 0.023967 0.147438 0.315986 0.476425 0.623524 0.752250 0.857952 0.936545 0.984689 0.999957 0.980975 0.927539 0.840688 0.722741 0.577285 0.409101 0.224048 0.028890 0.168935 0.361579 0.541100 0.699786 0.830510 0.927069 0.984514 0.999442 0.970229 0.897204 0.782737 0.631229 0.449004 0.244102 0.025964 0.194973 0.407758 0.601466 0.765773 0.891535 0.971332 0.999965 0.974843 0.896256 0.767496 0.594807 0.387166 0.155877 0.085990 0.324305 0.544698 0.733428 0.878275 0.969383 0.999992 0.967018 0.871415 0.718286 0.516726 0.279369 0.021682 0.239006 0.484627 0.697643 0.862322 0.965963 0.999957 0.960593 0.849538 0.673935 0.446066 0.182607 0.096511 0.369554 0.614670 0.811653 0.943671 0.998795 0.971188 0.861835 0.678719 0.436395 0.154959 0.141508 0.426960 0.675644 0.864483 0.975277 0.996591 0.925063 0.766028 0.533308 0.248181 0.062432 0.368427 0.639410 0.847743 0.971451 0.996672 0.919378 0.746132 0.493750 0.187866 0.139530 0.453362 0.719202 0.907099 0.995084 0.971898 0.838632 0.608998 0.308157 0.029849 0.365840 0.659973 0.876529 0.988349 0.980430 0.852161 0.617848 0.305371 0.046897 0.394685 0.693338 0.903585 0.996864 0.959413 0.794539 0.522697 0.179234 0.190006 0.534666 0.806748 0.967390 0.992619 0.877198 0.635918 0.302039 0.077030 0.446291 0.751078 0.945244 0.998332 0.900642 0.665292 0.326835 0.063504 0.445397 0.758662 0.952842 0.995543 0.878155 0.617901 0.255708 0.149918 0.532133 0.826757 0.983174 0.973291 0.796957 0.482720 0.083608 0.331527 0.689730 0.926831 0.999142 0.891873 0.622549 0.238622 0.190499 0.585791 0.873143 0.997420 0.933392 0.691298 0.315748 0.122058 0.537561 0.849107 0.994154 0.942185 0.701592 0.318933 0.129635 0.553175 0.864377 0.997718 0.923645 0.655639 0.248382 0.212939 0.630149 0.912960 0.998751 0.866893 0.544243 0.100304 0.367308 0.754087 0.972092 0.970262 0.746933 0.351339 0.126666 0.576614 0.892893 0.999720 0.869832 0.532036 0.065526 0.418169 0.801616 0.990124 0.935526 0.649148 0.200249 0.300107 0.726215 0.969298 0.965694 0.714143 0.277443 0.232566 0.683192 0.955428 0.975708 0.736450 0.299444 0.219353 0.680168 0.956976 0.972380 0.719916 0.267273 0.261061 0.717618 0.973072 0.953304 0.661654 0.179510 0.355664 0.789075 0.993481 0.907049 0.552897 0.033867 0.496581 0.879473 0.998163 0.814538 0.382146 0.168454 0.668521 0.962681 0.957661 0.652669
1.000000 1.000000 1.000000 1.000000 1.000000 1.000000 1.000000 1.000000 1.000000 1.000000 1.000000 1.000000 1.000000 1.000000 1.000000 1.000000 1.000000 1.000000 1.000000 1.000000 0.034203 0.034203 0.034203 0.034203 0.034203 0.034203 0.034203 0.034203 0.034203 0.034203 0.034203 0.034203 0.034203 0.034203 0.034203 0.034203 0.034203 0.034203 0.034203 0.034203 0.034203 0.034203 0.034203 0.034203 -0.038285 -0.038285 -0.038285 -0.038285 -0.038285 -0.038285 -0.038285 -0.038285 -0.038285 -0.038285 -0.038285 -0.038285 -0.038285 -0.038285 -0.038285 -0.038285 -0.040223 0.011383 0.037763 0.028117 0.011782 0.005292 0.021565 0.046006 0.076268 0.089481 0.086771 0.081879 0.088812 0.094016 0.102008 0.118168 0.139703 0.329199 0.338033 0.324174 0.303018 0.290982 0.270571 0.274449 0.303127 0.337201 0.352371 0.314512 0.266434 0.268280 0.257365 0.248492 0.243510 0.247411 0.277222 0.340602 0.389676 0.403805 0.403155 0.399629 0.415159 0.416771 0.413638 0.422110 0.435194 0.426600 0.388375 0.313173 0.302487 0.303877 0.324428 0.337506 0.337019 0.361182 0.406815 0.360475 0.292528 0.243889 0.228049 0.232680 0.219252 0.218505 0.216660 0.223013 0.199278 0.165748 0.150484 0.155918 0.157178 0.187863 0.225952 0.244938 0.244589 0.226766 0.188116 0.187662 0.208307 0.224093 0.188040 0.180025 0.173450 0.125404 0.069329 0.043861 0.074165 0.115475 0.085186 0.060762 0.035021 0.067037 0.036934 0.037846 0.050383 0.046772 0.042576 0.062665 0.133385 0.173907 0.165815 0.136104 0.139976 0.209711 0.209875 0.186881 0.163625 0.252632 0.349582 0.420353 0.429209 0.436599 0.441501 0.407165 0.330511 0.316582 0.284740 0.278195 0.288223 0.293442 0.282924 0.249991 0.216787 0.206904 0.191687 0.192048 0.196540 0.112743 0.149665 0.200535 0.239150 0.295599 0.379078 0.394582 0.406396 0.424404 0.445467 0.447780 0.499849 0.527567 0.529095 0.541424 0.559442 0.542889 0.505337 0.478076 0.465591 0.431046 0.428064 0.410874 0.347182 0.289116 0.279160 0.278890 0.210545 0.197554 0.176063 0.124850 0.122372 0.112511 0.129184 0.157362 0.172623 0.118702 0.117972 0.140407 0.146250 0.173935 0.180472 0.178485 0.203573 0.200882 0.192183 0.184971 0.182185 0.113955 0.114844 0.081410 0.065432 0.058839 0.033992 -0.034849 -0.043524 -0.020735 -0.058902 -0.130855 -0.160072 -0.196064 -0.258266 -0.298078 -0.312694 -0.324250 -0.310499 -0.315083 -0.312899 -0.297821 -0.305569 -0.258165 -0.257400 -0.261201 -0.217195 -0.188812 -0.195504 -0.189146 -0.115202 -0.110301 -0.100947 -0.118834 -0.097341 -0.048850 -0.014502 0.011741 0.029699 0.041100 -0.001669 0.007441 0.003176 -0.002762 -0.031443 -0.082572 -0.092674 -0.059034 -0.137992 -0.128292 -0.068491 -0.023745 -0.024102 -0.050252 0.030061 0.007339 -0.014144 -0.049926 -0.045471 -0.054924 -0.054959 -0.057700 -0.009413 0.020120 0.075633 0.083508 0.082999 0.128736 0.108275 0.088037 0.062064 0.060710 0.045090 0.048169 0.031603 0.036394 0.014330 -0.003372 0.049310 0.018805 -0.007558 0.002226 0.008826 -0.016793 -0.015968 -0.017882 -0.003136 -0.031797 -0.129385 -0.098385 -0.075838 -0.075256 -0.056173 -0.053116 -0.029758 -0.036421 -0.061444 -0.085258 -0.053850 -0.053978 -0.036875 -0.049131 -0.099922 -0.122772 -0.095479 -0.095479 -0.063526 -0.063526 -0.063526 -0.063526 -0.063526 -0.063526 -0.063526 -0.063526 -0.063526 -0.063526 -0.063526 -0.063526 -0.156892 -0.156892 -0.156892 -0.156892 -0.156892 -0.089755 -0.089755 -0.089755 -0.089755 -0.089755 -0.089755 -0.089755 -0.089755
0.000000 0.000000 0.000000 0.000000 0.000000 0.000000 0.000000 0.000000 0.000000 0.000000 0.000000 0.000000 0.000000 0.000000 0.000000 0.000000 0.000000 0.000000 0.000000 0.000000 0.201008 0.201008 0.201008 0.201008 0.201008 0.201008 0.201008 0.201008 0.201008 0.201008 0.201008 0.201008 0.201008 0.201008 0.201008 0.201008 0.201008 0.201008 0.201008 0.201008 0.201008 0.201008 0.201008 0.201008 0.222222 0.222222 0.222222 0.222222 0.222222 0.222222 0.222222 0.222222 0.222222 0.222222 0.222222 0.222222 0.222222 0.222222 0.222222 0.222222 0.222222 0.222222 0.222222 0.222222 0.222222 0.222222 0.222222 0.222222 0.222222 0.222222 0.222222 0.222222 0.222222 0.222222 0.222222 0.222222 0.222222 0.251976 0.251976 0.251976 0.251976 0.251976 0.251976 0.251976 0.251976 0.251976 0.251976 0.251976 0.251976 0.251976 0.251976 0.251976 0.251976 0.251976 0.251976 0.251976 0.251976 0.251976 0.251976 0.251976 0.274721 0.274721 0.274721 0.274721 0.274721 0.274721 0.274721 0.274721 0.274721 0.274721 0.274721 0.274721 0.274721 0.274721 0.274721 0.274721 0.274721 0.274721 0.280056 0.280056 0.280056 0.280056 0.280056 0.280056 0.280056 0.280056 0.280056 0.280056 0.280056 0.280056 0.280056 0.280056 0.280056 0.280056 0.280056 0.280056 0.280056 0.280056 0.280056 0.280056 0.280056 0.280056 0.280056 0.280056 0.280056 0.280056 0.280056 0.280056 0.280056 0.298142 0.298142 0.298142 0.298142 0.298142 0.298142 0.298142 0.298142 0.298142 0.298142 0.298142 0.298142 0.291730 0.291730 0.291730 0.291730 0.291730 0.291730 0.291730 0.291730 0.291730 0.291730 0.291730 0.291730 0.285714 0.285714 0.285714 0.285714 0.285714 0.285714 0.285714 0.285714 0.285714 0.285714 0.285714 0.285714 0.298142 0.298142 0.298142 0.298142 0.298142 0.298142 0.298142 0.298142 0.298142 0.298142 0.291730 0.291730 0.291730 0.291730 0.291730 0.291730 0.291730 0.291730 0.291730 0.291730 0.285714 0.285714 0.285714 0.285714 0.285714 0.285714 0.285714 0.285714 0.285714 0.285714 0.291730 0.291730 0.291730 0.291730 0.291730 0.291730 0.291730 0.291730 0.291730 0.285714 0.285714 0.285714 0.285714 0.285714 0.285714 0.285714 0.285714 0.285714 0.298142 0.298142 0.298142 0.298142 0.298142 0.298142 0.298142 0.298142 0.291730 0.291730 0.291730 0.291730 0.291730 0.291730 0.291730 0.291730 0.285714 0.285714 0.285714 0.285714 0.285714 0.285714 0.285714 0.285714 0.280056 0.280056 0.280056 0.280056 0.280056 0.280056 0.280056 0.280056 0.291730 0.291730 0.291730 0.291730 0.291730 0.291730 0.291730 0.269680 0.269680 0.269680 0.269680 0.269680 0.269680 0.269680 0.269680 0.285714 0.285714 0.285714 0.285714 0.285714 0.285714 0.285714 0.280056 0.280056 0.280056 0.280056 0.280056 0.280056 0.280056 0.291730 0.291730 0.291730 0.291730 0.291730 0.291730 0.269680 0.269680 0.269680 0.269680 0.269680 0.269680 0.269680 0.285714 0.285714 0.285714 0.285714 0.285714 0.285714 0.264906 0.264906 0.264906 0.264906 0.264906 0.264906 0.264906 0.280056 0.280056 0.280056 0.280056 0.280056 0.280056 0.274721 0.274721 0.274721 0.274721 0.274721 0.274721 0.269680 0.269680 0.269680 0.269680 0.269680 0.269680 0.264906 0.264906 0.264906 0.264906 0.264906 0.264906 0.264906 0.264906 0.264906 0.264906 0.264906 0.264906 0.280056 0.280056 0.280056 0.280056 0.280056 0.256074 0.256074 0.256074 0.256074 0.256074 0.256074 0.256074 0.256074
