# Output from CTFFind version 4.1.9, run on 2019-11-24 11:56:22
# Input file: stack1_bm3d_averaged_1_4.0_0_0_half.mrc ; Number of micrographs: 1
# Pixel size: 1.500 Angstroms ; acceleration voltage: 300.0 keV ; spherical aberration: 0.00 mm ; amplitude contrast: 0.07
# Box size: 512 pixels ; min. res.: 40.0 Angstroms ; max. res.: 6.0 Angstroms ; min. def.: 5000.0 um; max. def. 50000.0 um; num. frames averaged: 1
# 6 lines per micrograph: #1 - spatial frequency (1/Angstroms); #2 - 1D rotational average of spectrum (assuming no astigmatism); #3 - 1D rotational average of spectrum; #4 - CTF fit; #5 - cross-correlation between spectrum and CTF fit; #6 - 2sigma of expected cross correlation of noise
0.000000 0.001302 0.002604 0.003906 0.005208 0.006510 0.007812 0.009115 0.010417 0.011719 0.013021 0.014323 0.015625 0.016927 0.018229 0.019531 0.020833 0.022135 0.023438 0.024740 0.026042 0.027344 0.028646 0.029948 0.031250 0.032552 0.033854 0.035156 0.036458 0.037760 0.039062 0.040365 0.041667 0.042969 0.044271 0.045573 0.046875 0.048177 0.049479 0.050781 0.052083 0.053385 0.054688 0.055990 0.057292 0.058594 0.059896 0.061198 0.062500 0.063802 0.065104 0.066406 0.067708 0.069010 0.070312 0.071615 0.072917 0.074219 0.075521 0.076823 0.078125 0.079427 0.080729 0.082031 0.083333 0.084635 0.085938 0.087240 0.088542 0.089844 0.091146 0.092448 0.093750 0.095052 0.096354 0.097656 0.098958 0.100260 0.101562 0.102865 0.104167 0.105469 0.106771 0.108073 0.109375 0.110677 0.111979 0.113281 0.114583 0.115885 0.117188 0.118490 0.119792 0.121094 0.122396 0.123698 0.125000 0.126302 0.127604 0.128906 0.130208 0.131510 0.132812 0.134115 0.135417 0.136719 0.138021 0.139323 0.140625 0.141927 0.143229 0.144531 0.145833 0.147135 0.148438 0.149740 0.151042 0.152344 0.153646 0.154948 0.156250 0.157552 0.158854 0.160156 0.161458 0.162760 0.164062 0.165365 0.166667 0.167969 0.169271 0.170573 0.171875 0.173177 0.174479 0.175781 0.177083 0.178385 0.179688 0.180990 0.182292 0.183594 0.184896 0.186198 0.187500 0.188802 0.190104 0.191406 0.192708 0.194010 0.195312 0.196615 0.197917 0.199219 0.200521 0.201823 0.203125 0.204427 0.205729 0.207031 0.208333 0.209635 0.210938 0.212240 0.213542 0.214844 0.216146 0.217448 0.218750 0.220052 0.221354 0.222656 0.223958 0.225260 0.226562 0.227865 0.229167 0.230469 0.231771 0.233073 0.234375 0.235677 0.236979 0.238281 0.239583 0.240885 0.242188 0.243490 0.244792 0.246094 0.247396 0.248698 0.250000 0.251302 0.252604 0.253906 0.255208 0.256510 0.257812 0.259115 0.260417 0.261719 0.263021 0.264323 0.265625 0.266927 0.268229 0.269531 0.270833 0.272135 0.273438 0.274740 0.276042 0.277344 0.278646 0.279948 0.281250 0.282552 0.283854 0.285156 0.286458 0.287760 0.289062 0.290365 0.291667 0.292969 0.294271 0.295573 0.296875 0.298177 0.299479 0.300781 0.302083 0.303385 0.304688 0.305990 0.307292 0.308594 0.309896 0.311198 0.312500 0.313802 0.315104 0.316406 0.317708 0.319010 0.320312 0.321615 0.322917 0.324219 0.325521 0.326823 0.328125 0.329427 0.330729 0.332031 0.333333 0.334635 0.335938 0.337240 0.338542 0.339844 0.341146 0.342448 0.343750 0.345052 0.346354 0.347656 0.348958 0.350260 0.351562 0.352865 0.354167 0.355469 0.356771 0.358073 0.359375 0.360677 0.361979 0.363281 0.364583 0.365885 0.367188 0.368490 0.369792 0.371094 0.372396 0.373698 0.375000 0.376302 0.377604 0.378906 0.380208 0.381510 0.382812 0.384115 0.385417 0.386719 0.388021 0.389323 0.390625 0.391927 0.393229 0.394531 0.395833 0.397135 0.398438 0.399740 0.401042 0.402344 0.403646 0.404948 0.406250 0.407552 0.408854 0.410156 0.411458 0.412760 0.414062 0.415365 0.416667 0.417969 0.419271 0.420573 0.421875 0.423177 0.424479 0.425781 0.427083 0.428385 0.429688 0.430990 0.432292 0.433594 0.434896 0.436198 0.437500 0.438802 0.440104 0.441406 0.442708 0.444010 0.445312 0.446615 0.447917 0.449219 0.450521 0.451823 0.453125 0.454427 0.455729 0.457031 0.458333 0.459635 0.460938 0.462240 0.463542 0.464844 0.466146 0.467448 0.468750 0.470052 0.471354
       0.70253        0.70253        0.70253        0.70253        0.70253        0.70253        0.70253        0.70253        0.70253        0.70253        0.70253        0.70253        0.70253        0.70253        0.70253        0.70253        0.70253        0.70253        0.70253        1.59394        2.03282        0.86234        0.11240        0.06069        0.64052        1.07423        0.98676        0.67305        0.54180        0.42841        0.26665        0.15642        0.28024        0.38689        0.40893        0.48819        0.50483        0.36345        0.22508        0.28077        0.48799        0.54229        0.47561        0.48866        0.62459        0.80835        0.94807        1.05009        1.08204        0.95514        0.70097        0.48337        0.48415        0.68597        0.83748        0.79419        0.68435        0.67041        0.70095        0.65160        0.56350        0.58267        0.71759        0.83853        0.84984        0.76321        0.66836        0.58859        0.56464        0.59360        0.62945        0.63325        0.66884        0.78700        0.89940        0.89670        0.74780        0.61961        0.57298        0.60877        0.65781        0.71891        0.80845        0.85346        0.78403        0.63968        0.53290        0.53400        0.60453        0.63305        0.65212        0.71877        0.78544        0.78240        0.71477        0.69903        0.77704        0.85775        0.84926        0.76602        0.70279        0.68890        0.73012        0.73711        0.67864        0.59945        0.56143        0.57255        0.59597        0.63137        0.67846        0.71368        0.69972        0.71093        0.80346        0.88675        0.84443        0.70136        0.60563        0.61114        0.66773        0.67689        0.68772        0.72319        0.76842        0.75020        0.68621        0.62807        0.62189        0.66112        0.71522        0.73965        0.71555        0.64857        0.60485        0.64828        0.71459        0.74271        0.70833        0.69924        0.73773        0.77783        0.78565        0.76041        0.72870        0.71125        0.70216        0.71328        0.70236        0.69529        0.74859        0.82030        0.79260        0.64286        0.53213        0.57839        0.71352        0.76543        0.67527        0.55750        0.50805        0.58497        0.75046        0.87079        0.83757        0.68018        0.57378        0.63246        0.75394        0.80382        0.77042        0.71943        0.73197        0.78269        0.79940        0.73331        0.62947        0.60138        0.69707        0.78039        0.76265        0.69707        0.70011        0.76547        0.77724        0.69374        0.61031        0.59878        0.62114        0.60811        0.57575        0.58122        0.65923        0.73942        0.76588        0.75783        0.77263        0.78241        0.75091        0.71151        0.71863        0.74315        0.71052        0.64282        0.62735        0.71169        0.80049        0.82309        0.75838        0.70247        0.67139        0.66313        0.66436        0.67766        0.69793        0.71519        0.71849        0.70221        0.67599        0.65886        0.69166        0.72745        0.72176        0.66713        0.64641        0.69962        0.79193        0.81752        0.75639        0.65529        0.61596        0.66884        0.74994        0.76417        0.70479        0.64896        0.66406        0.71982        0.76088        0.74389        0.69468        0.66317        0.67402        0.69758        0.68930        0.66492        0.68174        0.72883        0.74996        0.74591        0.74543        0.76168        0.74987        0.71845        0.67162        0.63776        0.62372        0.62981        0.62589        0.60937        0.61864        0.69720        0.79322        0.80362        0.77471        0.76542        0.78307        0.74379        0.66953        0.61776        0.65196        0.72250        0.75774        0.74230        0.67134        0.59267        0.59025        0.67447        0.76633        0.80242        0.80186        0.76805        0.72607        0.65870        0.65136        0.70395        0.78860        0.75945        0.64093        0.55010        0.54064        0.55066        0.58102        0.72166        0.88003        0.85937        0.67806        0.59410        0.68858        0.77050        0.70479        0.69590        0.73348        0.72927        0.65311        0.67045        0.75935        0.76519        0.67991        0.61742        0.60296        0.65203        0.70401        0.70219        0.66278        0.71952        0.85711        0.90575        0.77546        0.70702        0.84104        0.93441        0.77025        0.56904        0.49823        0.46990        0.51453        0.73851        0.91824        0.79457        0.55565        0.46125        0.49621        0.52605        0.55885        0.73615        0.85063        0.86540        0.83414        0.82876        0.80992        0.72339        0.68725        0.68727        0.70621        0.63599        0.56942        0.63468        0.71238        0.86793        0.95803        0.88455        0.55146        0.36989        0.61203        0.77861        0.47433        0.08091        0.06141        0.08742       -0.24527       -0.62138       -0.79926
0.010156 -1.084013 -1.043652 -1.003729 -0.964245 -0.925199 -0.886592 -0.848423 -0.810694 -0.773403 -0.736550 -0.700136 -0.664161 -0.628625 -0.593528 -0.558868 -0.524647 -0.490866 -0.457522 11.867871 17.295657 3.218482 -8.139983 -9.758464 -2.091589 6.247999 2.572872 -1.173435 -1.341412 -2.824502 -6.644561 -6.770988 -5.541082 -3.919318 -3.491398 -2.662439 -2.757495 -4.069907 -5.884196 -5.205554 -2.644533 -1.563585 -2.701428 -2.963663 -0.547697 1.154073 3.107944 4.611393 4.710015 4.103204 0.802445 -2.182870 -2.087883 -0.098019 2.158869 1.404633 0.476854 -0.383434 0.653313 0.550932 -1.036127 -1.374690 0.376382 2.400675 2.215969 1.560983 0.256706 -0.771500 -0.803227 -0.887697 -0.078634 -0.094376 0.443059 1.146720 2.827940 3.376156 2.070864 0.223330 -1.083860 -0.287638 -0.200679 0.738969 2.248160 2.519247 2.182452 0.149831 -1.116262 -1.292865 -0.538804 -0.442361 0.300128 0.633536 1.624347 2.348833 1.010765 0.294750 1.416857 2.591588 2.887820 1.858082 1.172328 0.690105 0.993094 0.697533 0.711379 -0.173721 -1.142409 -0.862321 -0.509157 -0.422693 0.114584 0.732860 0.917029 0.689552 1.539676 2.897742 2.640815 0.855114 -0.931190 -1.030657 -0.188744 -0.203062 0.448177 0.836295 1.149742 1.018862 0.339100 -0.611177 -0.897774 -0.264038 0.420625 0.516197 0.600200 -0.834350 -1.626678 -1.268874 -0.485359 0.307306 -0.292211 -0.532192 0.063242 0.121878 0.820927 0.138623 0.241559 -0.182108 -0.511574 0.116505 -0.364699 -0.767239 -0.249951 0.830520 1.346701 -0.571779 -2.356178 -2.506815 -1.087176 0.696537 0.231936 -0.943242 -1.884326 -1.472518 -0.033866 1.878831 2.663235 1.109050 -1.067448 -1.189011 0.418775 1.493646 1.283488 1.620320 0.621923 1.428316 1.869222 1.472668 0.312037 -0.841640 -0.387708 1.194695 1.624690 0.959887 0.170392 0.727501 0.984991 0.833864 -0.306850 -1.030016 -0.849429 -0.926257 -1.402194 -1.398673 -0.904364 0.183642 1.049698 0.714976 0.653800 1.051942 1.020136 0.205503 0.057035 0.338936 0.162742 -0.999014 -1.781275 -1.019797 -0.050246 0.892588 0.444285 -0.433676 -1.143939 -1.144537 -1.340778 -1.420736 -1.131568 -0.741315 -0.539529 -0.704740 -1.153001 -1.250554 -1.643100 -0.793585 -0.004315 -0.238648 -1.094220 -0.724470 0.093284 1.171658 1.110884 -0.158864 -1.492562 -1.024648 -0.142367 0.670351 0.325094 -0.430423 -0.982736 -0.174504 0.549779 0.716479 0.375798 -0.244795 -0.566155 -0.297504 -0.024221 -0.139635 -0.234284 0.143029 0.693927 0.783338 0.736084 0.835469 0.803003 0.871778 0.297788 -0.329672 -0.738546 -0.859215 -0.683129 -1.102253 -1.179363 -0.696622 0.560318 0.928233 0.904724 0.562841 0.112596 0.488318 0.140913 -1.262694 -1.867434 -1.325277 -0.291274 0.036118 -0.538147 -1.648962 -2.067580 -2.619876 -1.078703 -0.168212 0.307323 -0.417748 -0.416637 -1.218723 -1.669601 -1.323972 -0.510578 0.167798 -0.297172 -2.447513 -2.647721 -3.057987 -2.636291 -2.170273 -0.611593 2.232723 0.287868 -1.652724 -1.720666 -0.678812 0.157328 -0.515122 -0.722911 0.134131 -0.893225 -1.482395 -1.326403 0.165363 -0.440601 -1.058179 -2.021389 -2.139077 -0.768706 -0.477487 -0.890910 -1.043022 1.466421 2.450797 3.083801 1.963711 0.990457 2.425317 3.607950 2.113036 -1.294322 -1.848494 -1.663075 -1.588597 1.548071 4.382433 1.611807 -1.367890 -1.805366 -0.840274 -2.071520 -1.278025 0.655162 2.701550 2.969919 2.578746 0.570698 0.721332 0.054015 -1.998134 0.463973 0.340801 -0.918925 -2.057702 0.036366 2.409485 2.394424 5.844626 4.833543 1.012534 -0.946978 2.887416 5.411112 5.054791 0.521854 1.401570 1.682280 -3.045401 -10.078837
0.072396 0.073195 0.075590 0.079581 0.085167 0.092344 0.101110 0.111460 0.123387 0.136882 0.151936 0.168532 0.186654 0.206281 0.227384 0.249932 0.273885 0.299198 0.325817 0.353678 0.382709 0.412825 0.443932 0.475922 0.508674 0.542051 0.575905 0.610067 0.644357 0.678575 0.712504 0.745910 0.778544 0.810137 0.840405 0.869049 0.895754 0.920193 0.942028 0.960911 0.976490 0.988407 0.996308 0.999840 0.998661 0.992443 0.980878 0.963681 0.940601 0.911424 0.875981 0.834155 0.785887 0.731186 0.670133 0.602888 0.529696 0.450894 0.366914 0.278288 0.185649 0.089730 0.008631 0.108500 0.208850 0.308566 0.406456 0.501266 0.591688 0.676384 0.754003 0.823203 0.882675 0.931174 0.967543 0.990742 0.999883 0.994257 0.973363 0.936938 0.884983 0.817784 0.735931 0.640332 0.532219 0.413147 0.284987 0.149910 0.010360 0.130980 0.271236 0.407393 0.536361 0.655046 0.760425 0.849636 0.920055 0.969394 0.995779 0.997835 0.974761 0.926392 0.853247 0.756564 0.638313 0.501183 0.348550 0.184420 0.013339 0.159719 0.329480 0.490531 0.637499 0.765230 0.868986 0.944642 0.988869 0.999308 0.974711 0.915064 0.821654 0.697101 0.545331 0.371497 0.181838 0.016510 0.215768 0.407803 0.584462 0.737923 0.861065 0.947823 0.993522 0.995173 0.951700 0.864094 0.735475 0.571051 0.377970 0.165058 0.057537 0.278811 0.487430 0.672318 0.823259 0.931502 0.990316 0.995461 0.945552 0.842275 0.690434 0.497825 0.274900 0.034276 0.209947 0.442987 0.650267 0.818356 0.935882 0.994363 0.988893 0.918631 0.787033 0.601812 0.374586 0.120238 0.143988 0.399630 0.628277 0.812927 0.939301 0.997023 0.980571 0.889897 0.730660 0.514012 0.255941 0.023812 0.303202 0.559589 0.771585 0.920894 0.993980 0.983401 0.888696 0.716692 0.481179 0.201951 0.096748 0.388267 0.645902 0.845370 0.967187 0.998681 0.935462 0.782147 0.552236 0.267100 0.045865 0.355778 0.631289 0.843777 0.970416 0.996768 0.918592 0.742657 0.486391 0.176354 0.154378 0.469633 0.734110 0.917376 0.997503 0.963877 0.818795 0.577630 0.267438 0.075882 0.411632 0.699098 0.902539 0.995764 0.965712 0.814505 0.559662 0.232338 0.126285 0.470029 0.753670 0.938939 0.999868 0.926666 0.727545 0.428137 0.068463 0.302198 0.631985 0.873734 0.991864 0.967849 0.803418 0.520887 0.160474 0.225205 0.578657 0.846090 0.985743 0.974645 0.812718 0.523427 0.150758 0.247209 0.607200 0.870821 0.994175 0.955469 0.759213 0.436193 0.039008 0.366204 0.710686 0.934774 0.998456 0.888871 0.623275 0.246794 0.174881 0.566736 0.857760 0.993962 0.948725 0.728422 0.372085 0.055081 0.473336 0.803194 0.980660 0.969948 0.771151 0.421115 0.012896 0.445805 0.791249 0.978944 0.969306 0.762268 0.398273 0.049133 0.487770 0.825746 0.990808 0.946205 0.699364 0.301358 0.163137 0.593552 0.895100 0.999920 0.882778 0.567730 0.123828 0.349516 0.744548 0.969764 0.971463 0.747120 0.347128 0.135878 0.588100 0.901282 0.998870 0.855256 0.503140 0.026813 0.457522 0.829841 0.996240 0.913059 0.599039 0.131890 0.370318 0.778689 0.986681 0.938325 0.644008 0.179123 0.334566 0.760433 0.983415 0.941528 0.643838 0.169438 0.352822 0.778973 0.989689 0.924176 0.598498 0.102596 0.423834 0.830341 0.998876 0.878618 0.502171 0.022345 0.541660 0.901866 0.994331 0.789135 0.345660 0.203690 0.692389 0.970201 0.949822 0.635141 0.121818 0.430956 0.849389 0.999889 0.832396 0.398000 0.165574 0.676961 0.969334
1.000000 1.000000 1.000000 1.000000 1.000000 1.000000 1.000000 1.000000 1.000000 1.000000 1.000000 1.000000 1.000000 1.000000 1.000000 1.000000 1.000000 1.000000 1.000000 1.000000 0.179146 0.179146 0.179146 0.179146 0.179146 0.179146 0.179146 0.179146 0.179146 0.179146 0.179146 0.179146 0.179146 0.179146 0.179146 0.179146 0.179146 0.179146 0.179146 0.179146 0.179146 0.179146 0.179146 0.179146 0.097079 0.097079 0.097079 0.097079 0.097079 0.097079 0.097079 0.097079 0.097079 0.097079 0.097079 0.097079 0.097079 0.097079 0.097079 0.097079 0.097935 0.172009 0.194825 0.181510 0.164173 0.166905 0.209809 0.241792 0.259156 0.278964 0.285355 0.287000 0.292943 0.299632 0.310786 0.325562 0.340872 0.382375 0.393572 0.399616 0.412555 0.455049 0.480670 0.484321 0.479907 0.491094 0.503619 0.513905 0.525382 0.493125 0.432268 0.399989 0.412797 0.461653 0.478894 0.452450 0.396897 0.372665 0.379142 0.416378 0.394328 0.387115 0.368509 0.354008 0.355881 0.406059 0.431896 0.409003 0.345985 0.316702 0.321415 0.323137 0.315062 0.292891 0.203057 0.187984 0.136504 0.121851 0.128466 0.136202 0.109739 0.113551 0.108173 0.083062 0.051487 0.024706 -0.008087 -0.035824 -0.034942 0.008447 0.024257 0.019412 -0.000710 -0.083088 -0.127593 -0.174693 -0.205916 -0.225147 -0.228019 -0.247745 -0.295753 -0.333536 -0.300551 -0.254553 -0.228279 -0.210898 -0.199441 -0.187036 -0.123442 -0.079972 -0.045095 -0.047439 -0.065028 -0.048328 0.018569 0.019108 -0.013175 0.013987 0.066839 0.088405 0.107179 0.135145 0.154908 0.159357 0.260172 0.288340 0.322384 0.311791 0.271458 0.246251 0.250493 0.261946 0.265038 0.270853 0.277305 0.276355 0.213359 0.172089 0.154490 0.160163 0.146674 0.116133 0.108018 0.147538 0.178304 0.135863 0.107116 0.132413 0.137825 0.080839 0.029744 0.006667 -0.001575 -0.042468 -0.081097 -0.103542 -0.105776 -0.151999 -0.175153 -0.168110 -0.182273 -0.251690 -0.242834 -0.246215 -0.229135 -0.236226 -0.276304 -0.296464 -0.327807 -0.375521 -0.410220 -0.404873 -0.444186 -0.516840 -0.525743 -0.480409 -0.415122 -0.412487 -0.439791 -0.375148 -0.337180 -0.311451 -0.261864 -0.273113 -0.284772 -0.301105 -0.286625 -0.265461 -0.266952 -0.255498 -0.241026 -0.242354 -0.221456 -0.156015 -0.100026 -0.103769 -0.124532 -0.094190 -0.053197 -0.058134 0.001832 0.039595 0.008712 -0.001356 0.021866 0.040753 0.018875 -0.017674 -0.027778 -0.081276 -0.116926 -0.135094 -0.147853 -0.184594 -0.191399 -0.149926 -0.133499 -0.116608 -0.175201 -0.184856 -0.177852 -0.201038 -0.234478 -0.249223 -0.270838 -0.315697 -0.351265 -0.334622 -0.330617 -0.380695 -0.413400 -0.389772 -0.351396 -0.384091 -0.394102 -0.377558 -0.372345 -0.371379 -0.403369 -0.429159 -0.435748 -0.434290 -0.419671 -0.479694 -0.463711 -0.510812 -0.521553 -0.513355 -0.562167 -0.599851 -0.610174 -0.606950 -0.619685 -0.616146 -0.584538 -0.574395 -0.548226 -0.455799 -0.388163 -0.355336 -0.350987 -0.310408 -0.271643 -0.266079 -0.255243 -0.172989 -0.163829 -0.131392 -0.114115 -0.113372 -0.190660 -0.182890 -0.158712 -0.128990 -0.132736 -0.076086 -0.037025 -0.013139 0.042335 0.020179 0.029353 0.025423 -0.008151 -0.044169 -0.012361 0.037311 0.051413 0.077504 0.118096 0.129103 0.122872 0.096694 0.115301 0.149430 0.122913 0.058455 0.058455 0.058455 0.058455 0.058455 0.058455 0.130295 0.130295 0.130295 0.130295 0.130295 0.067580 0.067580 0.067580 0.067580 0.067580 0.067580 0.103760 0.103760 0.103760 0.103760 0.103760 0.103760 0.103760 0.103760 0.103760 0.103760 0.103760
0.000000 0.000000 0.000000 0.000000 544485652350522496.000000 666606007627504768.000000 527501771193006528.000000 403890275797223168.000000 672684657749184384.000000 0.000000 0.000000 0.000000 0.000000 0.000000 0.000000 0.000000 0.000000 0.000000 0.000000 721268228044612736.000000 0.201008 0.201008 0.201008 0.201008 0.201008 0.201008 0.201008 0.201008 0.201008 0.201008 0.201008 0.201008 0.201008 0.201008 0.201008 0.201008 0.201008 0.201008 0.201008 0.201008 0.201008 0.201008 0.201008 0.201008 0.222222 0.222222 0.222222 0.222222 0.222222 0.222222 0.222222 0.222222 0.222222 0.222222 0.222222 0.222222 0.222222 0.222222 0.222222 0.222222 0.222222 0.222222 0.222222 0.222222 0.222222 0.222222 0.222222 0.222222 0.222222 0.222222 0.222222 0.222222 0.222222 0.222222 0.222222 0.222222 0.222222 0.260378 0.260378 0.260378 0.260378 0.260378 0.260378 0.260378 0.260378 0.260378 0.260378 0.260378 0.260378 0.260378 0.260378 0.260378 0.260378 0.260378 0.260378 0.260378 0.260378 0.260378 0.260378 0.274721 0.274721 0.274721 0.274721 0.274721 0.274721 0.274721 0.274721 0.274721 0.274721 0.274721 0.274721 0.274721 0.274721 0.274721 0.274721 0.274721 0.274721 0.280056 0.280056 0.280056 0.280056 0.280056 0.280056 0.280056 0.280056 0.280056 0.280056 0.280056 0.280056 0.280056 0.280056 0.280056 0.280056 0.285714 0.285714 0.285714 0.285714 0.285714 0.285714 0.285714 0.285714 0.285714 0.285714 0.285714 0.285714 0.285714 0.285714 0.291730 0.291730 0.291730 0.291730 0.291730 0.291730 0.291730 0.291730 0.291730 0.291730 0.291730 0.291730 0.291730 0.291730 0.291730 0.291730 0.291730 0.291730 0.291730 0.291730 0.291730 0.291730 0.291730 0.291730 0.291730 0.298142 0.298142 0.298142 0.298142 0.298142 0.298142 0.298142 0.298142 0.298142 0.298142 0.298142 0.298142 0.298142 0.298142 0.298142 0.298142 0.298142 0.298142 0.298142 0.298142 0.298142 0.291730 0.291730 0.291730 0.291730 0.291730 0.291730 0.291730 0.291730 0.291730 0.291730 0.285714 0.285714 0.285714 0.285714 0.285714 0.285714 0.285714 0.285714 0.285714 0.285714 0.291730 0.291730 0.291730 0.291730 0.291730 0.291730 0.291730 0.291730 0.291730 0.304997 0.304997 0.304997 0.304997 0.304997 0.304997 0.304997 0.304997 0.280056 0.280056 0.280056 0.280056 0.280056 0.280056 0.280056 0.280056 0.280056 0.291730 0.291730 0.291730 0.291730 0.291730 0.291730 0.291730 0.291730 0.285714 0.285714 0.285714 0.285714 0.285714 0.285714 0.285714 0.285714 0.298142 0.298142 0.298142 0.298142 0.298142 0.298142 0.298142 0.274721 0.274721 0.274721 0.274721 0.274721 0.274721 0.274721 0.274721 0.285714 0.285714 0.285714 0.285714 0.285714 0.285714 0.285714 0.285714 0.285714 0.285714 0.285714 0.285714 0.285714 0.285714 0.280056 0.280056 0.280056 0.280056 0.280056 0.280056 0.280056 0.291730 0.291730 0.291730 0.291730 0.291730 0.291730 0.269680 0.269680 0.269680 0.269680 0.269680 0.269680 0.269680 0.285714 0.285714 0.285714 0.285714 0.285714 0.285714 0.264906 0.264906 0.264906 0.264906 0.264906 0.264906 0.264906 0.280056 0.280056 0.280056 0.280056 0.280056 0.280056 0.274721 0.274721 0.274721 0.274721 0.274721 0.274721 0.269680 0.269680 0.269680 0.269680 0.269680 0.269680 0.264906 0.264906 0.264906 0.264906 0.264906 0.264906 0.285714 0.285714 0.285714 0.285714 0.285714 0.260378 0.260378 0.260378 0.260378 0.260378 0.260378 0.280056 0.280056 0.280056 0.280056 0.280056 0.280056 0.280056 0.280056 0.280056 0.280056 0.280056
