# Output from CTFFind version 4.1.9, run on 2019-11-24 12:06:07
# Input file: stack1_ubbm3d_averaged_1_4.0_0_500_half.mrc ; Number of micrographs: 1
# Pixel size: 1.500 Angstroms ; acceleration voltage: 300.0 keV ; spherical aberration: 0.00 mm ; amplitude contrast: 0.07
# Box size: 512 pixels ; min. res.: 40.0 Angstroms ; max. res.: 6.0 Angstroms ; min. def.: 5000.0 um; max. def. 50000.0 um; num. frames averaged: 1
# 6 lines per micrograph: #1 - spatial frequency (1/Angstroms); #2 - 1D rotational average of spectrum (assuming no astigmatism); #3 - 1D rotational average of spectrum; #4 - CTF fit; #5 - cross-correlation between spectrum and CTF fit; #6 - 2sigma of expected cross correlation of noise
0.000000 0.001302 0.002604 0.003906 0.005208 0.006510 0.007812 0.009115 0.010417 0.011719 0.013021 0.014323 0.015625 0.016927 0.018229 0.019531 0.020833 0.022135 0.023438 0.024740 0.026042 0.027344 0.028646 0.029948 0.031250 0.032552 0.033854 0.035156 0.036458 0.037760 0.039062 0.040365 0.041667 0.042969 0.044271 0.045573 0.046875 0.048177 0.049479 0.050781 0.052083 0.053385 0.054688 0.055990 0.057292 0.058594 0.059896 0.061198 0.062500 0.063802 0.065104 0.066406 0.067708 0.069010 0.070312 0.071615 0.072917 0.074219 0.075521 0.076823 0.078125 0.079427 0.080729 0.082031 0.083333 0.084635 0.085938 0.087240 0.088542 0.089844 0.091146 0.092448 0.093750 0.095052 0.096354 0.097656 0.098958 0.100260 0.101562 0.102865 0.104167 0.105469 0.106771 0.108073 0.109375 0.110677 0.111979 0.113281 0.114583 0.115885 0.117188 0.118490 0.119792 0.121094 0.122396 0.123698 0.125000 0.126302 0.127604 0.128906 0.130208 0.131510 0.132812 0.134115 0.135417 0.136719 0.138021 0.139323 0.140625 0.141927 0.143229 0.144531 0.145833 0.147135 0.148438 0.149740 0.151042 0.152344 0.153646 0.154948 0.156250 0.157552 0.158854 0.160156 0.161458 0.162760 0.164062 0.165365 0.166667 0.167969 0.169271 0.170573 0.171875 0.173177 0.174479 0.175781 0.177083 0.178385 0.179688 0.180990 0.182292 0.183594 0.184896 0.186198 0.187500 0.188802 0.190104 0.191406 0.192708 0.194010 0.195312 0.196615 0.197917 0.199219 0.200521 0.201823 0.203125 0.204427 0.205729 0.207031 0.208333 0.209635 0.210938 0.212240 0.213542 0.214844 0.216146 0.217448 0.218750 0.220052 0.221354 0.222656 0.223958 0.225260 0.226562 0.227865 0.229167 0.230469 0.231771 0.233073 0.234375 0.235677 0.236979 0.238281 0.239583 0.240885 0.242188 0.243490 0.244792 0.246094 0.247396 0.248698 0.250000 0.251302 0.252604 0.253906 0.255208 0.256510 0.257812 0.259115 0.260417 0.261719 0.263021 0.264323 0.265625 0.266927 0.268229 0.269531 0.270833 0.272135 0.273438 0.274740 0.276042 0.277344 0.278646 0.279948 0.281250 0.282552 0.283854 0.285156 0.286458 0.287760 0.289062 0.290365 0.291667 0.292969 0.294271 0.295573 0.296875 0.298177 0.299479 0.300781 0.302083 0.303385 0.304688 0.305990 0.307292 0.308594 0.309896 0.311198 0.312500 0.313802 0.315104 0.316406 0.317708 0.319010 0.320312 0.321615 0.322917 0.324219 0.325521 0.326823 0.328125 0.329427 0.330729 0.332031 0.333333 0.334635 0.335938 0.337240 0.338542 0.339844 0.341146 0.342448 0.343750 0.345052 0.346354 0.347656 0.348958 0.350260 0.351562 0.352865 0.354167 0.355469 0.356771 0.358073 0.359375 0.360677 0.361979 0.363281 0.364583 0.365885 0.367188 0.368490 0.369792 0.371094 0.372396 0.373698 0.375000 0.376302 0.377604 0.378906 0.380208 0.381510 0.382812 0.384115 0.385417 0.386719 0.388021 0.389323 0.390625 0.391927 0.393229 0.394531 0.395833 0.397135 0.398438 0.399740 0.401042 0.402344 0.403646 0.404948 0.406250 0.407552 0.408854 0.410156 0.411458 0.412760 0.414062 0.415365 0.416667 0.417969 0.419271 0.420573 0.421875 0.423177 0.424479 0.425781 0.427083 0.428385 0.429688 0.430990 0.432292 0.433594 0.434896 0.436198 0.437500 0.438802 0.440104 0.441406 0.442708 0.444010 0.445312 0.446615 0.447917 0.449219 0.450521 0.451823 0.453125 0.454427 0.455729 0.457031 0.458333 0.459635 0.460938 0.462240 0.463542 0.464844 0.466146 0.467448 0.468750 0.470052 0.471354
       0.49891        0.49891        0.49891        0.49891        0.49891        0.49891        0.49891        0.49891        0.49891        0.49891        0.49891        0.49891        0.49891        0.49891        0.49891        0.49891        0.49891        0.49891        0.49891        1.31296        1.95884        0.89822        0.14922        0.01753        0.55809        1.13638        1.05688        0.55627        0.23715        0.19350        0.21932        0.23059        0.24419        0.23432        0.16523        0.19299        0.19285        0.07103       -0.06621       -0.06288        0.02720        0.09004        0.18588        0.37253        0.57154        0.68844        0.73447        0.77245        0.84707        0.86564        0.75800        0.53420        0.35218        0.31577        0.37869        0.42738        0.39508        0.32190        0.26876        0.28062        0.39338        0.51339        0.63429        0.69874        0.70225        0.63842        0.54608        0.49200        0.44391        0.39903        0.42018        0.52219        0.60312        0.54830        0.48433        0.51056        0.54065        0.48480        0.38567        0.38953        0.52597        0.61635        0.57838        0.41356        0.30783        0.35183        0.47504        0.53547        0.51946        0.48918        0.51342        0.53640        0.48376        0.39644        0.34809        0.42489        0.56590        0.66312        0.65648        0.55422        0.48736        0.50503        0.59492        0.64531        0.61195        0.52803        0.44483        0.41119        0.41800        0.45269        0.49913        0.51774        0.47794        0.42077        0.41916        0.47605        0.52953        0.53968        0.54151        0.54845        0.55388        0.51781        0.46461        0.44297        0.43916        0.44110        0.44540        0.47590        0.54296        0.59849        0.58943        0.53834        0.47622        0.45860        0.48622        0.55385        0.55804        0.49590        0.42732        0.42640        0.46314        0.48955        0.50225        0.48903        0.45979        0.42943        0.46881        0.55069        0.60883        0.57725        0.52830        0.50851        0.50658        0.48088        0.44752        0.45361        0.47636        0.48801        0.47904        0.48640        0.51596        0.52999        0.50408        0.47150        0.47766        0.51483        0.52607        0.51249        0.50015        0.48229        0.43599        0.42179        0.48004        0.56149        0.57797        0.54700        0.53638        0.55194        0.55328        0.54862        0.56047        0.57464        0.55642        0.51685        0.48660        0.48357        0.47947        0.46394        0.42853        0.40503        0.40715        0.44367        0.46216        0.45186        0.45666        0.50502        0.54028        0.51540        0.45554        0.43677        0.46458        0.51413        0.56769        0.60329        0.58111        0.51013        0.47018        0.50126        0.55502        0.54937        0.49731        0.45352        0.44365        0.46773        0.50785        0.53535        0.53822        0.51328        0.49346        0.50149        0.52959        0.56506        0.57049        0.52989        0.46823        0.45981        0.51164        0.54856        0.51989        0.46850        0.44429        0.43157        0.41902        0.41832        0.46025        0.52333        0.56805        0.57785        0.54721        0.49457        0.45685        0.46681        0.49824        0.50857        0.49200        0.49950        0.52942        0.54683        0.51728        0.47444        0.46384        0.49681        0.53092        0.52199        0.48101        0.45874        0.46652        0.47004        0.47955        0.52547        0.56267        0.52360        0.44958        0.44062        0.50169        0.54501        0.49965        0.43908        0.43888        0.47240        0.49098        0.51124        0.52185        0.52033        0.50090        0.47821        0.48679        0.50788        0.53320        0.53300        0.49634        0.44585        0.43701        0.44825        0.45749        0.47099        0.52090        0.58521        0.57163        0.51403        0.49329        0.51422        0.49785        0.45576        0.44907        0.52201        0.53063        0.43057        0.36386        0.43871        0.56492        0.61004        0.53629        0.48750        0.50386        0.51331        0.50453        0.52608        0.55532        0.53559        0.47029        0.43470        0.45141        0.47721        0.43959        0.41787        0.47666        0.55220        0.55873        0.48355        0.44995        0.48893        0.51819        0.48620        0.45167        0.45027        0.47902        0.48952        0.48643        0.47568        0.47553        0.52065        0.55444        0.53539        0.45682        0.42363        0.44956        0.50847        0.54246        0.58155        0.52954        0.41897        0.39614        0.48655        0.58830        0.60835        0.59267        0.62400        0.54102        0.42660        0.40070        0.48631        0.48310        0.41455        0.41908        0.47211        0.41463        0.25930        0.14430        0.06849       -0.04110       -0.13128       -0.17197
4.565622 4.442080 4.320181 4.199925 4.081312 3.964341 3.849013 3.735327 3.623285 3.512885 3.404128 3.297013 3.191541 3.087712 2.985526 2.884982 2.786081 2.688823 2.593208 4.296770 5.607451 3.480219 1.441608 0.870989 2.003979 3.292635 3.339471 2.073304 1.204160 0.966584 0.875755 0.935029 1.009223 0.765005 0.532068 0.675994 0.475866 0.186141 -0.093090 -0.287851 -0.174847 0.073651 0.087095 0.455132 0.769092 1.004801 1.071757 1.082952 1.179350 1.281275 1.036066 0.383031 0.092660 -0.148018 0.148356 -0.050446 -0.020800 -0.172443 -0.264775 -0.447822 -0.621858 0.267058 -0.486080 -0.500462 -0.329401 -0.115395 -0.075420 0.034516 0.128974 0.154818 0.163063 0.074330 -0.080933 -0.055101 0.062573 0.050346 -0.072903 0.112809 0.385257 0.420957 0.130051 0.475693 0.334432 -0.116971 -0.219564 -0.327136 0.041692 0.184349 0.173611 0.174598 0.136987 0.334580 0.227759 0.033155 -0.188809 -0.021327 0.204079 0.621256 0.579461 0.395914 0.301760 0.151013 0.410410 0.407960 0.537649 0.263525 0.020620 -0.088253 -0.064283 -0.046994 0.028383 0.169828 0.119417 -0.078282 -0.060847 -0.014097 0.156312 0.116902 0.199261 0.181496 0.251494 0.182458 0.057412 -0.126971 -2.606506 1.627505 0.484391 -0.421616 -0.010763 0.744862 3.118109 -0.816693 -0.009249 0.149814 0.167126 -0.064514 -0.195212 -0.047851 0.578208 0.565299 0.266368 0.188145 0.045195 0.060054 0.077849 0.141208 0.150658 0.040986 -0.123295 -0.188219 -0.070365 0.022763 0.000959 0.077111 0.235240 0.206802 0.172257 0.085259 0.098981 0.116284 -0.216399 -1.096165 -0.178507 0.030336 0.222373 0.021593 1.025442 0.249021 0.019317 -0.004782 -0.340349 -0.252012 -0.158343 0.170735 0.257971 0.096414 0.036832 0.085612 0.073381 0.231353 1.922965 -0.064568 -0.207614 -0.028320 0.076429 0.179234 0.344886 -0.219804 0.976231 -0.426785 -0.551824 0.353868 0.016743 1.410753 -0.017658 0.037786 0.382138 0.568518 0.078901 -0.348331 0.344651 0.166094 -0.035563 0.086136 0.143487 0.058493 -0.079987 -0.194777 -0.000674 0.068340 -0.005812 -0.038865 -0.139194 -0.115236 -0.053685 -0.005594 0.054740 0.085915 -0.000926 -0.051715 0.030998 0.026382 0.085864 0.074267 0.045736 -0.065456 -0.049625 0.078361 0.172725 0.067273 -0.035722 -0.051602 -0.120370 -0.103621 -0.092246 -0.001378 0.135591 0.208835 0.173256 0.083354 -0.080228 -0.159198 -0.079174 0.044077 0.025175 -0.003081 0.023340 0.075090 0.108066 -0.036823 -0.106700 -0.068443 0.002514 0.089234 0.046014 -0.053966 -0.029714 -0.066429 -0.035849 -0.023477 0.112689 0.197551 0.058436 -0.083154 -0.053058 0.133361 0.125719 -0.004966 -0.084222 -0.105195 0.016350 -0.015081 0.021881 0.060699 -0.049753 -0.063115 -0.056863 -0.081941 0.034825 0.091388 0.103119 -0.036093 -0.132644 -0.148566 -0.103665 -0.084754 -0.060448 0.102184 0.196742 0.157685 -0.095585 -0.072904 -0.010547 -0.068325 -0.181656 -0.021251 0.170619 0.122121 -0.117982 -0.230319 -0.074486 0.255731 0.274248 0.113796 -0.109852 -0.070501 -0.028585 -0.023765 0.026141 0.097206 0.095066 0.030640 -0.103024 -0.004275 -0.008324 -0.041895 -0.131582 0.025222 0.103209 0.095476 0.064405 -0.071164 0.008931 0.112777 0.006672 0.004887 0.020804 -0.019930 -0.048972 0.010543 -0.021364 0.030238 -0.001485 0.161325 0.090999 -0.138322 -0.171795 -0.049017 0.053619 0.083544 0.177934 0.158312 -0.215564 -0.337972 -0.080136 0.153587 0.133332 0.123773 0.231185 0.007982 -0.270469 -0.073796 0.052496 0.151994 -0.117530 0.004082 0.234148 0.204832 -0.006928 0.257441 0.084167 -0.215519 -0.362175
0.072396 0.074548 0.081000 0.091747 0.106774 0.126059 0.149564 0.177232 0.208983 0.244701 0.284229 0.327360 0.373824 0.423282 0.475309 0.529389 0.584903 0.641119 0.697187 0.752131 0.804854 0.854134 0.898637 0.936929 0.967497 0.988779 0.999203 0.997232 0.981417 0.950468 0.903321 0.839220 0.757797 0.659157 0.543960 0.413493 0.269727 0.115360 0.046173 0.210720 0.373471 0.529066 0.671748 0.795569 0.894648 0.963465 0.997203 0.992095 0.945790 0.857683 0.729207 0.564033 0.368176 0.149950 0.080241 0.310279 0.526910 0.716484 0.865853 0.963363 0.999891 0.969831 0.871952 0.709999 0.492973 0.234978 0.045412 0.326280 0.583975 0.795107 0.938778 0.998871 0.966138 0.839841 0.628676 0.350769 0.032615 0.293097 0.590651 0.825214 0.967110 0.995938 0.903974 0.698285 0.401093 0.048086 0.315340 0.639656 0.877967 0.993124 0.964078 0.790396 0.493968 0.117253 0.282036 0.639362 0.893795 0.998816 0.931594 0.698830 0.337663 0.089090 0.503086 0.824568 0.988047 0.956473 0.730769 0.352196 0.103743 0.541391 0.864708 0.998778 0.908269 0.608134 0.163239 0.324117 0.736880 0.971416 0.964481 0.711875 0.273028 0.241004 0.694450 0.962541 0.966823 0.699920 0.231650 0.307016 0.759276 0.988144 0.919246 0.567176 0.035664 0.510743 0.896622 0.992612 0.760771 0.272054 0.312445 0.792790 0.998569 0.851091 0.396324 0.205875 0.735590 0.992717 0.874181 0.418344 0.203390 0.748352 0.996789 0.842314 0.340891 0.305203 0.826286 0.997666 0.738947 0.155597 0.499790 0.934645 0.947752 0.525737 0.142779 0.747592 0.999782 0.771943 0.166998 0.523234 0.956096 0.909119 0.398421 0.320151 0.875216 0.971480 0.550337 0.169350 0.800078 0.993022 0.633995 0.083397 0.756541 0.997820 0.660590 0.065808 0.756292 0.996564 0.634583 0.116980 0.799393 0.985781 0.551612 0.235456 0.874295 0.948036 0.400519 0.414285 0.955311 0.853682 0.170004 0.633188 0.999704 0.666857 0.139004 0.848536 0.949081 0.359676 0.495823 0.987068 0.742278 0.063145 0.823270 0.953960 0.346261 0.534001 0.996283 0.667995 0.197046 0.905477 0.877491 0.127463 0.730664 0.980081 0.403312 0.518356 0.998109 0.615967 0.304474 0.959914 0.766432 0.112441 0.892535 0.864463 0.045180 0.818048 0.923101 0.163498 0.752539 0.954870 0.242015 0.706577 0.969586 0.281939 0.686179 0.973260 0.284367 0.693713 0.967630 0.249392 0.728319 0.950075 0.176002 0.785775 0.913770 0.062921 0.857736 0.848220 0.089712 0.930796 0.740575 0.277760 0.985647 0.578104 0.489855 0.997280 0.352332 0.704146 0.937290 0.064826 0.886326 0.779398 0.265915 0.990971 0.508810 0.598794 0.968587 0.134640 0.869251 0.780117 0.297927 0.997784 0.418132 0.702525 0.911955 0.070865 0.961984 0.580911 0.574551 0.961753 0.052797 0.929118 0.644544 0.525274 0.971332 0.068634 0.931214 0.623445 0.566208 0.952193 0.023323 0.966520 0.512412 0.687924 0.882915 0.221354 0.999277 0.290704 0.853794 0.714472 0.506361 0.957873 0.055902 0.984710 0.391097 0.811422 0.746180 0.492278 0.953771 0.099935 0.994931 0.292885 0.882590 0.626715 0.651752 0.862485 0.348245 0.982925 0.018746 0.989757 0.296409 0.898572 0.567405 0.732988 0.776135 0.519426 0.915367 0.282990 0.986624 0.044885 0.997576 0.178885 0.959448 0.377735 0.884845 0.546004 0.786154 0.682042 0.674460 0.787211 0.558973 0.864785 0.446906 0.919155 0.343586 0.955060 0.252667 0.977138 0.176452 0.989532 0.116334 0.995709 0.072994 0.998332 0.046775
1.000000 1.000000 1.000000 1.000000 1.000000 1.000000 1.000000 1.000000 1.000000 1.000000 1.000000 1.000000 1.000000 1.000000 1.000000 1.000000 1.000000 1.000000 1.000000 1.000000 0.232155 0.232155 0.232155 0.232155 0.232155 0.232155 0.232155 0.251076 0.251076 0.251076 0.251076 0.251076 0.251076 0.251076 0.251076 0.251076 0.251076 0.251076 0.251076 0.251076 0.251076 0.251076 0.251076 0.251076 0.251076 0.294663 0.255279 0.425812 0.372190 0.387252 0.411185 0.364792 0.272776 0.297842 0.309081 0.322618 0.326362 0.239684 0.133222 0.085763 0.051763 0.037653 0.004205 -0.019459 -0.023480 -0.015717 -0.014665 -0.025438 -0.005400 0.064030 0.003127 -0.036834 0.000459 0.015409 0.035443 0.029055 0.129624 0.180771 0.203352 0.246672 0.254813 0.294427 0.329266 0.319710 0.390768 0.461046 0.462678 0.498195 0.633627 0.612213 0.615537 0.587743 0.690341 0.785674 0.782393 0.765022 0.766725 0.756704 0.749547 0.725439 0.722877 0.731257 0.738644 0.712588 0.719685 0.623436 0.574487 0.537591 0.506535 0.457384 0.420558 0.415566 0.366488 0.335972 0.344412 0.358695 0.334548 0.342749 0.349159 0.316287 0.277543 0.311292 0.292007 0.204129 0.212857 0.149039 0.152674 0.072652 0.023668 0.024617 -0.087714 -0.081370 -0.189630 -0.225993 -0.162171 -0.165851 -0.161707 -0.069496 -0.050218 -0.083826 -0.064866 -0.023124 -0.103955 -0.124126 -0.179030 -0.186239 -0.253104 -0.286722 -0.341167 -0.396898 -0.384439 -0.453718 -0.514523 -0.550969 -0.527738 -0.349116 -0.357395 -0.287670 -0.284649 -0.291467 -0.249750 -0.237450 -0.174998 -0.139607 -0.153231 -0.108989 -0.205129 -0.185503 -0.121784 -0.151733 -0.144453 -0.096391 -0.113393 -0.106920 -0.043990 -0.005054 0.026817 0.050790 0.091246 0.109827 0.144105 0.151651 0.201182 0.148665 0.210266 0.153497 0.137211 0.143811 0.121252 0.090448 0.061702 0.029527 0.027851 0.035728 0.102053 0.130466 0.051845 0.004343 0.031540 -0.016833 0.036953 -0.073317 -0.037676 -0.016884 0.008421 0.001397 0.039903 0.039973 -0.014113 -0.001845 0.000141 0.205512 0.180289 0.146690 0.105420 0.120934 0.111619 0.098480 0.087381 0.071029 0.159456 0.101920 0.084426 0.112570 0.100449 0.153968 0.172302 0.157459 0.217234 0.150842 0.155824 0.183188 0.143850 0.128029 0.103038 0.122616 0.145583 0.140937 0.123553 0.091325 0.018937 0.021792 0.013339 0.000264 0.019943 -0.007767 0.064067 0.048124 0.013629 -0.018170 -0.058285 -0.111819 -0.129883 -0.110297 -0.128273 -0.188968 -0.201579 -0.217157 -0.200022 -0.185509 -0.229753 -0.276106 -0.285542 -0.196414 -0.184402 -0.250431 -0.220215 -0.219967 -0.220141 -0.161068 -0.175512 -0.168691 -0.211757 -0.241150 -0.110919 -0.115151 -0.145229 -0.117736 -0.080877 -0.068218 -0.056475 -0.062288 -0.072852 -0.075466 -0.027994 -0.029480 -0.016510 0.033489 0.057130 0.040557 0.003086 0.061696 0.049109 0.041501 0.036544 0.103907 0.075406 -0.028147 -0.020775 0.023470 0.098730 0.126644 0.094666 0.089143 0.095400 0.136951 0.123587 0.168646 0.177048 0.003268 0.005256 0.002973 0.201972 0.160574 0.110279 0.084993 -0.004682 0.000395 0.013316 -0.006187 -0.015513 -0.007100 -0.026864 -0.056621 -0.041050 0.034233 -0.000101 -0.002506 0.010250 0.008337 0.055385 0.046727 -0.011934 -0.047465 -0.012983 -0.044415 0.051174 0.051174 0.051174 0.001390 0.001390 0.001390 0.001390 0.001390 0.001390 0.001390 0.001390 -0.004971 -0.004971 -0.004971 -0.004971 -0.004971 -0.004971 -0.003689 -0.003689 -0.003689 -0.003689 -0.003689 -0.003689 0.013666 0.013666 0.013666 0.013666
0.000000 0.000000 0.000000 0.000000 798980060751195136.000000 558519269047596416.000000 951858356660172928.000000 387450103171845888.000000 740438213628658432.000000 495750899034241216.000000 829438182084481536.000000 779188851585361664.000000 613462762355374848.000000 711207696639341312.000000 1602904625345649664.000000 1050761626480722688.000000 502521966542169600.000000 977276316482801536.000000 921505788339920128.000000 335756289215168320.000000 0.256074 0.256074 0.256074 0.256074 0.256074 0.256074 0.256074 0.280056 0.280056 0.280056 0.280056 0.280056 0.280056 0.280056 0.280056 0.280056 0.280056 0.280056 0.280056 0.280056 0.280056 0.280056 0.280056 0.280056 0.280056 0.280056 0.280056 0.320256 0.320256 0.320256 0.320256 0.320256 0.320256 0.320256 0.320256 0.320256 0.320256 0.320256 0.320256 0.320256 0.320256 0.348155 0.348155 0.348155 0.348155 0.348155 0.348155 0.348155 0.348155 0.348155 0.348155 0.348155 0.359211 0.359211 0.359211 0.359211 0.359211 0.359211 0.359211 0.359211 0.359211 0.348155 0.348155 0.348155 0.348155 0.348155 0.348155 0.348155 0.348155 0.348155 0.359211 0.359211 0.359211 0.359211 0.359211 0.359211 0.359211 0.359211 0.371391 0.371391 0.371391 0.371391 0.371391 0.371391 0.371391 0.359211 0.359211 0.359211 0.359211 0.359211 0.359211 0.359211 0.371391 0.371391 0.371391 0.371391 0.371391 0.371391 0.371391 0.371391 0.371391 0.371391 0.371391 0.371391 0.359211 0.359211 0.359211 0.359211 0.359211 0.359211 0.384900 0.384900 0.384900 0.384900 0.384900 0.348155 0.348155 0.348155 0.348155 0.348155 0.348155 0.359211 0.359211 0.359211 0.359211 0.359211 0.359211 0.359211 0.359211 0.359211 0.359211 0.384900 0.384900 0.384900 0.384900 0.348155 0.348155 0.348155 0.348155 0.348155 0.338062 0.338062 0.338062 0.338062 0.338062 0.359211 0.359211 0.359211 0.359211 0.359211 0.359211 0.359211 0.359211 0.348155 0.348155 0.348155 0.348155 0.348155 0.348155 0.348155 0.348155 0.338062 0.338062 0.338062 0.338062 0.338062 0.338062 0.338062 0.338062 0.328798 0.328798 0.328798 0.328798 0.328798 0.328798 0.328798 0.328798 0.320256 0.320256 0.320256 0.320256 0.359211 0.359211 0.359211 0.312348 0.312348 0.312348 0.312348 0.348155 0.348155 0.348155 0.304997 0.304997 0.304997 0.304997 0.338062 0.338062 0.338062 0.338062 0.338062 0.338062 0.298142 0.298142 0.298142 0.298142 0.328798 0.328798 0.328798 0.328798 0.328798 0.328798 0.320256 0.320256 0.320256 0.320256 0.320256 0.320256 0.312348 0.312348 0.312348 0.312348 0.312348 0.312348 0.312348 0.312348 0.312348 0.304997 0.304997 0.304997 0.304997 0.304997 0.304997 0.298142 0.298142 0.298142 0.298142 0.298142 0.298142 0.298142 0.298142 0.298142 0.338062 0.338062 0.291730 0.291730 0.291730 0.285714 0.285714 0.285714 0.285714 0.285714 0.285714 0.328798 0.328798 0.280056 0.280056 0.280056 0.280056 0.280056 0.280056 0.320256 0.320256 0.274721 0.274721 0.274721 0.312348 0.312348 0.269680 0.269680 0.269680 0.312348 0.312348 0.264906 0.264906 0.264906 0.304997 0.304997 0.264906 0.264906 0.264906 0.304997 0.304997 0.260378 0.260378 0.260378 0.298142 0.298142 0.298142 0.298142 0.256074 0.256074 0.256074 0.291730 0.291730 0.291730 0.291730 0.248069 0.248069 0.248069 0.285714 0.285714 0.285714 0.285714 0.285714 0.285714 0.244339 0.244339 0.244339 0.280056 0.280056 0.280056 0.280056 0.274721 0.274721 0.274721 0.274721 0.237356 0.237356 0.237356 0.269680 0.269680 0.269680 0.269680 0.269680 0.269680 0.269680 0.269680 0.264906 0.264906 0.264906 0.264906 0.264906 0.264906 0.260378 0.260378 0.260378 0.260378 0.260378 0.260378 0.256074 0.256074 0.256074 0.256074
