# Output from CTFFind version 4.1.9, run on 2019-11-24 12:06:15
# Input file: stack1_ubbm3d_averaged_1_0.0_0_2000_half.mrc ; Number of micrographs: 1
# Pixel size: 1.500 Angstroms ; acceleration voltage: 300.0 keV ; spherical aberration: 0.00 mm ; amplitude contrast: 0.07
# Box size: 512 pixels ; min. res.: 40.0 Angstroms ; max. res.: 6.0 Angstroms ; min. def.: 5000.0 um; max. def. 50000.0 um; num. frames averaged: 1
# 6 lines per micrograph: #1 - spatial frequency (1/Angstroms); #2 - 1D rotational average of spectrum (assuming no astigmatism); #3 - 1D rotational average of spectrum; #4 - CTF fit; #5 - cross-correlation between spectrum and CTF fit; #6 - 2sigma of expected cross correlation of noise
0.000000 0.001302 0.002604 0.003906 0.005208 0.006510 0.007812 0.009115 0.010417 0.011719 0.013021 0.014323 0.015625 0.016927 0.018229 0.019531 0.020833 0.022135 0.023438 0.024740 0.026042 0.027344 0.028646 0.029948 0.031250 0.032552 0.033854 0.035156 0.036458 0.037760 0.039062 0.040365 0.041667 0.042969 0.044271 0.045573 0.046875 0.048177 0.049479 0.050781 0.052083 0.053385 0.054688 0.055990 0.057292 0.058594 0.059896 0.061198 0.062500 0.063802 0.065104 0.066406 0.067708 0.069010 0.070312 0.071615 0.072917 0.074219 0.075521 0.076823 0.078125 0.079427 0.080729 0.082031 0.083333 0.084635 0.085938 0.087240 0.088542 0.089844 0.091146 0.092448 0.093750 0.095052 0.096354 0.097656 0.098958 0.100260 0.101562 0.102865 0.104167 0.105469 0.106771 0.108073 0.109375 0.110677 0.111979 0.113281 0.114583 0.115885 0.117188 0.118490 0.119792 0.121094 0.122396 0.123698 0.125000 0.126302 0.127604 0.128906 0.130208 0.131510 0.132812 0.134115 0.135417 0.136719 0.138021 0.139323 0.140625 0.141927 0.143229 0.144531 0.145833 0.147135 0.148438 0.149740 0.151042 0.152344 0.153646 0.154948 0.156250 0.157552 0.158854 0.160156 0.161458 0.162760 0.164062 0.165365 0.166667 0.167969 0.169271 0.170573 0.171875 0.173177 0.174479 0.175781 0.177083 0.178385 0.179688 0.180990 0.182292 0.183594 0.184896 0.186198 0.187500 0.188802 0.190104 0.191406 0.192708 0.194010 0.195312 0.196615 0.197917 0.199219 0.200521 0.201823 0.203125 0.204427 0.205729 0.207031 0.208333 0.209635 0.210938 0.212240 0.213542 0.214844 0.216146 0.217448 0.218750 0.220052 0.221354 0.222656 0.223958 0.225260 0.226562 0.227865 0.229167 0.230469 0.231771 0.233073 0.234375 0.235677 0.236979 0.238281 0.239583 0.240885 0.242188 0.243490 0.244792 0.246094 0.247396 0.248698 0.250000 0.251302 0.252604 0.253906 0.255208 0.256510 0.257812 0.259115 0.260417 0.261719 0.263021 0.264323 0.265625 0.266927 0.268229 0.269531 0.270833 0.272135 0.273438 0.274740 0.276042 0.277344 0.278646 0.279948 0.281250 0.282552 0.283854 0.285156 0.286458 0.287760 0.289062 0.290365 0.291667 0.292969 0.294271 0.295573 0.296875 0.298177 0.299479 0.300781 0.302083 0.303385 0.304688 0.305990 0.307292 0.308594 0.309896 0.311198 0.312500 0.313802 0.315104 0.316406 0.317708 0.319010 0.320312 0.321615 0.322917 0.324219 0.325521 0.326823 0.328125 0.329427 0.330729 0.332031 0.333333 0.334635 0.335938 0.337240 0.338542 0.339844 0.341146 0.342448 0.343750 0.345052 0.346354 0.347656 0.348958 0.350260 0.351562 0.352865 0.354167 0.355469 0.356771 0.358073 0.359375 0.360677 0.361979 0.363281 0.364583 0.365885 0.367188 0.368490 0.369792 0.371094 0.372396 0.373698 0.375000 0.376302 0.377604 0.378906 0.380208 0.381510 0.382812 0.384115 0.385417 0.386719 0.388021 0.389323 0.390625 0.391927 0.393229 0.394531 0.395833 0.397135 0.398438 0.399740 0.401042 0.402344 0.403646 0.404948 0.406250 0.407552 0.408854 0.410156 0.411458 0.412760 0.414062 0.415365 0.416667 0.417969 0.419271 0.420573 0.421875 0.423177 0.424479 0.425781 0.427083 0.428385 0.429688 0.430990 0.432292 0.433594 0.434896 0.436198 0.437500 0.438802 0.440104 0.441406 0.442708 0.444010 0.445312 0.446615 0.447917 0.449219 0.450521 0.451823 0.453125 0.454427 0.455729 0.457031 0.458333 0.459635 0.460938 0.462240 0.463542 0.464844 0.466146 0.467448 0.468750 0.470052 0.471354
       0.51057        0.51057        0.51057        0.51057        0.51057        0.51057        0.51057        0.51057        0.51057        0.51057        0.51057        0.51057        0.51057        0.51057        0.51057        0.51057        0.51057        0.51057        0.51057        1.38826        2.14268        0.97400        0.14697       -0.02118        0.52427        1.12609        1.04755        0.55131        0.25638        0.23951        0.25620        0.23049        0.23598        0.25330        0.18158        0.16358        0.12296        0.03517       -0.08041       -0.10404       -0.05186        0.07225        0.29828        0.50549        0.60024        0.59690        0.62569        0.74113        0.88941        0.96600        0.84057        0.53262        0.27900        0.27196        0.40454        0.40763        0.27872        0.20765        0.29100        0.42953        0.56634        0.64452        0.70523        0.71002        0.67956        0.62069        0.55936        0.52662        0.46569        0.41305        0.43327        0.54848        0.63087        0.53801        0.42009        0.42062        0.49542        0.49012        0.42504        0.42732        0.52986        0.55938        0.50746        0.43008        0.46850        0.54414        0.59401        0.57274        0.49444        0.39533        0.34145        0.40583        0.50571        0.54853        0.49553        0.47501        0.54729        0.63343        0.61249        0.51751        0.47236        0.50357        0.56353        0.58668        0.57076        0.55241        0.50747        0.46376        0.38985        0.32454        0.33374        0.42932        0.52831        0.57397        0.57663        0.59908        0.60517        0.59927        0.55656        0.48046        0.38728        0.35659        0.46626        0.64033        0.68992        0.59540        0.49020        0.48241        0.51788        0.53150        0.53450        0.54196        0.50367        0.42075        0.37327        0.41823        0.48974        0.49603        0.49358        0.53380        0.57969        0.56709        0.52993        0.51544        0.53145        0.51961        0.50096        0.48979        0.49080        0.47171        0.46765        0.51249        0.57970        0.59377        0.50433        0.39087        0.36359        0.45344        0.56226        0.58329        0.54502        0.51280        0.48720        0.47122        0.50184        0.56171        0.59082        0.57491        0.54427        0.52806        0.48356        0.47886        0.53598        0.59924        0.59068        0.53354        0.52259        0.54521        0.51478        0.46932        0.46120        0.48244        0.52033        0.54065        0.51672        0.44914        0.40536        0.43955        0.50968        0.52840        0.50226        0.48025        0.47506        0.47110        0.47828        0.49406        0.51225        0.52956        0.59563        0.65462        0.62791        0.52086        0.44325        0.45956        0.53428        0.57014        0.53267        0.45884        0.42542        0.46181        0.52008        0.55012        0.55935        0.54983        0.53166        0.51764        0.53362        0.54999        0.53066        0.49877        0.47185        0.46597        0.47377        0.49902        0.51534        0.49105        0.45475        0.47932        0.54124        0.57775        0.54862        0.50754        0.47994        0.47423        0.49488        0.53407        0.55081        0.54612        0.52038        0.49228        0.45448        0.45361        0.50226        0.55051        0.54243        0.50343        0.50157        0.53866        0.56474        0.57490        0.56488        0.53559        0.48059        0.43906        0.43226        0.45350        0.48049        0.48444        0.48599        0.52831        0.56732        0.54461        0.47566        0.45261        0.51585        0.59158        0.56720        0.48751        0.47142        0.52168        0.54020        0.47037        0.40864        0.43528        0.51076        0.53353        0.51561        0.51005        0.56011        0.58760        0.55846        0.49039        0.49287        0.51379        0.50390        0.47600        0.49096        0.50897        0.45799        0.40273        0.40561        0.48273        0.53386        0.54768        0.55879        0.56795        0.53510        0.49323        0.52411        0.55027        0.48851        0.39118        0.41968        0.55268        0.61918        0.56628        0.47838        0.44255        0.48048        0.53180        0.55734        0.52657        0.52421        0.54482        0.57064        0.50688        0.40022        0.42378        0.56062        0.59808        0.50121        0.47569        0.56789        0.55602        0.42608        0.43309        0.57658        0.58741        0.47132        0.42443        0.53568        0.54658        0.47622        0.47007        0.48185        0.44473        0.37651        0.46005        0.55969        0.52233        0.42600        0.48617        0.54579        0.51387        0.43143        0.47554        0.51310        0.44774        0.44096        0.54843        0.53868        0.51683        0.63851        0.79688        0.62720        0.31240        0.28841        0.41569        0.32680        0.01883       -0.19951       -0.23104       -0.22615
0.510570 0.510570 0.510570 0.510570 0.510570 0.510570 0.510570 0.510570 0.510570 0.510570 0.510570 0.510570 0.510570 0.510570 0.510570 0.510570 0.510570 0.510570 0.510570 1.419994 2.189797 1.157463 0.137905 -0.145677 0.422631 1.244129 1.041591 0.534181 0.302091 0.262254 0.176934 0.218743 0.297863 0.231046 0.206818 0.158017 0.110844 0.043254 -0.087080 -0.056920 -0.050581 0.045547 0.238190 0.552723 0.596952 0.577304 0.627940 0.690927 0.893073 0.947205 0.933219 0.529794 0.300773 0.266837 0.448345 0.368769 0.311325 0.136073 0.259626 0.463797 0.550635 0.648061 0.701596 0.707023 0.703557 0.663686 0.479389 0.560549 0.448917 0.440456 0.401525 0.574955 0.606378 0.588275 0.442784 0.407006 0.489324 0.455159 0.422739 0.433164 0.494546 0.569092 0.535787 0.417596 0.452135 0.492310 0.630961 0.586786 0.498760 0.411830 0.341884 0.400049 0.482591 0.565050 0.476766 0.458530 0.523793 0.636795 0.639268 0.566238 0.458320 0.498342 0.546922 0.578006 0.566441 0.560815 0.518733 0.504259 0.416583 0.309815 0.312859 0.396802 0.505010 0.575241 0.581620 0.557156 0.604987 0.613428 0.580105 0.509025 0.411373 0.337495 0.410502 0.593891 0.701535 0.647674 0.532652 0.462663 0.502320 0.531413 0.529251 0.536591 0.531683 0.450590 0.381450 0.390051 0.459692 0.524998 0.490013 0.500693 0.580240 0.575937 0.539018 0.513936 0.510574 0.529194 0.511902 0.490276 0.488138 0.493080 0.452854 0.491808 0.555100 0.609784 0.536395 0.440143 0.346582 0.410467 0.514847 0.569658 0.548930 0.539079 0.498764 0.459932 0.467441 0.547134 0.584965 0.579024 0.570948 0.549929 0.486817 0.461557 0.495690 0.596110 0.608599 0.540240 0.523911 0.561672 0.522240 0.484284 0.458417 0.479777 0.497383 0.517427 0.537915 0.502115 0.408132 0.420632 0.482533 0.534141 0.517489 0.486965 0.470730 0.463027 0.485423 0.488666 0.480675 0.517302 0.562033 0.623292 0.666381 0.578707 0.465247 0.415317 0.495559 0.557281 0.564638 0.494048 0.435964 0.423118 0.475857 0.542030 0.561510 0.554102 0.549809 0.529520 0.516942 0.535323 0.553602 0.512525 0.493503 0.463687 0.473567 0.490597 0.502807 0.503588 0.487552 0.465975 0.478094 0.562527 0.595581 0.522778 0.492064 0.475225 0.475054 0.516428 0.551718 0.545630 0.534531 0.520224 0.460863 0.451115 0.465873 0.519756 0.549352 0.531104 0.497125 0.517114 0.545912 0.563968 0.597811 0.548091 0.511482 0.447996 0.433500 0.436372 0.472292 0.477447 0.490539 0.493838 0.536126 0.577527 0.539474 0.468580 0.465781 0.539817 0.605479 0.554133 0.470047 0.476338 0.539615 0.532840 0.442602 0.415893 0.428949 0.522837 0.527237 0.504451 0.498783 0.579797 0.586142 0.545111 0.481135 0.486204 0.520617 0.494360 0.468026 0.489961 0.519029 0.435440 0.382094 0.421914 0.507706 0.542027 0.548455 0.569237 0.557213 0.535933 0.473970 0.540178 0.550687 0.461135 0.370827 0.426195 0.583418 0.628591 0.509656 0.485473 0.451006 0.479310 0.534767 0.561496 0.541226 0.493459 0.538354 0.571714 0.498284 0.391167 0.463112 0.601959 0.588556 0.467908 0.495006 0.554651 0.557769 0.383053 0.445882 0.565434 0.645908 0.482005 0.437968 0.500972 0.563030 0.466423 0.454802 0.518930 0.405405 0.388890 0.449775 0.613826 0.459931 0.492557 0.463216 0.593391 0.483840 0.405238 0.525423 0.502301 0.436595 0.432783 0.559436 0.591068 0.441449 0.701008 0.811109 0.630213 0.300938 0.293385 0.431119 0.358299 -0.003888 -0.198897 -0.226148
0.072396 0.073458 0.076644 0.081952 0.089379 0.098920 0.110570 0.124318 0.140151 0.158052 0.177997 0.199957 0.223893 0.249758 0.277492 0.307025 0.338270 0.371124 0.405469 0.441162 0.478043 0.515924 0.554596 0.593820 0.633331 0.672832 0.711999 0.750476 0.787876 0.823783 0.857753 0.889313 0.917970 0.943205 0.964488 0.981276 0.993021 0.999181 0.999224 0.992640 0.978954 0.957733 0.928601 0.891256 0.845479 0.791148 0.728258 0.656930 0.577426 0.490162 0.395718 0.294845 0.188473 0.077713 0.036147 0.151643 0.267151 0.380901 0.490999 0.595454 0.692216 0.779214 0.854400 0.915805 0.961594 0.990122 0.999999 0.990151 0.959878 0.908914 0.837477 0.746308 0.636703 0.510531 0.370233 0.218803 0.059750 0.102963 0.265004 0.421772 0.568532 0.700552 0.813272 0.902467 0.964437 0.996172 0.995531 0.961384 0.893746 0.793865 0.664272 0.508783 0.332441 0.141406 0.057225 0.255656 0.445671 0.618987 0.767614 0.884256 0.962702 0.998205 0.987819 0.930671 0.828154 0.684006 0.504276 0.297160 0.072696 0.157665 0.381614 0.586627 0.760682 0.893001 0.974774 0.999824 0.965153 0.871329 0.722664 0.527167 0.296237 0.044092 0.213023 0.457846 0.673258 0.843502 0.955415 0.999541 0.971042 0.870330 0.703322 0.481282 0.220224 0.060122 0.337717 0.589913 0.795324 0.935709 0.997710 0.974279 0.865619 0.679547 0.431157 0.141794 0.162631 0.453881 0.703994 0.888023 0.986644 0.988370 0.891084 0.702703 0.440828 0.131342 0.193969 0.500576 0.754868 0.927912 0.998915 0.957958 0.807611 0.563200 0.251554 0.091683 0.425975 0.710630 0.909833 0.997315 0.960097 0.800706 0.537498 0.202914 0.160238 0.504089 0.781990 0.954954 0.997373 0.901137 0.677487 0.356171 0.018137 0.391786 0.709743 0.923777 0.999998 0.924602 0.706760 0.378056 0.011650 0.401469 0.728906 0.939940 0.998229 0.891788 0.635891 0.271463 0.140998 0.531169 0.830844 0.986021 0.967030 0.774719 0.441355 0.025816 0.396406 0.746742 0.958253 0.988794 0.829948 0.509795 0.088629 0.351882 0.724315 0.952890 0.989281 0.823412 0.486799 0.047295 0.404037 0.771561 0.975457 0.969499 0.752218 0.368629 0.098324 0.545201 0.870837 0.999504 0.899117 0.590017 0.141808 0.341621 0.745773 0.972766 0.965511 0.722876 0.301609 0.196046 0.646629 0.936011 0.988708 0.788370 0.383700 0.122372 0.598234 0.917614 0.993496 0.802625 0.393607 0.124391 0.610032 0.928230 0.988092 0.769804 0.332191 0.202020 0.679871 0.961906 0.963363 0.680696 0.194770 0.351153 0.793018 0.995399 0.893712 0.516033 0.023252 0.557068 0.917036 0.986965 0.741408 0.256159 0.313807 0.783063 0.996068 0.879529 0.468951 0.100624 0.637941 0.959431 0.952495 0.616204 0.064321 0.511828 0.909100 0.984507 0.707865 0.175368 0.422361 0.867674 0.995367 0.755089 0.232793 0.378366 0.848492 0.997581 0.765530 0.238063 0.383199 0.856787 0.995386 0.741090 0.191362 0.436523 0.890358 0.984576 0.677433 0.091346 0.534099 0.939271 0.952674 0.565141 0.062798 0.665680 0.984781 0.879902 0.392813 0.267116 0.811442 0.998533 0.742064 0.152932 0.506571 0.938434 0.943990 0.517046 0.149304 0.748139 0.999607 0.782810 0.196114 0.485135 0.936513 0.939400 0.488683 0.200486 0.793420 0.998060 0.710131 0.068683 0.608635 0.981768 0.859713 0.300528 0.413551 0.916834 0.947607 0.486148 0.230349 0.827525 0.989030 0.625703 0.072545 0.733442 0.999985 0.724495 0.053135 0.648896 0.994674 0.789818 0.144320 0.583446 0.984220
1.000000 1.000000 1.000000 1.000000 1.000000 1.000000 1.000000 1.000000 1.000000 1.000000 1.000000 1.000000 1.000000 1.000000 1.000000 1.000000 1.000000 1.000000 1.000000 1.000000 -0.092048 -0.092048 -0.092048 -0.092048 -0.092048 -0.092048 -0.092048 -0.092048 -0.092048 -0.092048 -0.092048 -0.092048 -0.092048 -0.092048 -0.092048 -0.092048 -0.092048 -0.092048 -0.123437 -0.123437 -0.123437 -0.123437 -0.123437 -0.123437 -0.123437 -0.123437 -0.123437 -0.123437 -0.123437 -0.123437 -0.123437 -0.123437 -0.123437 -0.123437 -0.123437 -0.123437 -0.105225 -0.096850 -0.076266 -0.075069 -0.086402 -0.089049 -0.085568 -0.083002 -0.096068 -0.106946 -0.091889 0.178608 0.219084 0.251812 0.247632 0.238566 0.241193 0.239989 0.196022 0.158232 0.177114 0.214488 0.233321 0.234718 0.228446 0.252759 0.301562 0.313930 0.301171 0.292829 0.276610 0.267110 0.248395 0.239363 0.252014 0.252087 0.253882 0.298595 0.359500 0.357236 0.363773 0.397294 0.437835 0.433580 0.467807 0.497315 0.493342 0.491777 0.492201 0.520272 0.507955 0.508976 0.501764 0.486018 0.454828 0.426384 0.468476 0.484247 0.469581 0.471925 0.442268 0.392257 0.394322 0.393126 0.400694 0.419723 0.435998 0.477290 0.509917 0.450979 0.425242 0.408464 0.415239 0.363356 0.327114 0.325253 0.312742 0.239898 0.201854 0.185661 0.159522 0.104231 0.069133 0.061508 0.065240 -0.007885 -0.046469 -0.010232 0.064188 0.070199 0.074966 0.106345 0.109408 0.126994 0.111818 0.150436 0.193580 0.234315 0.252588 0.242728 0.247556 0.268036 0.248250 0.321664 0.418676 0.412948 0.411550 0.417347 0.430726 0.421471 0.401687 0.424144 0.465564 0.493197 0.459245 0.439573 0.529898 0.538513 0.478459 0.458238 0.428063 0.477672 0.491720 0.516253 0.546697 0.586764 0.578929 0.575778 0.592347 0.525774 0.517044 0.507963 0.526033 0.517080 0.459493 0.450070 0.470091 0.461010 0.440643 0.467226 0.439703 0.393642 0.364915 0.358666 0.349489 0.260056 0.241114 0.228158 0.159037 0.113875 0.105366 0.072774 0.028233 0.036383 0.006435 0.003990 0.013666 0.010338 -0.022469 -0.030494 -0.063312 -0.082085 -0.111428 -0.138525 -0.169514 -0.161416 -0.186682 -0.233370 -0.265031 -0.284929 -0.362374 -0.379133 -0.432120 -0.426333 -0.440410 -0.432879 -0.404069 -0.421730 -0.316144 -0.361780 -0.425112 -0.437496 -0.452909 -0.461967 -0.466394 -0.455670 -0.502822 -0.498612 -0.497131 -0.522935 -0.520108 -0.483618 -0.462086 -0.491975 -0.450141 -0.444245 -0.427653 -0.433939 -0.419060 -0.423157 -0.382490 -0.324432 -0.303483 -0.234925 -0.199136 -0.140242 -0.138504 -0.154988 -0.138425 -0.126107 -0.113780 -0.124551 -0.099243 -0.193549 -0.157515 -0.142329 -0.121579 -0.088452 -0.073353 -0.148793 -0.113379 -0.125032 -0.138484 -0.138491 -0.055711 -0.020126 -0.006481 0.023451 0.048015 0.092684 0.059164 0.101722 0.123605 0.099515 0.109372 0.180139 0.178882 0.216266 0.200895 0.218018 0.254574 0.272289 0.296501 0.356043 0.372295 0.368932 0.389980 0.438592 0.428118 0.438392 0.427120 0.441024 0.384946 0.386597 0.357145 0.305725 0.305615 0.258032 0.257102 0.435322 0.467412 0.384265 0.363103 0.250896 0.264433 0.299237 0.274137 0.265738 0.284426 0.282463 0.316126 0.305132 0.321483 0.215158 0.216246 0.219514 0.235319 0.226852 0.249924 0.239071 0.276751 0.268582 0.268582 0.268582 0.268582 0.268582 0.219002 0.219002 0.219002 0.219002 0.204011 0.204011 0.204011 0.204011 0.204011 0.204011 0.204011 0.204011 0.291077 0.291077 0.291077 0.291077 0.291077 0.291077 0.291077 0.291077 0.291077
0.000000 0.000000 0.000000 0.000000 0.000000 0.000000 0.000000 0.000000 0.000000 0.000000 0.000000 0.000000 0.000000 0.000000 0.000000 0.000000 0.000000 0.000000 0.000000 0.000000 0.216930 0.216930 0.216930 0.216930 0.216930 0.216930 0.216930 0.216930 0.216930 0.216930 0.216930 0.216930 0.216930 0.216930 0.216930 0.216930 0.216930 0.216930 0.234082 0.234082 0.234082 0.234082 0.234082 0.234082 0.234082 0.234082 0.234082 0.234082 0.234082 0.234082 0.234082 0.234082 0.234082 0.234082 0.234082 0.234082 0.234082 0.234082 0.234082 0.234082 0.234082 0.234082 0.234082 0.234082 0.234082 0.234082 0.234082 0.274721 0.274721 0.274721 0.274721 0.274721 0.274721 0.274721 0.274721 0.274721 0.274721 0.274721 0.274721 0.274721 0.274721 0.274721 0.274721 0.274721 0.274721 0.274721 0.291730 0.291730 0.291730 0.291730 0.291730 0.291730 0.291730 0.291730 0.291730 0.291730 0.291730 0.291730 0.291730 0.291730 0.291730 0.291730 0.304997 0.304997 0.304997 0.304997 0.304997 0.304997 0.304997 0.304997 0.304997 0.304997 0.304997 0.304997 0.304997 0.298142 0.298142 0.298142 0.298142 0.298142 0.298142 0.298142 0.298142 0.298142 0.298142 0.298142 0.298142 0.298142 0.312348 0.312348 0.312348 0.312348 0.312348 0.312348 0.312348 0.312348 0.312348 0.312348 0.312348 0.320256 0.320256 0.320256 0.320256 0.320256 0.320256 0.320256 0.320256 0.320256 0.320256 0.312348 0.312348 0.312348 0.312348 0.312348 0.312348 0.312348 0.312348 0.312348 0.312348 0.312348 0.312348 0.312348 0.312348 0.312348 0.312348 0.312348 0.312348 0.312348 0.328798 0.328798 0.328798 0.328798 0.328798 0.328798 0.328798 0.328798 0.298142 0.298142 0.298142 0.298142 0.298142 0.298142 0.298142 0.298142 0.298142 0.328798 0.328798 0.328798 0.328798 0.328798 0.328798 0.328798 0.304997 0.304997 0.304997 0.304997 0.304997 0.304997 0.304997 0.304997 0.312348 0.312348 0.312348 0.312348 0.312348 0.312348 0.312348 0.312348 0.312348 0.312348 0.312348 0.312348 0.312348 0.312348 0.304997 0.304997 0.304997 0.304997 0.304997 0.304997 0.304997 0.298142 0.298142 0.298142 0.298142 0.298142 0.298142 0.298142 0.312348 0.312348 0.312348 0.312348 0.312348 0.312348 0.304997 0.304997 0.304997 0.304997 0.304997 0.304997 0.304997 0.304997 0.304997 0.304997 0.304997 0.304997 0.298142 0.298142 0.298142 0.298142 0.298142 0.298142 0.291730 0.291730 0.291730 0.291730 0.291730 0.291730 0.291730 0.291730 0.291730 0.291730 0.291730 0.291730 0.304997 0.304997 0.304997 0.304997 0.304997 0.280056 0.280056 0.280056 0.280056 0.280056 0.280056 0.298142 0.298142 0.298142 0.298142 0.298142 0.298142 0.298142 0.298142 0.298142 0.298142 0.291730 0.291730 0.291730 0.291730 0.291730 0.285714 0.285714 0.285714 0.285714 0.285714 0.285714 0.285714 0.285714 0.285714 0.285714 0.280056 0.280056 0.280056 0.280056 0.280056 0.280056 0.280056 0.280056 0.280056 0.280056 0.274721 0.274721 0.274721 0.274721 0.274721 0.298142 0.298142 0.298142 0.298142 0.269680 0.269680 0.269680 0.269680 0.269680 0.264906 0.264906 0.264906 0.264906 0.264906 0.285714 0.285714 0.285714 0.285714 0.285714 0.285714 0.285714 0.285714 0.256074 0.256074 0.256074 0.256074 0.256074 0.280056 0.280056 0.280056 0.280056 0.274721 0.274721 0.274721 0.274721 0.274721 0.274721 0.274721 0.274721 0.248069 0.248069 0.248069 0.248069 0.248069 0.248069 0.248069 0.248069 0.248069
