# Output from CTFFind version 4.1.9, run on 2019-11-24 12:06:12
# Input file: stack1_ubbm3d_averaged_1_1.0_0_1500_half.mrc ; Number of micrographs: 1
# Pixel size: 1.500 Angstroms ; acceleration voltage: 300.0 keV ; spherical aberration: 0.00 mm ; amplitude contrast: 0.07
# Box size: 512 pixels ; min. res.: 40.0 Angstroms ; max. res.: 6.0 Angstroms ; min. def.: 5000.0 um; max. def. 50000.0 um; num. frames averaged: 1
# 6 lines per micrograph: #1 - spatial frequency (1/Angstroms); #2 - 1D rotational average of spectrum (assuming no astigmatism); #3 - 1D rotational average of spectrum; #4 - CTF fit; #5 - cross-correlation between spectrum and CTF fit; #6 - 2sigma of expected cross correlation of noise
0.000000 0.001302 0.002604 0.003906 0.005208 0.006510 0.007812 0.009115 0.010417 0.011719 0.013021 0.014323 0.015625 0.016927 0.018229 0.019531 0.020833 0.022135 0.023438 0.024740 0.026042 0.027344 0.028646 0.029948 0.031250 0.032552 0.033854 0.035156 0.036458 0.037760 0.039062 0.040365 0.041667 0.042969 0.044271 0.045573 0.046875 0.048177 0.049479 0.050781 0.052083 0.053385 0.054688 0.055990 0.057292 0.058594 0.059896 0.061198 0.062500 0.063802 0.065104 0.066406 0.067708 0.069010 0.070312 0.071615 0.072917 0.074219 0.075521 0.076823 0.078125 0.079427 0.080729 0.082031 0.083333 0.084635 0.085938 0.087240 0.088542 0.089844 0.091146 0.092448 0.093750 0.095052 0.096354 0.097656 0.098958 0.100260 0.101562 0.102865 0.104167 0.105469 0.106771 0.108073 0.109375 0.110677 0.111979 0.113281 0.114583 0.115885 0.117188 0.118490 0.119792 0.121094 0.122396 0.123698 0.125000 0.126302 0.127604 0.128906 0.130208 0.131510 0.132812 0.134115 0.135417 0.136719 0.138021 0.139323 0.140625 0.141927 0.143229 0.144531 0.145833 0.147135 0.148438 0.149740 0.151042 0.152344 0.153646 0.154948 0.156250 0.157552 0.158854 0.160156 0.161458 0.162760 0.164062 0.165365 0.166667 0.167969 0.169271 0.170573 0.171875 0.173177 0.174479 0.175781 0.177083 0.178385 0.179688 0.180990 0.182292 0.183594 0.184896 0.186198 0.187500 0.188802 0.190104 0.191406 0.192708 0.194010 0.195312 0.196615 0.197917 0.199219 0.200521 0.201823 0.203125 0.204427 0.205729 0.207031 0.208333 0.209635 0.210938 0.212240 0.213542 0.214844 0.216146 0.217448 0.218750 0.220052 0.221354 0.222656 0.223958 0.225260 0.226562 0.227865 0.229167 0.230469 0.231771 0.233073 0.234375 0.235677 0.236979 0.238281 0.239583 0.240885 0.242188 0.243490 0.244792 0.246094 0.247396 0.248698 0.250000 0.251302 0.252604 0.253906 0.255208 0.256510 0.257812 0.259115 0.260417 0.261719 0.263021 0.264323 0.265625 0.266927 0.268229 0.269531 0.270833 0.272135 0.273438 0.274740 0.276042 0.277344 0.278646 0.279948 0.281250 0.282552 0.283854 0.285156 0.286458 0.287760 0.289062 0.290365 0.291667 0.292969 0.294271 0.295573 0.296875 0.298177 0.299479 0.300781 0.302083 0.303385 0.304688 0.305990 0.307292 0.308594 0.309896 0.311198 0.312500 0.313802 0.315104 0.316406 0.317708 0.319010 0.320312 0.321615 0.322917 0.324219 0.325521 0.326823 0.328125 0.329427 0.330729 0.332031 0.333333 0.334635 0.335938 0.337240 0.338542 0.339844 0.341146 0.342448 0.343750 0.345052 0.346354 0.347656 0.348958 0.350260 0.351562 0.352865 0.354167 0.355469 0.356771 0.358073 0.359375 0.360677 0.361979 0.363281 0.364583 0.365885 0.367188 0.368490 0.369792 0.371094 0.372396 0.373698 0.375000 0.376302 0.377604 0.378906 0.380208 0.381510 0.382812 0.384115 0.385417 0.386719 0.388021 0.389323 0.390625 0.391927 0.393229 0.394531 0.395833 0.397135 0.398438 0.399740 0.401042 0.402344 0.403646 0.404948 0.406250 0.407552 0.408854 0.410156 0.411458 0.412760 0.414062 0.415365 0.416667 0.417969 0.419271 0.420573 0.421875 0.423177 0.424479 0.425781 0.427083 0.428385 0.429688 0.430990 0.432292 0.433594 0.434896 0.436198 0.437500 0.438802 0.440104 0.441406 0.442708 0.444010 0.445312 0.446615 0.447917 0.449219 0.450521 0.451823 0.453125 0.454427 0.455729 0.457031 0.458333 0.459635 0.460938 0.462240 0.463542 0.464844 0.466146 0.467448 0.468750 0.470052 0.471354
       0.56302        0.56302        0.56302        0.56302        0.56302        0.56302        0.56302        0.56302        0.56302        0.56302        0.56302        0.56302        0.56302        0.56302        0.56302        0.56302        0.56302        0.56302        0.56302        1.43768        2.18716        1.00793        0.18652        0.03434        0.59205        1.19920        1.11865        0.60407        0.29257        0.27203        0.30284        0.29038        0.30059        0.31140        0.23490        0.21503        0.17135        0.08175       -0.04144       -0.07539       -0.02397        0.11216        0.35153        0.56971        0.67064        0.67328        0.70151        0.81196        0.95659        1.03378        0.89891        0.56672        0.29709        0.29929        0.45467        0.46223        0.31443        0.21946        0.30165        0.45686        0.61392        0.70693        0.78337        0.80157        0.77329        0.70315        0.61928        0.57723        0.51322        0.45854        0.47273        0.58894        0.69026        0.62009        0.50242        0.47603        0.52397        0.52425        0.49294        0.52052        0.61404        0.61073        0.53813        0.45658        0.50217        0.59744        0.66118        0.63495        0.53656        0.42406        0.38054        0.44546        0.52344        0.54070        0.48770        0.49302        0.58735        0.68884        0.68390        0.61480        0.58651        0.61670        0.65701        0.64803        0.60822        0.58576        0.55477        0.52251        0.45373        0.39527        0.39575        0.45956        0.52176        0.56649        0.60947        0.66533        0.67864        0.65841        0.61272        0.54499        0.45588        0.43150        0.54142        0.69871        0.74284        0.66539        0.57150        0.53301        0.52323        0.52600        0.56370        0.59688        0.55235        0.46005        0.41146        0.45838        0.52427        0.53320        0.53786        0.58733        0.64547        0.65012        0.62741        0.62131        0.63305        0.60862        0.57341        0.55366        0.55963        0.54192        0.52269        0.54736        0.59667        0.59749        0.50321        0.40139        0.39843        0.50073        0.60989        0.63265        0.60161        0.57115        0.53529        0.50907        0.54531        0.63184        0.68368        0.65977        0.59210        0.56180        0.53370        0.54607        0.58136        0.62516        0.62616        0.59216        0.58601        0.59142        0.54229        0.48466        0.49643        0.56682        0.63470        0.62712        0.55422        0.46614        0.43388        0.48404        0.56831        0.60046        0.57487        0.53689        0.52487        0.53624        0.55683        0.57401        0.58446        0.58256        0.61248        0.64664        0.63292        0.56094        0.51410        0.54485        0.61747        0.62195        0.54375        0.46651        0.47913        0.56666        0.62992        0.63198        0.61230        0.59140        0.56889        0.55145        0.57029        0.59378        0.57612        0.53027        0.50243        0.52464        0.57252        0.61561        0.60414        0.53795        0.47815        0.50429        0.57302        0.60974        0.58289        0.54775        0.51968        0.50415        0.53163        0.59819        0.63196        0.61769        0.58043        0.55808        0.53279        0.51993        0.54381        0.58016        0.58555        0.57018        0.57728        0.59186        0.59061        0.59791        0.61753        0.61670        0.56263        0.50185        0.47559        0.49356        0.53382        0.55795        0.57198        0.59263        0.60298        0.58841        0.55412        0.53634        0.56070        0.59814        0.57109        0.51441        0.49562        0.52970        0.55244        0.53782        0.51428        0.53138        0.56646        0.58556        0.58239        0.56169        0.58306        0.61936        0.61872        0.57136        0.56027        0.55458        0.53945        0.52034        0.53312        0.56496        0.52059        0.47383        0.50520        0.60389        0.62792        0.57460        0.52227        0.52409        0.52964        0.53153        0.56217        0.55775        0.50631        0.47285        0.54007        0.64797        0.67567        0.62321        0.56750        0.55578        0.59266        0.60327        0.57351        0.52198        0.53545        0.58651        0.61035        0.53047        0.43541        0.48841        0.61353        0.60827        0.50583        0.52248        0.61182        0.61827        0.55541        0.58607        0.66041        0.58860        0.44418        0.44637        0.59019        0.61163        0.50455        0.50728        0.58217        0.58949        0.48904        0.51435        0.60175        0.59625        0.53588        0.55902        0.61155        0.61889        0.59013        0.57420        0.48775        0.38503        0.36874        0.44101        0.50767        0.57406        0.63263        0.64486        0.58312        0.50314        0.51521        0.57531        0.58467        0.40639        0.09729       -0.10863       -0.19263
0.013843 -18.599425 -18.011458 -17.429731 -16.854240 -16.284991 -15.721976 -15.165192 -14.614654 -14.070347 -13.532280 -13.000449 -12.474854 -11.955494 -11.442375 -10.935486 -10.434838 -9.940431 -9.452254 78.564760 153.230917 53.007259 -45.625987 -69.502752 -13.748444 66.130308 47.859112 -2.934592 -26.668837 -30.446439 -37.365510 -30.879340 -22.680718 -29.174817 -31.682590 -36.417934 -40.593707 -47.055577 -60.469343 -57.969535 -56.464371 -46.567829 -25.594472 5.884495 11.422568 9.314436 15.721327 21.409297 40.411572 46.730782 44.582100 3.118568 -19.733341 -23.010317 -1.813758 -8.965159 -15.861556 -36.227478 -23.327752 -2.122709 8.811877 19.721049 26.233232 28.532469 28.878515 16.758989 17.625194 6.521817 0.658093 -0.473735 -4.697274 12.314659 17.580671 18.458539 4.103038 -0.861025 3.719137 0.987734 0.784411 4.982481 10.856311 14.431093 10.106915 -2.616897 1.244825 6.669898 21.251458 17.531829 8.019483 -2.668976 -8.209121 -3.190575 4.217607 8.778831 0.173071 0.934463 9.010690 21.051602 22.683978 19.102814 9.710545 14.093301 20.247297 18.541371 15.079925 13.275486 10.635842 9.639368 1.467807 -6.545778 -7.730350 -2.218521 4.027946 9.373628 13.665676 16.853530 22.228485 21.422116 18.106719 11.389050 1.716488 -5.377374 3.238518 18.028699 28.299960 22.834548 12.809803 4.453391 2.280708 0.676928 4.049286 7.031909 6.550433 -2.163348 -9.171336 -7.789356 -2.595482 4.077467 -1.513803 0.722104 8.611265 10.838551 7.888827 6.499391 5.604727 6.988375 3.350733 -0.504455 -2.436271 -3.204264 -7.755302 -5.849809 -0.719319 2.422863 -5.991884 -15.046606 -20.980494 -13.468392 -2.336563 5.858517 2.860407 3.539215 -1.231891 -5.384594 -5.358882 3.926614 9.225497 11.397811 11.931672 6.576821 0.541510 2.196671 3.056554 10.937465 11.308388 9.050314 6.304142 9.666479 4.980944 -0.272122 -3.689944 2.639369 9.054358 12.049931 5.063621 -1.660555 -8.836702 -5.752667 0.844710 7.864542 6.455538 2.401291 -1.211658 -0.235336 3.511811 2.341282 4.066230 5.799532 6.128742 8.963666 10.608020 4.159315 -1.999874 -4.820044 2.171595 6.692191 2.059858 -4.326756 -9.463157 -4.616916 2.187871 6.330261 5.821637 3.107338 0.262943 -1.668129 -2.783728 -0.857440 0.986665 -3.299447 -6.412981 -11.037680 -7.615596 -2.148775 -0.091518 -4.473959 -9.765872 -12.654847 -11.318150 -2.074557 1.143828 -5.066053 -8.510052 -9.440771 -11.970281 -7.030251 1.215549 0.488262 -0.488700 -4.469997 -3.773232 -4.665137 -5.475270 -1.548295 0.730223 0.856029 2.074693 3.797993 4.229317 3.390397 6.432516 7.458001 4.255381 -2.275065 -4.979553 -7.484654 -3.997000 1.423268 -0.015767 2.381782 3.660652 5.355832 3.400098 -2.127491 -1.571888 1.060745 3.917968 -1.026093 -5.531045 -8.835924 -3.143594 -4.447689 -5.974805 -5.053770 -2.772823 2.030368 2.080483 1.707553 0.441473 2.837695 5.536440 4.128282 0.080668 -1.539987 -0.397598 -5.154034 -5.842965 -3.941099 -1.560637 -7.048568 -8.602121 -1.618072 7.114376 9.172775 0.668148 -3.543118 -1.458676 -1.166469 -0.677702 3.929427 -2.136454 -3.892594 -7.915882 -0.702687 13.879848 16.130631 6.286004 6.533239 6.277537 6.775882 11.721622 5.343353 4.145501 2.668711 7.588691 7.744188 -1.927098 -9.015859 -0.683999 15.423319 8.068291 0.993967 0.828477 13.829569 10.704753 0.207388 10.408395 12.030741 -1.383301 -13.709813 -12.878545 2.644684 4.667313 -9.569129 -13.035047 3.585318 -3.624751 -11.043219 -3.885656 5.651125 0.366632 1.199385 1.414241 1.134696 2.180831 7.021259 4.637425 -3.291193 -12.451612 -13.366134 -7.886734 2.202547 4.031197 13.085772 13.110603 8.552701 2.383268 4.343762 55.558700 57.660734 40.107715 9.625234 -18.624344
0.072396 0.073459 0.076646 0.081957 0.089387 0.098934 0.110589 0.124344 0.140185 0.158095 0.178050 0.200021 0.223969 0.249846 0.277594 0.307140 0.338400 0.371269 0.405629 0.441337 0.478232 0.516128 0.554814 0.594050 0.633571 0.673082 0.712255 0.750736 0.788136 0.824040 0.858002 0.889550 0.918189 0.943400 0.964653 0.981403 0.993104 0.999211 0.999193 0.992541 0.978777 0.957471 0.928248 0.890803 0.844920 0.790479 0.727475 0.656030 0.576410 0.489032 0.394478 0.293503 0.187040 0.076201 0.037719 0.153256 0.268782 0.382522 0.492580 0.596962 0.693617 0.780470 0.855476 0.916664 0.962199 0.990439 0.999999 0.989809 0.959175 0.907840 0.836029 0.744494 0.634542 0.508055 0.367486 0.215840 0.056638 0.106146 0.268169 0.424824 0.571370 0.703075 0.815378 0.904063 0.965436 0.996506 0.995146 0.960252 0.891864 0.791258 0.660998 0.504930 0.328130 0.136784 0.061986 0.260361 0.450118 0.622968 0.770926 0.886714 0.964148 0.998519 0.986929 0.928561 0.824868 0.679653 0.499030 0.291254 0.066416 0.163994 0.387642 0.592000 0.765060 0.896081 0.976315 0.999664 0.963227 0.867679 0.717449 0.520658 0.288804 0.036196 0.220865 0.465092 0.679371 0.848001 0.957910 0.999767 0.968891 0.865872 0.696808 0.473141 0.211042 0.069650 0.346823 0.597828 0.801336 0.939235 0.998353 0.971875 0.860274 0.671636 0.421312 0.130859 0.173664 0.463964 0.712119 0.893325 0.988501 0.986477 0.885507 0.693894 0.429601 0.118807 0.206510 0.511760 0.763418 0.932789 0.999452 0.953954 0.799386 0.551585 0.237819 0.105952 0.439063 0.720892 0.915904 0.998304 0.955726 0.791377 0.524280 0.187434 0.175979 0.517976 0.792071 0.959730 0.996023 0.893679 0.664810 0.339961 0.035617 0.407991 0.722225 0.930547 0.999870 0.917408 0.693428 0.360515 0.030723 0.419051 0.742107 0.946479 0.996848 0.882513 0.620083 0.251651 0.161496 0.548802 0.842433 0.989357 0.961308 0.760746 0.421489 0.003576 0.416929 0.761635 0.964550 0.985078 0.816696 0.489370 0.064899 0.374270 0.740825 0.960032 0.985369 0.809001 0.464648 0.021897 0.427364 0.787769 0.980876 0.962701 0.734425 0.343550 0.125234 0.567901 0.884057 0.999993 0.886482 0.566931 0.113490 0.368543 0.764808 0.979139 0.957396 0.701961 0.272817 0.225679 0.669646 0.946416 0.983573 0.768700 0.354324 0.153937 0.623668 0.930009 0.989248 0.782552 0.362873 0.157518 0.636413 0.940340 0.982238 0.747295 0.299146 0.236260 0.705384 0.971039 0.953108 0.653730 0.158856 0.385332 0.815039 0.998281 0.876209 0.483204 0.061401 0.588600 0.931803 0.979928 0.714438 0.217649 0.351462 0.807443 0.998839 0.859379 0.432252 0.141728 0.669502 0.970426 0.938760 0.582089 0.021441 0.548476 0.926368 0.975875 0.676005 0.131442 0.462504 0.889193 0.989980 0.724344 0.187806 0.420833 0.872249 0.993217 0.734256 0.191565 0.427012 0.880665 0.989553 0.707382 0.142827 0.480551 0.911950 0.974554 0.639410 0.040597 0.576672 0.955700 0.935633 0.521320 0.115120 0.704192 0.992631 0.853204 0.342705 0.318964 0.842116 0.994055 0.703903 0.097760 0.554003 0.956390 0.923790 0.467430 0.205750 0.785169 0.999549 0.745144 0.138173 0.535967 0.955704 0.917211 0.435290 0.259422 0.829015 0.992372 0.665390 0.006710 0.656924 0.991757 0.825775 0.239392 0.470824 0.940574 0.925004 0.428371 0.293422 0.862617 0.977110 0.572486 0.139037 0.777470 0.997329 0.675968 0.015245 0.699658 0.999419 0.745275 0.074810 0.639086 0.994264
1.000000 1.000000 1.000000 1.000000 1.000000 1.000000 1.000000 1.000000 1.000000 1.000000 1.000000 1.000000 1.000000 1.000000 1.000000 1.000000 1.000000 1.000000 1.000000 1.000000 -0.033450 -0.033450 -0.033450 -0.033450 -0.033450 -0.033450 -0.033450 -0.033450 -0.033450 -0.033450 -0.033450 -0.033450 -0.033450 -0.033450 -0.033450 -0.033450 -0.033450 -0.033450 -0.111429 -0.111429 -0.111429 -0.111429 -0.111429 -0.111429 -0.111429 -0.111429 -0.111429 -0.111429 -0.111429 -0.111429 -0.111429 -0.111429 -0.111429 -0.111429 -0.109213 -0.076640 -0.056857 -0.053743 -0.068350 -0.095233 -0.085218 -0.065346 -0.060435 -0.058009 -0.044837 -0.028152 0.084773 0.143011 0.208254 0.246997 0.259334 0.262063 0.257622 0.245436 0.245934 0.264185 0.283194 0.302184 0.321928 0.334592 0.355321 0.390160 0.411092 0.422354 0.413450 0.402738 0.372944 0.373705 0.356294 0.343107 0.335706 0.325826 0.354523 0.402818 0.467145 0.466184 0.471232 0.503847 0.546551 0.542383 0.546368 0.561923 0.588632 0.587484 0.588514 0.617799 0.655997 0.649626 0.630873 0.619891 0.585059 0.548154 0.592473 0.602651 0.587001 0.581445 0.551711 0.511341 0.498013 0.485613 0.478529 0.452631 0.435433 0.433446 0.423686 0.366194 0.357112 0.354918 0.325053 0.270572 0.259040 0.238263 0.220914 0.151944 0.128362 0.138911 0.097063 0.040188 -0.016135 -0.028222 -0.037485 -0.142971 -0.195853 -0.147400 -0.055279 -0.041080 -0.035506 -0.024202 0.009787 0.022419 0.036281 0.075842 0.128665 0.176724 0.181044 0.177435 0.190144 0.214231 0.196195 0.277576 0.377173 0.369620 0.375581 0.411922 0.447573 0.452416 0.449041 0.464417 0.460796 0.476341 0.454543 0.454097 0.551434 0.570168 0.497560 0.493792 0.482637 0.462465 0.481394 0.479892 0.491575 0.512148 0.502994 0.476260 0.516163 0.512732 0.515303 0.471836 0.414116 0.406483 0.366372 0.330343 0.357033 0.319693 0.268609 0.286958 0.285401 0.247122 0.209557 0.156693 0.142282 0.038821 0.032167 0.005015 -0.081714 -0.099696 -0.108859 -0.140981 -0.183437 -0.196791 -0.228413 -0.236859 -0.239752 -0.231926 -0.259407 -0.272685 -0.296393 -0.299080 -0.269981 -0.270694 -0.302501 -0.270891 -0.295557 -0.356976 -0.382069 -0.399633 -0.486424 -0.446482 -0.526918 -0.476627 -0.469844 -0.411370 -0.361707 -0.381587 -0.295979 -0.349106 -0.378731 -0.391010 -0.415133 -0.446102 -0.450922 -0.434818 -0.444209 -0.436583 -0.435853 -0.459357 -0.460888 -0.445141 -0.424475 -0.433249 -0.413974 -0.390024 -0.377386 -0.386687 -0.380109 -0.378250 -0.370259 -0.315583 -0.295161 -0.245546 -0.207841 -0.152084 -0.169912 -0.188148 -0.213648 -0.204179 -0.195568 -0.190879 -0.173342 -0.253869 -0.278108 -0.265794 -0.234205 -0.232119 -0.209391 -0.338653 -0.336868 -0.330953 -0.378154 -0.378613 -0.291869 -0.269303 -0.238256 -0.195848 -0.172603 -0.101492 -0.105247 -0.046298 -0.022283 0.013286 0.026468 0.093796 0.095644 0.136549 0.155559 0.176517 0.201003 0.241713 0.239896 0.298625 0.317478 0.271363 0.299861 0.343582 0.330078 0.354001 0.329729 0.350323 0.324788 0.332362 0.293491 0.245108 0.263004 0.206565 0.208227 0.398329 0.430829 0.330881 0.374210 0.285194 0.321570 0.362256 0.328447 0.358000 0.371187 0.390135 0.338830 0.338279 0.343569 0.336861 0.338694 0.316902 0.317656 0.262564 0.265257 0.248222 0.244754 0.289112 0.289112 0.289112 0.289112 0.289112 0.196586 0.196586 0.196586 0.196586 0.215005 0.215005 0.215005 0.215005 0.215005 0.215005 0.215005 0.215005 0.294916 0.294916 0.294916 0.294916 0.294916 0.294916 0.294916 0.294916 0.294916
0.000000 0.000000 0.000000 0.000000 0.000000 0.000000 0.000000 0.000000 0.000000 0.000000 0.000000 0.000000 0.000000 0.000000 0.000000 0.000000 0.000000 0.000000 0.000000 0.000000 0.216930 0.216930 0.216930 0.216930 0.216930 0.216930 0.216930 0.216930 0.216930 0.216930 0.216930 0.216930 0.216930 0.216930 0.216930 0.216930 0.216930 0.216930 0.240772 0.240772 0.240772 0.240772 0.240772 0.240772 0.240772 0.240772 0.240772 0.240772 0.240772 0.240772 0.240772 0.240772 0.240772 0.240772 0.240772 0.240772 0.240772 0.240772 0.240772 0.240772 0.240772 0.240772 0.240772 0.240772 0.240772 0.240772 0.269680 0.269680 0.269680 0.269680 0.269680 0.269680 0.269680 0.269680 0.269680 0.269680 0.269680 0.269680 0.269680 0.269680 0.269680 0.269680 0.269680 0.269680 0.269680 0.269680 0.291730 0.291730 0.291730 0.291730 0.291730 0.291730 0.291730 0.291730 0.291730 0.291730 0.291730 0.291730 0.291730 0.291730 0.291730 0.291730 0.304997 0.304997 0.304997 0.304997 0.304997 0.304997 0.304997 0.304997 0.304997 0.304997 0.304997 0.304997 0.304997 0.298142 0.298142 0.298142 0.298142 0.298142 0.298142 0.298142 0.298142 0.298142 0.298142 0.298142 0.298142 0.298142 0.312348 0.312348 0.312348 0.312348 0.312348 0.312348 0.312348 0.312348 0.312348 0.312348 0.312348 0.320256 0.320256 0.320256 0.320256 0.320256 0.320256 0.320256 0.320256 0.320256 0.320256 0.312348 0.312348 0.312348 0.312348 0.312348 0.312348 0.312348 0.312348 0.312348 0.312348 0.312348 0.312348 0.312348 0.312348 0.312348 0.312348 0.312348 0.312348 0.312348 0.328798 0.328798 0.328798 0.328798 0.328798 0.328798 0.328798 0.328798 0.320256 0.320256 0.320256 0.320256 0.320256 0.320256 0.320256 0.320256 0.312348 0.312348 0.312348 0.312348 0.312348 0.312348 0.312348 0.312348 0.304997 0.304997 0.304997 0.304997 0.304997 0.304997 0.304997 0.304997 0.312348 0.312348 0.312348 0.312348 0.312348 0.312348 0.312348 0.312348 0.312348 0.312348 0.312348 0.312348 0.312348 0.312348 0.304997 0.304997 0.304997 0.304997 0.304997 0.304997 0.304997 0.298142 0.298142 0.298142 0.298142 0.298142 0.298142 0.298142 0.312348 0.312348 0.312348 0.312348 0.312348 0.312348 0.304997 0.304997 0.304997 0.304997 0.304997 0.304997 0.304997 0.304997 0.304997 0.304997 0.304997 0.304997 0.298142 0.298142 0.298142 0.298142 0.298142 0.298142 0.291730 0.291730 0.291730 0.291730 0.291730 0.291730 0.291730 0.291730 0.291730 0.291730 0.291730 0.291730 0.304997 0.304997 0.304997 0.304997 0.304997 0.280056 0.280056 0.280056 0.280056 0.280056 0.280056 0.298142 0.298142 0.298142 0.298142 0.298142 0.298142 0.298142 0.298142 0.298142 0.298142 0.291730 0.291730 0.291730 0.291730 0.291730 0.285714 0.285714 0.285714 0.285714 0.285714 0.285714 0.285714 0.285714 0.285714 0.285714 0.280056 0.280056 0.280056 0.280056 0.280056 0.280056 0.280056 0.280056 0.280056 0.280056 0.274721 0.274721 0.274721 0.274721 0.274721 0.298142 0.298142 0.298142 0.298142 0.269680 0.269680 0.269680 0.269680 0.269680 0.291730 0.291730 0.291730 0.291730 0.264906 0.264906 0.264906 0.264906 0.264906 0.285714 0.285714 0.285714 0.285714 0.256074 0.256074 0.256074 0.256074 0.256074 0.280056 0.280056 0.280056 0.280056 0.274721 0.274721 0.274721 0.274721 0.274721 0.274721 0.274721 0.274721 0.248069 0.248069 0.248069 0.248069 0.248069 0.248069 0.248069 0.248069 0.248069
