# Output from CTFFind version 4.1.9, run on 2019-11-24 12:06:05
# Input file: stack1_ubbm3d_averaged_1_4.0_0_0_half.mrc ; Number of micrographs: 1
# Pixel size: 1.500 Angstroms ; acceleration voltage: 300.0 keV ; spherical aberration: 0.00 mm ; amplitude contrast: 0.07
# Box size: 512 pixels ; min. res.: 40.0 Angstroms ; max. res.: 6.0 Angstroms ; min. def.: 5000.0 um; max. def. 50000.0 um; num. frames averaged: 1
# 6 lines per micrograph: #1 - spatial frequency (1/Angstroms); #2 - 1D rotational average of spectrum (assuming no astigmatism); #3 - 1D rotational average of spectrum; #4 - CTF fit; #5 - cross-correlation between spectrum and CTF fit; #6 - 2sigma of expected cross correlation of noise
0.000000 0.001302 0.002604 0.003906 0.005208 0.006510 0.007812 0.009115 0.010417 0.011719 0.013021 0.014323 0.015625 0.016927 0.018229 0.019531 0.020833 0.022135 0.023438 0.024740 0.026042 0.027344 0.028646 0.029948 0.031250 0.032552 0.033854 0.035156 0.036458 0.037760 0.039062 0.040365 0.041667 0.042969 0.044271 0.045573 0.046875 0.048177 0.049479 0.050781 0.052083 0.053385 0.054688 0.055990 0.057292 0.058594 0.059896 0.061198 0.062500 0.063802 0.065104 0.066406 0.067708 0.069010 0.070312 0.071615 0.072917 0.074219 0.075521 0.076823 0.078125 0.079427 0.080729 0.082031 0.083333 0.084635 0.085938 0.087240 0.088542 0.089844 0.091146 0.092448 0.093750 0.095052 0.096354 0.097656 0.098958 0.100260 0.101562 0.102865 0.104167 0.105469 0.106771 0.108073 0.109375 0.110677 0.111979 0.113281 0.114583 0.115885 0.117188 0.118490 0.119792 0.121094 0.122396 0.123698 0.125000 0.126302 0.127604 0.128906 0.130208 0.131510 0.132812 0.134115 0.135417 0.136719 0.138021 0.139323 0.140625 0.141927 0.143229 0.144531 0.145833 0.147135 0.148438 0.149740 0.151042 0.152344 0.153646 0.154948 0.156250 0.157552 0.158854 0.160156 0.161458 0.162760 0.164062 0.165365 0.166667 0.167969 0.169271 0.170573 0.171875 0.173177 0.174479 0.175781 0.177083 0.178385 0.179688 0.180990 0.182292 0.183594 0.184896 0.186198 0.187500 0.188802 0.190104 0.191406 0.192708 0.194010 0.195312 0.196615 0.197917 0.199219 0.200521 0.201823 0.203125 0.204427 0.205729 0.207031 0.208333 0.209635 0.210938 0.212240 0.213542 0.214844 0.216146 0.217448 0.218750 0.220052 0.221354 0.222656 0.223958 0.225260 0.226562 0.227865 0.229167 0.230469 0.231771 0.233073 0.234375 0.235677 0.236979 0.238281 0.239583 0.240885 0.242188 0.243490 0.244792 0.246094 0.247396 0.248698 0.250000 0.251302 0.252604 0.253906 0.255208 0.256510 0.257812 0.259115 0.260417 0.261719 0.263021 0.264323 0.265625 0.266927 0.268229 0.269531 0.270833 0.272135 0.273438 0.274740 0.276042 0.277344 0.278646 0.279948 0.281250 0.282552 0.283854 0.285156 0.286458 0.287760 0.289062 0.290365 0.291667 0.292969 0.294271 0.295573 0.296875 0.298177 0.299479 0.300781 0.302083 0.303385 0.304688 0.305990 0.307292 0.308594 0.309896 0.311198 0.312500 0.313802 0.315104 0.316406 0.317708 0.319010 0.320312 0.321615 0.322917 0.324219 0.325521 0.326823 0.328125 0.329427 0.330729 0.332031 0.333333 0.334635 0.335938 0.337240 0.338542 0.339844 0.341146 0.342448 0.343750 0.345052 0.346354 0.347656 0.348958 0.350260 0.351562 0.352865 0.354167 0.355469 0.356771 0.358073 0.359375 0.360677 0.361979 0.363281 0.364583 0.365885 0.367188 0.368490 0.369792 0.371094 0.372396 0.373698 0.375000 0.376302 0.377604 0.378906 0.380208 0.381510 0.382812 0.384115 0.385417 0.386719 0.388021 0.389323 0.390625 0.391927 0.393229 0.394531 0.395833 0.397135 0.398438 0.399740 0.401042 0.402344 0.403646 0.404948 0.406250 0.407552 0.408854 0.410156 0.411458 0.412760 0.414062 0.415365 0.416667 0.417969 0.419271 0.420573 0.421875 0.423177 0.424479 0.425781 0.427083 0.428385 0.429688 0.430990 0.432292 0.433594 0.434896 0.436198 0.437500 0.438802 0.440104 0.441406 0.442708 0.444010 0.445312 0.446615 0.447917 0.449219 0.450521 0.451823 0.453125 0.454427 0.455729 0.457031 0.458333 0.459635 0.460938 0.462240 0.463542 0.464844 0.466146 0.467448 0.468750 0.470052 0.471354
       0.45877        0.45877        0.45877        0.45877        0.45877        0.45877        0.45877        0.45877        0.45877        0.45877        0.45877        0.45877        0.45877        0.45877        0.45877        0.45877        0.45877        0.45877        0.45877        0.56017        0.50461        0.39446        0.55161        0.65026        0.58465        0.40079        0.28002        0.30422        0.40349        0.48615        0.51506        0.51856        0.53249        0.50794        0.43652        0.32920        0.28686        0.36589        0.48410        0.51363        0.40508        0.30082        0.33345        0.45835        0.55899        0.59824        0.57260        0.49015        0.44895        0.51342        0.63910        0.59477        0.38786        0.23338        0.33375        0.50848        0.56012        0.49433        0.50386        0.57394        0.55070        0.42162        0.32859        0.38834        0.56140        0.64987        0.55065        0.34536        0.21970        0.24318        0.31544        0.33651        0.36945        0.47329        0.57539        0.58427        0.53134        0.50199        0.50668        0.51148        0.52095        0.54495        0.58044        0.56788        0.47640        0.35413        0.28203        0.30972        0.37818        0.37234        0.35219        0.40478        0.52869        0.59486        0.54248        0.47213        0.46656        0.55692        0.63387        0.62821        0.53553        0.44707        0.42105        0.41070        0.38421        0.36062        0.38511        0.40300        0.38359        0.36204        0.41663        0.50658        0.49451        0.42962        0.42419        0.52344        0.59627        0.55463        0.41954        0.34407        0.38444        0.49052        0.55273        0.58283        0.57144        0.53295        0.46560        0.43079        0.43824        0.43326        0.40613        0.39386        0.42231        0.45228        0.44480        0.42732        0.41576        0.44060        0.48628        0.51217        0.51148        0.50472        0.48390        0.43743        0.38351        0.36773        0.41514        0.46694        0.48466        0.48642        0.49198        0.47806        0.43916        0.42732        0.44921        0.46489        0.42650        0.38982        0.36829        0.37524        0.42245        0.48561        0.54026        0.54363        0.51756        0.48415        0.45741        0.43314        0.43627        0.45843        0.48958        0.49245        0.45610        0.42580        0.42963        0.47397        0.49529        0.46440        0.41232        0.41694        0.45348        0.46081        0.43727        0.42071        0.43587        0.45734        0.50501        0.57798        0.62295        0.54226        0.39635        0.31293        0.34772        0.43179        0.46824        0.48255        0.47611        0.45198        0.42125        0.43508        0.47888        0.49386        0.46884        0.48214        0.53671        0.58050        0.54673        0.48708        0.44719        0.43909        0.42100        0.38433        0.34301        0.35325        0.43348        0.52756        0.55753        0.51506        0.46416        0.43725        0.43285        0.42651        0.41550        0.41235        0.43345        0.46264        0.48200        0.45683        0.40694        0.39712        0.44839        0.51532        0.52620        0.46386        0.41394        0.41317        0.47242        0.52892        0.53202        0.50918        0.46589        0.41229        0.38508        0.41223        0.48829        0.52928        0.50224        0.44973        0.44601        0.48245        0.50854        0.50482        0.49569        0.48108        0.44092        0.39121        0.36884        0.37419        0.40414        0.45287        0.47543        0.46274        0.42511        0.41678        0.44398        0.47592        0.48257        0.48271        0.48110        0.46681        0.44494        0.43810        0.48816        0.51371        0.45115        0.39203        0.41490        0.48340        0.50449        0.48152        0.45047        0.42635        0.40764        0.40074        0.42828        0.47347        0.49093        0.47142        0.45279        0.48765        0.51981        0.49548        0.41355        0.38557        0.47263        0.50937        0.44173        0.37380        0.40738        0.48630        0.50301        0.45758        0.44622        0.46820        0.48299        0.44807        0.39361        0.36049        0.37710        0.42158        0.46866        0.50478        0.50730        0.45752        0.38658        0.35875        0.40891        0.48492        0.51778        0.50689        0.47945        0.51037        0.54484        0.46175        0.39257        0.42396        0.50793        0.48492        0.43566        0.42862        0.43858        0.40702        0.38219        0.49806        0.57402        0.54062        0.38010        0.33613        0.41156        0.45857        0.41878        0.40221        0.41182        0.45322        0.46306        0.49378        0.48132        0.45548        0.45544        0.49449        0.46344        0.41646        0.40405        0.42870        0.39189        0.33814        0.37678        0.45548        0.44295        0.26015        0.00267       -0.14775       -0.20592
1.305801 1.294013 1.282270 1.270571 1.258918 1.247310 1.235747 1.224229 1.212757 1.201329 1.189946 1.178608 1.167315 1.156067 1.144865 1.133707 1.122594 1.111527 1.100504 1.657446 1.152400 0.888677 1.045823 2.197611 1.626625 0.755262 0.251224 0.253786 0.787099 1.164944 1.239536 1.179895 1.305687 1.175447 0.957895 0.252604 0.087238 0.465375 1.022309 1.202735 0.522417 0.332187 0.107813 0.866858 1.212078 1.417868 1.305686 0.993579 0.793055 0.928241 1.470685 1.375521 0.657782 -0.299612 0.123392 0.817553 1.070562 0.870499 0.900764 1.132159 1.291010 0.695732 0.006503 0.264628 0.959671 1.349873 1.159781 0.367073 -0.520056 -0.405554 -0.003796 0.043739 0.160138 0.509292 0.989051 1.194850 0.814784 0.730774 0.751366 0.705996 0.710559 0.860227 1.105777 0.838616 0.831019 -0.021736 -0.271001 -0.297215 0.140279 0.058557 0.009102 0.098099 0.611481 0.910016 0.780674 0.689627 0.249451 0.718520 0.955197 1.094667 0.819562 0.302878 0.172518 0.262335 0.128204 -0.139250 -0.134583 0.051827 0.111206 -0.184010 -0.060147 0.466765 0.468375 0.161013 0.006931 0.443990 0.729233 0.702693 -0.016641 -0.253928 -0.474952 0.260925 0.376492 0.687805 0.643153 0.548861 0.148049 -0.056854 0.008478 0.033120 -0.074943 -0.233242 -0.090857 -0.006218 0.005552 -0.142970 -0.181241 -0.134220 0.128462 0.142616 0.204320 0.224042 0.212418 -0.005369 -0.168363 -0.411505 -0.378544 -0.037566 0.298026 0.177978 0.172349 0.173940 -0.046077 -0.046737 -0.145852 0.081642 -0.060537 -0.228875 -0.369708 -0.360491 -0.245720 0.018674 0.299837 0.396641 0.289443 0.186936 0.028068 -0.138489 -0.061462 -0.037573 0.041587 0.217539 0.074618 -0.169274 -0.276032 -0.005717 0.130820 0.180486 -0.134372 -0.338029 -0.074957 -0.004892 -0.042319 -0.138924 -0.324609 -0.157083 -0.063372 0.288821 0.573734 0.521966 -0.094246 -0.623242 -0.722543 -0.399778 -0.001378 -0.107743 0.002105 -0.141288 -0.198867 -0.278397 -0.071673 0.040993 0.048587 -0.136348 0.091797 0.444031 0.424495 0.229902 0.021829 -0.112324 -0.094918 -0.293755 -0.340265 -0.485095 -0.121204 0.366315 0.502340 0.541479 0.264549 0.142797 0.081139 0.134232 0.062524 -0.077718 -0.044287 0.117646 0.223739 0.205161 -0.005292 -0.178278 -0.048997 0.159899 0.550677 0.262852 -0.037542 -0.102030 -0.051237 0.263601 0.434552 0.418065 0.266217 0.040592 -0.212593 -0.212641 -0.078274 0.261339 0.355111 0.218929 -0.123190 -0.028293 0.089784 0.168770 0.127389 0.152237 0.013874 -0.201218 -0.435378 -0.479971 -0.423576 -0.235866 -0.061976 -0.091098 -0.040236 -0.271556 -0.306868 -0.083494 0.017357 0.055906 0.095446 0.129070 0.014447 -0.152381 0.020895 0.274190 0.358157 -0.021979 -0.260219 -0.062302 0.266928 0.198074 0.134015 -0.046336 -0.171147 -0.156758 -0.163702 -0.103057 0.222264 0.098912 0.033987 -0.010797 0.153445 0.397223 0.039252 -0.230120 -0.339049 0.089951 0.270287 -0.126977 -0.407858 -0.133127 0.206900 0.373584 0.097567 -0.040692 0.309073 0.142777 0.051852 -0.094327 -0.227657 -0.140845 0.077663 0.294493 0.368286 0.372081 0.024752 -0.162403 -0.184961 -0.081375 0.302704 0.264455 0.125374 0.237265 0.220742 0.202862 -0.079569 -0.295106 -0.190393 0.076964 0.171914 -0.279514 -0.221652 -0.239692 -0.276319 -0.544211 -0.202181 0.729075 0.106425 -0.377599 -0.635379 -0.192455 -0.099582 -0.290746 -0.290816 -0.463962 -0.056384 -0.184040 0.073745 0.096535 -0.188061 0.039596 0.169024 0.131085 -0.325233 -0.156348 1.902812 1.524123 1.436026 1.630092 1.938082 1.937789 0.766256 -0.451154 -0.873465
0.072396 0.073182 0.075538 0.079465 0.084960 0.092021 0.100646 0.110828 0.122563 0.135841 0.150653 0.166984 0.184819 0.204135 0.224907 0.247104 0.270689 0.295618 0.321840 0.349293 0.377909 0.407607 0.438297 0.469875 0.502225 0.535219 0.568712 0.602546 0.636545 0.670520 0.704262 0.737548 0.770137 0.801773 0.832182 0.861076 0.888152 0.913095 0.935576 0.955261 0.971805 0.984861 0.994082 0.999123 0.999645 0.995324 0.985851 0.970938 0.950329 0.923798 0.891163 0.852289 0.807094 0.755558 0.697729 0.633728 0.563759 0.488108 0.407154 0.321370 0.231326 0.137691 0.041232 0.057187 0.156608 0.255986 0.354197 0.450047 0.542287 0.629625 0.710747 0.784336 0.849092 0.903763 0.947162 0.978206 0.995933 0.999541 0.988411 0.962137 0.920553 0.863756 0.792125 0.706339 0.607388 0.496575 0.375515 0.246127 0.110609 0.028582 0.168771 0.307110 0.440632 0.566313 0.681144 0.782206 0.866750 0.932283 0.976650 0.998119 0.995453 0.967983 0.915668 0.839134 0.739709 0.619425 0.481010 0.327851 0.163931 0.006255 0.177809 0.345564 0.504234 0.648586 0.773619 0.874747 0.947993 0.990161 0.999000 0.973347 0.913229 0.819940 0.696061 0.545439 0.373104 0.185143 0.011494 0.209222 0.400114 0.576205 0.729842 0.854027 0.942770 0.991404 0.996873 0.957961 0.875440 0.752141 0.592928 0.404561 0.195466 0.024607 0.245006 0.454685 0.642753 0.799059 0.914774 0.982926 0.998881 0.960707 0.869415 0.729042 0.546560 0.331606 0.096035 0.146682 0.382209 0.596179 0.775089 0.907189 0.983308 0.997559 0.947872 0.836294 0.669039 0.456238 0.211428 0.049244 0.308050 0.546847 0.748384 0.897569 0.982679 0.996359 0.936357 0.805905 0.613687 0.373396 0.102854 0.177229 0.444801 0.678199 0.857937 0.968404 0.999314 0.946787 0.813920 0.610791 0.353840 0.064669 0.231697 0.508922 0.741712 0.908165 0.991936 0.983963 0.883591 0.698939 0.446431 0.149497 0.163493 0.461863 0.715635 0.898591 0.991081 0.982285 0.871643 0.669272 0.395246 0.077788 0.249513 0.551192 0.793773 0.949537 0.999850 0.937569 0.768233 0.509844 0.191176 0.151280 0.477372 0.747992 0.929841 0.999654 0.947393 0.777901 0.510758 0.178285 0.178202 0.513392 0.783751 0.953249 0.998335 0.911455 0.702533 0.398173 0.038512 0.327877 0.650477 0.883809 0.994005 0.963950 0.796215 0.513263 0.154752 0.227788 0.578234 0.844105 0.984553 0.976872 0.820479 0.537622 0.170566 0.224452 0.585698 0.855584 0.989990 0.965750 0.784976 0.475401 0.086502 0.318151 0.671138 0.912469 0.999979 0.917005 0.675944 0.316846 0.098849 0.498618 0.811414 0.980445 0.973751 0.790653 0.462671 0.048544 0.375983 0.731862 0.951544 0.992051 0.843791 0.533229 0.118663 0.320353 0.698090 0.939415 0.995014 0.851873 0.536786 0.111890 0.337203 0.718466 0.952342 0.988647 0.817812 0.473841 0.028121 0.425014 0.788065 0.981455 0.961348 0.730089 0.336762 0.132686 0.573861 0.887051 0.999999 0.885021 0.566384 0.115843 0.362991 0.758256 0.976021 0.962999 0.720163 0.303703 0.187342 0.634272 0.927343 0.993021 0.812977 0.429856 0.062112 0.539807 0.881888 0.999795 0.861261 0.499811 0.007442 0.488243 0.856868 0.999780 0.876974 0.519025 0.020318 0.485245 0.859957 0.999985 0.864721 0.489338 0.023511 0.531132 0.890266 0.997776 0.820881 0.407975 0.123744 0.620937 0.938197 0.980930 0.734270 0.269064 0.277632 0.742402 0.984333 0.928210 0.588758 0.067847 0.475298 0.872393 0.998453 0.811806 0.368816
1.000000 1.000000 1.000000 1.000000 1.000000 1.000000 1.000000 1.000000 1.000000 1.000000 1.000000 1.000000 1.000000 1.000000 1.000000 1.000000 1.000000 1.000000 1.000000 1.000000 0.284368 0.284368 0.284368 0.284368 0.284368 0.284368 0.284368 0.284368 0.284368 0.284368 0.284368 0.284368 0.284368 0.284368 0.284368 0.284368 0.284368 0.284368 0.284368 0.284368 0.284368 0.284368 0.284368 0.284368 0.252527 0.252527 0.252527 0.252527 0.252527 0.252527 0.252527 0.252527 0.252527 0.252527 0.252527 0.252527 0.252527 0.252527 0.252527 0.252527 0.240074 0.248647 0.248736 0.249345 0.254804 0.256958 0.260190 0.261092 0.245102 0.287042 0.306242 0.299376 0.290684 0.291840 0.289638 0.298019 0.317947 0.360603 0.389782 0.405569 0.422336 0.418774 0.407137 0.387499 0.412992 0.457620 0.485831 0.456817 0.419218 0.375500 0.382823 0.403525 0.426549 0.397027 0.337849 0.348685 0.357263 0.374249 0.387537 0.391153 0.459240 0.430902 0.401845 0.384578 0.387661 0.352988 0.343964 0.330172 0.319874 0.276342 0.235076 0.233530 0.225176 0.191118 0.118301 0.057046 0.000846 -0.052790 -0.081311 -0.077302 -0.090464 -0.099398 -0.098709 -0.081766 -0.094870 -0.114632 -0.139590 -0.161370 -0.163497 -0.140511 -0.147490 -0.142493 -0.149140 -0.174446 -0.267430 -0.345197 -0.368752 -0.372173 -0.352379 -0.329665 -0.340901 -0.372202 -0.378179 -0.290090 -0.241094 -0.207559 -0.215197 -0.208927 -0.191278 -0.149066 -0.181610 -0.186090 -0.164344 -0.160702 -0.187342 -0.148943 -0.080057 -0.080150 -0.093892 -0.067622 -0.049997 -0.065918 -0.072421 -0.055523 -0.012364 0.024976 0.006433 0.026588 0.040072 0.036513 0.020751 0.049400 0.013575 -0.028848 -0.011568 -0.012713 -0.002820 0.032630 0.042487 0.021433 0.026624 0.036350 0.072025 0.152281 0.125829 0.198189 0.231580 0.216105 0.171621 0.127469 0.113828 0.125424 0.091331 0.055215 0.035120 0.028325 0.013199 0.032394 0.061239 0.047659 0.007960 0.020718 0.013663 -0.059052 -0.102761 -0.105118 -0.081762 -0.048813 -0.048807 -0.056801 -0.017721 0.011748 0.065156 0.091789 0.087558 0.159524 0.153847 0.127272 0.149093 0.183089 0.132173 0.123975 0.117081 0.091149 0.092356 0.089482 0.096786 0.030545 -0.000004 0.010395 -0.001938 -0.067893 -0.147120 -0.157153 -0.160537 -0.224872 -0.259514 -0.263225 -0.256088 -0.260009 -0.246220 -0.280398 -0.268855 -0.272319 -0.292197 -0.321214 -0.323890 -0.291179 -0.288247 -0.278002 -0.292520 -0.258479 -0.200216 -0.216214 -0.202044 -0.167264 -0.150585 -0.086148 -0.087934 -0.095170 -0.115979 -0.126573 -0.185173 -0.179762 -0.146264 -0.214727 -0.167217 -0.180936 -0.202918 -0.179109 -0.188964 -0.209501 -0.255988 -0.230561 -0.236811 -0.272619 -0.261346 -0.224183 -0.182386 -0.127884 -0.113865 -0.071161 -0.039795 -0.041967 -0.033348 0.045966 0.052041 0.099973 0.124080 0.125726 0.188793 0.221576 0.217918 0.228873 0.232753 0.262316 0.227559 0.214598 0.217745 0.186103 0.223047 0.219195 0.157301 0.118115 0.095768 0.026752 0.091738 0.053522 0.028270 0.020888 0.003169 -0.042159 -0.112091 -0.047358 -0.058169 -0.130618 -0.130873 -0.152046 -0.185613 -0.166057 -0.157820 -0.187435 -0.142481 -0.146149 -0.116145 -0.135996 -0.126334 -0.077194 -0.089500 -0.081264 -0.074212 -0.092507 -0.119878 -0.151114 -0.166824 -0.127207 -0.133525 -0.133525 -0.241660 -0.203486 -0.203486 -0.203486 -0.203486 -0.113286 -0.113286 -0.113286 -0.113286 -0.113286 -0.113286 -0.078840 -0.078840 -0.078840 -0.078840 -0.078840 -0.078840 -0.159228 -0.159228 -0.159228 -0.159228 -0.159228 -0.159228 -0.159228 -0.159228
0.000000 0.000000 0.000000 0.000000 1114553092142927744.000000 1451236892188610304.000000 522239508523983488.000000 734095130883052032.000000 670458146467450752.000000 287176530524060448.000000 715405632174238464.000000 724278691001864576.000000 549863363724330240.000000 275894579198851456.000000 517879669957878912.000000 544039250700405568.000000 317837273263885952.000000 822907632752101632.000000 657349768995305472.000000 819593704908666624.000000 0.201008 0.201008 0.201008 0.201008 0.201008 0.201008 0.201008 0.201008 0.201008 0.201008 0.201008 0.201008 0.201008 0.201008 0.201008 0.201008 0.201008 0.201008 0.201008 0.201008 0.201008 0.201008 0.201008 0.201008 0.222222 0.222222 0.222222 0.222222 0.222222 0.222222 0.222222 0.222222 0.222222 0.222222 0.222222 0.222222 0.222222 0.222222 0.222222 0.222222 0.222222 0.222222 0.222222 0.222222 0.222222 0.222222 0.222222 0.222222 0.222222 0.222222 0.222222 0.222222 0.222222 0.222222 0.222222 0.222222 0.222222 0.251976 0.251976 0.251976 0.251976 0.251976 0.251976 0.251976 0.251976 0.251976 0.251976 0.251976 0.251976 0.251976 0.251976 0.251976 0.251976 0.251976 0.251976 0.251976 0.251976 0.251976 0.251976 0.251976 0.274721 0.274721 0.274721 0.274721 0.274721 0.274721 0.274721 0.274721 0.274721 0.274721 0.274721 0.274721 0.274721 0.274721 0.274721 0.274721 0.274721 0.274721 0.280056 0.280056 0.280056 0.280056 0.280056 0.280056 0.280056 0.280056 0.280056 0.280056 0.280056 0.280056 0.280056 0.280056 0.280056 0.280056 0.285714 0.285714 0.285714 0.285714 0.285714 0.285714 0.285714 0.285714 0.285714 0.285714 0.285714 0.285714 0.285714 0.285714 0.291730 0.291730 0.291730 0.291730 0.291730 0.291730 0.291730 0.291730 0.291730 0.291730 0.291730 0.291730 0.291730 0.291730 0.291730 0.291730 0.291730 0.291730 0.291730 0.291730 0.291730 0.291730 0.291730 0.291730 0.291730 0.298142 0.298142 0.298142 0.298142 0.298142 0.298142 0.298142 0.298142 0.298142 0.298142 0.298142 0.285714 0.285714 0.285714 0.285714 0.285714 0.285714 0.285714 0.285714 0.285714 0.285714 0.285714 0.291730 0.291730 0.291730 0.291730 0.291730 0.291730 0.291730 0.291730 0.291730 0.291730 0.298142 0.298142 0.298142 0.298142 0.298142 0.298142 0.298142 0.298142 0.298142 0.280056 0.280056 0.280056 0.280056 0.280056 0.280056 0.280056 0.280056 0.280056 0.280056 0.304997 0.304997 0.304997 0.304997 0.304997 0.304997 0.304997 0.304997 0.280056 0.280056 0.280056 0.280056 0.280056 0.280056 0.280056 0.280056 0.280056 0.291730 0.291730 0.291730 0.291730 0.291730 0.291730 0.291730 0.291730 0.285714 0.285714 0.285714 0.285714 0.285714 0.285714 0.285714 0.285714 0.280056 0.280056 0.280056 0.280056 0.280056 0.280056 0.280056 0.280056 0.291730 0.291730 0.291730 0.291730 0.291730 0.291730 0.291730 0.285714 0.285714 0.285714 0.285714 0.285714 0.285714 0.285714 0.285714 0.285714 0.285714 0.285714 0.285714 0.285714 0.285714 0.280056 0.280056 0.280056 0.280056 0.280056 0.280056 0.280056 0.274721 0.274721 0.274721 0.274721 0.274721 0.274721 0.274721 0.291730 0.291730 0.291730 0.291730 0.291730 0.291730 0.264906 0.264906 0.264906 0.264906 0.264906 0.264906 0.264906 0.280056 0.280056 0.280056 0.280056 0.280056 0.280056 0.280056 0.280056 0.280056 0.280056 0.280056 0.280056 0.256074 0.256074 0.256074 0.256074 0.256074 0.256074 0.256074 0.269680 0.269680 0.269680 0.269680 0.269680 0.269680 0.285714 0.285714 0.285714 0.285714 0.285714 0.264906 0.264906 0.264906 0.264906 0.264906 0.264906 0.260378 0.260378 0.260378 0.260378 0.260378 0.260378 0.280056 0.280056 0.280056 0.280056 0.280056 0.280056 0.280056 0.280056
