# Output from CTFFind version 4.1.9, run on 2019-11-24 11:56:25
# Input file: stack1_bm3d_averaged_1_0.0_0_1000_half.mrc ; Number of micrographs: 1
# Pixel size: 1.500 Angstroms ; acceleration voltage: 300.0 keV ; spherical aberration: 0.00 mm ; amplitude contrast: 0.07
# Box size: 512 pixels ; min. res.: 40.0 Angstroms ; max. res.: 6.0 Angstroms ; min. def.: 5000.0 um; max. def. 50000.0 um; num. frames averaged: 1
# 6 lines per micrograph: #1 - spatial frequency (1/Angstroms); #2 - 1D rotational average of spectrum (assuming no astigmatism); #3 - 1D rotational average of spectrum; #4 - CTF fit; #5 - cross-correlation between spectrum and CTF fit; #6 - 2sigma of expected cross correlation of noise
0.000000 0.001302 0.002604 0.003906 0.005208 0.006510 0.007812 0.009115 0.010417 0.011719 0.013021 0.014323 0.015625 0.016927 0.018229 0.019531 0.020833 0.022135 0.023438 0.024740 0.026042 0.027344 0.028646 0.029948 0.031250 0.032552 0.033854 0.035156 0.036458 0.037760 0.039062 0.040365 0.041667 0.042969 0.044271 0.045573 0.046875 0.048177 0.049479 0.050781 0.052083 0.053385 0.054688 0.055990 0.057292 0.058594 0.059896 0.061198 0.062500 0.063802 0.065104 0.066406 0.067708 0.069010 0.070312 0.071615 0.072917 0.074219 0.075521 0.076823 0.078125 0.079427 0.080729 0.082031 0.083333 0.084635 0.085938 0.087240 0.088542 0.089844 0.091146 0.092448 0.093750 0.095052 0.096354 0.097656 0.098958 0.100260 0.101562 0.102865 0.104167 0.105469 0.106771 0.108073 0.109375 0.110677 0.111979 0.113281 0.114583 0.115885 0.117188 0.118490 0.119792 0.121094 0.122396 0.123698 0.125000 0.126302 0.127604 0.128906 0.130208 0.131510 0.132812 0.134115 0.135417 0.136719 0.138021 0.139323 0.140625 0.141927 0.143229 0.144531 0.145833 0.147135 0.148438 0.149740 0.151042 0.152344 0.153646 0.154948 0.156250 0.157552 0.158854 0.160156 0.161458 0.162760 0.164062 0.165365 0.166667 0.167969 0.169271 0.170573 0.171875 0.173177 0.174479 0.175781 0.177083 0.178385 0.179688 0.180990 0.182292 0.183594 0.184896 0.186198 0.187500 0.188802 0.190104 0.191406 0.192708 0.194010 0.195312 0.196615 0.197917 0.199219 0.200521 0.201823 0.203125 0.204427 0.205729 0.207031 0.208333 0.209635 0.210938 0.212240 0.213542 0.214844 0.216146 0.217448 0.218750 0.220052 0.221354 0.222656 0.223958 0.225260 0.226562 0.227865 0.229167 0.230469 0.231771 0.233073 0.234375 0.235677 0.236979 0.238281 0.239583 0.240885 0.242188 0.243490 0.244792 0.246094 0.247396 0.248698 0.250000 0.251302 0.252604 0.253906 0.255208 0.256510 0.257812 0.259115 0.260417 0.261719 0.263021 0.264323 0.265625 0.266927 0.268229 0.269531 0.270833 0.272135 0.273438 0.274740 0.276042 0.277344 0.278646 0.279948 0.281250 0.282552 0.283854 0.285156 0.286458 0.287760 0.289062 0.290365 0.291667 0.292969 0.294271 0.295573 0.296875 0.298177 0.299479 0.300781 0.302083 0.303385 0.304688 0.305990 0.307292 0.308594 0.309896 0.311198 0.312500 0.313802 0.315104 0.316406 0.317708 0.319010 0.320312 0.321615 0.322917 0.324219 0.325521 0.326823 0.328125 0.329427 0.330729 0.332031 0.333333 0.334635 0.335938 0.337240 0.338542 0.339844 0.341146 0.342448 0.343750 0.345052 0.346354 0.347656 0.348958 0.350260 0.351562 0.352865 0.354167 0.355469 0.356771 0.358073 0.359375 0.360677 0.361979 0.363281 0.364583 0.365885 0.367188 0.368490 0.369792 0.371094 0.372396 0.373698 0.375000 0.376302 0.377604 0.378906 0.380208 0.381510 0.382812 0.384115 0.385417 0.386719 0.388021 0.389323 0.390625 0.391927 0.393229 0.394531 0.395833 0.397135 0.398438 0.399740 0.401042 0.402344 0.403646 0.404948 0.406250 0.407552 0.408854 0.410156 0.411458 0.412760 0.414062 0.415365 0.416667 0.417969 0.419271 0.420573 0.421875 0.423177 0.424479 0.425781 0.427083 0.428385 0.429688 0.430990 0.432292 0.433594 0.434896 0.436198 0.437500 0.438802 0.440104 0.441406 0.442708 0.444010 0.445312 0.446615 0.447917 0.449219 0.450521 0.451823 0.453125 0.454427 0.455729 0.457031 0.458333 0.459635 0.460938 0.462240 0.463542 0.464844 0.466146 0.467448 0.468750 0.470052 0.471354
       0.67815        0.67815        0.67815        0.67815        0.67815        0.67815        0.67815        0.67815        0.67815        0.67815        0.67815        0.67815        0.67815        0.67815        0.67815        0.67815        0.67815        0.67815        0.67815        1.54027        2.29230        1.14530        0.33932        0.16861        0.70729        1.30498        1.19123        0.66378        0.40203        0.42568        0.44174        0.37604        0.39487        0.45477        0.38058        0.29122        0.18291        0.09449        0.02036        0.03238        0.08276        0.17712        0.39677        0.66477        0.84028        0.86620        0.84023        0.88937        1.03567        1.15182        1.05705        0.72447        0.45163        0.45222        0.59926        0.58848        0.44424        0.38087        0.46985        0.56765        0.64936        0.71801        0.83944        0.91441        0.90095        0.80904        0.68930        0.62574        0.58813        0.58975        0.65337        0.78481        0.85805        0.76364        0.63104        0.60741        0.66004        0.67211        0.62987        0.64059        0.72701        0.74159        0.67043        0.55653        0.55777        0.63313        0.71155        0.71237        0.66195        0.57825        0.51341        0.53454        0.61005        0.66905        0.63710        0.61016        0.68478        0.80881        0.84699        0.79001        0.75956        0.77432        0.77807        0.72306        0.66553        0.65620        0.64800        0.62243        0.56981        0.53673        0.55609        0.61525        0.65817        0.67975        0.71750        0.78071        0.80965        0.78192        0.69869        0.59734        0.53187        0.55277        0.67262        0.78057        0.78237        0.71233        0.67218        0.68620        0.70886        0.70863        0.71040        0.70012        0.64253        0.54716        0.49598        0.55939        0.66467        0.69316        0.67327        0.68832        0.74117        0.75184        0.72068        0.71127        0.73733        0.73750        0.72418        0.71760        0.71508        0.66033        0.62026        0.65882        0.72892        0.70589        0.59591        0.52291        0.54795        0.62118        0.66328        0.66349        0.66734        0.67079        0.63203        0.57528        0.59560        0.70376        0.78972        0.76954        0.70353        0.70216        0.72788        0.73227        0.71609        0.71819        0.73597        0.72938        0.70764        0.67341        0.62168        0.59025        0.62694        0.71589        0.79293        0.77833        0.68268        0.59963        0.61199        0.70235        0.75611        0.70933        0.61699        0.58894        0.61747        0.64052        0.62400        0.61099        0.62443        0.65523        0.68105        0.68813        0.67931        0.67149        0.68739        0.72193        0.75040        0.74151        0.70010        0.65740        0.66378        0.71147        0.72268        0.68775        0.66678        0.68228        0.68342        0.63949        0.64901        0.71754        0.75246        0.69902        0.62832        0.62566        0.66426        0.70115        0.70301        0.69223        0.66796        0.66336        0.66353        0.69618        0.73505        0.75454        0.71233        0.63665        0.59773        0.63205        0.67135        0.69559        0.70100        0.71531        0.70013        0.67326        0.66769        0.69708        0.72026        0.71646        0.70812        0.67846        0.63833        0.64098        0.67338        0.68907        0.65314        0.62311        0.63727        0.68957        0.73010        0.71418        0.65253        0.62953        0.67136        0.73996        0.74347        0.66278        0.60678        0.65731        0.70231        0.69586        0.66278        0.65978        0.68971        0.70362        0.69724        0.67254        0.63513        0.64470        0.71034        0.75836        0.69502        0.56917        0.53877        0.64010        0.75512        0.74521        0.65354        0.63833        0.72719        0.74409        0.65934        0.60552        0.65149        0.75413        0.79012        0.79892        0.74229        0.62657        0.54363        0.55288        0.64500        0.62565        0.56004        0.57844        0.66542        0.69539        0.64759        0.65055        0.68095        0.66308        0.68213        0.74145        0.72781        0.65142        0.65716        0.72676        0.76846        0.80148        0.82886        0.82769        0.71593        0.60696        0.56140        0.59190        0.58307        0.62084        0.68350        0.68837        0.57379        0.59422        0.72136        0.69809        0.54843        0.55980        0.67489        0.73328        0.70154        0.72699        0.67908        0.62032        0.69252        0.82966        0.81097        0.74344        0.78176        0.75734        0.50680        0.45525        0.60564        0.70923        0.55993        0.45314        0.53870        0.72177        0.83371        0.87072        0.80227        0.75224        0.84208        0.76501        0.31537       -0.28499       -0.65241       -0.71635       -0.71773
0.678151 0.678151 0.678151 0.678151 0.678151 0.678151 0.678151 0.678151 0.678151 0.678151 0.678151 0.678151 0.678151 0.678151 0.678151 0.678151 0.678151 0.678151 0.678151 1.579922 2.337969 1.322316 0.319798 0.055400 0.593518 1.443531 1.178840 0.642694 0.435015 0.463882 0.342458 0.377941 0.447966 0.441152 0.405169 0.288928 0.185756 0.115675 0.003581 0.074432 0.088791 0.141154 0.344455 0.710924 0.834559 0.841361 0.855377 0.846803 1.021707 1.142027 1.149379 0.740393 0.464402 0.444475 0.654692 0.541566 0.473554 0.298193 0.448646 0.618410 0.640512 0.707665 0.812893 0.903346 0.933524 0.785607 0.713423 0.617096 0.578172 0.601766 0.615123 0.804118 0.831898 0.816064 0.653181 0.607068 0.666850 0.627414 0.615188 0.648497 0.700960 0.759146 0.716821 0.570513 0.544114 0.594532 0.689338 0.728659 0.662672 0.586587 0.510949 0.536378 0.601123 0.669093 0.635396 0.600606 0.639351 0.788748 0.867923 0.828016 0.757369 0.638554 0.837602 0.717128 0.668219 0.653349 0.665799 0.652004 0.587444 0.519468 0.538655 0.596489 0.665922 0.655732 0.700038 0.766580 0.798301 0.801337 0.738730 0.631904 0.549343 0.511264 0.635174 0.746948 0.822751 0.735169 0.661327 0.706147 0.724546 0.699282 0.694331 0.699587 0.675260 0.584919 0.505580 0.522432 0.628595 0.686070 0.705958 0.655863 0.712127 0.762574 0.739920 0.709687 0.718447 0.741123 0.745384 0.718337 0.706293 0.690623 0.619253 0.623476 0.721461 0.736541 0.632215 0.544117 0.513745 0.598573 0.663623 0.674164 0.657805 0.688490 0.655794 0.582260 0.572246 0.645591 0.762774 0.785929 0.716629 0.700425 0.713603 0.727384 0.721048 0.734389 0.729206 0.751973 0.704686 0.690868 0.645308 0.599347 0.586629 0.685850 0.746864 0.808798 0.708861 0.620768 0.578568 0.667556 0.753318 0.751886 0.671636 0.578927 0.581051 0.644349 0.667008 0.608606 0.605447 0.628758 0.685039 0.672305 0.701125 0.681319 0.669910 0.685016 0.725714 0.778403 0.747493 0.688743 0.653727 0.674944 0.690730 0.710638 0.695343 0.681210 0.676085 0.682033 0.620437 0.669387 0.746231 0.729695 0.650516 0.624638 0.642909 0.677730 0.710752 0.684918 0.674903 0.667073 0.660603 0.667936 0.724416 0.750773 0.734538 0.669064 0.613601 0.598204 0.657488 0.663405 0.701349 0.715191 0.712688 0.688888 0.662631 0.680050 0.717361 0.701154 0.715634 0.703618 0.666731 0.606173 0.658299 0.647641 0.704883 0.622250 0.627005 0.643060 0.720294 0.726988 0.679881 0.623075 0.642504 0.700944 0.754119 0.707247 0.643296 0.600466 0.675936 0.715900 0.715265 0.652880 0.671344 0.692354 0.701689 0.694298 0.661210 0.638271 0.655027 0.729575 0.757368 0.624233 0.526384 0.539407 0.666241 0.784432 0.664749 0.633485 0.644048 0.759828 0.738118 0.676216 0.601508 0.670408 0.760108 0.833241 0.798217 0.730230 0.608946 0.511040 0.594811 0.637673 0.626612 0.518462 0.589213 0.698035 0.670415 0.656436 0.627833 0.687017 0.653888 0.693163 0.738209 0.760553 0.644291 0.673425 0.712278 0.777446 0.791303 0.870415 0.819255 0.737110 0.539457 0.609342 0.597775 0.557492 0.612769 0.744087 0.641215 0.598202 0.570329 0.803481 0.675912 0.533151 0.599816 0.682380 0.701528 0.715154 0.730870 0.682760 0.574918 0.677546 0.885580 0.748730 0.770799 0.839679 0.699691 0.504006 0.402467 0.667393 0.646537 0.470906 0.419718 0.576887 0.673731 0.851020 0.871238 0.784744 0.741151 0.825764 0.731325 0.131781 -0.330848 -0.619406 -0.715838
0.072396 0.073464 0.076666 0.082001 0.089465 0.099056 0.110765 0.124583 0.140496 0.158487 0.178533 0.200602 0.224657 0.250648 0.278517 0.308190 0.339581 0.372585 0.407080 0.442925 0.479954 0.517980 0.556787 0.596135 0.635754 0.675345 0.714578 0.753093 0.790497 0.826370 0.860261 0.891694 0.920167 0.945158 0.966132 0.982539 0.993829 0.999455 0.998883 0.991604 0.977139 0.955060 0.924995 0.886646 0.839803 0.784357 0.720315 0.647815 0.567140 0.478727 0.383182 0.281285 0.173996 0.062458 0.052006 0.167900 0.283564 0.397195 0.506870 0.610571 0.706227 0.791749 0.865086 0.924269 0.967475 0.993085 0.999746 0.986434 0.952515 0.897802 0.822603 0.727762 0.614689 0.485373 0.342378 0.188824 0.028336 0.135011 0.296791 0.452330 0.596845 0.725590 0.834023 0.917984 0.973876 0.998839 0.990922 0.949231 0.874046 0.766912 0.630674 0.469467 0.288645 0.094653 0.105167 0.302829 0.490007 0.658389 0.800061 0.907904 0.975998 0.999990 0.977425 0.908000 0.793734 0.639016 0.450542 0.237106 0.009260 0.221165 0.441632 0.639590 0.803205 0.922105 0.988113 0.995883 0.943411 0.832374 0.668243 0.460154 0.220526 0.035595 0.291408 0.529437 0.732724 0.886088 0.977337 0.998347 0.945900 0.822205 0.635033 0.397407 0.126841 0.155822 0.427970 0.666997 0.852233 0.966813 0.999352 0.945233 0.807369 0.596320 0.329711 0.030940 0.272746 0.552683 0.781492 0.935852 0.999016 0.962825 0.828954 0.609205 0.324742 0.004279 0.318665 0.609207 0.834895 0.969447 0.996013 0.909534 0.717856 0.441378 0.111178 0.234261 0.553421 0.806739 0.961635 0.996918 0.905981 0.698273 0.398729 0.045125 0.316459 0.637513 0.873663 0.990960 0.971067 0.814476 0.541186 0.188593 0.193305 0.548800 0.824584 0.977896 0.983452 0.838028 0.561798 0.196037 0.202654 0.570893 0.848561 0.988811 0.966334 0.782389 0.465556 0.067844 0.343475 0.697042 0.929868 0.998839 0.889172 0.618096 0.232808 0.197229 0.592506 0.878132 0.998264 0.927502 0.676851 0.292785 0.150764 0.566262 0.869765 0.998130 0.922661 0.656175 0.251680 0.207528 0.624627 0.909633 0.999139 0.871022 0.550621 0.106598 0.363153 0.752757 0.972322 0.969148 0.741119 0.338743 0.145195 0.596509 0.906416 0.998101 0.846459 0.485819 0.003161 0.482160 0.847648 0.998815 0.894268 0.557981 0.074897 0.429696 0.822287 0.996642 0.903224 0.564260 0.069649 0.445973 0.839501 0.999271 0.877483 0.505580 0.012616 0.529002 0.893187 0.996584 0.805716 0.374176 0.171157 0.666615 0.960685 0.960890 0.663973 0.159216 0.397199 0.829921 0.999816 0.849588 0.424387 0.140315 0.660877 0.964970 0.949229 0.615604 0.073319 0.495595 0.896840 0.990498 0.740960 0.231905 0.360291 0.826765 0.999956 0.814771 0.334579 0.268806 0.775565 0.997850 0.850349 0.384595 0.227244 0.754838 0.996210 0.855980 0.384685 0.237567 0.768643 0.998484 0.833120 0.334841 0.299327 0.814319 0.999536 0.776118 0.232351 0.409252 0.881913 0.985666 0.673348 0.073972 0.558686 0.952630 0.935158 0.510233 0.139487 0.729424 0.997290 0.820690 0.275065 0.396259 0.889239 0.976919 0.615491 0.031642 0.665717 0.989736 0.848484 0.304953 0.385250 0.892557 0.970900 0.578729 0.096608 0.726231 0.999210 0.777203 0.166928 0.528574 0.959067 0.903982 0.387517 0.329018 0.877485 0.971982 0.559600 0.147319 0.778174 0.997757 0.685742 0.005302 0.679554 0.997618 0.772701 0.123886 0.594648 0.985446 0.828427 0.207337 0.531813 0.971734 0.859994
1.000000 1.000000 1.000000 1.000000 1.000000 1.000000 1.000000 1.000000 1.000000 1.000000 1.000000 1.000000 1.000000 1.000000 1.000000 1.000000 1.000000 1.000000 1.000000 1.000000 -0.093514 -0.093514 -0.093514 -0.093514 -0.093514 -0.093514 -0.093514 -0.093514 -0.093514 -0.093514 -0.093514 -0.093514 -0.093514 -0.093514 -0.093514 -0.093514 -0.093514 -0.093514 -0.176219 -0.176219 -0.176219 -0.176219 -0.176219 -0.176219 -0.176219 -0.176219 -0.176219 -0.176219 -0.176219 -0.176219 -0.176219 -0.176219 -0.176219 -0.176219 -0.175355 -0.152152 -0.127055 -0.117545 -0.133226 -0.156344 -0.138128 -0.118978 -0.118522 -0.115657 -0.103369 -0.083337 -0.025582 0.042394 0.105064 0.130508 0.148851 0.156992 0.163010 0.156347 0.111007 0.131479 0.151287 0.169304 0.188519 0.195706 0.208290 0.261675 0.295797 0.297721 0.287737 0.278212 0.247221 0.236667 0.216330 0.208178 0.207052 0.213826 0.291480 0.352258 0.377521 0.375341 0.386414 0.426668 0.475280 0.470462 0.499994 0.516341 0.528653 0.529872 0.518475 0.545535 0.613162 0.640060 0.633505 0.619896 0.593579 0.576994 0.626950 0.620988 0.598328 0.654051 0.631209 0.581162 0.557944 0.482140 0.468214 0.452371 0.482143 0.459607 0.440549 0.428436 0.434338 0.436597 0.442222 0.389776 0.350918 0.346764 0.310396 0.221299 0.214304 0.213498 0.148135 0.084744 0.118114 0.103742 0.081604 0.058910 0.069019 -0.002583 -0.026224 -0.010651 0.015452 -0.008041 -0.022743 -0.096483 -0.103611 -0.060634 0.001365 0.004892 -0.022884 -0.031709 0.008701 0.043868 0.052071 0.107800 0.204168 0.204677 0.227888 0.278337 0.283110 0.271946 0.286174 0.258410 0.246251 0.237282 0.165110 0.106856 0.115148 0.093570 0.139099 0.233664 0.262721 0.298948 0.280664 0.226442 0.173754 0.196922 0.248929 0.256540 0.275430 0.292839 0.319361 0.297471 0.254959 0.282904 0.289634 0.276044 0.261963 0.260596 0.268117 0.229421 0.209376 0.234025 0.229274 0.208256 0.204889 0.186586 0.132035 0.096723 0.078068 0.032258 -0.020809 -0.023990 -0.036508 0.030255 -0.004103 -0.010926 0.061749 0.102945 0.108238 0.108135 0.090375 0.127898 0.157025 0.165410 0.208715 0.233773 0.289111 0.323741 0.344834 0.305970 0.265443 0.235025 0.227964 0.252835 0.235651 0.211099 0.232390 0.335316 0.324813 0.339875 0.357284 0.360698 0.384884 0.397240 0.357583 0.361479 0.394423 0.427358 0.453457 0.465711 0.488827 0.481251 0.484919 0.491229 0.534629 0.558821 0.592371 0.600579 0.633151 0.601635 0.605942 0.515759 0.555743 0.546611 0.565632 0.532446 0.500254 0.478824 0.465639 0.436278 0.408610 0.385032 0.358086 0.346181 0.378667 0.337700 0.342766 0.386605 0.397659 0.406185 0.395855 0.389189 0.393563 0.400157 0.363416 0.372506 0.358402 0.336325 0.294568 0.274350 0.241187 0.208596 0.189422 0.174744 0.123071 0.122973 0.099940 0.074936 0.127734 0.126627 0.172620 0.181644 0.161856 0.143127 0.165874 0.156278 0.130673 0.098775 -0.027630 -0.024866 -0.037033 -0.073523 -0.071145 -0.100551 -0.085082 -0.064629 -0.009807 -0.034441 -0.029506 0.004648 -0.007756 0.021634 0.030090 -0.018853 -0.035206 -0.050660 -0.055457 -0.049919 -0.054856 -0.041600 -0.064044 -0.043971 -0.180843 -0.164708 -0.148187 -0.168481 -0.091257 -0.130280 -0.116356 -0.116356 -0.116356 -0.111196 -0.147006 -0.147006 -0.147006 -0.147006 -0.147006 -0.147006 -0.147006 -0.145120 -0.145120 -0.145120 -0.145120 -0.065782 -0.065782 -0.065782 -0.065782 -0.065782 -0.165297 -0.165297 -0.165297 -0.165297 -0.165297 -0.165297 -0.165297 -0.165297 -0.165297
0.000000 0.000000 0.000000 0.000000 2034001144376199680.000000 889560027617214464.000000 476657329866255168.000000 1201129882429885952.000000 616866300594311552.000000 523690039217854720.000000 525486916180609152.000000 955758324376845184.000000 789446195392446080.000000 641142967462305664.000000 728598122495289600.000000 1103388101289541888.000000 610326955265571840.000000 743814263850395648.000000 1602305391550819584.000000 390468262668321984.000000 0.216930 0.216930 0.216930 0.216930 0.216930 0.216930 0.216930 0.216930 0.216930 0.216930 0.216930 0.216930 0.216930 0.216930 0.216930 0.216930 0.216930 0.216930 0.240772 0.240772 0.240772 0.240772 0.240772 0.240772 0.240772 0.240772 0.240772 0.240772 0.240772 0.240772 0.240772 0.240772 0.240772 0.240772 0.240772 0.240772 0.240772 0.240772 0.240772 0.240772 0.240772 0.240772 0.240772 0.240772 0.240772 0.240772 0.269680 0.269680 0.269680 0.269680 0.269680 0.269680 0.269680 0.269680 0.269680 0.269680 0.269680 0.269680 0.269680 0.269680 0.269680 0.269680 0.269680 0.269680 0.269680 0.269680 0.291730 0.291730 0.291730 0.291730 0.291730 0.291730 0.291730 0.291730 0.291730 0.291730 0.291730 0.291730 0.291730 0.291730 0.291730 0.291730 0.304997 0.304997 0.304997 0.304997 0.304997 0.304997 0.304997 0.304997 0.304997 0.304997 0.304997 0.304997 0.304997 0.312348 0.312348 0.312348 0.312348 0.312348 0.312348 0.312348 0.312348 0.312348 0.312348 0.312348 0.312348 0.312348 0.312348 0.312348 0.312348 0.312348 0.312348 0.312348 0.312348 0.312348 0.312348 0.312348 0.304997 0.304997 0.304997 0.304997 0.304997 0.304997 0.304997 0.304997 0.304997 0.304997 0.304997 0.320256 0.320256 0.320256 0.320256 0.320256 0.320256 0.320256 0.320256 0.320256 0.312348 0.312348 0.312348 0.312348 0.312348 0.312348 0.312348 0.312348 0.312348 0.304997 0.304997 0.304997 0.304997 0.304997 0.304997 0.304997 0.304997 0.304997 0.320256 0.320256 0.320256 0.320256 0.320256 0.320256 0.320256 0.320256 0.312348 0.312348 0.312348 0.312348 0.312348 0.312348 0.312348 0.312348 0.320256 0.320256 0.320256 0.320256 0.320256 0.320256 0.320256 0.298142 0.298142 0.298142 0.298142 0.298142 0.298142 0.298142 0.298142 0.312348 0.312348 0.312348 0.312348 0.312348 0.312348 0.312348 0.328798 0.328798 0.328798 0.328798 0.328798 0.328798 0.298142 0.298142 0.298142 0.298142 0.298142 0.298142 0.298142 0.312348 0.312348 0.312348 0.312348 0.312348 0.312348 0.285714 0.285714 0.285714 0.285714 0.285714 0.285714 0.285714 0.304997 0.304997 0.304997 0.304997 0.304997 0.304997 0.298142 0.298142 0.298142 0.298142 0.298142 0.298142 0.320256 0.320256 0.320256 0.320256 0.320256 0.291730 0.291730 0.291730 0.291730 0.291730 0.291730 0.285714 0.285714 0.285714 0.285714 0.285714 0.285714 0.304997 0.304997 0.304997 0.304997 0.304997 0.298142 0.298142 0.298142 0.298142 0.298142 0.298142 0.298142 0.298142 0.298142 0.298142 0.269680 0.269680 0.269680 0.269680 0.269680 0.269680 0.285714 0.285714 0.285714 0.285714 0.285714 0.285714 0.285714 0.285714 0.285714 0.285714 0.304997 0.304997 0.304997 0.304997 0.280056 0.280056 0.280056 0.280056 0.280056 0.274721 0.274721 0.274721 0.274721 0.274721 0.269680 0.269680 0.269680 0.269680 0.269680 0.291730 0.291730 0.291730 0.291730 0.264906 0.264906 0.264906 0.264906 0.264906 0.285714 0.285714 0.285714 0.285714 0.260378 0.260378 0.260378 0.260378 0.260378 0.280056 0.280056 0.280056 0.280056 0.280056 0.280056 0.280056 0.280056 0.274721 0.274721 0.274721 0.274721 0.251976 0.251976 0.251976 0.251976 0.251976 0.269680 0.269680 0.269680 0.269680 0.269680 0.269680 0.269680 0.269680 0.269680
