# Output from CTFFind version 4.1.9, run on 2019-11-24 11:56:26
# Input file: stack1_bm3d_averaged_1_2.0_0_1500_half.mrc ; Number of micrographs: 1
# Pixel size: 1.500 Angstroms ; acceleration voltage: 300.0 keV ; spherical aberration: 0.00 mm ; amplitude contrast: 0.07
# Box size: 512 pixels ; min. res.: 40.0 Angstroms ; max. res.: 6.0 Angstroms ; min. def.: 5000.0 um; max. def. 50000.0 um; num. frames averaged: 1
# 6 lines per micrograph: #1 - spatial frequency (1/Angstroms); #2 - 1D rotational average of spectrum (assuming no astigmatism); #3 - 1D rotational average of spectrum; #4 - CTF fit; #5 - cross-correlation between spectrum and CTF fit; #6 - 2sigma of expected cross correlation of noise
0.000000 0.001302 0.002604 0.003906 0.005208 0.006510 0.007812 0.009115 0.010417 0.011719 0.013021 0.014323 0.015625 0.016927 0.018229 0.019531 0.020833 0.022135 0.023438 0.024740 0.026042 0.027344 0.028646 0.029948 0.031250 0.032552 0.033854 0.035156 0.036458 0.037760 0.039062 0.040365 0.041667 0.042969 0.044271 0.045573 0.046875 0.048177 0.049479 0.050781 0.052083 0.053385 0.054688 0.055990 0.057292 0.058594 0.059896 0.061198 0.062500 0.063802 0.065104 0.066406 0.067708 0.069010 0.070312 0.071615 0.072917 0.074219 0.075521 0.076823 0.078125 0.079427 0.080729 0.082031 0.083333 0.084635 0.085938 0.087240 0.088542 0.089844 0.091146 0.092448 0.093750 0.095052 0.096354 0.097656 0.098958 0.100260 0.101562 0.102865 0.104167 0.105469 0.106771 0.108073 0.109375 0.110677 0.111979 0.113281 0.114583 0.115885 0.117188 0.118490 0.119792 0.121094 0.122396 0.123698 0.125000 0.126302 0.127604 0.128906 0.130208 0.131510 0.132812 0.134115 0.135417 0.136719 0.138021 0.139323 0.140625 0.141927 0.143229 0.144531 0.145833 0.147135 0.148438 0.149740 0.151042 0.152344 0.153646 0.154948 0.156250 0.157552 0.158854 0.160156 0.161458 0.162760 0.164062 0.165365 0.166667 0.167969 0.169271 0.170573 0.171875 0.173177 0.174479 0.175781 0.177083 0.178385 0.179688 0.180990 0.182292 0.183594 0.184896 0.186198 0.187500 0.188802 0.190104 0.191406 0.192708 0.194010 0.195312 0.196615 0.197917 0.199219 0.200521 0.201823 0.203125 0.204427 0.205729 0.207031 0.208333 0.209635 0.210938 0.212240 0.213542 0.214844 0.216146 0.217448 0.218750 0.220052 0.221354 0.222656 0.223958 0.225260 0.226562 0.227865 0.229167 0.230469 0.231771 0.233073 0.234375 0.235677 0.236979 0.238281 0.239583 0.240885 0.242188 0.243490 0.244792 0.246094 0.247396 0.248698 0.250000 0.251302 0.252604 0.253906 0.255208 0.256510 0.257812 0.259115 0.260417 0.261719 0.263021 0.264323 0.265625 0.266927 0.268229 0.269531 0.270833 0.272135 0.273438 0.274740 0.276042 0.277344 0.278646 0.279948 0.281250 0.282552 0.283854 0.285156 0.286458 0.287760 0.289062 0.290365 0.291667 0.292969 0.294271 0.295573 0.296875 0.298177 0.299479 0.300781 0.302083 0.303385 0.304688 0.305990 0.307292 0.308594 0.309896 0.311198 0.312500 0.313802 0.315104 0.316406 0.317708 0.319010 0.320312 0.321615 0.322917 0.324219 0.325521 0.326823 0.328125 0.329427 0.330729 0.332031 0.333333 0.334635 0.335938 0.337240 0.338542 0.339844 0.341146 0.342448 0.343750 0.345052 0.346354 0.347656 0.348958 0.350260 0.351562 0.352865 0.354167 0.355469 0.356771 0.358073 0.359375 0.360677 0.361979 0.363281 0.364583 0.365885 0.367188 0.368490 0.369792 0.371094 0.372396 0.373698 0.375000 0.376302 0.377604 0.378906 0.380208 0.381510 0.382812 0.384115 0.385417 0.386719 0.388021 0.389323 0.390625 0.391927 0.393229 0.394531 0.395833 0.397135 0.398438 0.399740 0.401042 0.402344 0.403646 0.404948 0.406250 0.407552 0.408854 0.410156 0.411458 0.412760 0.414062 0.415365 0.416667 0.417969 0.419271 0.420573 0.421875 0.423177 0.424479 0.425781 0.427083 0.428385 0.429688 0.430990 0.432292 0.433594 0.434896 0.436198 0.437500 0.438802 0.440104 0.441406 0.442708 0.444010 0.445312 0.446615 0.447917 0.449219 0.450521 0.451823 0.453125 0.454427 0.455729 0.457031 0.458333 0.459635 0.460938 0.462240 0.463542 0.464844 0.466146 0.467448 0.468750 0.470052 0.471354
       0.65926        0.65926        0.65926        0.65926        0.65926        0.65926        0.65926        0.65926        0.65926        0.65926        0.65926        0.65926        0.65926        0.65926        0.65926        0.65926        0.65926        0.65926        0.65926        1.52384        2.28058        1.12113        0.30121        0.13455        0.67929        1.27884        1.17141        0.65244        0.39014        0.41844        0.43775        0.36878        0.37531        0.42841        0.35381        0.27498        0.18381        0.11121        0.02605        0.00575        0.04743        0.16869        0.41516        0.66358        0.79452        0.79450        0.77685        0.84929        1.00856        1.12386        1.02491        0.70346        0.43522        0.42878        0.55297        0.55118        0.43914        0.39595        0.46515        0.54065        0.63531        0.73407        0.85543        0.89937        0.86774        0.79526        0.71463        0.66521        0.61019        0.58646        0.62825        0.73520        0.77427        0.66505        0.56077        0.57946        0.63645        0.62340        0.57539        0.61048        0.71452        0.72744        0.65613        0.54811        0.55021        0.61543        0.70193        0.73133        0.69282        0.59816        0.51709        0.54416        0.63422        0.70142        0.66100        0.61308        0.66162        0.77329        0.80173        0.73010        0.66965        0.66040        0.66985        0.66219        0.66020        0.67283        0.64672        0.59588        0.53322        0.50689        0.53849        0.62183        0.68297        0.70164        0.70533        0.73119        0.74262        0.74533        0.71609        0.63931        0.54848        0.51423        0.61953        0.75933        0.77738        0.69069        0.62298        0.64250        0.68587        0.67636        0.65190        0.64515        0.62034        0.56319        0.52281        0.57173        0.64603        0.66075        0.65198        0.68467        0.74445        0.73801        0.69136        0.68347        0.71075        0.70159        0.65800        0.63201        0.64095        0.63639        0.63204        0.66208        0.70981        0.70873        0.62193        0.52319        0.49278        0.56999        0.66661        0.67762        0.64720        0.64664        0.65440        0.62907        0.61993        0.68152        0.75087        0.74298        0.68863        0.68492        0.70332        0.70521        0.68280        0.66422        0.66358        0.67612        0.70735        0.72621        0.68201        0.62717        0.61509        0.64817        0.68904        0.69895        0.66105        0.60217        0.58729        0.62786        0.66086        0.63457        0.60541        0.62399        0.65805        0.64316        0.58972        0.56873        0.61839        0.69787        0.76566        0.74856        0.66169        0.60890        0.64784        0.71087        0.72531        0.68977        0.66082        0.64867        0.64735        0.64741        0.64265        0.62240        0.62597        0.65088        0.66419        0.64566        0.65554        0.70768        0.73265        0.69050        0.62049        0.60826        0.64804        0.68974        0.68950        0.66502        0.66194        0.68464        0.68175        0.65749        0.64925        0.68369        0.71002        0.68455        0.63117        0.62024        0.64129        0.67348        0.66865        0.64564        0.61580        0.61610        0.63758        0.65458        0.65699        0.67844        0.72720        0.75857        0.72471        0.66328        0.61193        0.60741        0.63079        0.65692        0.65775        0.64246        0.63785        0.63231        0.63434        0.66518        0.71830        0.73739        0.69233        0.63071        0.62574        0.68937        0.69166        0.63612        0.60957        0.64384        0.66996        0.63251        0.59744        0.62122        0.66108        0.66416        0.61370        0.58925        0.62288        0.67015        0.70190        0.68574        0.67763        0.68654        0.69406        0.69684        0.65916        0.59237        0.55622        0.58978        0.66386        0.71702        0.72896        0.77626        0.80058        0.76613        0.66241        0.56267        0.57151        0.59823        0.56138        0.50670        0.51176        0.53933        0.55074        0.59815        0.67627        0.69960        0.69447        0.68559        0.69217        0.70182        0.74983        0.74581        0.69410        0.68360        0.77909        0.87919        0.75809        0.58249        0.53292        0.66838        0.71642        0.67601        0.68520        0.78378        0.73867        0.58238        0.52004        0.46788        0.44979        0.49187        0.64011        0.68165        0.66017        0.72026        0.71098        0.64659        0.66743        0.80293        0.83026        0.64951        0.53760        0.70571        0.71297        0.67399        0.68665        0.75875        0.62909        0.41935        0.45265        0.61827        0.55500        0.42766        0.58105        0.91983        0.98005        0.60523        0.05746       -0.36388       -0.60239       -0.68129       -0.70626
0.659262 0.659262 0.659262 0.659262 0.659262 0.659262 0.659262 0.659262 0.659262 0.659262 0.659262 0.659262 0.659262 0.659262 0.659262 0.659262 0.659262 0.659262 0.659262 1.562838 2.326609 1.297929 0.286475 0.018066 0.562723 1.419988 1.155155 0.635184 0.425806 0.452899 0.348965 0.361213 0.428767 0.412270 0.379155 0.278717 0.168171 0.130612 0.010397 0.046136 0.045004 0.137660 0.360046 0.715476 0.786910 0.776995 0.780205 0.803732 1.003805 1.107206 1.117812 0.721404 0.445528 0.423990 0.604942 0.502860 0.466600 0.323629 0.441256 0.583551 0.624225 0.724689 0.843403 0.892437 0.895678 0.760223 0.763578 0.650176 0.603739 0.597418 0.598982 0.762568 0.759188 0.713963 0.570137 0.568203 0.642910 0.585777 0.565577 0.617854 0.682078 0.755491 0.680870 0.546071 0.562710 0.530696 0.725585 0.738834 0.701903 0.622155 0.513558 0.545693 0.606933 0.703402 0.663442 0.602870 0.624499 0.757858 0.822415 0.774669 0.671674 0.671854 0.666366 0.664159 0.645758 0.666545 0.664697 0.639005 0.549338 0.485028 0.507410 0.596575 0.677004 0.709681 0.700460 0.716123 0.732606 0.749609 0.735880 0.675321 0.582804 0.484309 0.583927 0.718107 0.797005 0.729114 0.657749 0.604835 0.666522 0.671768 0.664239 0.634358 0.642987 0.590469 0.525896 0.559235 0.610038 0.671711 0.639707 0.662494 0.730991 0.762200 0.695921 0.679421 0.684019 0.717017 0.680618 0.635859 0.620640 0.657942 0.620662 0.636323 0.708371 0.728489 0.637040 0.579262 0.480619 0.531076 0.613878 0.673890 0.638380 0.660538 0.657910 0.636462 0.605315 0.632501 0.723002 0.769158 0.722082 0.686546 0.690761 0.695165 0.690666 0.697765 0.654821 0.676073 0.678095 0.744386 0.696811 0.657495 0.601594 0.644447 0.667369 0.690343 0.678104 0.613490 0.574389 0.619616 0.660821 0.661737 0.600997 0.602368 0.652863 0.654562 0.644069 0.549730 0.572555 0.653891 0.746615 0.778698 0.728410 0.609324 0.606859 0.661019 0.733905 0.736462 0.658264 0.674576 0.642028 0.647216 0.626841 0.642545 0.616113 0.632435 0.668039 0.656948 0.644847 0.666927 0.735166 0.717590 0.680639 0.618077 0.610892 0.672096 0.685417 0.669419 0.683476 0.655375 0.675071 0.677536 0.662625 0.657838 0.680664 0.712816 0.668769 0.614716 0.638292 0.632938 0.685639 0.665468 0.629831 0.612664 0.618178 0.637563 0.659008 0.652394 0.713150 0.765786 0.745948 0.698178 0.653107 0.603915 0.603833 0.644341 0.654900 0.663603 0.649389 0.645221 0.617940 0.641181 0.664923 0.758079 0.734402 0.667487 0.645089 0.624398 0.711265 0.681777 0.622414 0.612660 0.668155 0.663145 0.613678 0.605768 0.616013 0.664517 0.648214 0.599928 0.577161 0.637957 0.678984 0.699717 0.688704 0.660484 0.702493 0.690487 0.695954 0.651313 0.594134 0.543028 0.605993 0.705151 0.698952 0.755617 0.787860 0.800612 0.724169 0.639323 0.527586 0.602673 0.584191 0.547144 0.506154 0.519830 0.537756 0.557331 0.602547 0.695663 0.736020 0.663710 0.674777 0.707122 0.729335 0.728898 0.783276 0.678001 0.687674 0.797013 0.887180 0.643100 0.532318 0.557640 0.681913 0.770561 0.620085 0.739999 0.786278 0.690183 0.512302 0.593796 0.424000 0.381043 0.595274 0.587409 0.655890 0.730096 0.703591 0.672193 0.615659 0.693423 0.822094 0.859864 0.640965 0.613595 0.607481 0.789878 0.587848 0.761639 0.763560 0.596603 0.361545 0.540383 0.522169 0.523882 0.409707 0.569161 0.937643 0.859359 0.288022 -0.103609 -0.392091 -0.570331 -0.672065
0.072396 0.073459 0.076648 0.081961 0.089395 0.098946 0.110607 0.124368 0.140217 0.158135 0.178099 0.200080 0.224039 0.249927 0.277687 0.307247 0.338519 0.371403 0.405776 0.441498 0.478407 0.516316 0.555014 0.594262 0.633793 0.673312 0.712491 0.750975 0.788376 0.824277 0.858232 0.889769 0.918391 0.943580 0.964805 0.981520 0.993179 0.999238 0.999164 0.992448 0.978614 0.957229 0.927921 0.890385 0.844404 0.789861 0.726751 0.655200 0.575472 0.487989 0.393334 0.292265 0.185717 0.074807 0.039170 0.154745 0.270286 0.384016 0.494037 0.598352 0.694907 0.781628 0.856465 0.917452 0.962752 0.990727 0.999994 0.989488 0.958521 0.906843 0.834688 0.742816 0.632545 0.505768 0.364948 0.213104 0.053766 0.109081 0.271086 0.427635 0.573983 0.705394 0.817312 0.905523 0.966346 0.996800 0.994777 0.959193 0.890113 0.788840 0.657966 0.501366 0.324146 0.132516 0.066377 0.264697 0.454212 0.626626 0.773963 0.888959 0.965457 0.998783 0.986081 0.926588 0.821812 0.675616 0.494174 0.285796 0.060620 0.169827 0.393189 0.596933 0.769067 0.898885 0.977695 0.999472 0.961406 0.864271 0.712602 0.514625 0.281933 0.028910 0.228087 0.471747 0.684969 0.852099 0.960149 0.999908 0.966840 0.861697 0.690748 0.465598 0.202553 0.078432 0.355194 0.605077 0.806812 0.942402 0.998852 0.969565 0.855257 0.664269 0.412185 0.120759 0.183822 0.473211 0.719530 0.898108 0.990091 0.984605 0.880246 0.685675 0.419185 0.107226 0.218049 0.521999 0.771187 0.937142 0.999786 0.950103 0.791663 0.540773 0.225109 0.119098 0.451055 0.730220 0.921325 0.999016 0.951496 0.782603 0.511973 0.173114 0.190460 0.530663 0.801183 0.963901 0.994530 0.886571 0.652944 0.324912 0.051734 0.422828 0.733532 0.936522 0.999456 0.910494 0.680913 0.344222 0.048306 0.435135 0.754035 0.952185 0.995224 0.873639 0.605275 0.233284 0.180341 0.564850 0.852789 0.992033 0.955631 0.747537 0.402979 0.016939 0.435669 0.775026 0.969910 0.981182 0.804076 0.470291 0.042974 0.394733 0.755669 0.966109 0.981228 0.795258 0.443956 0.001550 0.448636 0.802252 0.985281 0.955837 0.717553 0.320193 0.149978 0.588466 0.895656 0.999758 0.874209 0.545233 0.087283 0.393106 0.781798 0.984273 0.949168 0.682115 0.246035 0.252831 0.690322 0.955217 0.977992 0.749884 0.326910 0.182916 0.646563 0.940576 0.984392 0.763279 0.334177 0.187921 0.660105 0.950550 0.975815 0.725743 0.268348 0.267593 0.728134 0.978369 0.942557 0.628100 0.125546 0.416398 0.834363 0.999707 0.858959 0.452302 0.096522 0.616922 0.944184 0.972110 0.688573 0.181827 0.385701 0.828775 0.999942 0.839518 0.397742 0.179438 0.697579 0.979051 0.924596 0.549674 0.018153 0.581376 0.940742 0.966252 0.645442 0.090683 0.498715 0.907447 0.983201 0.694642 0.145947 0.459215 0.892483 0.987248 0.703956 0.148293 0.466567 0.900872 0.982102 0.674787 0.097750 0.520120 0.929857 0.963130 0.602881 0.006320 0.614604 0.968610 0.917678 0.479636 0.163113 0.737977 0.997382 0.826403 0.295591 0.365965 0.868193 0.987265 0.666788 0.046600 0.596227 0.970267 0.902524 0.420314 0.257216 0.817011 0.996507 0.708137 0.084295 0.581200 0.970411 0.893827 0.384640 0.312954 0.859125 0.983818 0.621878 0.050489 0.699213 0.997509 0.791549 0.182146 0.521959 0.959037 0.900726 0.373461 0.350502 0.891694 0.962322 0.521147 0.199826 0.814969 0.990835 0.628430 0.078275 0.743561 0.999558 0.700979 0.010350 0.687608 0.999122
1.000000 1.000000 1.000000 1.000000 1.000000 1.000000 1.000000 1.000000 1.000000 1.000000 1.000000 1.000000 1.000000 1.000000 1.000000 1.000000 1.000000 1.000000 1.000000 1.000000 -0.042098 -0.042098 -0.042098 -0.042098 -0.042098 -0.042098 -0.042098 -0.042098 -0.042098 -0.042098 -0.042098 -0.042098 -0.042098 -0.042098 -0.042098 -0.042098 -0.042098 -0.042098 -0.093932 -0.093932 -0.093932 -0.093932 -0.093932 -0.093932 -0.093932 -0.093932 -0.093932 -0.093932 -0.093932 -0.093932 -0.093932 -0.093932 -0.093932 -0.093932 -0.094936 -0.054789 -0.031942 -0.031029 -0.034648 -0.061801 -0.076287 -0.055571 -0.050666 -0.048758 -0.038595 -0.020896 0.100090 0.121270 0.194371 0.225322 0.244125 0.250311 0.250546 0.238275 0.253993 0.265760 0.265605 0.266311 0.287147 0.296100 0.317601 0.362015 0.399416 0.403777 0.394657 0.383733 0.361212 0.353182 0.335319 0.321904 0.314446 0.304470 0.322396 0.365397 0.391248 0.389353 0.394700 0.420584 0.452369 0.442233 0.457120 0.471209 0.492375 0.491307 0.492544 0.520126 0.538012 0.612396 0.607030 0.592775 0.580135 0.551723 0.598226 0.600420 0.583953 0.588900 0.558427 0.552317 0.537568 0.524412 0.531184 0.541826 0.542768 0.546027 0.520634 0.447389 0.440979 0.453786 0.447611 0.403852 0.374740 0.371839 0.345866 0.267706 0.242464 0.248029 0.202950 0.145961 0.073041 0.062358 0.039448 -0.060283 -0.095778 -0.072768 -0.035055 -0.027832 -0.034846 0.000323 0.007593 0.005169 -0.018264 -0.010709 0.017389 0.058134 0.036898 0.007757 0.011287 0.037997 -0.001835 0.049071 0.144341 0.135461 0.133214 0.175048 0.199400 0.182300 0.186065 0.190774 0.200913 0.198450 0.139635 0.152487 0.241704 0.255761 0.260771 0.288067 0.325591 0.378083 0.430666 0.439230 0.479795 0.490282 0.472385 0.479741 0.454295 0.450647 0.470050 0.475470 0.448946 0.442014 0.472890 0.469514 0.384418 0.368358 0.352580 0.361486 0.386594 0.350704 0.359376 0.365732 0.364773 0.285070 0.264719 0.231139 0.133672 0.097877 0.137378 0.100737 0.105620 0.137822 0.174657 0.199676 0.228411 0.259575 0.248706 0.262473 0.278202 0.251965 0.248865 0.232342 0.202558 0.193046 0.154746 0.161468 0.172511 0.163979 0.110513 0.109365 0.088274 0.050894 0.039039 -0.023507 -0.057167 -0.049692 -0.083873 -0.047433 -0.057774 -0.078748 -0.093331 -0.099132 -0.102249 -0.099848 -0.132350 -0.119837 -0.092191 -0.122881 -0.135207 -0.111921 -0.102785 -0.167522 -0.117664 -0.146495 -0.121245 -0.130225 -0.135749 -0.159458 -0.197707 -0.226778 -0.239573 -0.266682 -0.287952 -0.278936 -0.252622 -0.285302 -0.310741 -0.319497 -0.311431 -0.268914 -0.294746 -0.302605 -0.270060 -0.248537 -0.234240 -0.229972 -0.191580 -0.204673 -0.185594 -0.140804 -0.093019 -0.097252 -0.018465 0.021302 -0.009315 -0.054383 -0.032659 -0.064169 -0.103844 -0.119442 -0.113562 -0.165414 -0.129894 -0.107478 -0.078675 -0.085787 -0.043373 -0.061398 -0.035009 -0.007090 0.010241 0.036277 0.005818 -0.037415 -0.012998 -0.039148 -0.033685 0.032923 0.030605 0.010104 0.019842 0.019398 -0.008679 -0.044177 -0.063607 -0.054579 -0.045299 -0.029903 -0.010308 -0.022490 -0.051065 0.036560 0.040331 0.037707 0.039286 -0.009899 -0.055807 -0.073829 -0.093601 -0.124127 -0.135544 -0.147339 -0.154184 -0.197965 -0.119219 -0.141887 -0.128645 -0.119084 -0.023723 -0.124676 -0.124676 -0.124676 -0.124676 -0.124676 -0.087192 -0.087192 -0.087192 -0.087192 -0.111804 -0.111804 -0.111804 -0.111804 -0.111804 -0.111804 -0.111804 -0.111804 -0.136026 -0.136026 -0.136026 -0.136026 -0.136026 -0.136026 -0.136026 -0.136026 -0.136026
0.000000 0.000000 0.000000 0.000000 2817222050283023872.000000 1137563121657169024.000000 601303813059126144.000000 1339029531290000640.000000 551505759229198464.000000 448323190085135296.000000 1190559177664482304.000000 1081941577249500928.000000 1000532636686461696.000000 512117954174974976.000000 721520016378080512.000000 656041350101317248.000000 371324115951384704.000000 1106660247836981120.000000 1211733572586978304.000000 721577191036604928.000000 0.216930 0.216930 0.216930 0.216930 0.216930 0.216930 0.216930 0.216930 0.216930 0.216930 0.216930 0.216930 0.216930 0.216930 0.216930 0.216930 0.216930 0.216930 0.240772 0.240772 0.240772 0.240772 0.240772 0.240772 0.240772 0.240772 0.240772 0.240772 0.240772 0.240772 0.240772 0.240772 0.240772 0.240772 0.240772 0.240772 0.240772 0.240772 0.240772 0.240772 0.240772 0.240772 0.240772 0.240772 0.240772 0.240772 0.269680 0.269680 0.269680 0.269680 0.269680 0.269680 0.269680 0.269680 0.269680 0.269680 0.269680 0.269680 0.269680 0.269680 0.269680 0.269680 0.269680 0.269680 0.269680 0.269680 0.291730 0.291730 0.291730 0.291730 0.291730 0.291730 0.291730 0.291730 0.291730 0.291730 0.291730 0.291730 0.291730 0.291730 0.291730 0.291730 0.304997 0.304997 0.304997 0.304997 0.304997 0.304997 0.304997 0.304997 0.304997 0.304997 0.304997 0.304997 0.304997 0.298142 0.298142 0.298142 0.298142 0.298142 0.298142 0.298142 0.298142 0.298142 0.298142 0.298142 0.298142 0.298142 0.312348 0.312348 0.312348 0.312348 0.312348 0.312348 0.312348 0.312348 0.312348 0.312348 0.312348 0.320256 0.320256 0.320256 0.320256 0.320256 0.320256 0.320256 0.320256 0.320256 0.320256 0.312348 0.312348 0.312348 0.312348 0.312348 0.312348 0.312348 0.312348 0.312348 0.312348 0.312348 0.312348 0.312348 0.312348 0.312348 0.312348 0.312348 0.312348 0.312348 0.328798 0.328798 0.328798 0.328798 0.328798 0.328798 0.328798 0.328798 0.320256 0.320256 0.320256 0.320256 0.320256 0.320256 0.320256 0.320256 0.312348 0.312348 0.312348 0.312348 0.312348 0.312348 0.312348 0.312348 0.304997 0.304997 0.304997 0.304997 0.304997 0.304997 0.304997 0.304997 0.312348 0.312348 0.312348 0.312348 0.312348 0.312348 0.312348 0.312348 0.312348 0.312348 0.312348 0.312348 0.312348 0.312348 0.304997 0.304997 0.304997 0.304997 0.304997 0.304997 0.304997 0.320256 0.320256 0.320256 0.320256 0.320256 0.320256 0.291730 0.291730 0.291730 0.291730 0.291730 0.291730 0.291730 0.304997 0.304997 0.304997 0.304997 0.304997 0.304997 0.304997 0.304997 0.304997 0.304997 0.304997 0.304997 0.298142 0.298142 0.298142 0.298142 0.298142 0.298142 0.291730 0.291730 0.291730 0.291730 0.291730 0.291730 0.291730 0.291730 0.291730 0.291730 0.291730 0.291730 0.304997 0.304997 0.304997 0.304997 0.304997 0.280056 0.280056 0.280056 0.280056 0.280056 0.280056 0.298142 0.298142 0.298142 0.298142 0.298142 0.298142 0.298142 0.298142 0.298142 0.298142 0.291730 0.291730 0.291730 0.291730 0.291730 0.285714 0.285714 0.285714 0.285714 0.285714 0.285714 0.285714 0.285714 0.285714 0.285714 0.280056 0.280056 0.280056 0.280056 0.280056 0.280056 0.280056 0.280056 0.280056 0.280056 0.274721 0.274721 0.274721 0.274721 0.274721 0.298142 0.298142 0.298142 0.298142 0.269680 0.269680 0.269680 0.269680 0.269680 0.291730 0.291730 0.291730 0.291730 0.264906 0.264906 0.264906 0.264906 0.264906 0.285714 0.285714 0.285714 0.285714 0.256074 0.256074 0.256074 0.256074 0.256074 0.280056 0.280056 0.280056 0.280056 0.274721 0.274721 0.274721 0.274721 0.274721 0.274721 0.274721 0.274721 0.269680 0.269680 0.269680 0.269680 0.269680 0.269680 0.269680 0.269680 0.269680
