# Output from CTFFind version 4.1.9, run on 2019-11-24 11:56:24
# Input file: stack1_bm3d_averaged_1_2.0_0_500_half.mrc ; Number of micrographs: 1
# Pixel size: 1.500 Angstroms ; acceleration voltage: 300.0 keV ; spherical aberration: 0.00 mm ; amplitude contrast: 0.07
# Box size: 512 pixels ; min. res.: 40.0 Angstroms ; max. res.: 6.0 Angstroms ; min. def.: 5000.0 um; max. def. 50000.0 um; num. frames averaged: 1
# 6 lines per micrograph: #1 - spatial frequency (1/Angstroms); #2 - 1D rotational average of spectrum (assuming no astigmatism); #3 - 1D rotational average of spectrum; #4 - CTF fit; #5 - cross-correlation between spectrum and CTF fit; #6 - 2sigma of expected cross correlation of noise
0.000000 0.001302 0.002604 0.003906 0.005208 0.006510 0.007812 0.009115 0.010417 0.011719 0.013021 0.014323 0.015625 0.016927 0.018229 0.019531 0.020833 0.022135 0.023438 0.024740 0.026042 0.027344 0.028646 0.029948 0.031250 0.032552 0.033854 0.035156 0.036458 0.037760 0.039062 0.040365 0.041667 0.042969 0.044271 0.045573 0.046875 0.048177 0.049479 0.050781 0.052083 0.053385 0.054688 0.055990 0.057292 0.058594 0.059896 0.061198 0.062500 0.063802 0.065104 0.066406 0.067708 0.069010 0.070312 0.071615 0.072917 0.074219 0.075521 0.076823 0.078125 0.079427 0.080729 0.082031 0.083333 0.084635 0.085938 0.087240 0.088542 0.089844 0.091146 0.092448 0.093750 0.095052 0.096354 0.097656 0.098958 0.100260 0.101562 0.102865 0.104167 0.105469 0.106771 0.108073 0.109375 0.110677 0.111979 0.113281 0.114583 0.115885 0.117188 0.118490 0.119792 0.121094 0.122396 0.123698 0.125000 0.126302 0.127604 0.128906 0.130208 0.131510 0.132812 0.134115 0.135417 0.136719 0.138021 0.139323 0.140625 0.141927 0.143229 0.144531 0.145833 0.147135 0.148438 0.149740 0.151042 0.152344 0.153646 0.154948 0.156250 0.157552 0.158854 0.160156 0.161458 0.162760 0.164062 0.165365 0.166667 0.167969 0.169271 0.170573 0.171875 0.173177 0.174479 0.175781 0.177083 0.178385 0.179688 0.180990 0.182292 0.183594 0.184896 0.186198 0.187500 0.188802 0.190104 0.191406 0.192708 0.194010 0.195312 0.196615 0.197917 0.199219 0.200521 0.201823 0.203125 0.204427 0.205729 0.207031 0.208333 0.209635 0.210938 0.212240 0.213542 0.214844 0.216146 0.217448 0.218750 0.220052 0.221354 0.222656 0.223958 0.225260 0.226562 0.227865 0.229167 0.230469 0.231771 0.233073 0.234375 0.235677 0.236979 0.238281 0.239583 0.240885 0.242188 0.243490 0.244792 0.246094 0.247396 0.248698 0.250000 0.251302 0.252604 0.253906 0.255208 0.256510 0.257812 0.259115 0.260417 0.261719 0.263021 0.264323 0.265625 0.266927 0.268229 0.269531 0.270833 0.272135 0.273438 0.274740 0.276042 0.277344 0.278646 0.279948 0.281250 0.282552 0.283854 0.285156 0.286458 0.287760 0.289062 0.290365 0.291667 0.292969 0.294271 0.295573 0.296875 0.298177 0.299479 0.300781 0.302083 0.303385 0.304688 0.305990 0.307292 0.308594 0.309896 0.311198 0.312500 0.313802 0.315104 0.316406 0.317708 0.319010 0.320312 0.321615 0.322917 0.324219 0.325521 0.326823 0.328125 0.329427 0.330729 0.332031 0.333333 0.334635 0.335938 0.337240 0.338542 0.339844 0.341146 0.342448 0.343750 0.345052 0.346354 0.347656 0.348958 0.350260 0.351562 0.352865 0.354167 0.355469 0.356771 0.358073 0.359375 0.360677 0.361979 0.363281 0.364583 0.365885 0.367188 0.368490 0.369792 0.371094 0.372396 0.373698 0.375000 0.376302 0.377604 0.378906 0.380208 0.381510 0.382812 0.384115 0.385417 0.386719 0.388021 0.389323 0.390625 0.391927 0.393229 0.394531 0.395833 0.397135 0.398438 0.399740 0.401042 0.402344 0.403646 0.404948 0.406250 0.407552 0.408854 0.410156 0.411458 0.412760 0.414062 0.415365 0.416667 0.417969 0.419271 0.420573 0.421875 0.423177 0.424479 0.425781 0.427083 0.428385 0.429688 0.430990 0.432292 0.433594 0.434896 0.436198 0.437500 0.438802 0.440104 0.441406 0.442708 0.444010 0.445312 0.446615 0.447917 0.449219 0.450521 0.451823 0.453125 0.454427 0.455729 0.457031 0.458333 0.459635 0.460938 0.462240 0.463542 0.464844 0.466146 0.467448 0.468750 0.470052 0.471354
       0.74005        0.74005        0.74005        0.74005        0.74005        0.74005        0.74005        0.74005        0.74005        0.74005        0.74005        0.74005        0.74005        0.74005        0.74005        0.74005        0.74005        0.74005        0.74005        1.57684        2.29985        1.14107        0.30789        0.16283        0.77050        1.40641        1.29031        0.73657        0.43680        0.45892        0.51545        0.49622        0.48757        0.47226        0.38649        0.37145        0.34794        0.25326        0.15677        0.17202        0.23365        0.26762        0.39207        0.62406        0.84753        0.94349        0.95794        1.00284        1.12206        1.17129        1.03666        0.73785        0.51797        0.52076        0.62924        0.65677        0.59013        0.54688        0.55163        0.55427        0.61942        0.74104        0.92332        1.01436        0.97756        0.85540        0.73878        0.68566        0.64131        0.61531        0.67403        0.83238        0.94544        0.86882        0.74197        0.71490        0.74436        0.72442        0.64820        0.64315        0.74239        0.80319        0.77849        0.65720        0.59120        0.62591        0.72906        0.78594        0.76751        0.69475        0.65888        0.68720        0.72467        0.72051        0.65889        0.64475        0.72852        0.85203        0.89470        0.83247        0.78403        0.78743        0.81617        0.78829        0.73743        0.70793        0.68521        0.66379        0.63477        0.64720        0.69934        0.75793        0.75526        0.72444        0.73863        0.81130        0.86520        0.84526        0.78042        0.71451        0.67055        0.63968        0.68363        0.76080        0.77594        0.73052        0.70551        0.75270        0.80389        0.79144        0.75065        0.72298        0.69146        0.65117        0.63990        0.69862        0.74454        0.72796        0.69517        0.70975        0.75002        0.79689        0.82804        0.81729        0.76427        0.71367        0.73748        0.80293        0.82764        0.78103        0.74601        0.75301        0.75758        0.69836        0.61119        0.59015        0.64213        0.72315        0.74892        0.73556        0.73356        0.74473        0.72440        0.67631        0.68743        0.76910        0.82334        0.80813        0.74947        0.71725        0.70350        0.71135        0.74166        0.76198        0.75387        0.73832        0.75846        0.77393        0.75374        0.71051        0.72046        0.78959        0.87434        0.87338        0.80084        0.73242        0.72798        0.76077        0.74708        0.67766        0.62577        0.63767        0.67682        0.67126        0.66427        0.70898        0.77793        0.78960        0.72858        0.69025        0.71152        0.75779        0.77593        0.76670        0.76485        0.77051        0.78919        0.81158        0.83498        0.82075        0.75094        0.66322        0.64254        0.69666        0.76826        0.78714        0.77419        0.74203        0.70332        0.66429        0.68634        0.76641        0.82884        0.80269        0.72021        0.69304        0.75178        0.84422        0.84146        0.77438        0.71094        0.68132        0.67403        0.65816        0.66839        0.72295        0.76798        0.76961        0.72961        0.69673        0.69537        0.71400        0.73447        0.75233        0.77300        0.81357        0.82984        0.80005        0.73656        0.71987        0.74401        0.77259        0.75984        0.72926        0.70446        0.71089        0.73380        0.72504        0.71417        0.79059        0.87969        0.86056        0.71592        0.61603        0.64937        0.74652        0.74362        0.69475        0.69392        0.72561        0.70619        0.68915        0.74662        0.84196        0.84927        0.78569        0.74276        0.72577        0.69454        0.66032        0.68062        0.70538        0.70401        0.68380        0.68578        0.70504        0.76634        0.82058        0.80362        0.74276        0.68473        0.71205        0.77212        0.80426        0.77473        0.74138        0.76193        0.77159        0.71066        0.64114        0.63683        0.72583        0.77808        0.81444        0.80707        0.82298        0.78327        0.67750        0.64814        0.70902        0.73946        0.68440        0.58195        0.56765        0.72648        0.93513        0.94176        0.81926        0.72106        0.78635        0.82282        0.79404        0.68855        0.61420        0.65352        0.74337        0.74809        0.69283        0.70750        0.75056        0.72642        0.61605        0.62028        0.80965        0.89559        0.76725        0.65106        0.66771        0.72539        0.75190        0.81545        0.82183        0.77594        0.66052        0.71028        0.73640        0.68723        0.73808        0.81798        0.83624        0.73468        0.77632        0.83074        0.76757        0.61655        0.58004        0.60799        0.49511        0.22012       -0.11490       -0.41066       -0.55615       -0.61058
0.740048 0.740048 0.740048 0.740048 0.740048 0.740048 0.740048 0.740048 0.740048 0.740048 0.740048 0.740048 0.740048 0.740048 0.740048 0.740048 0.740048 0.740048 0.740048 1.619495 2.361060 1.306396 0.278311 0.044879 0.665912 1.543018 1.278996 0.707055 0.476949 0.487426 0.415458 0.506489 0.541714 0.466763 0.412921 0.364710 0.342175 0.285146 0.119132 0.210773 0.232760 0.250079 0.330191 0.661719 0.824713 0.930118 0.960129 0.981175 1.096685 1.170786 1.121527 0.740544 0.540657 0.498313 0.702125 0.604027 0.609386 0.468162 0.561458 0.610623 0.603975 0.716648 0.884800 1.012871 1.010907 0.894682 0.754347 0.690402 0.647298 0.621546 0.645985 0.851272 0.897685 0.896849 0.775538 0.707818 0.775607 0.695047 0.637481 0.653279 0.711191 0.799368 0.818432 0.678001 0.591249 0.623557 0.718799 0.764213 0.781914 0.717369 0.655805 0.686696 0.722295 0.726498 0.655431 0.634764 0.681936 0.827057 0.911542 0.873515 0.775442 0.828181 0.779566 0.790082 0.744252 0.704756 0.693864 0.687562 0.641779 0.636654 0.673058 0.746304 0.763361 0.730284 0.725601 0.763624 0.838471 0.864253 0.805490 0.731580 0.688407 0.632431 0.669132 0.747538 0.776594 0.748424 0.706150 0.732184 0.792803 0.796515 0.767987 0.709265 0.725119 0.668495 0.626001 0.686435 0.726810 0.757234 0.694207 0.697285 0.709747 0.797436 0.837579 0.830243 0.791667 0.723463 0.706456 0.767755 0.838855 0.763974 0.752927 0.737818 0.778393 0.734468 0.629702 0.591807 0.576848 0.694134 0.766583 0.745611 0.714065 0.745379 0.735142 0.690650 0.664339 0.737829 0.828101 0.810004 0.767858 0.724633 0.700971 0.692526 0.724385 0.780419 0.762251 0.760080 0.724372 0.768641 0.760981 0.735545 0.704151 0.734123 0.834318 0.909424 0.840995 0.751439 0.701432 0.740935 0.795399 0.710643 0.656244 0.606759 0.641218 0.681388 0.671400 0.676155 0.750118 0.791021 0.773531 0.691152 0.711614 0.744294 0.789923 0.742616 0.758944 0.789126 0.793261 0.787228 0.825425 0.821776 0.779688 0.711823 0.657472 0.663819 0.703035 0.772479 0.800546 0.772321 0.724011 0.676698 0.652425 0.705162 0.780649 0.836032 0.782493 0.685459 0.703388 0.808013 0.866068 0.800954 0.741241 0.711796 0.664342 0.672175 0.642984 0.679882 0.751807 0.766634 0.758066 0.725255 0.688558 0.711647 0.732477 0.713758 0.768136 0.786926 0.824380 0.816972 0.784089 0.709931 0.736082 0.741536 0.778109 0.750274 0.708003 0.706914 0.714833 0.748366 0.716483 0.727732 0.816119 0.898802 0.846008 0.643427 0.638214 0.690724 0.759905 0.738938 0.691261 0.683239 0.737859 0.673456 0.709404 0.759504 0.858161 0.837075 0.753445 0.735815 0.725233 0.693913 0.653012 0.685363 0.716150 0.690981 0.690639 0.684359 0.718277 0.787121 0.827813 0.814576 0.696819 0.674730 0.726672 0.827023 0.763620 0.758646 0.758959 0.763915 0.787830 0.675430 0.626270 0.649679 0.778822 0.808701 0.760889 0.839495 0.807369 0.772465 0.649672 0.678851 0.695163 0.738607 0.666282 0.580061 0.556094 0.736543 0.933169 0.920137 0.759994 0.757226 0.848098 0.807446 0.758832 0.689561 0.656915 0.615040 0.740878 0.772029 0.729753 0.700698 0.719660 0.719217 0.601272 0.659722 0.801051 0.868452 0.853592 0.648873 0.660025 0.689801 0.778671 0.775706 0.920299 0.688754 0.735122 0.675658 0.717641 0.699942 0.718420 0.874307 0.807966 0.620171 0.798703 0.858451 0.781534 0.591540 0.580911 0.621099 0.545177 0.257880 -0.128448 -0.409016 -0.610577
0.072396 0.073452 0.076618 0.081894 0.089276 0.098760 0.110340 0.124005 0.139743 0.157537 0.177364 0.199194 0.222990 0.248705 0.276280 0.305647 0.336719 0.369397 0.403563 0.439077 0.475781 0.513492 0.552003 0.591079 0.630459 0.669852 0.708939 0.747368 0.784760 0.820704 0.854762 0.886469 0.915337 0.940855 0.962498 0.979728 0.992004 0.998786 0.999547 0.993778 0.981003 0.960787 0.932752 0.896587 0.852063 0.799048 0.737518 0.667577 0.589463 0.503566 0.410436 0.310791 0.205527 0.095715 0.017395 0.132381 0.247658 0.361494 0.472033 0.577316 0.675319 0.763989 0.841291 0.905253 0.954029 0.985946 0.999574 0.993780 0.967793 0.921257 0.854284 0.767496 0.662059 0.539702 0.402720 0.253961 0.096790 0.064960 0.227072 0.385040 0.534190 0.669819 0.787349 0.882498 0.951450 0.991035 0.998896 0.973640 0.914975 0.823807 0.702302 0.553900 0.383275 0.196238 0.000416 0.199128 0.391847 0.570344 0.726578 0.853075 0.943317 0.992128 0.996014 0.953454 0.865118 0.733980 0.565322 0.366615 0.147257 0.081805 0.308583 0.520663 0.705883 0.853063 0.952731 0.997803 0.984163 0.911108 0.781596 0.602285 0.383316 0.137850 0.118640 0.369294 0.596949 0.785346 0.920334 0.991026 0.990787 0.917966 0.776300 0.574925 0.327949 0.053609 0.226983 0.491413 0.717746 0.886407 0.981969 0.994699 0.921712 0.767567 0.544244 0.270413 0.029959 0.329585 0.600305 0.815746 0.953989 0.999952 0.947226 0.799142 0.568883 0.278577 0.042630 0.361348 0.643377 0.857405 0.978617 0.991772 0.893362 0.692538 0.410599 0.079023 0.263856 0.577169 0.822399 0.968239 0.994814 0.896677 0.684108 0.382442 0.029375 0.329522 0.646577 0.878398 0.991975 0.969681 0.812346 0.539870 0.189143 0.190647 0.544715 0.820562 0.975910 0.985477 0.845479 0.575036 0.214048 0.182305 0.551779 0.834803 0.984266 0.973691 0.802380 0.496465 0.105462 0.305370 0.665695 0.912208 1.000000 0.911191 0.659082 0.286828 0.139432 0.541992 0.845682 0.992097 0.951270 0.728370 0.363889 0.073116 0.497678 0.825322 0.989060 0.953536 0.723290 0.343117 0.109981 0.541956 0.861103 0.997785 0.920149 0.642256 0.222422 0.248334 0.665628 0.934847 0.992970 0.823997 0.464075 0.005371 0.475427 0.834729 0.996056 0.918082 0.616798 0.163273 0.332327 0.747083 0.975872 0.958526 0.696522 0.254351 0.255441 0.700359 0.962375 0.969736 0.717494 0.270715 0.251324 0.706361 0.967906 0.960918 0.684304 0.213234 0.320258 0.763684 0.987752 0.924697 0.589864 0.079340 0.456596 0.857231 0.999857 0.838199 0.418611 0.131871 0.643100 0.954191 0.964655 0.667979 0.156096 0.407886 0.840997 0.999955 0.829459 0.382774 0.193432 0.706284 0.981073 0.921476 0.544623 0.022105 0.582877 0.940649 0.966868 0.648908 0.097374 0.490984 0.902733 0.985541 0.705721 0.163494 0.441347 0.882213 0.990860 0.722774 0.177078 0.438470 0.885667 0.988276 0.702751 0.138430 0.482604 0.912044 0.974978 0.642514 0.046794 0.569808 0.952539 0.940059 0.534035 0.098021 0.690258 0.989769 0.865457 0.367240 0.291787 0.825083 0.997119 0.728680 0.135372 0.520072 0.943080 0.940082 0.508807 0.156738 0.751738 0.999695 0.782045 0.196990 0.482484 0.934686 0.941888 0.496954 0.189014 0.784887 0.998933 0.722914 0.089187 0.590372 0.976692 0.873364 0.328670 0.384254 0.902615 0.958661 0.519800 0.189984 0.802235 0.994780 0.662734 0.021765 0.696221 0.998739 0.763320 0.113492 0.599653 0.985789 0.829681 0.213721 0.522608
1.000000 1.000000 1.000000 1.000000 1.000000 1.000000 1.000000 1.000000 1.000000 1.000000 1.000000 1.000000 1.000000 1.000000 1.000000 1.000000 1.000000 1.000000 1.000000 1.000000 -0.084060 -0.084060 -0.084060 -0.084060 -0.084060 -0.084060 -0.084060 -0.084060 -0.084060 -0.084060 -0.084060 -0.084060 -0.084060 -0.084060 -0.084060 -0.084060 -0.084060 -0.084060 -0.214017 -0.214017 -0.214017 -0.214017 -0.214017 -0.214017 -0.214017 -0.214017 -0.214017 -0.214017 -0.214017 -0.214017 -0.214017 -0.214017 -0.214017 -0.214017 -0.214017 -0.214017 -0.202681 -0.200426 -0.136236 -0.113065 -0.113717 -0.115438 -0.118458 -0.117352 -0.117461 -0.095063 -0.076947 -0.056945 0.038958 0.090779 0.100118 0.090593 0.089377 0.093629 0.085536 0.111616 0.138049 0.172446 0.189743 0.188800 0.180720 0.212826 0.240864 0.297043 0.295926 0.279840 0.263044 0.269659 0.245657 0.231479 0.227726 0.237354 0.278959 0.359620 0.416765 0.416797 0.419480 0.439325 0.489191 0.519375 0.569536 0.569844 0.560369 0.570573 0.541922 0.532258 0.544012 0.600610 0.696372 0.698888 0.687627 0.695252 0.709421 0.723213 0.721255 0.743860 0.778747 0.776658 0.681331 0.601853 0.547265 0.551398 0.512340 0.446746 0.393325 0.397727 0.385100 0.381504 0.397697 0.378990 0.330379 0.310166 0.318274 0.312208 0.344034 0.372921 0.346438 0.313142 0.293676 0.284745 0.276597 0.209935 0.176590 0.188794 0.243281 0.271544 0.288637 0.296352 0.295306 0.284390 0.248999 0.260220 0.273378 0.259899 0.243850 0.212205 0.170615 0.155380 0.132567 0.182189 0.269405 0.325328 0.313787 0.350816 0.441537 0.509924 0.495447 0.494134 0.426922 0.428202 0.369525 0.301002 0.269060 0.251648 0.266668 0.234200 0.154926 0.198710 0.122081 0.120027 0.093800 0.069081 0.076193 0.039951 -0.010222 -0.046797 -0.020865 -0.018833 -0.020952 -0.024047 -0.025327 0.004242 -0.009288 -0.027264 -0.047092 -0.063535 -0.007606 0.017426 0.008489 0.007644 -0.038121 -0.028715 -0.045549 -0.052254 -0.091832 -0.077625 -0.060151 -0.088797 -0.098904 -0.067429 -0.071007 -0.034782 0.005350 0.024140 0.001297 -0.012761 -0.046296 -0.075846 -0.056015 -0.060431 -0.078641 -0.053640 -0.032357 -0.034742 0.005376 -0.011089 -0.027669 -0.012378 0.100525 0.136459 0.125336 0.104642 0.112570 0.123230 0.141118 0.137528 0.152613 0.093436 0.060089 0.083604 0.020916 0.005245 0.007548 -0.002278 -0.013482 -0.038391 -0.059518 -0.079645 -0.099073 -0.098780 -0.107505 -0.171249 -0.153556 -0.124463 -0.116337 -0.123478 -0.144394 -0.156963 -0.126598 -0.012044 -0.049295 -0.013810 -0.009336 -0.024485 -0.155685 -0.139643 -0.141533 -0.166844 -0.186552 -0.204277 -0.259736 -0.303084 -0.364945 -0.366387 -0.398367 -0.312649 -0.348602 -0.340981 -0.409645 -0.426010 -0.392029 -0.496579 -0.486586 -0.447556 -0.391579 -0.387188 -0.297705 -0.266326 -0.206599 -0.204099 -0.142108 -0.172614 -0.127045 -0.144494 -0.097916 -0.115593 -0.080994 -0.090027 -0.061536 -0.068090 -0.105643 -0.134368 -0.163902 -0.170626 -0.177428 -0.162155 -0.162480 -0.144109 -0.163450 -0.155012 -0.163389 -0.194471 -0.194926 -0.184311 -0.214656 -0.186356 -0.059554 -0.061309 -0.112077 -0.128102 -0.124303 -0.085760 -0.113017 -0.114599 -0.151436 -0.183385 -0.185907 -0.153992 -0.172761 -0.186090 -0.137757 -0.150188 -0.151041 -0.244082 -0.242939 -0.269461 -0.312838 -0.235425 -0.119684 -0.119684 -0.119684 -0.119684 -0.119684 -0.177307 -0.177307 -0.177307 -0.177307 -0.158092 -0.158092 -0.158092 -0.158092 -0.119671 -0.119671 -0.119671 -0.119671 -0.119671 -0.116052 -0.116052 -0.116052 -0.116052 -0.116052 -0.116052 -0.116052
0.000000 0.000000 0.000000 0.000000 285579489925044928.000000 640560776301409280.000000 791295024255861376.000000 406017830871477888.000000 733753182792807424.000000 244992255148923584.000000 1773985336270919424.000000 277530789941835104.000000 1044795676149503744.000000 592285068726619904.000000 544360857868544896.000000 558669627262069120.000000 778231726625294080.000000 348005948143623936.000000 839294204494596352.000000 989218112572554368.000000 0.216930 0.216930 0.216930 0.216930 0.216930 0.216930 0.216930 0.216930 0.216930 0.216930 0.216930 0.216930 0.216930 0.216930 0.216930 0.216930 0.216930 0.216930 0.234082 0.234082 0.234082 0.234082 0.234082 0.234082 0.234082 0.234082 0.234082 0.234082 0.234082 0.234082 0.234082 0.234082 0.234082 0.234082 0.234082 0.234082 0.234082 0.234082 0.234082 0.234082 0.234082 0.234082 0.234082 0.234082 0.234082 0.234082 0.234082 0.274721 0.274721 0.274721 0.274721 0.274721 0.274721 0.274721 0.274721 0.274721 0.274721 0.274721 0.274721 0.274721 0.274721 0.274721 0.274721 0.274721 0.274721 0.274721 0.291730 0.291730 0.291730 0.291730 0.291730 0.291730 0.291730 0.291730 0.291730 0.291730 0.291730 0.291730 0.291730 0.291730 0.291730 0.291730 0.298142 0.298142 0.298142 0.298142 0.298142 0.298142 0.298142 0.298142 0.298142 0.298142 0.298142 0.298142 0.298142 0.298142 0.312348 0.312348 0.312348 0.312348 0.312348 0.312348 0.312348 0.312348 0.312348 0.312348 0.312348 0.312348 0.312348 0.312348 0.312348 0.312348 0.312348 0.312348 0.312348 0.312348 0.312348 0.312348 0.312348 0.320256 0.320256 0.320256 0.320256 0.320256 0.320256 0.320256 0.320256 0.320256 0.320256 0.312348 0.312348 0.312348 0.312348 0.312348 0.312348 0.312348 0.312348 0.312348 0.312348 0.312348 0.312348 0.312348 0.312348 0.312348 0.312348 0.312348 0.312348 0.312348 0.304997 0.304997 0.304997 0.304997 0.304997 0.304997 0.304997 0.304997 0.304997 0.320256 0.320256 0.320256 0.320256 0.320256 0.320256 0.320256 0.320256 0.312348 0.312348 0.312348 0.312348 0.312348 0.312348 0.312348 0.312348 0.320256 0.320256 0.320256 0.320256 0.320256 0.320256 0.320256 0.298142 0.298142 0.298142 0.298142 0.298142 0.298142 0.298142 0.298142 0.312348 0.312348 0.312348 0.312348 0.312348 0.312348 0.312348 0.304997 0.304997 0.304997 0.304997 0.304997 0.304997 0.304997 0.320256 0.320256 0.320256 0.320256 0.320256 0.320256 0.291730 0.291730 0.291730 0.291730 0.291730 0.291730 0.291730 0.304997 0.304997 0.304997 0.304997 0.304997 0.304997 0.304997 0.304997 0.304997 0.304997 0.304997 0.304997 0.298142 0.298142 0.298142 0.298142 0.298142 0.298142 0.291730 0.291730 0.291730 0.291730 0.291730 0.291730 0.312348 0.312348 0.312348 0.312348 0.312348 0.285714 0.285714 0.285714 0.285714 0.285714 0.285714 0.304997 0.304997 0.304997 0.304997 0.304997 0.280056 0.280056 0.280056 0.280056 0.280056 0.280056 0.298142 0.298142 0.298142 0.298142 0.298142 0.291730 0.291730 0.291730 0.291730 0.291730 0.285714 0.285714 0.285714 0.285714 0.285714 0.285714 0.285714 0.285714 0.285714 0.285714 0.280056 0.280056 0.280056 0.280056 0.280056 0.280056 0.280056 0.280056 0.280056 0.280056 0.274721 0.274721 0.274721 0.274721 0.274721 0.298142 0.298142 0.298142 0.298142 0.269680 0.269680 0.269680 0.269680 0.269680 0.264906 0.264906 0.264906 0.264906 0.264906 0.285714 0.285714 0.285714 0.285714 0.285714 0.285714 0.285714 0.285714 0.256074 0.256074 0.256074 0.256074 0.256074 0.280056 0.280056 0.280056 0.280056 0.274721 0.274721 0.274721 0.274721 0.251976 0.251976 0.251976 0.251976 0.251976 0.269680 0.269680 0.269680 0.269680 0.269680 0.269680 0.269680
