# Output from CTFFind version 4.1.9, run on 2019-11-24 12:06:07
# Input file: stack1_ubbm3d_averaged_1_3.0_0_500_half.mrc ; Number of micrographs: 1
# Pixel size: 1.500 Angstroms ; acceleration voltage: 300.0 keV ; spherical aberration: 0.00 mm ; amplitude contrast: 0.07
# Box size: 512 pixels ; min. res.: 40.0 Angstroms ; max. res.: 6.0 Angstroms ; min. def.: 5000.0 um; max. def. 50000.0 um; num. frames averaged: 1
# 6 lines per micrograph: #1 - spatial frequency (1/Angstroms); #2 - 1D rotational average of spectrum (assuming no astigmatism); #3 - 1D rotational average of spectrum; #4 - CTF fit; #5 - cross-correlation between spectrum and CTF fit; #6 - 2sigma of expected cross correlation of noise
0.000000 0.001302 0.002604 0.003906 0.005208 0.006510 0.007812 0.009115 0.010417 0.011719 0.013021 0.014323 0.015625 0.016927 0.018229 0.019531 0.020833 0.022135 0.023438 0.024740 0.026042 0.027344 0.028646 0.029948 0.031250 0.032552 0.033854 0.035156 0.036458 0.037760 0.039062 0.040365 0.041667 0.042969 0.044271 0.045573 0.046875 0.048177 0.049479 0.050781 0.052083 0.053385 0.054688 0.055990 0.057292 0.058594 0.059896 0.061198 0.062500 0.063802 0.065104 0.066406 0.067708 0.069010 0.070312 0.071615 0.072917 0.074219 0.075521 0.076823 0.078125 0.079427 0.080729 0.082031 0.083333 0.084635 0.085938 0.087240 0.088542 0.089844 0.091146 0.092448 0.093750 0.095052 0.096354 0.097656 0.098958 0.100260 0.101562 0.102865 0.104167 0.105469 0.106771 0.108073 0.109375 0.110677 0.111979 0.113281 0.114583 0.115885 0.117188 0.118490 0.119792 0.121094 0.122396 0.123698 0.125000 0.126302 0.127604 0.128906 0.130208 0.131510 0.132812 0.134115 0.135417 0.136719 0.138021 0.139323 0.140625 0.141927 0.143229 0.144531 0.145833 0.147135 0.148438 0.149740 0.151042 0.152344 0.153646 0.154948 0.156250 0.157552 0.158854 0.160156 0.161458 0.162760 0.164062 0.165365 0.166667 0.167969 0.169271 0.170573 0.171875 0.173177 0.174479 0.175781 0.177083 0.178385 0.179688 0.180990 0.182292 0.183594 0.184896 0.186198 0.187500 0.188802 0.190104 0.191406 0.192708 0.194010 0.195312 0.196615 0.197917 0.199219 0.200521 0.201823 0.203125 0.204427 0.205729 0.207031 0.208333 0.209635 0.210938 0.212240 0.213542 0.214844 0.216146 0.217448 0.218750 0.220052 0.221354 0.222656 0.223958 0.225260 0.226562 0.227865 0.229167 0.230469 0.231771 0.233073 0.234375 0.235677 0.236979 0.238281 0.239583 0.240885 0.242188 0.243490 0.244792 0.246094 0.247396 0.248698 0.250000 0.251302 0.252604 0.253906 0.255208 0.256510 0.257812 0.259115 0.260417 0.261719 0.263021 0.264323 0.265625 0.266927 0.268229 0.269531 0.270833 0.272135 0.273438 0.274740 0.276042 0.277344 0.278646 0.279948 0.281250 0.282552 0.283854 0.285156 0.286458 0.287760 0.289062 0.290365 0.291667 0.292969 0.294271 0.295573 0.296875 0.298177 0.299479 0.300781 0.302083 0.303385 0.304688 0.305990 0.307292 0.308594 0.309896 0.311198 0.312500 0.313802 0.315104 0.316406 0.317708 0.319010 0.320312 0.321615 0.322917 0.324219 0.325521 0.326823 0.328125 0.329427 0.330729 0.332031 0.333333 0.334635 0.335938 0.337240 0.338542 0.339844 0.341146 0.342448 0.343750 0.345052 0.346354 0.347656 0.348958 0.350260 0.351562 0.352865 0.354167 0.355469 0.356771 0.358073 0.359375 0.360677 0.361979 0.363281 0.364583 0.365885 0.367188 0.368490 0.369792 0.371094 0.372396 0.373698 0.375000 0.376302 0.377604 0.378906 0.380208 0.381510 0.382812 0.384115 0.385417 0.386719 0.388021 0.389323 0.390625 0.391927 0.393229 0.394531 0.395833 0.397135 0.398438 0.399740 0.401042 0.402344 0.403646 0.404948 0.406250 0.407552 0.408854 0.410156 0.411458 0.412760 0.414062 0.415365 0.416667 0.417969 0.419271 0.420573 0.421875 0.423177 0.424479 0.425781 0.427083 0.428385 0.429688 0.430990 0.432292 0.433594 0.434896 0.436198 0.437500 0.438802 0.440104 0.441406 0.442708 0.444010 0.445312 0.446615 0.447917 0.449219 0.450521 0.451823 0.453125 0.454427 0.455729 0.457031 0.458333 0.459635 0.460938 0.462240 0.463542 0.464844 0.466146 0.467448 0.468750 0.470052 0.471354
       0.46778        0.46778        0.46778        0.46778        0.46778        0.46778        0.46778        0.46778        0.46778        0.46778        0.46778        0.46778        0.46778        0.46778        0.46778        0.46778        0.46778        0.46778        0.46778        1.28695        1.93853        0.87551        0.12455       -0.01344        0.51625        1.09226        1.02574        0.53043        0.19960        0.15196        0.19657        0.22706        0.24062        0.21631        0.13600        0.15065        0.13778        0.02150       -0.10300       -0.09708       -0.01232        0.06395        0.18881        0.38108        0.55803        0.65127        0.69426        0.74503        0.83419        0.85895        0.73677        0.48413        0.28743        0.27107        0.36346        0.41235        0.35712        0.26971        0.22527        0.24559        0.35059        0.46212        0.58954        0.67123        0.68636        0.61768        0.51570        0.45393        0.39965        0.35295        0.38973        0.52216        0.62582        0.56133        0.46557        0.46860        0.49971        0.45513        0.35904        0.36085        0.49280        0.57319        0.52465        0.35455        0.26201        0.32147        0.46315        0.53687        0.51773        0.46098        0.45624        0.47959        0.45339        0.38149        0.31900        0.37682        0.50488        0.58771        0.57092        0.48669        0.45382        0.48001        0.54432        0.58442        0.57547        0.52690        0.45092        0.40051        0.38426        0.40513        0.45111        0.48726        0.46701        0.41819        0.42435        0.49523        0.55019        0.53870        0.49768        0.47676        0.46685        0.43866        0.42343        0.44792        0.45917        0.42876        0.39259        0.40910        0.47901        0.53390        0.52693        0.48302        0.43797        0.43010        0.46755        0.53329        0.51982        0.43309        0.36731        0.40845        0.49130        0.54123        0.53573        0.49302        0.44418        0.40670        0.42839        0.48471        0.52653        0.50443        0.48486        0.49147        0.49037        0.45194        0.40078        0.39668        0.43254        0.47233        0.48312        0.48151        0.48038        0.46185        0.42712        0.40640        0.44893        0.52394        0.53909        0.50363        0.46897        0.45188        0.39635        0.36236        0.41061        0.50731        0.54777        0.51479        0.49923        0.51321        0.51028        0.49172        0.50396        0.54132        0.55459        0.52574        0.48716        0.46960        0.45507        0.43716        0.40334        0.37544        0.37125        0.40421        0.43459        0.43121        0.43670        0.48437        0.52382        0.48582        0.41274        0.39481        0.43462        0.47040        0.48408        0.50433        0.52225        0.49962        0.47207        0.48138        0.51952        0.53111        0.49783        0.46326        0.46024        0.48415        0.50186        0.49366        0.48477        0.48172        0.48388        0.48266        0.48464        0.50088        0.49818        0.45523        0.40201        0.39640        0.44183        0.49267        0.49176        0.46969        0.44559        0.43081        0.43515        0.44065        0.45350        0.46694        0.48300        0.49744        0.47689        0.42906        0.39915        0.41756        0.46548        0.49169        0.48351        0.47764        0.49133        0.51047        0.50041        0.46232        0.44132        0.47479        0.51903        0.51675        0.46581        0.43379        0.43766        0.44629        0.45741        0.50038        0.53127        0.48695        0.40172        0.39709        0.47848        0.52432        0.45222        0.37651        0.40781        0.49203        0.52665        0.50547        0.46201        0.43994        0.42791        0.43911        0.46466        0.47657        0.47879        0.45374        0.42060        0.37785        0.39191        0.45814        0.51847        0.53208        0.52567        0.54462        0.52808        0.47796        0.43265        0.44115        0.46044        0.43507        0.42498        0.49925        0.52454        0.43901        0.34944        0.40047        0.50695        0.52478        0.42799        0.40779        0.47094        0.51224        0.48704        0.48359        0.51202        0.49182        0.44935        0.45998        0.46934        0.41799        0.38371        0.43872        0.49753        0.49241        0.45977        0.43460        0.43305        0.44699        0.47774        0.49171        0.46481        0.40720        0.39110        0.43135        0.45103        0.43436        0.46462        0.53346        0.54833        0.47690        0.40871        0.45830        0.52252        0.52436        0.49721        0.54370        0.51130        0.33365        0.22923        0.37373        0.59276        0.59113        0.42148        0.39286        0.43889        0.45559        0.45908        0.55305        0.57523        0.45554        0.34818        0.39303        0.47342        0.41447        0.25606        0.08055       -0.07570       -0.15983       -0.19307
3.864822 3.765402 3.667257 3.570387 3.474793 3.380473 3.287428 3.195659 3.105164 3.015945 2.928000 2.841331 2.755937 2.671817 2.588973 2.507404 2.427110 2.348091 2.270347 3.779131 4.950406 3.091577 1.290461 0.787827 1.767232 2.896182 2.948625 1.923202 1.093254 0.874479 0.835916 0.934877 1.000864 0.766769 0.539830 0.650002 0.452881 0.200385 -0.010303 -0.173507 -0.082395 0.160104 0.215915 0.582339 0.813945 0.939674 1.045333 1.050149 1.168929 1.271715 1.044846 0.410283 0.124909 -0.055253 0.259699 0.093581 0.081290 -0.216987 -0.217196 -0.231998 -0.058160 0.208558 0.337367 1.050648 3.489564 -1.784836 0.505681 0.333904 1.172380 0.595052 0.245587 -1.463817 -0.898934 -0.661972 -0.017492 0.047829 -0.673332 0.185455 1.276762 1.603518 0.042495 0.449323 0.387893 -0.291845 -0.473260 -0.331976 0.009941 0.180798 0.186642 0.073324 0.148635 0.220854 0.180518 0.043261 -0.140495 -0.060879 0.224992 0.385054 0.391638 0.229384 0.207341 0.111553 0.285337 0.251471 0.359982 0.210941 0.064694 -0.049166 -0.090511 -0.086931 -0.035457 0.148994 0.099260 -0.035453 -0.018306 0.023626 0.180227 0.128178 0.122275 0.072312 0.077672 0.042244 0.027035 -0.105889 0.075281 0.023721 -0.072973 -0.162206 0.080213 5.634181 -1.643745 -0.052484 0.028757 0.137997 0.155326 -0.086205 -0.177563 0.097518 1.050840 0.765278 0.122080 -0.126136 -0.175798 -0.011636 0.078838 0.116405 0.130128 0.080058 -0.073999 -0.062538 -0.058063 -0.154322 -0.060542 -0.051514 0.236353 0.272551 0.201214 0.182395 -0.293311 -0.118376 0.029457 0.008125 0.102979 0.194370 0.110408 -0.025183 -0.198020 -0.085925 0.027154 0.091165 0.178664 0.194709 0.169519 0.100542 -0.065190 -0.072208 0.057782 0.010246 0.002316 0.062661 0.083051 -0.058872 -0.144821 -0.269134 0.215692 0.047059 -0.052621 0.019154 0.061104 -0.071494 -0.119115 -0.145352 0.014210 0.044620 0.050128 0.085869 0.149368 0.092511 0.010925 -0.117879 -0.142866 -0.027551 -0.055110 -0.030643 0.026871 0.052771 -0.014377 -0.030210 0.000297 0.020838 0.089299 -0.000723 -0.062060 -0.042194 -0.021225 0.019691 -0.010011 0.014034 -0.003665 0.016981 -0.009857 -0.002681 0.060091 0.012652 -0.066337 -0.147560 -0.091642 0.032329 0.124351 0.055130 0.025050 -0.041850 -0.050033 -0.035459 -0.033022 -0.010124 0.058937 0.056494 0.094606 0.093537 -0.102462 -0.110931 -0.142006 -0.023302 0.046004 -0.026202 -0.017282 0.038754 0.028784 -0.038002 -0.097841 0.005493 0.039179 0.111613 0.012280 -0.033655 -0.080018 -0.059388 -0.054554 -0.021947 0.035036 0.116952 -0.008248 -0.167863 -0.084111 0.093586 0.041627 -0.082065 -0.172896 -0.027944 0.095088 0.112438 0.031714 -0.029457 -0.053736 -0.055680 -0.027607 0.082544 0.066330 0.070893 0.020680 -0.156281 -0.168655 -0.147230 -0.001562 0.107235 0.069275 0.064032 0.075754 0.070937 -0.067390 -0.081965 -0.027195 -0.017448 -0.072232 -0.021862 0.106818 0.070001 -0.123572 -0.242892 -0.051754 0.114730 0.093532 -0.021805 -0.105741 0.070966 0.032701 -0.014499 0.072988 0.110738 0.035210 -0.013594 0.005561 -0.033155 -0.118881 -0.098533 0.025520 0.110574 0.114333 -0.093524 -0.031711 -0.130751 -0.037664 0.054004 0.117952 0.076533 -0.096089 -0.094397 -0.010299 -0.039236 -0.052898 0.122682 0.123571 0.108336 -0.044810 -0.195251 -0.083680 0.106415 0.093106 0.028249 0.095057 0.083465 -0.252926 -0.540492 -0.124915 0.252328 0.221167 -0.091329 -0.241156 -0.091352 -0.016204 0.030534 0.134517 0.121268 -0.205611 -0.234819 0.027778 0.203904 0.118213 -0.004588 -0.018129 -0.252038 -0.357328
0.072396 0.074560 0.081050 0.091859 0.106973 0.126369 0.150008 0.177834 0.209764 0.245681 0.285426 0.328787 0.375491 0.425192 0.477460 0.531770 0.587492 0.643884 0.700081 0.755094 0.807808 0.856985 0.901272 0.939217 0.969290 0.989915 0.999505 0.996514 0.979492 0.947152 0.898445 0.832636 0.749393 0.648872 0.531794 0.399520 0.254113 0.098367 0.064173 0.229243 0.391925 0.546756 0.687897 0.809342 0.905184 0.969928 0.998829 0.988257 0.936058 0.841888 0.707498 0.536927 0.336587 0.115193 0.116466 0.345950 0.559773 0.744183 0.886095 0.974105 0.999545 0.957465 0.847461 0.674248 0.447858 0.183405 0.099643 0.378714 0.629838 0.829729 0.958085 0.999881 0.947428 0.801896 0.574084 0.284197 0.039478 0.362999 0.650179 0.866674 0.984326 0.985232 0.864940 0.634217 0.318949 0.042082 0.401496 0.709328 0.920078 0.999830 0.932338 0.722957 0.399508 0.009546 0.385940 0.721758 0.939372 0.997635 0.881427 0.606302 0.217831 0.214873 0.610786 0.892060 0.999805 0.907387 0.628152 0.215286 0.246965 0.659699 0.930446 0.994557 0.831901 0.474411 0.001726 0.475192 0.839538 0.997636 0.904260 0.577264 0.096615 0.413398 0.815429 0.996330 0.900330 0.548208 0.035566 0.491155 0.875633 0.998563 0.816416 0.379104 0.180854 0.686658 0.972619 0.939662 0.592044 0.041197 0.527382 0.915433 0.981779 0.696035 0.155145 0.446320 0.884497 0.989975 0.715706 0.161144 0.460249 0.901290 0.979918 0.657058 0.059393 0.566618 0.954673 0.932953 0.503541 0.150913 0.741305 0.998852 0.799533 0.227955 0.453693 0.923123 0.950831 0.515856 0.175322 0.782588 0.998491 0.706542 0.048981 0.637262 0.990824 0.817900 0.203371 0.524818 0.967243 0.873074 0.287059 0.464883 0.952853 0.889275 0.303226 0.465269 0.958100 0.872649 0.252789 0.525932 0.979413 0.816895 0.133215 0.638944 0.998915 0.704685 0.057740 0.784490 0.983931 0.512857 0.313237 0.924628 0.889269 0.223702 0.604280 0.999071 0.667436 0.156089 0.866710 0.930894 0.292022 0.571648 0.998591 0.652104 0.206027 0.904294 0.884451 0.153811 0.703855 0.988834 0.459388 0.453727 0.989177 0.689737 0.198814 0.919086 0.844639 0.031597 0.811683 0.936177 0.222405 0.694241 0.981518 0.368981 0.586521 0.997890 0.472815 0.501395 0.999722 0.537938 0.446383 0.997334 0.568302 0.425291 0.996520 0.566159 0.439381 0.998498 0.531332 0.487820 0.999917 0.461287 0.567391 0.992849 0.351965 0.671433 0.964965 0.199485 0.788271 0.900285 0.002932 0.899632 0.781142 0.231900 0.979686 0.591968 0.488213 0.996206 0.325407 0.734625 0.915027 0.009677 0.924319 0.709244 0.380044 0.999999 0.372974 0.723647 0.907336 0.063022 0.954316 0.617528 0.520457 0.981259 0.154603 0.877571 0.744970 0.384061 0.998052 0.261934 0.831982 0.787584 0.342429 0.999223 0.263183 0.843128 0.760950 0.401634 0.992207 0.158454 0.905256 0.655001 0.552704 0.949576 0.056546 0.979781 0.439541 0.761993 0.813059 0.371633 0.989584 0.087389 0.950762 0.512767 0.726660 0.825983 0.378885 0.983363 0.018915 0.976728 0.397747 0.826675 0.704596 0.572098 0.907495 0.259317 0.995448 0.067033 0.974735 0.370100 0.863505 0.623949 0.686156 0.814049 0.468467 0.935984 0.234089 0.993145 0.002373 0.994165 0.212552 0.950499 0.401707 0.874462 0.560683 0.777813 0.688687 0.670869 0.787550 0.562107 0.860665 0.458118 0.912339 0.363625 0.947081 0.281896 0.969129 0.215085 0.982230 0.164402 0.989384 0.130486 0.992779 0.113684 0.993737
1.000000 1.000000 1.000000 1.000000 1.000000 1.000000 1.000000 1.000000 1.000000 1.000000 1.000000 1.000000 1.000000 1.000000 1.000000 1.000000 1.000000 1.000000 1.000000 1.000000 0.221365 0.221365 0.221365 0.221365 0.221365 0.221365 0.221365 0.208788 0.208788 0.208788 0.208788 0.208788 0.208788 0.208788 0.208788 0.208788 0.208788 0.208788 0.208788 0.208788 0.208788 0.208788 0.208788 0.208788 0.208788 0.198496 0.205668 0.316034 0.316834 0.296788 0.282650 0.252496 0.178203 0.198618 0.231453 0.228051 0.174114 0.118087 0.051076 0.008415 0.020019 -0.024617 -0.060073 -0.077642 -0.074735 -0.066226 -0.067429 -0.075287 -0.049647 0.022748 -0.054696 0.001766 0.037130 0.045155 0.070247 0.085222 0.142889 0.234994 0.296605 0.263881 0.229799 0.284575 0.352266 0.368355 0.427681 0.471033 0.487983 0.573604 0.581294 0.564234 0.579811 0.659126 0.659813 0.682082 0.699572 0.701990 0.654403 0.606457 0.614718 0.607396 0.614943 0.631667 0.613806 0.613412 0.611850 0.598129 0.655200 0.706614 0.704815 0.667958 0.599945 0.554253 0.544357 0.575878 0.560595 0.548476 0.549712 0.537698 0.536542 0.486266 0.464913 0.486327 0.437396 0.346518 0.403573 0.400050 0.347173 0.327793 0.269852 0.178566 0.151325 0.107607 0.071676 0.079483 -0.010213 -0.024998 -0.094656 -0.074660 0.037928 -0.000258 -0.064667 -0.051711 -0.099786 -0.097290 -0.028825 -0.073904 -0.124406 -0.109585 -0.170279 -0.183304 -0.238559 -0.209166 -0.213336 -0.212393 -0.129463 -0.142723 -0.150533 -0.154701 -0.211391 -0.167952 -0.108056 -0.108199 -0.180467 -0.123514 -0.146981 -0.221681 -0.186539 -0.210475 -0.153878 -0.114734 -0.072517 -0.136594 -0.095095 -0.103010 -0.031029 -0.042741 -0.133065 -0.138855 -0.177438 -0.215647 -0.139316 -0.099376 -0.113063 -0.126099 -0.121180 -0.143255 -0.199582 -0.199011 -0.309253 -0.333403 -0.343408 -0.318438 -0.263791 -0.234215 -0.263661 -0.234182 -0.196392 -0.212926 -0.140676 -0.134099 -0.120721 -0.151346 -0.136860 -0.160960 -0.219310 -0.272093 -0.303618 -0.149368 -0.188416 -0.217855 -0.184456 -0.162019 -0.189718 -0.226081 -0.156396 -0.146276 -0.195960 -0.129560 -0.110258 -0.122279 -0.146668 -0.114659 -0.067477 -0.043410 -0.028640 -0.023983 -0.014068 -0.046211 -0.050489 -0.103972 -0.041626 -0.033156 -0.073473 0.009810 -0.034741 -0.084116 -0.084104 0.010169 -0.085819 -0.127381 -0.111623 -0.118069 -0.081213 -0.035414 -0.047676 -0.010868 -0.180681 -0.170342 -0.136590 -0.161816 -0.122544 -0.150032 -0.126876 -0.155891 -0.202247 -0.248237 -0.212740 -0.208341 -0.206925 -0.206713 -0.174708 -0.174546 -0.178716 -0.183965 -0.205029 -0.204266 -0.241495 -0.241646 -0.259802 -0.231577 -0.216572 -0.205378 -0.234464 -0.148350 -0.176277 -0.182993 -0.165352 -0.191124 -0.150106 -0.183560 -0.181991 -0.109817 -0.132684 -0.153287 -0.125980 -0.149141 -0.102126 -0.069810 -0.089863 -0.148936 -0.077033 -0.164745 -0.163001 -0.168284 -0.039715 -0.083105 -0.157630 -0.105206 -0.090252 -0.086833 -0.108550 -0.080919 -0.055178 -0.041033 -0.015875 -0.072012 -0.037049 -0.043947 -0.015753 -0.050203 -0.063245 -0.001740 -0.041709 -0.071202 -0.028390 -0.064920 -0.064019 -0.078421 0.020710 0.019547 0.006810 -0.013790 -0.006506 -0.029905 -0.049018 -0.048532 -0.055037 -0.060396 -0.058192 -0.103297 -0.086745 -0.090091 -0.103818 -0.142191 -0.180455 -0.089489 -0.089489 -0.089489 -0.140861 -0.140861 -0.140861 -0.140861 -0.140861 -0.140861 -0.140861 -0.140861 -0.134430 -0.134430 -0.134430 -0.134430 -0.134430 -0.134430 -0.101454 -0.101454 -0.101454 -0.101454 -0.101454 -0.101454 -0.102004 -0.102004 -0.102004 -0.102004 -0.102004
0.000000 0.000000 0.000000 0.000000 953372384061017600.000000 812606858080244736.000000 776032153677801216.000000 482589195040582848.000000 618219249833619200.000000 449404559761168128.000000 879685863480621440.000000 616019127077205888.000000 609284068374992512.000000 868346050249950080.000000 1313992551961097984.000000 1361965343795162112.000000 630862533935316992.000000 972452758942104192.000000 1049574703709212800.000000 270062219818466272.000000 0.256074 0.256074 0.256074 0.256074 0.256074 0.256074 0.256074 0.280056 0.280056 0.280056 0.280056 0.280056 0.280056 0.280056 0.280056 0.280056 0.280056 0.280056 0.280056 0.280056 0.280056 0.280056 0.280056 0.280056 0.280056 0.280056 0.280056 0.328798 0.328798 0.328798 0.328798 0.328798 0.328798 0.328798 0.328798 0.328798 0.328798 0.328798 0.328798 0.328798 0.348155 0.348155 0.348155 0.348155 0.348155 0.348155 0.348155 0.348155 0.348155 0.348155 0.348155 0.348155 0.348155 0.348155 0.348155 0.348155 0.348155 0.348155 0.348155 0.348155 0.348155 0.348155 0.348155 0.348155 0.348155 0.348155 0.348155 0.348155 0.348155 0.348155 0.384900 0.384900 0.384900 0.384900 0.384900 0.384900 0.384900 0.348155 0.348155 0.348155 0.348155 0.348155 0.348155 0.348155 0.348155 0.384900 0.384900 0.384900 0.384900 0.384900 0.384900 0.348155 0.348155 0.348155 0.348155 0.348155 0.348155 0.348155 0.371391 0.371391 0.371391 0.371391 0.371391 0.371391 0.384900 0.384900 0.384900 0.384900 0.384900 0.348155 0.348155 0.348155 0.348155 0.348155 0.348155 0.371391 0.371391 0.371391 0.371391 0.371391 0.359211 0.359211 0.359211 0.359211 0.359211 0.359211 0.359211 0.359211 0.359211 0.359211 0.348155 0.348155 0.348155 0.348155 0.348155 0.348155 0.348155 0.348155 0.348155 0.348155 0.371391 0.371391 0.371391 0.371391 0.359211 0.359211 0.359211 0.359211 0.328798 0.328798 0.328798 0.328798 0.328798 0.348155 0.348155 0.348155 0.348155 0.348155 0.348155 0.348155 0.348155 0.338062 0.338062 0.338062 0.338062 0.338062 0.338062 0.338062 0.338062 0.328798 0.328798 0.328798 0.328798 0.371391 0.371391 0.371391 0.320256 0.320256 0.320256 0.320256 0.320256 0.320256 0.320256 0.320256 0.348155 0.348155 0.348155 0.312348 0.312348 0.312348 0.312348 0.348155 0.348155 0.348155 0.338062 0.338062 0.338062 0.298142 0.298142 0.298142 0.298142 0.328798 0.328798 0.328798 0.328798 0.328798 0.328798 0.328798 0.328798 0.328798 0.320256 0.320256 0.320256 0.285714 0.285714 0.285714 0.285714 0.312348 0.312348 0.312348 0.312348 0.312348 0.312348 0.312348 0.312348 0.312348 0.359211 0.359211 0.304997 0.304997 0.304997 0.298142 0.298142 0.298142 0.298142 0.298142 0.298142 0.298142 0.298142 0.298142 0.291730 0.291730 0.291730 0.338062 0.338062 0.285714 0.285714 0.285714 0.285714 0.285714 0.285714 0.328798 0.328798 0.280056 0.280056 0.280056 0.280056 0.280056 0.280056 0.320256 0.320256 0.274721 0.274721 0.274721 0.312348 0.312348 0.269680 0.269680 0.269680 0.312348 0.312348 0.264906 0.264906 0.264906 0.304997 0.304997 0.264906 0.264906 0.264906 0.304997 0.304997 0.260378 0.260378 0.260378 0.298142 0.298142 0.298142 0.298142 0.256074 0.256074 0.256074 0.291730 0.291730 0.291730 0.291730 0.248069 0.248069 0.248069 0.285714 0.285714 0.285714 0.285714 0.285714 0.285714 0.244339 0.244339 0.244339 0.280056 0.280056 0.280056 0.280056 0.274721 0.274721 0.274721 0.274721 0.237356 0.237356 0.237356 0.269680 0.269680 0.269680 0.269680 0.269680 0.269680 0.269680 0.269680 0.264906 0.264906 0.264906 0.264906 0.264906 0.264906 0.260378 0.260378 0.260378 0.260378 0.260378 0.260378 0.256074 0.256074 0.256074 0.256074 0.256074
