# Output from CTFFind version 4.1.9, run on 2019-11-24 11:56:28
# Input file: stack1_bm3d_averaged_1_2.0_0_2000_half.mrc ; Number of micrographs: 1
# Pixel size: 1.500 Angstroms ; acceleration voltage: 300.0 keV ; spherical aberration: 0.00 mm ; amplitude contrast: 0.07
# Box size: 512 pixels ; min. res.: 40.0 Angstroms ; max. res.: 6.0 Angstroms ; min. def.: 5000.0 um; max. def. 50000.0 um; num. frames averaged: 1
# 6 lines per micrograph: #1 - spatial frequency (1/Angstroms); #2 - 1D rotational average of spectrum (assuming no astigmatism); #3 - 1D rotational average of spectrum; #4 - CTF fit; #5 - cross-correlation between spectrum and CTF fit; #6 - 2sigma of expected cross correlation of noise
0.000000 0.001302 0.002604 0.003906 0.005208 0.006510 0.007812 0.009115 0.010417 0.011719 0.013021 0.014323 0.015625 0.016927 0.018229 0.019531 0.020833 0.022135 0.023438 0.024740 0.026042 0.027344 0.028646 0.029948 0.031250 0.032552 0.033854 0.035156 0.036458 0.037760 0.039062 0.040365 0.041667 0.042969 0.044271 0.045573 0.046875 0.048177 0.049479 0.050781 0.052083 0.053385 0.054688 0.055990 0.057292 0.058594 0.059896 0.061198 0.062500 0.063802 0.065104 0.066406 0.067708 0.069010 0.070312 0.071615 0.072917 0.074219 0.075521 0.076823 0.078125 0.079427 0.080729 0.082031 0.083333 0.084635 0.085938 0.087240 0.088542 0.089844 0.091146 0.092448 0.093750 0.095052 0.096354 0.097656 0.098958 0.100260 0.101562 0.102865 0.104167 0.105469 0.106771 0.108073 0.109375 0.110677 0.111979 0.113281 0.114583 0.115885 0.117188 0.118490 0.119792 0.121094 0.122396 0.123698 0.125000 0.126302 0.127604 0.128906 0.130208 0.131510 0.132812 0.134115 0.135417 0.136719 0.138021 0.139323 0.140625 0.141927 0.143229 0.144531 0.145833 0.147135 0.148438 0.149740 0.151042 0.152344 0.153646 0.154948 0.156250 0.157552 0.158854 0.160156 0.161458 0.162760 0.164062 0.165365 0.166667 0.167969 0.169271 0.170573 0.171875 0.173177 0.174479 0.175781 0.177083 0.178385 0.179688 0.180990 0.182292 0.183594 0.184896 0.186198 0.187500 0.188802 0.190104 0.191406 0.192708 0.194010 0.195312 0.196615 0.197917 0.199219 0.200521 0.201823 0.203125 0.204427 0.205729 0.207031 0.208333 0.209635 0.210938 0.212240 0.213542 0.214844 0.216146 0.217448 0.218750 0.220052 0.221354 0.222656 0.223958 0.225260 0.226562 0.227865 0.229167 0.230469 0.231771 0.233073 0.234375 0.235677 0.236979 0.238281 0.239583 0.240885 0.242188 0.243490 0.244792 0.246094 0.247396 0.248698 0.250000 0.251302 0.252604 0.253906 0.255208 0.256510 0.257812 0.259115 0.260417 0.261719 0.263021 0.264323 0.265625 0.266927 0.268229 0.269531 0.270833 0.272135 0.273438 0.274740 0.276042 0.277344 0.278646 0.279948 0.281250 0.282552 0.283854 0.285156 0.286458 0.287760 0.289062 0.290365 0.291667 0.292969 0.294271 0.295573 0.296875 0.298177 0.299479 0.300781 0.302083 0.303385 0.304688 0.305990 0.307292 0.308594 0.309896 0.311198 0.312500 0.313802 0.315104 0.316406 0.317708 0.319010 0.320312 0.321615 0.322917 0.324219 0.325521 0.326823 0.328125 0.329427 0.330729 0.332031 0.333333 0.334635 0.335938 0.337240 0.338542 0.339844 0.341146 0.342448 0.343750 0.345052 0.346354 0.347656 0.348958 0.350260 0.351562 0.352865 0.354167 0.355469 0.356771 0.358073 0.359375 0.360677 0.361979 0.363281 0.364583 0.365885 0.367188 0.368490 0.369792 0.371094 0.372396 0.373698 0.375000 0.376302 0.377604 0.378906 0.380208 0.381510 0.382812 0.384115 0.385417 0.386719 0.388021 0.389323 0.390625 0.391927 0.393229 0.394531 0.395833 0.397135 0.398438 0.399740 0.401042 0.402344 0.403646 0.404948 0.406250 0.407552 0.408854 0.410156 0.411458 0.412760 0.414062 0.415365 0.416667 0.417969 0.419271 0.420573 0.421875 0.423177 0.424479 0.425781 0.427083 0.428385 0.429688 0.430990 0.432292 0.433594 0.434896 0.436198 0.437500 0.438802 0.440104 0.441406 0.442708 0.444010 0.445312 0.446615 0.447917 0.449219 0.450521 0.451823 0.453125 0.454427 0.455729 0.457031 0.458333 0.459635 0.460938 0.462240 0.463542 0.464844 0.466146 0.467448 0.468750 0.470052 0.471354
       0.64119        0.64119        0.64119        0.64119        0.64119        0.64119        0.64119        0.64119        0.64118        0.64119        0.64119        0.64119        0.64119        0.64119        0.64119        0.64118        0.64119        0.64118        0.64119        1.50811        2.27211        1.10842        0.28700        0.11606        0.66139        1.26911        1.16893        0.65114        0.37663        0.39544        0.41468        0.35040        0.35137        0.39597        0.32052        0.25251        0.17692        0.11312        0.02696       -0.00366        0.02484        0.14228        0.39220        0.63611        0.75330        0.74615        0.74361        0.83915        1.00658        1.11368        1.00607        0.68822        0.42249        0.41045        0.52950        0.53055        0.42071        0.37798        0.45029        0.53751        0.63629        0.72815        0.83267        0.86996        0.84004        0.77277        0.70061        0.65904        0.60293        0.57311        0.60522        0.70133        0.73592        0.62840        0.53343        0.55416        0.60481        0.58650        0.54480        0.58808        0.69210        0.70180        0.63413        0.53870        0.55195        0.61872        0.69959        0.72397        0.68003        0.58857        0.51250        0.54418        0.63105        0.69302        0.65362        0.60851        0.65425        0.75111        0.76704        0.69448        0.63474        0.62100        0.62942        0.63421        0.64759        0.66560        0.63806        0.59013        0.52520        0.48328        0.50801        0.60744        0.69731        0.71799        0.69123        0.68967        0.69872        0.71903        0.70317        0.62001        0.50744        0.45384        0.56783        0.74560        0.78660        0.69025        0.60530        0.62919        0.68322        0.66380        0.61829        0.61448        0.60689        0.55797        0.50936        0.54941        0.62505        0.65271        0.65550        0.68974        0.73452        0.71348        0.66172        0.65294        0.67377        0.65626        0.61346        0.59422        0.61280        0.62027        0.61989        0.64575        0.68857        0.68834        0.60488        0.50191        0.47360        0.57790        0.70771        0.71738        0.64181        0.60125        0.61255        0.61595        0.61440        0.65374        0.71361        0.73100        0.70555        0.68587        0.65754        0.64301        0.65706        0.68160        0.68129        0.65997        0.66925        0.69389        0.66781        0.61893        0.59834        0.61065        0.64801        0.67955        0.65711        0.58281        0.54067        0.58193        0.64538        0.63930        0.59908        0.59094        0.61259        0.60139        0.56767        0.56172        0.61960        0.69553        0.77010        0.76941        0.69007        0.61801        0.62875        0.68306        0.71430        0.69282        0.65042        0.61528        0.60791        0.61732        0.62234        0.60431        0.61037        0.63182        0.62789        0.58823        0.58784        0.65644        0.70879        0.68810        0.61626        0.59683        0.64085        0.69896        0.70922        0.66864        0.63829        0.65401        0.67051        0.65959        0.63372        0.64399        0.66474        0.65011        0.60676        0.58991        0.61216        0.65492        0.66269        0.64151        0.60746        0.60603        0.62586        0.63212        0.61993        0.62776        0.67865        0.72505        0.71184        0.66022        0.61069        0.61604        0.64664        0.66385        0.63351        0.58606        0.57259        0.58780        0.62508        0.67590        0.72920        0.72222        0.64501        0.59187        0.62720        0.71506        0.69989        0.59601        0.56703        0.64607        0.70267        0.62188        0.51871        0.53337        0.62168        0.66479        0.60893        0.57673        0.63766        0.70754        0.73417        0.68804        0.67117        0.67503        0.68974        0.68627        0.64163        0.56681        0.51743        0.53855        0.61739        0.70225        0.73225        0.74575        0.72081        0.68062        0.63063        0.58881        0.58600        0.56965        0.49594        0.44427        0.50199        0.56797        0.56988        0.57964        0.64560        0.70505        0.70688        0.66086        0.66348        0.71583        0.77795        0.74032        0.65576        0.60783        0.64424        0.71326        0.66912        0.62515        0.63698        0.73443        0.74771        0.73461        0.73848        0.75214        0.65294        0.54913        0.57196        0.53261        0.46768        0.43357        0.57814        0.60078        0.54874        0.54474        0.61250        0.73837        0.82532        0.84221        0.80789        0.72436        0.65256        0.66148        0.53914        0.51279        0.65855        0.80609        0.65832        0.35164        0.22645        0.43182        0.62059        0.67191        0.63278        0.69637        0.78155        0.63481        0.19450       -0.30073       -0.62300       -0.71520       -0.73781
0.641185 0.641185 0.641185 0.641185 0.641185 0.641185 0.641185 0.641185 0.641185 0.641185 0.641185 0.641185 0.641185 0.641185 0.641185 0.641185 0.641185 0.641185 0.641185 1.547375 2.318115 1.285729 0.270154 0.000827 0.545128 1.409063 1.152538 0.634329 0.415417 0.427203 0.329626 0.339891 0.406084 0.378550 0.344668 0.259236 0.153373 0.138615 0.010084 0.034744 0.021767 0.112755 0.334828 0.689821 0.744502 0.731579 0.739723 0.788705 1.010329 1.096633 1.096020 0.706449 0.430681 0.408324 0.579551 0.481910 0.449625 0.307934 0.426455 0.575056 0.624966 0.723886 0.824399 0.865077 0.864978 0.738161 0.750602 0.639380 0.595273 0.588882 0.578129 0.728692 0.724394 0.674940 0.542346 0.540578 0.611319 0.549316 0.533229 0.597615 0.658082 0.729503 0.653341 0.534197 0.569397 0.537677 0.722769 0.730542 0.685138 0.613876 0.508925 0.545591 0.602251 0.701780 0.645656 0.593872 0.628369 0.742042 0.791503 0.735962 0.635274 0.636875 0.629659 0.629994 0.626973 0.657663 0.656283 0.633656 0.544416 0.466935 0.474020 0.573011 0.683239 0.730706 0.695863 0.675361 0.685449 0.719621 0.719782 0.659065 0.548618 0.430660 0.513369 0.697518 0.800256 0.740206 0.645057 0.570309 0.664398 0.669902 0.628416 0.605830 0.619200 0.582842 0.518440 0.540312 0.580301 0.657151 0.643739 0.669709 0.728495 0.736854 0.666377 0.651460 0.647983 0.673953 0.636131 0.594269 0.580866 0.647643 0.603423 0.616951 0.698777 0.702704 0.621944 0.556069 0.455606 0.522616 0.644222 0.716405 0.653020 0.625678 0.604820 0.608768 0.603282 0.613764 0.695908 0.732257 0.715557 0.713438 0.668191 0.629044 0.642841 0.693374 0.680896 0.671261 0.649184 0.706504 0.678460 0.642038 0.593000 0.621542 0.625646 0.664167 0.665388 0.602537 0.537769 0.570799 0.631451 0.659788 0.603045 0.584031 0.609157 0.606963 0.614439 0.535813 0.565657 0.657909 0.735834 0.783840 0.760147 0.627724 0.598186 0.639819 0.715083 0.731662 0.664943 0.647062 0.601726 0.608022 0.599852 0.626995 0.592963 0.622126 0.641659 0.614422 0.580062 0.598062 0.688207 0.698876 0.684003 0.606401 0.602857 0.672707 0.706324 0.688838 0.667311 0.639273 0.643152 0.668858 0.658882 0.638968 0.641370 0.671516 0.632180 0.590543 0.596410 0.613843 0.675312 0.660497 0.626312 0.601008 0.605552 0.623306 0.633092 0.612776 0.657423 0.723512 0.724815 0.690232 0.658571 0.590001 0.626333 0.658995 0.658376 0.631327 0.577070 0.573157 0.590760 0.641855 0.682787 0.762647 0.709091 0.627859 0.606341 0.641509 0.731850 0.686608 0.571466 0.577104 0.684835 0.701501 0.600914 0.507134 0.521196 0.628248 0.647714 0.594782 0.565487 0.658123 0.706221 0.745695 0.683125 0.638441 0.701988 0.680986 0.681307 0.630608 0.572956 0.504868 0.541082 0.677791 0.681086 0.770510 0.740849 0.700572 0.653922 0.623840 0.552212 0.613775 0.536040 0.484619 0.447313 0.502938 0.585636 0.551689 0.590671 0.649976 0.742570 0.671528 0.674563 0.646273 0.764021 0.733714 0.812311 0.640697 0.595033 0.662609 0.714433 0.585505 0.656126 0.653458 0.734116 0.780272 0.719838 0.740040 0.751682 0.609557 0.514602 0.655995 0.509750 0.359597 0.573606 0.513490 0.593352 0.571046 0.542703 0.633099 0.727172 0.858885 0.891766 0.778364 0.687537 0.761129 0.654431 0.539723 0.471619 0.709989 0.821144 0.625314 0.277485 0.347407 0.287764 0.672778 0.656215 0.619575 0.702204 0.762916 0.428255 0.035481 -0.334492 -0.583126 -0.706851
0.072396 0.073459 0.076648 0.081960 0.089394 0.098944 0.110604 0.124364 0.140212 0.158128 0.178091 0.200070 0.224027 0.249914 0.277672 0.307229 0.338500 0.371381 0.405752 0.441472 0.478378 0.516285 0.554981 0.594227 0.633757 0.673274 0.712452 0.750936 0.788337 0.824238 0.858194 0.889733 0.918357 0.943550 0.964779 0.981501 0.993167 0.999233 0.999169 0.992463 0.978641 0.957269 0.927975 0.890454 0.844490 0.789963 0.726871 0.655337 0.575628 0.488162 0.393524 0.292470 0.185936 0.075037 0.038930 0.154498 0.270037 0.383769 0.493796 0.598122 0.694694 0.781436 0.856302 0.917322 0.962661 0.990680 0.999996 0.989541 0.958630 0.907008 0.834910 0.743094 0.632876 0.506147 0.365368 0.213557 0.054242 0.108595 0.270603 0.427171 0.573551 0.705011 0.816992 0.905282 0.966196 0.996752 0.994839 0.959369 0.890404 0.789241 0.658468 0.501957 0.324805 0.133223 0.065650 0.263981 0.453535 0.626021 0.773462 0.888590 0.965242 0.998741 0.986223 0.926916 0.822319 0.676286 0.494979 0.286699 0.061579 0.168862 0.392272 0.596118 0.768406 0.898424 0.977469 0.999507 0.961710 0.864838 0.713407 0.515625 0.283071 0.030116 0.226893 0.470646 0.684044 0.851424 0.959783 0.999889 0.967184 0.862391 0.691755 0.466848 0.203959 0.076979 0.353811 0.603881 0.805911 0.941883 0.998776 0.969953 0.856093 0.665493 0.413698 0.122432 0.182142 0.471685 0.718309 0.897324 0.989836 0.984923 0.881124 0.687041 0.420913 0.109143 0.216141 0.520311 0.769909 0.936432 0.999742 0.950750 0.792950 0.542569 0.227214 0.116923 0.449076 0.728685 0.920440 0.998912 0.952209 0.784066 0.514016 0.175486 0.188067 0.528573 0.799687 0.963226 0.994794 0.887761 0.654918 0.327407 0.049067 0.420383 0.731676 0.935552 0.999544 0.911656 0.682997 0.346924 0.045395 0.432481 0.752077 0.951263 0.995516 0.875127 0.607737 0.236328 0.177226 0.562209 0.851097 0.991617 0.956597 0.749745 0.406052 0.013544 0.432583 0.772835 0.969054 0.981857 0.806192 0.473462 0.046602 0.391362 0.753240 0.965138 0.981948 0.797562 0.447395 0.002329 0.445131 0.799887 0.984592 0.957013 0.720374 0.324071 0.145892 0.585087 0.893777 0.999843 0.876281 0.548848 0.091626 0.389061 0.779025 0.983473 0.950579 0.685436 0.250480 0.248351 0.686939 0.953814 0.978971 0.753042 0.331466 0.178132 0.642813 0.938886 0.985258 0.766518 0.338948 0.182906 0.656228 0.948923 0.976946 0.729359 0.273467 0.262422 0.724421 0.977229 0.944375 0.632388 0.131070 0.411294 0.831233 0.999553 0.861887 0.457459 0.090718 0.612288 0.942217 0.973492 0.692915 0.187773 0.380069 0.825323 0.999856 0.842889 0.403495 0.173212 0.693006 0.977726 0.927038 0.555099 0.011600 0.575994 0.938468 0.967954 0.650573 0.097443 0.492778 0.904534 0.984441 0.699642 0.152895 0.452920 0.889250 0.988364 0.709064 0.155472 0.460083 0.897651 0.983472 0.680280 0.105226 0.513647 0.927029 0.965163 0.609017 0.001447 0.608416 0.966624 0.920796 0.486617 0.155197 0.732505 0.996761 0.830980 0.303445 0.358249 0.864029 0.988564 0.673052 0.055080 0.589345 0.968150 0.906213 0.428190 0.248749 0.811902 0.997208 0.714406 0.093231 0.573832 0.968177 0.897885 0.393110 0.304158 0.854328 0.985452 0.629217 0.041031 0.692369 0.996788 0.797401 0.191665 0.513618 0.956214 0.904967 0.382643 0.341139 0.887104 0.965020 0.529780 0.189813 0.808975 0.992175 0.636479 0.067866 0.736501 0.999816 0.708513 0.021030 0.679780 0.998611
1.000000 1.000000 1.000000 1.000000 1.000000 1.000000 1.000000 1.000000 1.000000 1.000000 1.000000 1.000000 1.000000 1.000000 1.000000 1.000000 1.000000 1.000000 1.000000 1.000000 -0.032544 -0.032544 -0.032544 -0.032544 -0.032544 -0.032544 -0.032544 -0.032544 -0.032544 -0.032544 -0.032544 -0.032544 -0.032544 -0.032544 -0.032544 -0.032544 -0.032544 -0.032544 -0.051278 -0.051278 -0.051278 -0.051278 -0.051278 -0.051278 -0.051278 -0.051278 -0.051278 -0.051278 -0.051278 -0.051278 -0.051278 -0.051278 -0.051278 -0.051278 -0.052250 -0.004890 0.017962 0.018482 0.015004 -0.014030 -0.028045 -0.007638 -0.003103 -0.001800 0.008461 0.022504 0.162970 0.183792 0.257135 0.296724 0.315964 0.321949 0.316261 0.303554 0.311988 0.288664 0.289493 0.279062 0.300113 0.301676 0.290424 0.335846 0.373296 0.377245 0.367641 0.356013 0.332069 0.322664 0.305431 0.289654 0.281802 0.291375 0.296833 0.321365 0.356020 0.353921 0.359152 0.385820 0.419135 0.408125 0.421873 0.419249 0.417284 0.416059 0.417363 0.427288 0.396624 0.467517 0.460990 0.446114 0.438535 0.426615 0.469802 0.478562 0.460881 0.458220 0.477847 0.507094 0.494565 0.480754 0.491030 0.498246 0.503738 0.509029 0.482973 0.443841 0.432074 0.464736 0.511075 0.475732 0.451242 0.449389 0.413380 0.328783 0.297497 0.281128 0.246798 0.202928 0.158879 0.149870 0.156871 0.065794 0.040550 0.112659 0.173785 0.177305 0.165738 0.204524 0.210265 0.238873 0.222355 0.262424 0.292331 0.314587 0.320633 0.307478 0.302247 0.323642 0.302258 0.325238 0.375652 0.367748 0.364510 0.391811 0.421435 0.418037 0.410863 0.424024 0.452358 0.458903 0.398964 0.403011 0.500530 0.510362 0.492507 0.509259 0.533736 0.569000 0.584691 0.575655 0.598372 0.610347 0.574392 0.560915 0.555180 0.553147 0.588240 0.586605 0.543281 0.536018 0.552771 0.548602 0.503249 0.475466 0.447193 0.463125 0.479655 0.441386 0.452488 0.451550 0.456229 0.378921 0.357181 0.339445 0.241487 0.200843 0.223136 0.188073 0.156979 0.184371 0.180710 0.199243 0.202231 0.241905 0.231595 0.260098 0.267705 0.243091 0.246116 0.241380 0.213383 0.184133 0.150792 0.149539 0.162270 0.155587 0.086418 0.066254 0.054282 0.056610 0.032823 -0.022065 -0.023345 -0.038985 -0.068189 -0.067305 -0.101167 -0.116492 -0.136779 -0.193350 -0.198731 -0.209296 -0.252334 -0.246381 -0.233869 -0.267430 -0.273366 -0.239540 -0.230027 -0.294933 -0.268116 -0.268353 -0.274366 -0.287128 -0.280059 -0.312161 -0.319698 -0.349558 -0.354848 -0.331303 -0.361440 -0.347754 -0.331123 -0.367560 -0.408035 -0.432594 -0.406105 -0.359470 -0.373947 -0.386412 -0.364518 -0.347396 -0.320175 -0.313721 -0.266955 -0.308059 -0.299824 -0.241125 -0.228870 -0.226579 -0.133716 -0.105495 -0.123639 -0.148758 -0.125329 -0.123629 -0.147776 -0.140715 -0.106720 -0.152903 -0.110652 -0.075932 -0.043191 -0.026266 -0.002369 -0.037513 0.004187 0.005699 0.017757 0.080367 0.059971 0.044288 0.076190 0.087415 0.093121 0.109692 0.106012 0.127856 0.101533 0.073065 0.040538 0.002507 -0.017921 -0.060370 -0.057979 0.025260 0.046112 -0.031875 -0.047293 -0.055969 -0.051396 -0.060051 -0.060228 -0.101220 -0.140495 -0.161507 -0.188730 -0.216466 -0.144562 -0.143926 -0.143405 -0.190753 -0.109633 -0.165444 -0.154163 -0.146645 -0.066241 -0.119992 -0.119992 -0.119992 -0.119992 -0.119992 -0.113219 -0.113219 -0.113219 -0.113219 -0.128047 -0.128047 -0.128047 -0.128047 -0.128047 -0.128047 -0.128047 -0.128047 -0.129866 -0.129866 -0.129866 -0.129866 -0.129866 -0.129866 -0.129866 -0.129866 -0.129866
0.000000 0.000000 0.000000 0.000000 2658522940196841472.000000 1134663159748103808.000000 633456281832039680.000000 1287345887788972544.000000 483810477571287424.000000 449378446383233280.000000 1249129062534920448.000000 931943452207683584.000000 915137416881538944.000000 462961538082806784.000000 775483497320426880.000000 578393838932446080.000000 346087575362339520.000000 942600468566108544.000000 1017556375314005888.000000 836171591413451264.000000 0.216930 0.216930 0.216930 0.216930 0.216930 0.216930 0.216930 0.216930 0.216930 0.216930 0.216930 0.216930 0.216930 0.216930 0.216930 0.216930 0.216930 0.216930 0.240772 0.240772 0.240772 0.240772 0.240772 0.240772 0.240772 0.240772 0.240772 0.240772 0.240772 0.240772 0.240772 0.240772 0.240772 0.240772 0.240772 0.240772 0.240772 0.240772 0.240772 0.240772 0.240772 0.240772 0.240772 0.240772 0.240772 0.240772 0.269680 0.269680 0.269680 0.269680 0.269680 0.269680 0.269680 0.269680 0.269680 0.269680 0.269680 0.269680 0.269680 0.269680 0.269680 0.269680 0.269680 0.269680 0.269680 0.269680 0.291730 0.291730 0.291730 0.291730 0.291730 0.291730 0.291730 0.291730 0.291730 0.291730 0.291730 0.291730 0.291730 0.291730 0.291730 0.291730 0.304997 0.304997 0.304997 0.304997 0.304997 0.304997 0.304997 0.304997 0.304997 0.304997 0.304997 0.304997 0.304997 0.298142 0.298142 0.298142 0.298142 0.298142 0.298142 0.298142 0.298142 0.298142 0.298142 0.298142 0.298142 0.298142 0.312348 0.312348 0.312348 0.312348 0.312348 0.312348 0.312348 0.312348 0.312348 0.312348 0.312348 0.320256 0.320256 0.320256 0.320256 0.320256 0.320256 0.320256 0.320256 0.320256 0.320256 0.312348 0.312348 0.312348 0.312348 0.312348 0.312348 0.312348 0.312348 0.312348 0.312348 0.312348 0.312348 0.312348 0.312348 0.312348 0.312348 0.312348 0.312348 0.312348 0.328798 0.328798 0.328798 0.328798 0.328798 0.328798 0.328798 0.328798 0.320256 0.320256 0.320256 0.320256 0.320256 0.320256 0.320256 0.320256 0.312348 0.312348 0.312348 0.312348 0.312348 0.312348 0.312348 0.312348 0.304997 0.304997 0.304997 0.304997 0.304997 0.304997 0.304997 0.304997 0.312348 0.312348 0.312348 0.312348 0.312348 0.312348 0.312348 0.312348 0.312348 0.312348 0.312348 0.312348 0.312348 0.312348 0.304997 0.304997 0.304997 0.304997 0.304997 0.304997 0.304997 0.320256 0.320256 0.320256 0.320256 0.320256 0.320256 0.291730 0.291730 0.291730 0.291730 0.291730 0.291730 0.291730 0.304997 0.304997 0.304997 0.304997 0.304997 0.304997 0.304997 0.304997 0.304997 0.304997 0.304997 0.304997 0.298142 0.298142 0.298142 0.298142 0.298142 0.298142 0.291730 0.291730 0.291730 0.291730 0.291730 0.291730 0.291730 0.291730 0.291730 0.291730 0.291730 0.291730 0.304997 0.304997 0.304997 0.304997 0.304997 0.280056 0.280056 0.280056 0.280056 0.280056 0.280056 0.298142 0.298142 0.298142 0.298142 0.298142 0.298142 0.298142 0.298142 0.298142 0.298142 0.291730 0.291730 0.291730 0.291730 0.291730 0.285714 0.285714 0.285714 0.285714 0.285714 0.285714 0.285714 0.285714 0.285714 0.285714 0.280056 0.280056 0.280056 0.280056 0.280056 0.280056 0.280056 0.280056 0.280056 0.280056 0.274721 0.274721 0.274721 0.274721 0.274721 0.298142 0.298142 0.298142 0.298142 0.269680 0.269680 0.269680 0.269680 0.269680 0.291730 0.291730 0.291730 0.291730 0.264906 0.264906 0.264906 0.264906 0.264906 0.285714 0.285714 0.285714 0.285714 0.256074 0.256074 0.256074 0.256074 0.256074 0.280056 0.280056 0.280056 0.280056 0.274721 0.274721 0.274721 0.274721 0.274721 0.274721 0.274721 0.274721 0.269680 0.269680 0.269680 0.269680 0.269680 0.269680 0.269680 0.269680 0.269680
