# Output from CTFFind version 4.1.9, run on 2019-11-24 12:06:15
# Input file: stack1_ubbm3d_averaged_1_3.0_0_2000_half.mrc ; Number of micrographs: 1
# Pixel size: 1.500 Angstroms ; acceleration voltage: 300.0 keV ; spherical aberration: 0.00 mm ; amplitude contrast: 0.07
# Box size: 512 pixels ; min. res.: 40.0 Angstroms ; max. res.: 6.0 Angstroms ; min. def.: 5000.0 um; max. def. 50000.0 um; num. frames averaged: 1
# 6 lines per micrograph: #1 - spatial frequency (1/Angstroms); #2 - 1D rotational average of spectrum (assuming no astigmatism); #3 - 1D rotational average of spectrum; #4 - CTF fit; #5 - cross-correlation between spectrum and CTF fit; #6 - 2sigma of expected cross correlation of noise
0.000000 0.001302 0.002604 0.003906 0.005208 0.006510 0.007812 0.009115 0.010417 0.011719 0.013021 0.014323 0.015625 0.016927 0.018229 0.019531 0.020833 0.022135 0.023438 0.024740 0.026042 0.027344 0.028646 0.029948 0.031250 0.032552 0.033854 0.035156 0.036458 0.037760 0.039062 0.040365 0.041667 0.042969 0.044271 0.045573 0.046875 0.048177 0.049479 0.050781 0.052083 0.053385 0.054688 0.055990 0.057292 0.058594 0.059896 0.061198 0.062500 0.063802 0.065104 0.066406 0.067708 0.069010 0.070312 0.071615 0.072917 0.074219 0.075521 0.076823 0.078125 0.079427 0.080729 0.082031 0.083333 0.084635 0.085938 0.087240 0.088542 0.089844 0.091146 0.092448 0.093750 0.095052 0.096354 0.097656 0.098958 0.100260 0.101562 0.102865 0.104167 0.105469 0.106771 0.108073 0.109375 0.110677 0.111979 0.113281 0.114583 0.115885 0.117188 0.118490 0.119792 0.121094 0.122396 0.123698 0.125000 0.126302 0.127604 0.128906 0.130208 0.131510 0.132812 0.134115 0.135417 0.136719 0.138021 0.139323 0.140625 0.141927 0.143229 0.144531 0.145833 0.147135 0.148438 0.149740 0.151042 0.152344 0.153646 0.154948 0.156250 0.157552 0.158854 0.160156 0.161458 0.162760 0.164062 0.165365 0.166667 0.167969 0.169271 0.170573 0.171875 0.173177 0.174479 0.175781 0.177083 0.178385 0.179688 0.180990 0.182292 0.183594 0.184896 0.186198 0.187500 0.188802 0.190104 0.191406 0.192708 0.194010 0.195312 0.196615 0.197917 0.199219 0.200521 0.201823 0.203125 0.204427 0.205729 0.207031 0.208333 0.209635 0.210938 0.212240 0.213542 0.214844 0.216146 0.217448 0.218750 0.220052 0.221354 0.222656 0.223958 0.225260 0.226562 0.227865 0.229167 0.230469 0.231771 0.233073 0.234375 0.235677 0.236979 0.238281 0.239583 0.240885 0.242188 0.243490 0.244792 0.246094 0.247396 0.248698 0.250000 0.251302 0.252604 0.253906 0.255208 0.256510 0.257812 0.259115 0.260417 0.261719 0.263021 0.264323 0.265625 0.266927 0.268229 0.269531 0.270833 0.272135 0.273438 0.274740 0.276042 0.277344 0.278646 0.279948 0.281250 0.282552 0.283854 0.285156 0.286458 0.287760 0.289062 0.290365 0.291667 0.292969 0.294271 0.295573 0.296875 0.298177 0.299479 0.300781 0.302083 0.303385 0.304688 0.305990 0.307292 0.308594 0.309896 0.311198 0.312500 0.313802 0.315104 0.316406 0.317708 0.319010 0.320312 0.321615 0.322917 0.324219 0.325521 0.326823 0.328125 0.329427 0.330729 0.332031 0.333333 0.334635 0.335938 0.337240 0.338542 0.339844 0.341146 0.342448 0.343750 0.345052 0.346354 0.347656 0.348958 0.350260 0.351562 0.352865 0.354167 0.355469 0.356771 0.358073 0.359375 0.360677 0.361979 0.363281 0.364583 0.365885 0.367188 0.368490 0.369792 0.371094 0.372396 0.373698 0.375000 0.376302 0.377604 0.378906 0.380208 0.381510 0.382812 0.384115 0.385417 0.386719 0.388021 0.389323 0.390625 0.391927 0.393229 0.394531 0.395833 0.397135 0.398438 0.399740 0.401042 0.402344 0.403646 0.404948 0.406250 0.407552 0.408854 0.410156 0.411458 0.412760 0.414062 0.415365 0.416667 0.417969 0.419271 0.420573 0.421875 0.423177 0.424479 0.425781 0.427083 0.428385 0.429688 0.430990 0.432292 0.433594 0.434896 0.436198 0.437500 0.438802 0.440104 0.441406 0.442708 0.444010 0.445312 0.446615 0.447917 0.449219 0.450521 0.451823 0.453125 0.454427 0.455729 0.457031 0.458333 0.459635 0.460938 0.462240 0.463542 0.464844 0.466146 0.467448 0.468750 0.470052 0.471354
       0.46391        0.46391        0.46391        0.46391        0.46391        0.46391        0.46391        0.46391        0.46391        0.46391        0.46391        0.46391        0.46391        0.46391        0.46391        0.46391        0.46391        0.46391        0.46391        1.34561        2.08777        0.90850        0.08249       -0.08423        0.47829        1.09449        1.01557        0.51153        0.20367        0.18374        0.20515        0.18475        0.20311        0.22433        0.14461        0.10661        0.04193       -0.06314       -0.18068       -0.18903       -0.10426        0.04366        0.27126        0.47572        0.56920        0.56712        0.58273        0.68411        0.83928        0.92033        0.78904        0.46990        0.21784        0.22211        0.36247        0.37595        0.25261        0.16776        0.23133        0.36554        0.51739        0.61101        0.67980        0.69928        0.66910        0.58598        0.48321        0.43764        0.40372        0.37329        0.39560        0.50746        0.59908        0.52109        0.40065        0.37161        0.41302        0.40858        0.36688        0.39034        0.49047        0.51952        0.46739        0.36453        0.36632        0.43318        0.52362        0.54441        0.48509        0.40202        0.35110        0.38846        0.43727        0.46467        0.42945        0.43189        0.50165        0.58136        0.56843        0.48257        0.43445        0.45015        0.49830        0.53334        0.55472        0.56002        0.50299        0.42985        0.34464        0.27619        0.25539        0.32663        0.42299        0.50438        0.53890        0.56086        0.53657        0.49190        0.44848        0.42448        0.41693        0.41385        0.47381        0.55883        0.57692        0.52442        0.47518        0.46835        0.47567        0.44677        0.43837        0.47550        0.48555        0.42019        0.32369        0.32404        0.41745        0.48450        0.47740        0.46824        0.50548        0.53275        0.50636        0.46442        0.46456        0.46277        0.43231        0.41195        0.44072        0.47700        0.47143        0.45587        0.45256        0.43849        0.38813        0.37114        0.42146        0.51829        0.57302        0.55120        0.49382        0.45493        0.43651        0.45332        0.50097        0.54472        0.53774        0.49192        0.46124        0.45543        0.43034        0.40957        0.44371        0.52974        0.58143        0.53171        0.44655        0.39342        0.37284        0.39489        0.44669        0.48826        0.49350        0.46539        0.44127        0.42431        0.40679        0.39670        0.42073        0.46947        0.52043        0.54466        0.52740        0.46692        0.41316        0.43114        0.50907        0.56081        0.56499        0.54136        0.50645        0.44769        0.40124        0.41490        0.48993        0.53308        0.47996        0.38060        0.33420        0.36376        0.43086        0.48836        0.51576        0.49524        0.47296        0.47093        0.49652        0.49102        0.44358        0.41152        0.42731        0.46101        0.47704        0.48113        0.46993        0.44602        0.42877        0.45114        0.47515        0.47216        0.44698        0.45674        0.50135        0.52304        0.50470        0.47661        0.45957        0.45870        0.45526        0.44759        0.44103        0.44242        0.46286        0.48871        0.48614        0.45773        0.44482        0.48490        0.53216        0.53138        0.46612        0.41634        0.42525        0.45919        0.46619        0.45362        0.44388        0.43036        0.42460        0.45090        0.48882        0.49093        0.45612        0.44347        0.46432        0.47959        0.45589        0.44567        0.46184        0.47156        0.44424        0.38675        0.35962        0.39887        0.45028        0.46677        0.46724        0.48375        0.53126        0.53777        0.49670        0.44427        0.42925        0.43573        0.45296        0.48056        0.51387        0.50803        0.44804        0.40930        0.41034        0.43309        0.42835        0.44372        0.50636        0.53236        0.50304        0.42053        0.39930        0.45327        0.51069        0.48673        0.45133        0.46020        0.44896        0.43066        0.40943        0.43491        0.47404        0.46253        0.42957        0.38568        0.41240        0.47497        0.55054        0.52329        0.41642        0.38748        0.46195        0.52689        0.53644        0.50335        0.47838        0.46481        0.45891        0.46316        0.46718        0.41626        0.43198        0.46631        0.50505        0.46759        0.43604        0.46886        0.46855        0.47451        0.50657        0.52268        0.43714        0.38164        0.39240        0.39141        0.36231        0.42397        0.43896        0.42746        0.42813        0.46995        0.41477        0.37865        0.46852        0.60278        0.51822        0.37347        0.41086        0.47248        0.34756        0.22989        0.33007        0.38654        0.15363       -0.11427       -0.24051
0.463913 0.463913 0.463913 0.463913 0.463913 0.463913 0.463913 0.463913 0.463913 0.463913 0.463913 0.463913 0.463913 0.463913 0.463913 0.463913 0.463913 0.463913 0.463913 1.375215 2.135936 1.096907 0.068608 -0.209605 0.379126 1.205240 1.015854 0.494518 0.248242 0.213101 0.121539 0.172602 0.252127 0.209613 0.176784 0.106337 0.035397 -0.028987 -0.227740 -0.144217 -0.105713 0.017602 0.215875 0.519625 0.566547 0.548564 0.584544 0.646346 0.821478 0.906234 0.876982 0.480939 0.238535 0.216177 0.410726 0.334194 0.277830 0.102146 0.205628 0.394508 0.511452 0.600892 0.674186 0.684421 0.698046 0.625806 0.487492 0.445560 0.388111 0.398163 0.358857 0.541634 0.566139 0.568430 0.427437 0.346172 0.437733 0.361132 0.359523 0.398568 0.461559 0.528876 0.498765 0.350703 0.381012 0.420881 0.517188 0.544573 0.508436 0.420674 0.346107 0.381009 0.417783 0.483095 0.414470 0.406358 0.474952 0.584954 0.599154 0.533797 0.422535 0.459984 0.488020 0.493566 0.549026 0.578827 0.516471 0.466408 0.375685 0.274959 0.229042 0.312123 0.394453 0.491846 0.521481 0.555575 0.532215 0.512145 0.455088 0.430853 0.416465 0.399056 0.457617 0.542871 0.585646 0.543757 0.501052 0.454936 0.504247 0.432887 0.431556 0.462046 0.498683 0.451690 0.341654 0.309821 0.376012 0.485074 0.489404 0.458422 0.467309 0.522853 0.537119 0.490676 0.444632 0.462638 0.430968 0.416353 0.431413 0.451153 0.489883 0.446684 0.462606 0.445833 0.399796 0.375753 0.380963 0.472735 0.563861 0.576877 0.500562 0.481281 0.421842 0.439283 0.457781 0.536229 0.563516 0.509600 0.473235 0.463663 0.433050 0.402800 0.408426 0.503205 0.573695 0.601057 0.471502 0.416402 0.347820 0.379881 0.421548 0.476712 0.491203 0.510191 0.441101 0.426363 0.400186 0.399180 0.410794 0.435928 0.502127 0.535279 0.533067 0.507188 0.453673 0.392401 0.452641 0.546976 0.572370 0.583275 0.510210 0.498916 0.414411 0.377350 0.442686 0.534769 0.555675 0.445380 0.343730 0.337649 0.380355 0.459073 0.505891 0.524163 0.473042 0.480148 0.467539 0.511616 0.475630 0.420091 0.414366 0.437505 0.472185 0.490120 0.466301 0.455686 0.439780 0.436162 0.460872 0.496377 0.463158 0.437575 0.455973 0.522529 0.537519 0.486505 0.469616 0.446554 0.453125 0.469645 0.455307 0.426509 0.457579 0.469237 0.494432 0.479683 0.447083 0.451046 0.510126 0.531868 0.531430 0.453138 0.398750 0.449443 0.471339 0.462699 0.443896 0.445001 0.426650 0.423482 0.468993 0.498088 0.489890 0.442595 0.437116 0.471323 0.480428 0.450125 0.436932 0.472003 0.475654 0.424158 0.368174 0.350903 0.396600 0.469465 0.464397 0.469782 0.496997 0.523000 0.560942 0.471344 0.428927 0.410348 0.460924 0.459775 0.489993 0.526096 0.476706 0.470495 0.396799 0.409746 0.439022 0.429102 0.446142 0.517823 0.547655 0.490254 0.397119 0.403282 0.479548 0.517943 0.486173 0.421464 0.462588 0.444890 0.440876 0.412599 0.428911 0.470329 0.450011 0.444597 0.379633 0.403457 0.507207 0.538586 0.524736 0.403024 0.376570 0.450167 0.525462 0.531756 0.532908 0.459915 0.469683 0.436888 0.480227 0.458159 0.450878 0.406151 0.464159 0.495169 0.437306 0.450994 0.469265 0.489781 0.464922 0.525375 0.546330 0.437007 0.376115 0.389284 0.355441 0.413392 0.371042 0.482460 0.445208 0.379530 0.488893 0.422113 0.356443 0.438666 0.600815 0.543791 0.374491 0.410992 0.475507 0.313639 0.207415 0.313828 0.422298 0.156299 -0.240508
0.072396 0.073451 0.076614 0.081885 0.089261 0.098736 0.110304 0.123957 0.139681 0.157459 0.177267 0.199077 0.222852 0.248543 0.276095 0.305436 0.336482 0.369133 0.403270 0.438757 0.475434 0.513119 0.551605 0.590658 0.630018 0.669395 0.708469 0.746890 0.784281 0.820230 0.854301 0.886031 0.914930 0.940491 0.962188 0.979485 0.991842 0.998719 0.999589 0.993944 0.981307 0.961245 0.933378 0.897393 0.853061 0.800246 0.738925 0.669196 0.591296 0.505609 0.412681 0.313227 0.208134 0.098470 0.014522 0.129425 0.244662 0.358507 0.469108 0.574511 0.672698 0.761618 0.839236 0.903585 0.952811 0.985242 0.999440 0.994263 0.968930 0.923072 0.856784 0.770671 0.665879 0.544116 0.407654 0.259319 0.102455 0.059128 0.221229 0.379357 0.528848 0.665004 0.783246 0.879284 0.949287 0.990059 0.999212 0.975314 0.918028 0.828207 0.707962 0.560676 0.390966 0.204589 0.008292 0.190404 0.383475 0.562703 0.720042 0.847995 0.940000 0.990819 0.996876 0.956555 0.870415 0.741315 0.574421 0.377088 0.158616 0.070129 0.297219 0.510258 0.697073 0.846429 0.948762 0.996855 0.986427 0.916585 0.790082 0.613367 0.396385 0.152126 0.104064 0.355397 0.584723 0.775721 0.914102 0.988777 0.992845 0.924347 0.786691 0.588680 0.344122 0.071008 0.209716 0.475692 0.704935 0.877694 0.978248 0.996477 0.929031 0.779978 0.560807 0.289757 0.009528 0.309952 0.583372 0.803244 0.947294 0.999928 0.954101 0.812447 0.587461 0.300657 0.019269 0.339171 0.624833 0.844651 0.973261 0.994653 0.904413 0.710738 0.434042 0.105095 0.238199 0.555053 0.806647 0.961002 0.997258 0.908780 0.704601 0.408907 0.058502 0.301533 0.623533 0.863575 0.987654 0.976763 0.830155 0.566178 0.220398 0.158857 0.517055 0.801257 0.968090 0.990642 0.863190 0.602883 0.247936 0.147587 0.521763 0.814475 0.977199 0.981398 0.823959 0.528640 0.143023 0.268736 0.636375 0.895528 0.999230 0.926868 0.688786 0.325485 0.098715 0.506732 0.822630 0.985916 0.963549 0.757183 0.404014 0.029300 0.458785 0.799258 0.981398 0.966267 0.754267 0.386321 0.063329 0.501641 0.835881 0.993428 0.938075 0.679034 0.270338 0.199719 0.627237 0.915619 0.997729 0.852166 0.509601 0.047201 0.428111 0.804088 0.989820 0.938285 0.659052 0.217608 0.279185 0.708500 0.961912 0.973261 0.736753 0.310168 0.198306 0.656935 0.944468 0.982655 0.758373 0.328995 0.191270 0.661079 0.950294 0.976458 0.729255 0.275359 0.258444 0.720073 0.975397 0.947826 0.642312 0.146030 0.395412 0.820165 0.998659 0.873905 0.480871 0.061957 0.587329 0.930448 0.981081 0.720041 0.227630 0.339785 0.798706 0.997882 0.869017 0.451470 0.118218 0.649953 0.963200 0.948882 0.608610 0.056797 0.516514 0.910499 0.984284 0.708468 0.178312 0.417694 0.864017 0.996235 0.762696 0.246281 0.363395 0.838635 0.998802 0.780049 0.262424 0.357689 0.841054 0.997953 0.763774 0.227348 0.400943 0.870668 0.991314 0.710814 0.139842 0.490078 0.919484 0.968247 0.612568 0.001629 0.616811 0.971112 0.910489 0.457407 0.195171 0.764369 0.999688 0.794351 0.235730 0.429658 0.903690 0.970420 0.596019 0.051986 0.677727 0.991386 0.844303 0.301492 0.384680 0.890341 0.973059 0.589695 0.078817 0.710769 0.997796 0.796369 0.201832 0.494210 0.945522 0.923850 0.436331 0.273565 0.845673 0.985605 0.617811 0.071045 0.724495 0.999816 0.749009 0.100864 0.602488 0.984826 0.837849 0.237069 0.494075 0.956569 0.894032 0.337082 0.408451
1.000000 1.000000 1.000000 1.000000 1.000000 1.000000 1.000000 1.000000 1.000000 1.000000 1.000000 1.000000 1.000000 1.000000 1.000000 1.000000 1.000000 1.000000 1.000000 1.000000 -0.017643 -0.017643 -0.017643 -0.017643 -0.017643 -0.017643 -0.017643 -0.017643 -0.017643 -0.017643 -0.017643 -0.017643 -0.017643 -0.017643 -0.017643 -0.017643 -0.017643 -0.017643 -0.073782 -0.073782 -0.073782 -0.073782 -0.073782 -0.073782 -0.073782 -0.073782 -0.073782 -0.073782 -0.073782 -0.073782 -0.073782 -0.073782 -0.073782 -0.073782 -0.073782 -0.073782 -0.060094 -0.040134 -0.007000 0.006949 -0.003378 -0.009032 -0.006453 -0.003851 -0.008296 -0.011834 0.000844 0.279692 0.337138 0.383089 0.379498 0.368409 0.367649 0.365834 0.341347 0.315865 0.327740 0.356487 0.376540 0.381428 0.371968 0.392610 0.416989 0.449057 0.449482 0.445817 0.418964 0.425597 0.413637 0.403870 0.397112 0.402365 0.444306 0.470238 0.520617 0.514369 0.515892 0.538264 0.569038 0.518241 0.546566 0.519892 0.517765 0.528267 0.503440 0.502551 0.553035 0.559684 0.556704 0.539901 0.488846 0.446711 0.471635 0.504823 0.500628 0.506420 0.498222 0.509738 0.510647 0.476129 0.452037 0.474755 0.488831 0.484717 0.505620 0.502666 0.487203 0.445963 0.398039 0.375486 0.342555 0.321400 0.313799 0.306796 0.336839 0.341630 0.304719 0.289083 0.293712 0.316367 0.310485 0.323088 0.344316 0.324227 0.362297 0.377194 0.385870 0.361747 0.361972 0.341418 0.316030 0.311718 0.377014 0.471004 0.444307 0.428056 0.443666 0.444387 0.430171 0.399075 0.407248 0.365109 0.341111 0.368813 0.366504 0.322807 0.291829 0.289409 0.320609 0.332306 0.373465 0.377796 0.359024 0.346691 0.356097 0.376642 0.324098 0.337112 0.268212 0.225046 0.251269 0.271654 0.266781 0.224855 0.236423 0.224554 0.245347 0.237734 0.196857 0.193313 0.215719 0.190205 0.155384 0.174229 0.130631 0.131046 0.103017 0.066636 0.060578 0.043147 0.025449 0.017441 0.059140 0.072801 0.053042 0.080970 0.105251 0.098670 0.078940 0.052816 0.032214 0.102539 0.096334 0.095803 0.125012 0.118103 0.161949 0.180423 0.164056 0.188940 0.156871 0.133254 0.100021 0.071634 0.048004 0.002879 -0.019945 -0.063213 -0.134246 -0.148697 -0.152919 -0.151052 -0.152860 -0.151322 -0.160713 -0.160590 -0.169766 -0.213049 -0.238481 -0.216052 -0.248409 -0.280239 -0.273382 -0.273534 -0.269355 -0.290616 -0.258240 -0.212461 -0.186838 -0.190408 -0.135591 -0.092582 -0.106323 -0.147283 -0.136808 -0.197927 -0.204645 -0.187814 -0.229665 -0.226397 -0.167171 -0.204823 -0.254345 -0.250275 -0.239656 -0.222000 -0.174907 -0.151674 -0.112851 -0.105804 -0.169171 -0.135448 -0.111140 -0.053291 -0.037905 -0.007775 0.023671 0.035625 0.071531 0.118998 0.120931 0.182989 0.217981 0.220255 0.282692 0.301857 0.283284 0.294256 0.334195 0.321033 0.359902 0.371083 0.382172 0.389705 0.396555 0.374765 0.392228 0.384386 0.315606 0.331015 0.373872 0.325414 0.341613 0.332094 0.306250 0.315137 0.256728 0.267906 0.241324 0.186436 0.183078 0.207104 0.257760 0.259163 0.283900 0.278677 0.244482 0.244613 0.229961 0.251972 0.224311 0.295898 0.227716 0.215778 0.188848 0.174443 0.171041 0.161487 0.157307 0.158404 0.065338 0.081150 0.104833 0.094680 0.156110 0.156110 0.156110 0.156110 0.156110 0.139330 0.139330 0.139330 0.139330 0.139330 0.139330 0.139330 0.139330 0.198236 0.198236 0.198236 0.198236 0.198236 0.127408 0.127408 0.127408 0.127408 0.130247 0.130247 0.130247 0.130247 0.130247 0.130247 0.130247
0.000000 0.000000 0.000000 0.000000 0.000000 0.000000 0.000000 0.000000 0.000000 0.000000 0.000000 0.000000 0.000000 0.000000 0.000000 0.000000 0.000000 0.000000 0.000000 0.000000 0.216930 0.216930 0.216930 0.216930 0.216930 0.216930 0.216930 0.216930 0.216930 0.216930 0.216930 0.216930 0.216930 0.216930 0.216930 0.216930 0.216930 0.216930 0.234082 0.234082 0.234082 0.234082 0.234082 0.234082 0.234082 0.234082 0.234082 0.234082 0.234082 0.234082 0.234082 0.234082 0.234082 0.234082 0.234082 0.234082 0.234082 0.234082 0.234082 0.234082 0.234082 0.234082 0.234082 0.234082 0.234082 0.234082 0.234082 0.274721 0.274721 0.274721 0.274721 0.274721 0.274721 0.274721 0.274721 0.274721 0.274721 0.274721 0.274721 0.274721 0.274721 0.274721 0.274721 0.274721 0.274721 0.274721 0.291730 0.291730 0.291730 0.291730 0.291730 0.291730 0.291730 0.291730 0.291730 0.291730 0.291730 0.291730 0.291730 0.291730 0.291730 0.291730 0.298142 0.298142 0.298142 0.298142 0.298142 0.298142 0.298142 0.298142 0.298142 0.298142 0.298142 0.298142 0.298142 0.298142 0.312348 0.312348 0.312348 0.312348 0.312348 0.312348 0.312348 0.312348 0.312348 0.312348 0.312348 0.312348 0.312348 0.312348 0.312348 0.312348 0.312348 0.312348 0.312348 0.312348 0.312348 0.312348 0.312348 0.304997 0.304997 0.304997 0.304997 0.304997 0.304997 0.304997 0.304997 0.304997 0.304997 0.304997 0.320256 0.320256 0.320256 0.320256 0.320256 0.320256 0.320256 0.320256 0.320256 0.312348 0.312348 0.312348 0.312348 0.312348 0.312348 0.312348 0.312348 0.312348 0.304997 0.304997 0.304997 0.304997 0.304997 0.304997 0.304997 0.304997 0.304997 0.320256 0.320256 0.320256 0.320256 0.320256 0.320256 0.320256 0.320256 0.312348 0.312348 0.312348 0.312348 0.312348 0.312348 0.312348 0.312348 0.304997 0.304997 0.304997 0.304997 0.304997 0.304997 0.304997 0.304997 0.312348 0.312348 0.312348 0.312348 0.312348 0.312348 0.312348 0.312348 0.312348 0.312348 0.312348 0.312348 0.312348 0.312348 0.304997 0.304997 0.304997 0.304997 0.304997 0.304997 0.304997 0.320256 0.320256 0.320256 0.320256 0.320256 0.320256 0.291730 0.291730 0.291730 0.291730 0.291730 0.291730 0.291730 0.304997 0.304997 0.304997 0.304997 0.304997 0.304997 0.304997 0.304997 0.304997 0.304997 0.304997 0.304997 0.298142 0.298142 0.298142 0.298142 0.298142 0.298142 0.291730 0.291730 0.291730 0.291730 0.291730 0.291730 0.291730 0.291730 0.291730 0.291730 0.291730 0.291730 0.304997 0.304997 0.304997 0.304997 0.304997 0.280056 0.280056 0.280056 0.280056 0.280056 0.280056 0.298142 0.298142 0.298142 0.298142 0.298142 0.298142 0.298142 0.298142 0.298142 0.298142 0.291730 0.291730 0.291730 0.291730 0.291730 0.285714 0.285714 0.285714 0.285714 0.285714 0.285714 0.285714 0.285714 0.285714 0.285714 0.280056 0.280056 0.280056 0.280056 0.280056 0.280056 0.280056 0.280056 0.280056 0.280056 0.274721 0.274721 0.274721 0.274721 0.274721 0.269680 0.269680 0.269680 0.269680 0.269680 0.291730 0.291730 0.291730 0.291730 0.264906 0.264906 0.264906 0.264906 0.264906 0.285714 0.285714 0.285714 0.285714 0.260378 0.260378 0.260378 0.260378 0.260378 0.280056 0.280056 0.280056 0.280056 0.280056 0.280056 0.280056 0.280056 0.251976 0.251976 0.251976 0.251976 0.251976 0.274721 0.274721 0.274721 0.274721 0.269680 0.269680 0.269680 0.269680 0.269680 0.269680 0.269680
