# Output from CTFFind version 4.1.9, run on 2019-11-24 12:06:10
# Input file: stack1_ubbm3d_averaged_1_2.0_0_1000_half.mrc ; Number of micrographs: 1
# Pixel size: 1.500 Angstroms ; acceleration voltage: 300.0 keV ; spherical aberration: 0.00 mm ; amplitude contrast: 0.07
# Box size: 512 pixels ; min. res.: 40.0 Angstroms ; max. res.: 6.0 Angstroms ; min. def.: 5000.0 um; max. def. 50000.0 um; num. frames averaged: 1
# 6 lines per micrograph: #1 - spatial frequency (1/Angstroms); #2 - 1D rotational average of spectrum (assuming no astigmatism); #3 - 1D rotational average of spectrum; #4 - CTF fit; #5 - cross-correlation between spectrum and CTF fit; #6 - 2sigma of expected cross correlation of noise
0.000000 0.001302 0.002604 0.003906 0.005208 0.006510 0.007812 0.009115 0.010417 0.011719 0.013021 0.014323 0.015625 0.016927 0.018229 0.019531 0.020833 0.022135 0.023438 0.024740 0.026042 0.027344 0.028646 0.029948 0.031250 0.032552 0.033854 0.035156 0.036458 0.037760 0.039062 0.040365 0.041667 0.042969 0.044271 0.045573 0.046875 0.048177 0.049479 0.050781 0.052083 0.053385 0.054688 0.055990 0.057292 0.058594 0.059896 0.061198 0.062500 0.063802 0.065104 0.066406 0.067708 0.069010 0.070312 0.071615 0.072917 0.074219 0.075521 0.076823 0.078125 0.079427 0.080729 0.082031 0.083333 0.084635 0.085938 0.087240 0.088542 0.089844 0.091146 0.092448 0.093750 0.095052 0.096354 0.097656 0.098958 0.100260 0.101562 0.102865 0.104167 0.105469 0.106771 0.108073 0.109375 0.110677 0.111979 0.113281 0.114583 0.115885 0.117188 0.118490 0.119792 0.121094 0.122396 0.123698 0.125000 0.126302 0.127604 0.128906 0.130208 0.131510 0.132812 0.134115 0.135417 0.136719 0.138021 0.139323 0.140625 0.141927 0.143229 0.144531 0.145833 0.147135 0.148438 0.149740 0.151042 0.152344 0.153646 0.154948 0.156250 0.157552 0.158854 0.160156 0.161458 0.162760 0.164062 0.165365 0.166667 0.167969 0.169271 0.170573 0.171875 0.173177 0.174479 0.175781 0.177083 0.178385 0.179688 0.180990 0.182292 0.183594 0.184896 0.186198 0.187500 0.188802 0.190104 0.191406 0.192708 0.194010 0.195312 0.196615 0.197917 0.199219 0.200521 0.201823 0.203125 0.204427 0.205729 0.207031 0.208333 0.209635 0.210938 0.212240 0.213542 0.214844 0.216146 0.217448 0.218750 0.220052 0.221354 0.222656 0.223958 0.225260 0.226562 0.227865 0.229167 0.230469 0.231771 0.233073 0.234375 0.235677 0.236979 0.238281 0.239583 0.240885 0.242188 0.243490 0.244792 0.246094 0.247396 0.248698 0.250000 0.251302 0.252604 0.253906 0.255208 0.256510 0.257812 0.259115 0.260417 0.261719 0.263021 0.264323 0.265625 0.266927 0.268229 0.269531 0.270833 0.272135 0.273438 0.274740 0.276042 0.277344 0.278646 0.279948 0.281250 0.282552 0.283854 0.285156 0.286458 0.287760 0.289062 0.290365 0.291667 0.292969 0.294271 0.295573 0.296875 0.298177 0.299479 0.300781 0.302083 0.303385 0.304688 0.305990 0.307292 0.308594 0.309896 0.311198 0.312500 0.313802 0.315104 0.316406 0.317708 0.319010 0.320312 0.321615 0.322917 0.324219 0.325521 0.326823 0.328125 0.329427 0.330729 0.332031 0.333333 0.334635 0.335938 0.337240 0.338542 0.339844 0.341146 0.342448 0.343750 0.345052 0.346354 0.347656 0.348958 0.350260 0.351562 0.352865 0.354167 0.355469 0.356771 0.358073 0.359375 0.360677 0.361979 0.363281 0.364583 0.365885 0.367188 0.368490 0.369792 0.371094 0.372396 0.373698 0.375000 0.376302 0.377604 0.378906 0.380208 0.381510 0.382812 0.384115 0.385417 0.386719 0.388021 0.389323 0.390625 0.391927 0.393229 0.394531 0.395833 0.397135 0.398438 0.399740 0.401042 0.402344 0.403646 0.404948 0.406250 0.407552 0.408854 0.410156 0.411458 0.412760 0.414062 0.415365 0.416667 0.417969 0.419271 0.420573 0.421875 0.423177 0.424479 0.425781 0.427083 0.428385 0.429688 0.430990 0.432292 0.433594 0.434896 0.436198 0.437500 0.438802 0.440104 0.441406 0.442708 0.444010 0.445312 0.446615 0.447917 0.449219 0.450521 0.451823 0.453125 0.454427 0.455729 0.457031 0.458333 0.459635 0.460938 0.462240 0.463542 0.464844 0.466146 0.467448 0.468750 0.470052 0.471354
       0.50079        0.50079        0.50079        0.50079        0.50079        0.50079        0.50079        0.50079        0.50079        0.50079        0.50079        0.50079        0.50079        0.50079        0.50079        0.50079        0.50079        0.50079        0.50079        1.36692        2.09985        0.92980        0.12015       -0.03643        0.51997        1.14603        1.07958        0.55543        0.21694        0.17521        0.21358        0.22853        0.25765        0.26487        0.17818        0.14833        0.09953        0.00358       -0.10921       -0.13950       -0.10030        0.02184        0.27196        0.51550        0.62344        0.62702        0.66670        0.78726        0.92116        0.96290        0.80310        0.47226        0.23143        0.25827        0.43019        0.43981        0.27612        0.14896        0.20290        0.35292        0.51497        0.61103        0.70341        0.77241        0.78596        0.69386        0.52937        0.43111        0.38541        0.36850        0.40227        0.53562        0.66747        0.62311        0.49173        0.43187        0.45693        0.47007        0.45035        0.47208        0.56439        0.58540        0.53237        0.42254        0.40657        0.47327        0.54988        0.53620        0.44263        0.35296        0.34015        0.39868        0.44756        0.45642        0.41459        0.42716        0.52741        0.64009        0.65637        0.58490        0.54061        0.54369        0.56570        0.56206        0.56384        0.57463        0.52992        0.45497        0.38019        0.35740        0.37377        0.40983        0.42187        0.44073        0.50806        0.60095        0.63888        0.59943        0.52791        0.47024        0.42357        0.41143        0.47717        0.55582        0.57389        0.52576        0.48334        0.47285        0.48684        0.49457        0.50132        0.49839        0.48039        0.48001        0.48329        0.49653        0.49953        0.49408        0.50140        0.53610        0.57360        0.58936        0.57539        0.53586        0.50842        0.48487        0.48699        0.48750        0.49632        0.47956        0.46347        0.47876        0.50241        0.48739        0.39468        0.33160        0.37838        0.50966        0.59112        0.55061        0.47583        0.46358        0.47174        0.44529        0.44796        0.52589        0.61494        0.62941        0.57762        0.53276        0.48152        0.46661        0.51664        0.60420        0.61165        0.52230        0.45303        0.47161        0.49188        0.47949        0.48251        0.52491        0.59203        0.61009        0.55969        0.46799        0.39730        0.40688        0.46046        0.48176        0.48211        0.50475        0.52870        0.49178        0.43961        0.45502        0.52129        0.52705        0.47436        0.44642        0.47788        0.51009        0.51958        0.51782        0.53275        0.52182        0.48266        0.45012        0.47136        0.54577        0.60745        0.61354        0.57418        0.52106        0.48645        0.47990        0.50844        0.51613        0.47080        0.40822        0.42564        0.51209        0.57255        0.56007        0.50594        0.47675        0.46915        0.48024        0.47447        0.48804        0.51836        0.54294        0.52626        0.49012        0.49603        0.53625        0.53917        0.49228        0.45830        0.45839        0.46065        0.46857        0.49808        0.52579        0.51580        0.49301        0.50661        0.53665        0.53534        0.52245        0.53168        0.54205        0.51208        0.47982        0.46821        0.46620        0.45519        0.45573        0.49094        0.52132        0.49178        0.43777        0.43648        0.49171        0.53073        0.50836        0.46290        0.46359        0.49370        0.50724        0.50213        0.51593        0.54348        0.53789        0.47420        0.45554        0.51308        0.58112        0.58514        0.53658        0.49368        0.49148        0.48494        0.47250        0.48449        0.52047        0.54067        0.51898        0.45089        0.42800        0.48021        0.55580        0.57439        0.52828        0.45548        0.41786        0.42239        0.43187        0.42422        0.40318        0.41832        0.49132        0.57036        0.58288        0.55454        0.52797        0.48225        0.42107        0.44642        0.54854        0.55174        0.44283        0.40483        0.50370        0.61078        0.56615        0.46665        0.47123        0.50102        0.49460        0.43761        0.45236        0.51511        0.58732        0.62584        0.56684        0.48354        0.46201        0.48501        0.45127        0.39915        0.45545        0.50990        0.47343        0.41502        0.50714        0.61241        0.62199        0.57112        0.53837        0.45314        0.36901        0.35400        0.38310        0.44553        0.46772        0.45017        0.45538        0.48348        0.57696        0.62816        0.58136        0.49189        0.47422        0.51691        0.53260        0.50709        0.40377        0.21663       -0.01134       -0.18907       -0.25682       -0.27791
0.500790 0.500790 0.500790 0.500790 0.500790 0.500790 0.500790 0.500790 0.500790 0.500790 0.500790 0.500790 0.500790 0.500790 0.500790 0.500790 0.500790 0.500790 0.500790 1.399285 2.149366 1.114168 0.101893 -0.149881 0.416623 1.251655 1.082701 0.544187 0.259072 0.196678 0.120914 0.225619 0.316183 0.251911 0.200755 0.144944 0.073309 -0.004979 -0.120498 -0.084937 -0.096397 -0.004375 0.210257 0.559972 0.622095 0.593886 0.670766 0.754276 0.908334 0.960842 0.886110 0.468001 0.257953 0.240194 0.488778 0.403665 0.309362 0.073627 0.187022 0.381809 0.497530 0.613397 0.683628 0.750868 0.806299 0.748685 0.525046 0.470373 0.360394 0.381446 0.372099 0.549671 0.632612 0.668980 0.526067 0.415458 0.474645 0.428829 0.429439 0.489726 0.537715 0.585930 0.570521 0.412466 0.425341 0.467613 0.554466 0.537615 0.451216 0.368673 0.328351 0.394245 0.442965 0.476339 0.397605 0.414366 0.481938 0.614053 0.690324 0.630918 0.545323 0.536783 0.566801 0.541517 0.554988 0.578271 0.561075 0.485822 0.395428 0.350914 0.347426 0.413766 0.423706 0.417547 0.474655 0.559644 0.626587 0.622192 0.548443 0.489392 0.435192 0.394994 0.468892 0.536115 0.587548 0.531249 0.496564 0.486760 0.479568 0.480483 0.500706 0.485040 0.497478 0.481924 0.479420 0.501087 0.494020 0.509836 0.487670 0.544805 0.565798 0.583490 0.600173 0.548211 0.507586 0.488792 0.477546 0.471805 0.490942 0.507150 0.475833 0.467797 0.487256 0.522845 0.429610 0.335681 0.342079 0.445721 0.582871 0.548682 0.489836 0.474938 0.469510 0.449896 0.427471 0.497726 0.585572 0.624110 0.618875 0.575034 0.473378 0.474781 0.458970 0.578688 0.630771 0.588371 0.465733 0.476827 0.468605 0.484720 0.486269 0.488542 0.548657 0.630622 0.584065 0.464595 0.410726 0.396555 0.453137 0.468396 0.483296 0.492281 0.527124 0.493187 0.467632 0.419376 0.477675 0.546927 0.507892 0.464815 0.452230 0.497517 0.522490 0.516717 0.503148 0.554233 0.509839 0.460682 0.448265 0.513058 0.564443 0.612137 0.614024 0.566221 0.490258 0.478562 0.497055 0.522592 0.501465 0.454554 0.394232 0.446323 0.556175 0.580662 0.535609 0.471732 0.485183 0.473627 0.480084 0.477642 0.500606 0.536200 0.538540 0.516366 0.494179 0.506248 0.543767 0.523682 0.479230 0.450793 0.463079 0.473381 0.454901 0.522938 0.521302 0.519065 0.490548 0.497962 0.532964 0.533434 0.528244 0.529533 0.531969 0.480087 0.490365 0.464831 0.463019 0.448474 0.458271 0.524085 0.517918 0.478279 0.415368 0.448047 0.511068 0.527734 0.501100 0.451772 0.460049 0.505214 0.513108 0.490999 0.534953 0.551103 0.507878 0.488779 0.455357 0.554779 0.594409 0.556923 0.517728 0.490449 0.500060 0.476182 0.483717 0.488807 0.523822 0.536761 0.505211 0.444712 0.421439 0.490452 0.550426 0.566485 0.523087 0.449540 0.425997 0.410899 0.443696 0.407882 0.388904 0.423387 0.500279 0.585087 0.586199 0.559666 0.524703 0.495684 0.389395 0.453888 0.548488 0.576374 0.450212 0.431671 0.513601 0.621095 0.523931 0.442669 0.457990 0.537288 0.464474 0.445256 0.457182 0.529468 0.605029 0.631241 0.556488 0.486414 0.462878 0.487978 0.424255 0.408474 0.424206 0.568790 0.466156 0.425615 0.503546 0.626393 0.616015 0.545969 0.543770 0.477394 0.355049 0.329946 0.436719 0.428931 0.448357 0.493245 0.414416 0.501671 0.576420 0.648074 0.539683 0.489450 0.473846 0.528843 0.534177 0.503451 0.435768 0.242735 -0.078352 -0.241814 -0.277915
0.072396 0.073448 0.076602 0.081858 0.089212 0.098659 0.110194 0.123808 0.139486 0.157213 0.176965 0.198713 0.222420 0.248040 0.275516 0.304777 0.335741 0.368307 0.402359 0.437760 0.474352 0.511955 0.550364 0.589346 0.628643 0.667967 0.707001 0.745399 0.782784 0.818749 0.852860 0.884658 0.913655 0.939348 0.961214 0.978720 0.991326 0.998497 0.999706 0.994446 0.982242 0.962657 0.935310 0.899886 0.856150 0.803963 0.743291 0.674225 0.596991 0.511961 0.419667 0.320807 0.216254 0.107056 0.005561 0.120202 0.235306 0.349168 0.459953 0.565723 0.664471 0.754158 0.832754 0.898292 0.948915 0.982937 0.998902 0.995644 0.972347 0.928600 0.864452 0.780450 0.677680 0.557783 0.422962 0.275974 0.120094 0.040930 0.202957 0.361542 0.512054 0.649811 0.770233 0.869004 0.942246 0.986692 0.999856 0.980186 0.927203 0.841602 0.725322 0.581565 0.414771 0.230532 0.035440 0.163106 0.357167 0.538568 0.699251 0.831649 0.929074 0.986095 0.998891 0.965550 0.886296 0.763626 0.602338 0.409436 0.193899 0.033668 0.261517 0.477336 0.668922 0.824887 0.935388 0.992811 0.992372 0.932590 0.815582 0.647147 0.436612 0.196428 0.058478 0.311569 0.545752 0.744535 0.893239 0.980160 0.997597 0.942643 0.817679 0.630474 0.393881 0.125099 0.155470 0.425705 0.663503 0.848608 0.964439 0.999698 0.949620 0.816734 0.611003 0.349292 0.054171 0.247917 0.528953 0.761946 0.923600 0.996781 0.972513 0.851274 0.643390 0.368431 0.053587 0.268855 0.564749 0.801717 0.952793 0.999668 0.935148 0.764461 0.505211 0.185852 0.157201 0.483598 0.753767 0.933802 0.999920 0.941860 0.764764 0.489151 0.148895 0.212687 0.548199 0.812368 0.968293 0.992842 0.880424 0.644470 0.316265 0.058822 0.427397 0.735548 0.936827 0.999497 0.911893 0.684978 0.351493 0.038340 0.424108 0.744450 0.946932 0.996904 0.883848 0.624002 0.258603 0.152220 0.539052 0.834881 0.986880 0.966221 0.774047 0.442303 0.029012 0.391480 0.741705 0.955422 0.990510 0.837793 0.523902 0.107306 0.332077 0.707982 0.944764 0.992996 0.840343 0.515297 0.082584 0.369158 0.745306 0.965144 0.979606 0.782873 0.415002 0.045473 0.497780 0.840761 0.995739 0.925089 0.642144 0.209638 0.273464 0.694194 0.952003 0.983222 0.777526 0.382017 0.108654 0.574366 0.898745 0.998581 0.845891 0.476649 0.016665 0.507498 0.867422 1.000000 0.867335 0.501884 0.000378 0.504364 0.871875 0.999786 0.849743 0.460715 0.059974 0.565407 0.910279 0.993011 0.786581 0.348431 0.194319 0.681007 0.964835 0.957726 0.658703 0.156436 0.395882 0.826724 0.999573 0.857074 0.441264 0.117376 0.639941 0.956072 0.960087 0.647434 0.118727 0.451372 0.871242 0.996924 0.782518 0.298339 0.290654 0.780128 0.997274 0.862638 0.420656 0.173350 0.706643 0.984998 0.904200 0.490502 0.106084 0.664879 0.975833 0.919114 0.512801 0.090924 0.661374 0.977095 0.912527 0.489482 0.128188 0.696621 0.987878 0.882098 0.418532 0.217005 0.765252 0.999007 0.818304 0.294987 0.353849 0.854670 0.992874 0.706041 0.114087 0.528924 0.942858 0.944015 0.528312 0.123182 0.721322 0.996740 0.822129 0.273090 0.402318 0.894273 0.973468 0.599565 0.056094 0.686975 0.993937 0.828020 0.264850 0.427366 0.914110 0.956407 0.529907 0.158897 0.770574 0.999512 0.727849 0.088570 0.597132 0.980034 0.861457 0.298584 0.420355 0.921912 0.941599 0.465311 0.258528 0.846346 0.982383 0.589961 0.122587 0.770052 0.997807 0.677467 0.018045
1.000000 1.000000 1.000000 1.000000 1.000000 1.000000 1.000000 1.000000 1.000000 1.000000 1.000000 1.000000 1.000000 1.000000 1.000000 1.000000 1.000000 1.000000 1.000000 1.000000 -0.108472 -0.108472 -0.108472 -0.108472 -0.108472 -0.108472 -0.108472 -0.108472 -0.108472 -0.108472 -0.108472 -0.108472 -0.108472 -0.108472 -0.108472 -0.108472 -0.108472 -0.108472 -0.191810 -0.191810 -0.191810 -0.191810 -0.191810 -0.191810 -0.191810 -0.191810 -0.191810 -0.191810 -0.191810 -0.191810 -0.191810 -0.191810 -0.191810 -0.191810 -0.191810 -0.191810 -0.177836 -0.172905 -0.151041 -0.132846 -0.137957 -0.142160 -0.143038 -0.139508 -0.136965 -0.133347 -0.107417 0.056894 0.099794 0.153586 0.156802 0.144491 0.143029 0.146002 0.137673 0.128924 0.160250 0.178228 0.189585 0.195145 0.182726 0.213323 0.249825 0.293746 0.294150 0.288323 0.251168 0.262366 0.248103 0.231443 0.220752 0.240157 0.322144 0.376390 0.434437 0.431805 0.432919 0.451525 0.498557 0.496952 0.505586 0.501037 0.512394 0.519362 0.498474 0.454515 0.415381 0.382642 0.372987 0.348797 0.324217 0.350877 0.410717 0.431407 0.431132 0.447507 0.477385 0.483269 0.442457 0.440999 0.440704 0.445658 0.437989 0.410346 0.421134 0.429970 0.421068 0.398213 0.363213 0.369417 0.336162 0.326405 0.322170 0.281863 0.268254 0.278202 0.254629 0.224309 0.215226 0.209323 0.190771 0.196100 0.214469 0.217484 0.226858 0.267114 0.311598 0.334841 0.354347 0.361888 0.473236 0.455555 0.471545 0.476985 0.410437 0.403727 0.409854 0.345903 0.336641 0.324201 0.306392 0.337216 0.355815 0.331871 0.295137 0.297065 0.314515 0.302142 0.283458 0.279752 0.273187 0.266122 0.311651 0.346268 0.343885 0.348529 0.339443 0.324501 0.213929 0.192865 0.199009 0.162590 0.157536 0.135997 0.076443 0.031588 0.030088 -0.006533 -0.078637 -0.126640 -0.154943 -0.202938 -0.242666 -0.211069 -0.255838 -0.224921 -0.228515 -0.271551 -0.240939 -0.220333 -0.229143 -0.265893 -0.306611 -0.289059 -0.309339 -0.287672 -0.270122 -0.259774 -0.292161 -0.334497 -0.370068 -0.404742 -0.428017 -0.458256 -0.468927 -0.430760 -0.433434 -0.401958 -0.397927 -0.382544 -0.391435 -0.397415 -0.435639 -0.417174 -0.414193 -0.443153 -0.411769 -0.440912 -0.442393 -0.387416 -0.397342 -0.399077 -0.343434 -0.334078 -0.337681 -0.257504 -0.260753 -0.279256 -0.250880 -0.228641 -0.205275 -0.136035 -0.128276 -0.054234 -0.039020 -0.023491 -0.003447 -0.041622 -0.046953 0.011680 0.019285 0.041778 0.055377 -0.121868 -0.121041 -0.130189 -0.108914 -0.087835 -0.095943 -0.099663 -0.079131 -0.046898 -0.072936 -0.054648 -0.016836 0.004528 0.014392 0.023526 0.052019 0.091731 0.091069 0.162929 0.200933 0.194203 0.167435 0.189839 0.164711 0.176140 0.160888 0.092485 0.083921 0.092436 0.100581 0.077227 0.080924 0.113549 0.074969 0.013230 0.029469 -0.012540 0.019475 -0.029619 -0.013822 -0.038808 -0.002513 0.006653 0.005489 -0.014784 0.042995 0.037755 0.059813 0.121008 0.142526 0.158587 0.210510 0.193855 0.179115 0.216449 0.215250 0.174530 0.143135 0.149973 0.118330 0.107429 0.119095 0.077178 0.116302 0.105388 0.075543 0.079055 0.063737 0.059488 0.070578 0.053503 0.065368 0.063900 0.104221 0.097156 0.175993 0.167809 0.198511 0.194549 0.173971 0.214960 0.262471 0.218448 0.152106 0.153582 0.192661 0.227205 0.227205 0.227205 0.227205 0.178094 0.178094 0.178094 0.178094 0.178094 0.230504 0.230504 0.230504 0.230504 0.230504 0.230504 0.230504 0.230504 0.246834 0.246834 0.246834 0.246834 0.246834 0.246834 0.246834
0.000000 0.000000 0.000000 0.000000 0.000000 0.000000 0.000000 0.000000 0.000000 0.000000 0.000000 0.000000 0.000000 0.000000 0.000000 0.000000 0.000000 0.000000 0.000000 0.000000 0.216930 0.216930 0.216930 0.216930 0.216930 0.216930 0.216930 0.216930 0.216930 0.216930 0.216930 0.216930 0.216930 0.216930 0.216930 0.216930 0.216930 0.216930 0.234082 0.234082 0.234082 0.234082 0.234082 0.234082 0.234082 0.234082 0.234082 0.234082 0.234082 0.234082 0.234082 0.234082 0.234082 0.234082 0.234082 0.234082 0.234082 0.234082 0.234082 0.234082 0.234082 0.234082 0.234082 0.234082 0.234082 0.234082 0.234082 0.274721 0.274721 0.274721 0.274721 0.274721 0.274721 0.274721 0.274721 0.274721 0.274721 0.274721 0.274721 0.274721 0.274721 0.274721 0.274721 0.274721 0.274721 0.274721 0.291730 0.291730 0.291730 0.291730 0.291730 0.291730 0.291730 0.291730 0.291730 0.291730 0.291730 0.291730 0.291730 0.291730 0.291730 0.291730 0.298142 0.298142 0.298142 0.298142 0.298142 0.298142 0.298142 0.298142 0.298142 0.298142 0.298142 0.298142 0.298142 0.298142 0.312348 0.312348 0.312348 0.312348 0.312348 0.312348 0.312348 0.312348 0.312348 0.312348 0.312348 0.312348 0.312348 0.312348 0.312348 0.312348 0.312348 0.312348 0.312348 0.312348 0.312348 0.312348 0.312348 0.304997 0.304997 0.304997 0.304997 0.304997 0.304997 0.304997 0.304997 0.304997 0.304997 0.304997 0.320256 0.320256 0.320256 0.320256 0.320256 0.320256 0.320256 0.320256 0.320256 0.298142 0.298142 0.298142 0.298142 0.298142 0.298142 0.298142 0.298142 0.298142 0.298142 0.328798 0.328798 0.328798 0.328798 0.328798 0.328798 0.328798 0.328798 0.320256 0.320256 0.320256 0.320256 0.320256 0.320256 0.320256 0.320256 0.312348 0.312348 0.312348 0.312348 0.312348 0.312348 0.312348 0.312348 0.304997 0.304997 0.304997 0.304997 0.304997 0.304997 0.304997 0.304997 0.312348 0.312348 0.312348 0.312348 0.312348 0.312348 0.312348 0.312348 0.312348 0.312348 0.312348 0.312348 0.312348 0.312348 0.304997 0.304997 0.304997 0.304997 0.304997 0.304997 0.304997 0.298142 0.298142 0.298142 0.298142 0.298142 0.298142 0.298142 0.312348 0.312348 0.312348 0.312348 0.312348 0.312348 0.304997 0.304997 0.304997 0.304997 0.304997 0.304997 0.285714 0.285714 0.285714 0.285714 0.285714 0.285714 0.285714 0.320256 0.320256 0.320256 0.320256 0.320256 0.291730 0.291730 0.291730 0.291730 0.291730 0.291730 0.291730 0.291730 0.291730 0.291730 0.291730 0.291730 0.285714 0.285714 0.285714 0.285714 0.285714 0.285714 0.304997 0.304997 0.304997 0.304997 0.304997 0.298142 0.298142 0.298142 0.298142 0.298142 0.274721 0.274721 0.274721 0.274721 0.274721 0.274721 0.291730 0.291730 0.291730 0.291730 0.291730 0.285714 0.285714 0.285714 0.285714 0.285714 0.285714 0.285714 0.285714 0.285714 0.285714 0.280056 0.280056 0.280056 0.280056 0.280056 0.280056 0.280056 0.280056 0.280056 0.280056 0.298142 0.298142 0.298142 0.298142 0.269680 0.269680 0.269680 0.269680 0.269680 0.269680 0.269680 0.269680 0.269680 0.269680 0.291730 0.291730 0.291730 0.291730 0.264906 0.264906 0.264906 0.264906 0.264906 0.285714 0.285714 0.285714 0.285714 0.280056 0.280056 0.280056 0.280056 0.256074 0.256074 0.256074 0.256074 0.256074 0.274721 0.274721 0.274721 0.274721 0.274721 0.274721 0.274721 0.274721 0.269680 0.269680 0.269680 0.269680 0.269680 0.269680 0.269680
