# Output from CTFFind version 4.1.9, run on 2019-11-24 12:06:15
# Input file: stack1_ubbm3d_averaged_1_1.0_0_2000_half.mrc ; Number of micrographs: 1
# Pixel size: 1.500 Angstroms ; acceleration voltage: 300.0 keV ; spherical aberration: 0.00 mm ; amplitude contrast: 0.07
# Box size: 512 pixels ; min. res.: 40.0 Angstroms ; max. res.: 6.0 Angstroms ; min. def.: 5000.0 um; max. def. 50000.0 um; num. frames averaged: 1
# 6 lines per micrograph: #1 - spatial frequency (1/Angstroms); #2 - 1D rotational average of spectrum (assuming no astigmatism); #3 - 1D rotational average of spectrum; #4 - CTF fit; #5 - cross-correlation between spectrum and CTF fit; #6 - 2sigma of expected cross correlation of noise
0.000000 0.001302 0.002604 0.003906 0.005208 0.006510 0.007812 0.009115 0.010417 0.011719 0.013021 0.014323 0.015625 0.016927 0.018229 0.019531 0.020833 0.022135 0.023438 0.024740 0.026042 0.027344 0.028646 0.029948 0.031250 0.032552 0.033854 0.035156 0.036458 0.037760 0.039062 0.040365 0.041667 0.042969 0.044271 0.045573 0.046875 0.048177 0.049479 0.050781 0.052083 0.053385 0.054688 0.055990 0.057292 0.058594 0.059896 0.061198 0.062500 0.063802 0.065104 0.066406 0.067708 0.069010 0.070312 0.071615 0.072917 0.074219 0.075521 0.076823 0.078125 0.079427 0.080729 0.082031 0.083333 0.084635 0.085938 0.087240 0.088542 0.089844 0.091146 0.092448 0.093750 0.095052 0.096354 0.097656 0.098958 0.100260 0.101562 0.102865 0.104167 0.105469 0.106771 0.108073 0.109375 0.110677 0.111979 0.113281 0.114583 0.115885 0.117188 0.118490 0.119792 0.121094 0.122396 0.123698 0.125000 0.126302 0.127604 0.128906 0.130208 0.131510 0.132812 0.134115 0.135417 0.136719 0.138021 0.139323 0.140625 0.141927 0.143229 0.144531 0.145833 0.147135 0.148438 0.149740 0.151042 0.152344 0.153646 0.154948 0.156250 0.157552 0.158854 0.160156 0.161458 0.162760 0.164062 0.165365 0.166667 0.167969 0.169271 0.170573 0.171875 0.173177 0.174479 0.175781 0.177083 0.178385 0.179688 0.180990 0.182292 0.183594 0.184896 0.186198 0.187500 0.188802 0.190104 0.191406 0.192708 0.194010 0.195312 0.196615 0.197917 0.199219 0.200521 0.201823 0.203125 0.204427 0.205729 0.207031 0.208333 0.209635 0.210938 0.212240 0.213542 0.214844 0.216146 0.217448 0.218750 0.220052 0.221354 0.222656 0.223958 0.225260 0.226562 0.227865 0.229167 0.230469 0.231771 0.233073 0.234375 0.235677 0.236979 0.238281 0.239583 0.240885 0.242188 0.243490 0.244792 0.246094 0.247396 0.248698 0.250000 0.251302 0.252604 0.253906 0.255208 0.256510 0.257812 0.259115 0.260417 0.261719 0.263021 0.264323 0.265625 0.266927 0.268229 0.269531 0.270833 0.272135 0.273438 0.274740 0.276042 0.277344 0.278646 0.279948 0.281250 0.282552 0.283854 0.285156 0.286458 0.287760 0.289062 0.290365 0.291667 0.292969 0.294271 0.295573 0.296875 0.298177 0.299479 0.300781 0.302083 0.303385 0.304688 0.305990 0.307292 0.308594 0.309896 0.311198 0.312500 0.313802 0.315104 0.316406 0.317708 0.319010 0.320312 0.321615 0.322917 0.324219 0.325521 0.326823 0.328125 0.329427 0.330729 0.332031 0.333333 0.334635 0.335938 0.337240 0.338542 0.339844 0.341146 0.342448 0.343750 0.345052 0.346354 0.347656 0.348958 0.350260 0.351562 0.352865 0.354167 0.355469 0.356771 0.358073 0.359375 0.360677 0.361979 0.363281 0.364583 0.365885 0.367188 0.368490 0.369792 0.371094 0.372396 0.373698 0.375000 0.376302 0.377604 0.378906 0.380208 0.381510 0.382812 0.384115 0.385417 0.386719 0.388021 0.389323 0.390625 0.391927 0.393229 0.394531 0.395833 0.397135 0.398438 0.399740 0.401042 0.402344 0.403646 0.404948 0.406250 0.407552 0.408854 0.410156 0.411458 0.412760 0.414062 0.415365 0.416667 0.417969 0.419271 0.420573 0.421875 0.423177 0.424479 0.425781 0.427083 0.428385 0.429688 0.430990 0.432292 0.433594 0.434896 0.436198 0.437500 0.438802 0.440104 0.441406 0.442708 0.444010 0.445312 0.446615 0.447917 0.449219 0.450521 0.451823 0.453125 0.454427 0.455729 0.457031 0.458333 0.459635 0.460938 0.462240 0.463542 0.464844 0.466146 0.467448 0.468750 0.470052 0.471354
       0.51399        0.51399        0.51399        0.51399        0.51399        0.51399        0.51399        0.51399        0.51399        0.51399        0.51399        0.51399        0.51399        0.51399        0.51399        0.51399        0.51399        0.51399        0.51399        1.39530        2.15044        0.97826        0.14576       -0.02229        0.52491        1.12762        1.05309        0.55869        0.25929        0.23547        0.25519        0.23905        0.24972        0.26455        0.18665        0.16375        0.11888        0.02871       -0.08472       -0.10498       -0.04888        0.07743        0.30310        0.51042        0.60501        0.60069        0.62772        0.74821        0.90641        0.98635        0.85092        0.52840        0.26943        0.27134        0.41674        0.42848        0.29364        0.20717        0.28019        0.42365        0.57063        0.65039        0.70489        0.70526        0.67677        0.62425        0.56821        0.53838        0.47643        0.42006        0.43953        0.55401        0.63721        0.54553        0.42749        0.42430        0.49435        0.49063        0.43138        0.43651        0.53192        0.55077        0.49167        0.41411        0.46199        0.54894        0.60548        0.58355        0.50361        0.40833        0.35598        0.41495        0.50275        0.54035        0.48826        0.47123        0.55005        0.64191        0.62074        0.51353        0.45558        0.48946        0.57035        0.61377        0.60046        0.57314        0.52254        0.47467        0.39357        0.32149        0.33363        0.43931        0.53927        0.57819        0.57229        0.58735        0.58732        0.58344        0.55902        0.50392        0.41572        0.37452        0.46915        0.63443        0.68172        0.58930        0.49056        0.48875        0.52310        0.53329        0.53206        0.53461        0.49561        0.41940        0.38118        0.42477        0.48568        0.48842        0.49091        0.53959        0.58550        0.56482        0.52426        0.51928        0.55314        0.54848        0.51853        0.48972        0.48316        0.47182        0.47817        0.52837        0.59070        0.59556        0.50246        0.39703        0.37724        0.46521        0.57092        0.59290        0.54754        0.49463        0.46698        0.47936        0.53835        0.59230        0.59576        0.56687        0.54340        0.53054        0.47799        0.46060        0.51253        0.58907        0.60095        0.55064        0.52380        0.53072        0.50466        0.47348        0.47481        0.50166        0.54932        0.56947        0.52960        0.44357        0.39867        0.44392        0.51741        0.53001        0.49773        0.48144        0.48434        0.47858        0.48087        0.49480        0.51029        0.51718        0.57571        0.64260        0.63204        0.53277        0.45713        0.48029        0.55965        0.58799        0.52996        0.44093        0.40872        0.46406        0.54645        0.57882        0.56623        0.53225        0.51679        0.52183        0.54418        0.55164        0.52229        0.49092        0.47249        0.47304        0.48025        0.49011        0.49532        0.47749        0.46354        0.50272        0.55710        0.57920        0.54725        0.52040        0.50408        0.49523        0.50208        0.54062        0.57053        0.57196        0.52917        0.47629        0.43037        0.44039        0.50474        0.55455        0.53845        0.49356        0.49955        0.54857        0.57423        0.57730        0.56869        0.54877        0.49325        0.44349        0.43433        0.46191        0.49500        0.48981        0.48403        0.53009        0.58122        0.56378        0.48590        0.44505        0.50437        0.59219        0.57338        0.47753        0.44797        0.51110        0.54878        0.48313        0.41245        0.43465        0.51486        0.53528        0.51588        0.51077        0.56404        0.59719        0.56574        0.49104        0.48532        0.51066        0.51166        0.48479        0.49291        0.51073        0.47909        0.44495        0.44742        0.49467        0.51008        0.51695        0.52955        0.52932        0.50140        0.48437        0.54186        0.58319        0.52351        0.41927        0.44018        0.56973        0.63447        0.58049        0.47581        0.43427        0.48456        0.53699        0.53620        0.50137        0.52742        0.55483        0.55511        0.48801        0.42391        0.45584        0.55692        0.56456        0.46977        0.45918        0.56856        0.59146        0.48055        0.45795        0.57227        0.60118        0.51408        0.45443        0.53518        0.53428        0.46188        0.44792        0.46624        0.44505        0.37903        0.46006        0.56615        0.54648        0.46154        0.51725        0.55116        0.49484        0.41960        0.47656        0.50200        0.41663        0.41462        0.54600        0.54605        0.52222        0.64083        0.79751        0.62402        0.30685        0.29985        0.46325        0.40316        0.08947       -0.16461       -0.22443       -0.23155
0.513988 0.513988 0.513988 0.513988 0.513988 0.513988 0.513988 0.513988 0.513988 0.513988 0.513988 0.513988 0.513988 0.513988 0.513988 0.513988 0.513988 0.513988 0.513988 1.425585 2.197030 1.165011 0.135888 -0.145745 0.421378 1.245927 1.046619 0.543311 0.306376 0.257444 0.173874 0.227794 0.312159 0.241397 0.212111 0.160508 0.106000 0.047554 -0.101800 -0.066204 -0.049412 0.052087 0.245108 0.557567 0.599838 0.580449 0.630641 0.698473 0.908677 0.968882 0.945604 0.524551 0.292521 0.263184 0.460398 0.389526 0.329551 0.136439 0.250146 0.455072 0.553831 0.653238 0.702133 0.701861 0.701103 0.649477 0.560786 0.543245 0.458978 0.447437 0.406753 0.578416 0.615596 0.594506 0.450690 0.411968 0.489235 0.453614 0.428945 0.443750 0.499381 0.562554 0.519819 0.400298 0.458074 0.524417 0.612060 0.597453 0.507673 0.423069 0.357674 0.413152 0.479758 0.561004 0.467163 0.452471 0.523560 0.643524 0.648097 0.566709 0.447685 0.459841 0.571898 0.603904 0.598794 0.582352 0.534525 0.516477 0.422875 0.307379 0.309110 0.407524 0.518031 0.580495 0.566092 0.568995 0.577040 0.599592 0.572651 0.530497 0.428391 0.368588 0.419058 0.588459 0.695469 0.639634 0.528142 0.475439 0.515991 0.526142 0.524673 0.528142 0.525932 0.447726 0.388963 0.400287 0.459316 0.502363 0.477897 0.529781 0.582265 0.577286 0.530376 0.511929 0.528771 0.558851 0.525287 0.489971 0.516541 0.440697 0.471408 0.506314 0.570149 0.616983 0.539104 0.432886 0.360285 0.417718 0.504003 0.619433 0.558784 0.524393 0.470566 0.458161 0.495119 0.587604 0.607745 0.584117 0.560761 0.545579 0.478211 0.448659 0.472506 0.570382 0.605063 0.610725 0.509566 0.534995 0.498542 0.483743 0.471813 0.492555 0.521167 0.573404 0.568009 0.477586 0.397017 0.419770 0.493333 0.537267 0.511306 0.483023 0.473384 0.487463 0.492775 0.489398 0.476039 0.511634 0.539087 0.626850 0.662585 0.581223 0.479135 0.429319 0.517693 0.594836 0.586014 0.507694 0.436566 0.415471 0.491025 0.578728 0.569382 0.573334 0.520822 0.523782 0.531952 0.547856 0.547346 0.498861 0.479445 0.482404 0.476775 0.490964 0.486299 0.488481 0.462772 0.461895 0.528594 0.582288 0.592277 0.523703 0.504377 0.505402 0.497505 0.507343 0.562800 0.570861 0.558789 0.523484 0.472326 0.427815 0.459064 0.529142 0.553089 0.538119 0.491374 0.504014 0.563948 0.566352 0.597334 0.557280 0.552925 0.474501 0.434615 0.443895 0.473281 0.494225 0.468381 0.517384 0.544026 0.595279 0.544673 0.459542 0.464393 0.541782 0.610894 0.544946 0.449648 0.445050 0.532707 0.532691 0.457632 0.412786 0.451325 0.551947 0.524153 0.511824 0.502572 0.596543 0.575178 0.544448 0.472982 0.472224 0.526820 0.517757 0.478217 0.504213 0.514781 0.489137 0.422165 0.452252 0.514261 0.512067 0.507351 0.525619 0.535693 0.490758 0.476454 0.564382 0.589649 0.497241 0.415514 0.445274 0.586203 0.661429 0.544334 0.490113 0.437755 0.472542 0.537290 0.532593 0.516222 0.483876 0.572694 0.555514 0.456869 0.419910 0.456553 0.570377 0.562314 0.429511 0.464269 0.567010 0.615764 0.493646 0.454711 0.543160 0.614616 0.534846 0.423231 0.527337 0.557515 0.476355 0.425270 0.522438 0.415435 0.402191 0.425436 0.599068 0.558236 0.468620 0.568496 0.551610 0.446403 0.425682 0.441088 0.529153 0.402905 0.435780 0.475879 0.575718 0.479281 0.625971 0.797282 0.626405 0.296044 0.307590 0.489308 0.338396 0.069355 -0.163704 -0.231546
0.072396 0.073454 0.076628 0.081917 0.089316 0.098823 0.110430 0.124128 0.139903 0.157739 0.177612 0.199493 0.223344 0.249118 0.276755 0.306187 0.337327 0.370075 0.404310 0.439895 0.476668 0.514446 0.553020 0.592155 0.631586 0.671022 0.710140 0.748588 0.785984 0.821914 0.855938 0.887588 0.916374 0.941782 0.963284 0.980342 0.992411 0.998950 0.999430 0.993343 0.980212 0.959603 0.931139 0.894512 0.849498 0.795967 0.733904 0.663419 0.584759 0.498325 0.404678 0.304549 0.198848 0.088660 0.024748 0.139939 0.255313 0.369122 0.479495 0.584462 0.681987 0.770010 0.846492 0.909461 0.957074 0.987670 0.999834 0.992456 0.964792 0.916520 0.847795 0.759284 0.652204 0.528339 0.390041 0.240214 0.082282 0.079873 0.241988 0.399518 0.547765 0.682014 0.797690 0.890535 0.956777 0.993305 0.997846 0.969108 0.906920 0.812319 0.687614 0.536392 0.363472 0.174804 0.022698 0.221380 0.413124 0.589674 0.743006 0.865710 0.951387 0.995021 0.993331 0.945046 0.851116 0.714814 0.541724 0.339601 0.118101 0.111627 0.337463 0.546937 0.727935 0.869422 0.962176 0.999457 0.977582 0.896338 0.759213 0.573397 0.349527 0.101192 0.155821 0.404474 0.627604 0.809125 0.935253 0.995642 0.984347 0.900515 0.748736 0.538984 0.286132 0.009022 0.270840 0.530911 0.749435 0.907319 0.989912 0.988510 0.901420 0.734478 0.500895 0.220422 0.082169 0.379162 0.642413 0.846042 0.969089 0.997834 0.927521 0.763272 0.520023 0.221421 0.102277 0.417149 0.689123 0.887721 0.989620 0.981600 0.862510 0.643932 0.349392 0.012096 0.328628 0.631838 0.859920 0.983417 0.985061 0.862492 0.629176 0.313323 0.045219 0.399782 0.702886 0.912656 0.998817 0.947367 0.763201 0.470164 0.108362 0.271015 0.612793 0.865854 0.990961 0.967168 0.795728 0.500739 0.126238 0.270028 0.625320 0.881856 0.996419 0.948021 0.742203 0.411064 0.008769 0.396962 0.736106 0.948516 0.994898 0.864558 0.578337 0.185895 0.242406 0.627858 0.897852 0.999843 0.912034 0.648625 0.258255 0.184405 0.592589 0.884396 0.999470 0.912018 0.637220 0.229409 0.228038 0.639404 0.916604 0.998398 0.864505 0.541331 0.097593 0.369659 0.755982 0.972976 0.968975 0.742081 0.342119 0.139494 0.590110 0.902078 0.998787 0.854159 0.500523 0.022343 0.463224 0.834776 0.997200 0.906661 0.583343 0.108039 0.397194 0.799995 0.992499 0.920858 0.601266 0.117491 0.400148 0.809466 0.995597 0.903926 0.557139 0.050861 0.471759 0.860159 0.999937 0.847393 0.444304 0.092252 0.603028 0.933594 0.981497 0.728997 0.250758 0.307010 0.770538 0.992645 0.900217 0.519498 0.029851 0.571311 0.927799 0.980033 0.707543 0.197968 0.379795 0.830807 0.999996 0.826421 0.366617 0.222224 0.735009 0.990019 0.894079 0.478034 0.111430 0.662281 0.973068 0.927237 0.538290 0.052259 0.624970 0.963565 0.937200 0.552485 0.045936 0.628307 0.967440 0.928003 0.522031 0.092543 0.671850 0.982390 0.895908 0.444013 0.191261 0.749350 0.997759 0.829867 0.312534 0.338446 0.847103 0.994272 0.713313 0.122292 0.523657 0.941480 0.944680 0.528234 0.125378 0.724327 0.997243 0.817169 0.262645 0.414207 0.900981 0.969329 0.583709 0.077956 0.704331 0.996495 0.811584 0.234836 0.457238 0.927973 0.944634 0.495297 0.200868 0.798492 0.996908 0.692791 0.036440 0.640067 0.989785 0.829704 0.238850 0.477964 0.945776 0.915946 0.400410 0.329748 0.884851 0.964403 0.521660 0.206199 0.822794 0.987817 0.606521 0.113065 0.771001
1.000000 1.000000 1.000000 1.000000 1.000000 1.000000 1.000000 1.000000 1.000000 1.000000 1.000000 1.000000 1.000000 1.000000 1.000000 1.000000 1.000000 1.000000 1.000000 1.000000 -0.057807 -0.057807 -0.057807 -0.057807 -0.057807 -0.057807 -0.057807 -0.057807 -0.057807 -0.057807 -0.057807 -0.057807 -0.057807 -0.057807 -0.057807 -0.057807 -0.057807 -0.057807 -0.095498 -0.095498 -0.095498 -0.095498 -0.095498 -0.095498 -0.095498 -0.095498 -0.095498 -0.095498 -0.095498 -0.095498 -0.095498 -0.095498 -0.095498 -0.095498 -0.095498 -0.095498 -0.077535 -0.064157 -0.042878 -0.041130 -0.051747 -0.055820 -0.052993 -0.050683 -0.063810 -0.068304 -0.050788 0.225422 0.265615 0.299324 0.295549 0.285310 0.286246 0.284591 0.240185 0.216187 0.237711 0.274696 0.294018 0.297036 0.290331 0.308067 0.336199 0.368941 0.367565 0.362606 0.331851 0.336492 0.324463 0.317910 0.314361 0.315154 0.318646 0.366324 0.432354 0.431868 0.436374 0.463405 0.494528 0.493588 0.518589 0.519323 0.508739 0.519794 0.509204 0.498336 0.546874 0.556284 0.549207 0.518275 0.463106 0.468895 0.509394 0.535759 0.535414 0.543028 0.590099 0.596646 0.519525 0.502647 0.508571 0.550383 0.586398 0.593406 0.575743 0.553132 0.548305 0.505279 0.501769 0.441631 0.377989 0.357773 0.344239 0.286045 0.251879 0.249266 0.223980 0.168877 0.114617 0.104621 0.121661 0.052395 0.010943 0.061596 0.148469 0.157237 0.159902 0.173698 0.167839 0.179373 0.154036 0.176773 0.228115 0.260754 0.266528 0.257251 0.233220 0.238284 0.215568 0.283010 0.334454 0.328419 0.323163 0.343819 0.364809 0.371548 0.371790 0.379020 0.314809 0.337059 0.331291 0.298704 0.280627 0.273061 0.293597 0.395367 0.431565 0.473765 0.486764 0.461588 0.473592 0.497377 0.488398 0.450394 0.470148 0.467182 0.477891 0.467100 0.419316 0.398779 0.385643 0.314863 0.283034 0.269720 0.288796 0.257788 0.271518 0.263307 0.209683 0.145593 0.156727 0.150951 0.099618 0.021717 -0.020003 -0.056543 -0.079838 -0.108180 -0.115668 -0.106730 -0.114608 -0.101404 -0.096882 -0.080007 -0.099783 -0.163225 -0.206800 -0.235493 -0.273344 -0.372522 -0.388844 -0.343215 -0.382122 -0.412604 -0.443796 -0.464114 -0.539088 -0.562908 -0.590045 -0.575760 -0.596704 -0.613253 -0.544916 -0.553109 -0.458520 -0.473721 -0.452986 -0.479522 -0.510281 -0.524815 -0.541431 -0.491272 -0.514300 -0.552625 -0.554040 -0.574941 -0.561744 -0.566742 -0.512874 -0.514346 -0.462618 -0.455624 -0.488724 -0.481103 -0.443076 -0.450887 -0.391158 -0.342760 -0.332963 -0.287900 -0.235178 -0.191001 -0.141297 -0.156104 -0.194363 -0.188936 -0.193912 -0.203404 -0.186367 -0.208833 -0.129447 -0.118154 -0.146951 -0.150815 -0.187173 -0.166268 -0.099040 -0.103654 -0.121418 -0.130037 0.010610 0.012746 0.008837 -0.002043 0.036448 0.079216 0.098258 0.151940 0.193921 0.187691 0.246731 0.275168 0.276867 0.326560 0.351332 0.353694 0.382202 0.385189 0.397045 0.436219 0.436979 0.442066 0.438035 0.462930 0.462685 0.453902 0.427177 0.427957 0.413593 0.373914 0.333490 0.473672 0.455502 0.452613 0.475976 0.271099 0.313984 0.335910 0.365168 0.360487 0.379944 0.456254 0.464996 0.433625 0.433259 0.433203 0.435082 0.383639 0.392365 0.409723 0.412341 0.397824 0.384982 0.417913 0.370661 0.336754 0.326567 0.374587 0.345243 0.345243 0.345243 0.345243 0.399853 0.399853 0.399853 0.399853 0.399853 0.357895 0.357895 0.357895 0.357895 0.357895 0.357895 0.357895 0.357895 0.379264 0.379264 0.379264 0.379264 0.379264 0.379264 0.379264 0.379264
0.000000 0.000000 0.000000 0.000000 0.000000 0.000000 0.000000 0.000000 0.000000 0.000000 0.000000 0.000000 0.000000 0.000000 0.000000 0.000000 0.000000 0.000000 0.000000 0.000000 0.216930 0.216930 0.216930 0.216930 0.216930 0.216930 0.216930 0.216930 0.216930 0.216930 0.216930 0.216930 0.216930 0.216930 0.216930 0.216930 0.216930 0.216930 0.234082 0.234082 0.234082 0.234082 0.234082 0.234082 0.234082 0.234082 0.234082 0.234082 0.234082 0.234082 0.234082 0.234082 0.234082 0.234082 0.234082 0.234082 0.234082 0.234082 0.234082 0.234082 0.234082 0.234082 0.234082 0.234082 0.234082 0.234082 0.234082 0.274721 0.274721 0.274721 0.274721 0.274721 0.274721 0.274721 0.274721 0.274721 0.274721 0.274721 0.274721 0.274721 0.274721 0.274721 0.274721 0.274721 0.274721 0.274721 0.291730 0.291730 0.291730 0.291730 0.291730 0.291730 0.291730 0.291730 0.291730 0.291730 0.291730 0.291730 0.291730 0.291730 0.291730 0.291730 0.298142 0.298142 0.298142 0.298142 0.298142 0.298142 0.298142 0.298142 0.298142 0.298142 0.298142 0.298142 0.298142 0.298142 0.312348 0.312348 0.312348 0.312348 0.312348 0.312348 0.312348 0.312348 0.312348 0.312348 0.312348 0.312348 0.312348 0.312348 0.312348 0.312348 0.312348 0.312348 0.312348 0.312348 0.312348 0.312348 0.312348 0.320256 0.320256 0.320256 0.320256 0.320256 0.320256 0.320256 0.320256 0.320256 0.320256 0.312348 0.312348 0.312348 0.312348 0.312348 0.312348 0.312348 0.312348 0.312348 0.312348 0.312348 0.312348 0.312348 0.312348 0.312348 0.312348 0.312348 0.312348 0.312348 0.304997 0.304997 0.304997 0.304997 0.304997 0.304997 0.304997 0.304997 0.304997 0.320256 0.320256 0.320256 0.320256 0.320256 0.320256 0.320256 0.320256 0.312348 0.312348 0.312348 0.312348 0.312348 0.312348 0.312348 0.312348 0.320256 0.320256 0.320256 0.320256 0.320256 0.320256 0.320256 0.298142 0.298142 0.298142 0.298142 0.298142 0.298142 0.298142 0.298142 0.312348 0.312348 0.312348 0.312348 0.312348 0.312348 0.312348 0.328798 0.328798 0.328798 0.328798 0.328798 0.328798 0.298142 0.298142 0.298142 0.298142 0.298142 0.298142 0.298142 0.312348 0.312348 0.312348 0.312348 0.312348 0.312348 0.285714 0.285714 0.285714 0.285714 0.285714 0.285714 0.285714 0.304997 0.304997 0.304997 0.304997 0.304997 0.304997 0.298142 0.298142 0.298142 0.298142 0.298142 0.298142 0.320256 0.320256 0.320256 0.320256 0.320256 0.291730 0.291730 0.291730 0.291730 0.291730 0.291730 0.285714 0.285714 0.285714 0.285714 0.285714 0.285714 0.304997 0.304997 0.304997 0.304997 0.304997 0.298142 0.298142 0.298142 0.298142 0.298142 0.274721 0.274721 0.274721 0.274721 0.274721 0.274721 0.291730 0.291730 0.291730 0.291730 0.291730 0.285714 0.285714 0.285714 0.285714 0.285714 0.285714 0.285714 0.285714 0.285714 0.285714 0.280056 0.280056 0.280056 0.280056 0.280056 0.280056 0.280056 0.280056 0.280056 0.280056 0.298142 0.298142 0.298142 0.298142 0.269680 0.269680 0.269680 0.269680 0.269680 0.269680 0.269680 0.269680 0.269680 0.269680 0.291730 0.291730 0.291730 0.291730 0.264906 0.264906 0.264906 0.264906 0.264906 0.285714 0.285714 0.285714 0.285714 0.280056 0.280056 0.280056 0.280056 0.256074 0.256074 0.256074 0.256074 0.256074 0.274721 0.274721 0.274721 0.274721 0.274721 0.274721 0.274721 0.274721 0.269680 0.269680 0.269680 0.269680 0.269680 0.269680 0.269680 0.269680
