# Output from CTFFind version 4.1.9, run on 2019-11-24 11:56:28
# Input file: stack1_bm3d_averaged_1_3.0_0_2000_half.mrc ; Number of micrographs: 1
# Pixel size: 1.500 Angstroms ; acceleration voltage: 300.0 keV ; spherical aberration: 0.00 mm ; amplitude contrast: 0.07
# Box size: 512 pixels ; min. res.: 40.0 Angstroms ; max. res.: 6.0 Angstroms ; min. def.: 5000.0 um; max. def. 50000.0 um; num. frames averaged: 1
# 6 lines per micrograph: #1 - spatial frequency (1/Angstroms); #2 - 1D rotational average of spectrum (assuming no astigmatism); #3 - 1D rotational average of spectrum; #4 - CTF fit; #5 - cross-correlation between spectrum and CTF fit; #6 - 2sigma of expected cross correlation of noise
0.000000 0.001302 0.002604 0.003906 0.005208 0.006510 0.007812 0.009115 0.010417 0.011719 0.013021 0.014323 0.015625 0.016927 0.018229 0.019531 0.020833 0.022135 0.023438 0.024740 0.026042 0.027344 0.028646 0.029948 0.031250 0.032552 0.033854 0.035156 0.036458 0.037760 0.039062 0.040365 0.041667 0.042969 0.044271 0.045573 0.046875 0.048177 0.049479 0.050781 0.052083 0.053385 0.054688 0.055990 0.057292 0.058594 0.059896 0.061198 0.062500 0.063802 0.065104 0.066406 0.067708 0.069010 0.070312 0.071615 0.072917 0.074219 0.075521 0.076823 0.078125 0.079427 0.080729 0.082031 0.083333 0.084635 0.085938 0.087240 0.088542 0.089844 0.091146 0.092448 0.093750 0.095052 0.096354 0.097656 0.098958 0.100260 0.101562 0.102865 0.104167 0.105469 0.106771 0.108073 0.109375 0.110677 0.111979 0.113281 0.114583 0.115885 0.117188 0.118490 0.119792 0.121094 0.122396 0.123698 0.125000 0.126302 0.127604 0.128906 0.130208 0.131510 0.132812 0.134115 0.135417 0.136719 0.138021 0.139323 0.140625 0.141927 0.143229 0.144531 0.145833 0.147135 0.148438 0.149740 0.151042 0.152344 0.153646 0.154948 0.156250 0.157552 0.158854 0.160156 0.161458 0.162760 0.164062 0.165365 0.166667 0.167969 0.169271 0.170573 0.171875 0.173177 0.174479 0.175781 0.177083 0.178385 0.179688 0.180990 0.182292 0.183594 0.184896 0.186198 0.187500 0.188802 0.190104 0.191406 0.192708 0.194010 0.195312 0.196615 0.197917 0.199219 0.200521 0.201823 0.203125 0.204427 0.205729 0.207031 0.208333 0.209635 0.210938 0.212240 0.213542 0.214844 0.216146 0.217448 0.218750 0.220052 0.221354 0.222656 0.223958 0.225260 0.226562 0.227865 0.229167 0.230469 0.231771 0.233073 0.234375 0.235677 0.236979 0.238281 0.239583 0.240885 0.242188 0.243490 0.244792 0.246094 0.247396 0.248698 0.250000 0.251302 0.252604 0.253906 0.255208 0.256510 0.257812 0.259115 0.260417 0.261719 0.263021 0.264323 0.265625 0.266927 0.268229 0.269531 0.270833 0.272135 0.273438 0.274740 0.276042 0.277344 0.278646 0.279948 0.281250 0.282552 0.283854 0.285156 0.286458 0.287760 0.289062 0.290365 0.291667 0.292969 0.294271 0.295573 0.296875 0.298177 0.299479 0.300781 0.302083 0.303385 0.304688 0.305990 0.307292 0.308594 0.309896 0.311198 0.312500 0.313802 0.315104 0.316406 0.317708 0.319010 0.320312 0.321615 0.322917 0.324219 0.325521 0.326823 0.328125 0.329427 0.330729 0.332031 0.333333 0.334635 0.335938 0.337240 0.338542 0.339844 0.341146 0.342448 0.343750 0.345052 0.346354 0.347656 0.348958 0.350260 0.351562 0.352865 0.354167 0.355469 0.356771 0.358073 0.359375 0.360677 0.361979 0.363281 0.364583 0.365885 0.367188 0.368490 0.369792 0.371094 0.372396 0.373698 0.375000 0.376302 0.377604 0.378906 0.380208 0.381510 0.382812 0.384115 0.385417 0.386719 0.388021 0.389323 0.390625 0.391927 0.393229 0.394531 0.395833 0.397135 0.398438 0.399740 0.401042 0.402344 0.403646 0.404948 0.406250 0.407552 0.408854 0.410156 0.411458 0.412760 0.414062 0.415365 0.416667 0.417969 0.419271 0.420573 0.421875 0.423177 0.424479 0.425781 0.427083 0.428385 0.429688 0.430990 0.432292 0.433594 0.434896 0.436198 0.437500 0.438802 0.440104 0.441406 0.442708 0.444010 0.445312 0.446615 0.447917 0.449219 0.450521 0.451823 0.453125 0.454427 0.455729 0.457031 0.458333 0.459635 0.460938 0.462240 0.463542 0.464844 0.466146 0.467448 0.468750 0.470052 0.471354
       0.67375        0.67375        0.67375        0.67375        0.67375        0.67375        0.67375        0.67375        0.67375        0.67375        0.67375        0.67375        0.67375        0.67375        0.67375        0.67375        0.67375        0.67375        0.67375        1.54474        2.29130        1.12050        0.32221        0.16528        0.70617        1.30451        1.21081        0.71407        0.44153        0.42665        0.41669        0.36041        0.39782        0.45920        0.36474        0.26595        0.18141        0.14264        0.08225        0.05287        0.06520        0.17004        0.41272        0.65597        0.77115        0.75519        0.73621        0.82646        1.02406        1.17391        1.08394        0.75564        0.47404        0.45222        0.57060        0.59008        0.49592        0.43570        0.45470        0.50500        0.61328        0.74372        0.88901        0.93627        0.87418        0.75128        0.64879        0.63864        0.63860        0.62851        0.64886        0.74620        0.82364        0.75525        0.65333        0.62433        0.63152        0.60361        0.58180        0.64583        0.74857        0.74318        0.65397        0.54537        0.55143        0.63001        0.71909        0.73657        0.67713        0.59230        0.53935        0.57520        0.64872        0.71377        0.69416        0.66760        0.69661        0.76201        0.77601        0.72223        0.68713        0.68349        0.69010        0.68865        0.69423        0.70543        0.67620        0.63987        0.59265        0.54913        0.53793        0.60701        0.69695        0.74164        0.72865        0.72485        0.72101        0.70652        0.65608        0.60247        0.57792        0.58557        0.65192        0.74725        0.76800        0.71087        0.65342        0.66495        0.70650        0.68666        0.64436        0.64689        0.66641        0.65748        0.61597        0.61537        0.63365        0.63980        0.67022        0.73918        0.78774        0.74092        0.67029        0.66895        0.70145        0.69834        0.67080        0.64310        0.63451        0.61840        0.63404        0.68861        0.73455        0.69732        0.57197        0.47743        0.50886        0.68374        0.83134        0.80930        0.67617        0.60807        0.64523        0.67866        0.65683        0.63310        0.65416        0.70456        0.75212        0.77833        0.74318        0.70118        0.71055        0.74219        0.73325        0.66725        0.61581        0.60881        0.61284        0.61859        0.63034        0.62851        0.64446        0.70016        0.75872        0.74915        0.70831        0.71502        0.75516        0.74178        0.67106        0.60868        0.59782        0.60939        0.60858        0.59518        0.60556        0.64025        0.70978        0.74066        0.69544        0.62290        0.60268        0.63328        0.69659        0.73429        0.71820        0.65996        0.64622        0.72512        0.79918        0.76879        0.68369        0.64328        0.64811        0.63998        0.63915        0.69336        0.74060        0.71808        0.64890        0.61660        0.63239        0.65736        0.66935        0.67610        0.68577        0.70396        0.70845        0.70475        0.68498        0.67024        0.65068        0.62430        0.62174        0.66787        0.72190        0.72322        0.66599        0.60669        0.57416        0.59568        0.65078        0.70254        0.72422        0.73806        0.75539        0.75319        0.71480        0.68975        0.70120        0.71741        0.69298        0.65241        0.62090        0.60252        0.60956        0.63045        0.68007        0.72835        0.71519        0.66377        0.64133        0.65721        0.69305        0.72172        0.68103        0.60201        0.58466        0.64176        0.70215        0.72163        0.72076        0.69802        0.63282        0.59182        0.59922        0.61840        0.63273        0.65397        0.75393        0.84945        0.83574        0.75642        0.66937        0.61290        0.56726        0.52075        0.53951        0.61622        0.70832        0.76040        0.74200        0.73105        0.71160        0.66198        0.62624        0.62811        0.66568        0.64727        0.58007        0.55991        0.61250        0.62538        0.59708        0.63317        0.73557        0.73229        0.64687        0.64082        0.75936        0.80665        0.74386        0.63990        0.68708        0.78975        0.82415        0.72645        0.67272        0.70468        0.73978        0.73431        0.72928        0.71882        0.63709        0.56881        0.58812        0.68577        0.67243        0.47269        0.39493        0.60060        0.87561        0.84897        0.58776        0.47960        0.57683        0.71441        0.69794        0.71888        0.81375        0.81353        0.74108        0.76995        0.73383        0.61681        0.53374        0.60946        0.57663        0.37009        0.36978        0.72135        0.98157        0.81241        0.43998        0.36128        0.55722        0.58574        0.28518       -0.15568       -0.50432       -0.64201       -0.68690
-0.224541 50.290845 49.349012 48.415956 47.491676 46.576172 45.669445 44.771495 43.882321 43.001923 42.130303 41.267458 40.413391 39.568099 38.731584 37.903846 37.084885 36.274699 35.473291 94.053186 142.651505 73.785751 7.760146 -8.848979 25.814276 79.844814 63.633995 30.549950 15.117286 13.492038 3.857105 4.840250 10.144198 10.075129 5.225373 -3.251009 -10.325893 -8.403659 -19.845326 -17.378516 -19.844967 -15.504656 -1.687432 20.274158 24.080696 21.571310 20.400020 22.761319 37.554655 46.595175 47.032130 21.016955 1.084136 -1.831867 8.925145 3.248982 1.388939 -8.376047 -4.590001 1.877639 4.827609 13.142667 22.013819 25.604170 24.055835 11.670130 7.981394 2.963179 3.480544 4.322749 2.674793 11.989568 13.603660 12.553450 4.695859 0.888837 2.421656 -3.576577 -3.479733 1.284550 6.314341 8.833373 3.294070 -6.007134 -6.863275 -1.281977 1.974988 5.601892 1.308980 -2.476903 -8.824608 -5.668147 -2.664069 3.156108 0.106530 -0.089888 -0.352123 5.666830 8.456724 4.945999 -0.592770 4.586522 1.114805 1.512917 1.592641 3.140150 2.180329 0.870113 -3.228432 -7.543870 -8.977421 -6.183383 1.377984 4.298720 5.685438 6.578841 4.992021 7.369045 4.294633 0.510916 -1.865134 -3.748370 -0.549688 7.530068 10.784893 6.842430 3.465031 1.361991 5.275229 5.619358 2.352169 1.013705 1.894355 3.288479 0.838862 0.119692 -0.258330 0.819160 0.404292 4.222815 8.819129 8.159013 2.187776 0.009599 0.648317 2.451761 3.258762 0.195029 -4.685977 -4.584070 -5.294321 -2.664420 3.688631 2.586034 -5.759415 -11.103402 -14.127839 -7.663189 7.924514 11.952901 3.005500 -4.500117 -2.932402 1.011499 -0.457855 -2.685201 -3.392878 0.651880 3.253760 6.160488 5.846059 1.484932 0.888990 5.100282 5.161529 2.897640 -1.253352 -2.931197 -3.075707 -2.131183 -3.178014 0.474942 -1.890136 -0.489191 4.970242 7.149761 4.431708 3.866389 7.451970 7.996518 2.079708 -0.773582 -2.966805 -1.873758 0.833567 -2.459320 -2.476762 -1.005331 3.238074 7.296558 6.775883 0.691821 -1.993461 -1.092003 0.395836 6.752304 7.566035 5.248060 1.059336 3.298532 9.219818 12.173249 7.184026 0.002078 -0.705052 -0.069977 -0.975619 -0.374714 4.461642 5.146013 1.407869 -3.837772 -5.093625 -2.192350 -0.354609 -1.628304 1.488609 1.709577 3.240191 3.206537 4.216486 -0.175149 0.700782 -2.062327 -4.344567 -1.972057 0.840013 2.638962 1.334610 -1.210630 -5.074964 -7.733035 -5.426875 -1.167645 2.155970 4.431346 5.445627 4.944796 4.705119 1.729222 0.465780 1.772078 1.131788 -1.085665 -3.226273 -5.126671 -7.306609 -6.507417 -5.067563 -1.257024 1.744329 -0.366152 -1.904110 -1.386129 2.081756 2.875458 4.124288 0.982813 -5.459099 -5.047798 -1.121541 2.431713 4.079122 3.355601 3.688338 -3.435630 -4.636694 -3.635148 -1.885958 -2.992398 0.264194 6.541601 12.996016 10.150814 3.009346 -3.635293 -4.622225 -11.163668 -10.027565 -7.713336 -2.086187 4.074488 5.798736 5.065035 6.265862 8.368692 0.629303 -0.450474 2.182493 2.334629 -0.952754 -5.163615 -4.163255 -3.639691 -1.878252 -4.872465 0.410679 4.503508 5.801266 -3.852521 -3.294972 4.711838 5.592723 -4.317973 -11.266696 -1.612528 2.972762 5.772070 0.266421 -5.170735 -0.273245 2.701627 -2.860553 -2.728450 -0.752899 -5.514511 -16.572316 -8.276321 -4.012132 -5.298534 -16.412581 -29.177256 -16.509494 9.877614 3.941747 -15.005530 -21.489156 -12.542133 -8.014763 -4.031085 0.378670 9.334122 6.167295 10.422494 8.097678 4.781624 1.022285 0.869703 -1.673477 1.931110 -12.637266 -12.829344 13.106732 43.426840 16.645354 1.636737 2.232465 39.462453 47.263307 9.871474 -11.666395 -32.793474 -44.818018
0.072396 0.073468 0.076682 0.082038 0.089531 0.099159 0.110913 0.124784 0.140758 0.158818 0.178940 0.201093 0.225237 0.251325 0.279296 0.309076 0.340577 0.373694 0.408304 0.444264 0.481405 0.519539 0.558449 0.597891 0.637592 0.677250 0.716532 0.755073 0.792479 0.828324 0.862153 0.893486 0.921817 0.946620 0.967355 0.983469 0.994409 0.999626 0.998583 0.990770 0.975711 0.952975 0.922197 0.883083 0.835428 0.779133 0.714215 0.640826 0.559264 0.469983 0.373608 0.270943 0.162969 0.050855 0.064050 0.180224 0.295981 0.409495 0.518818 0.621913 0.716693 0.801059 0.872954 0.930412 0.971623 0.994985 0.999177 0.983215 0.946516 0.888954 0.810908 0.713301 0.597632 0.465981 0.321007 0.165922 0.004444 0.159273 0.320730 0.475204 0.617878 0.743998 0.849046 0.928914 0.980089 0.999833 0.986346 0.938916 0.858035 0.745474 0.604319 0.438947 0.254948 0.058979 0.141441 0.338194 0.522879 0.687182 0.823260 0.924150 0.984170 0.999285 0.967429 0.888743 0.765730 0.603279 0.408571 0.190842 0.038986 0.268814 0.485973 0.677927 0.833024 0.941250 0.994947 0.989436 0.923498 0.799670 0.624303 0.407379 0.162061 0.096026 0.349725 0.581465 0.774502 0.914179 0.989124 0.992294 0.921751 0.781102 0.579517 0.331311 0.055072 0.227628 0.493867 0.721226 0.889733 0.983718 0.993419 0.916153 0.756923 0.528352 0.249899 0.053629 0.354178 0.622993 0.833406 0.963577 0.998931 0.933990 0.773376 0.531801 0.232993 0.092434 0.409984 0.684893 0.885990 0.989382 0.981508 0.861172 0.640237 0.342800 0.002832 0.339494 0.642485 0.868043 0.986600 0.981257 0.850495 0.609018 0.286496 0.075763 0.429904 0.727786 0.927600 0.999969 0.932585 0.732654 0.426633 0.057141 0.322690 0.656722 0.894139 0.997402 0.948529 0.752645 0.438052 0.052618 0.343172 0.685562 0.917842 0.999999 0.916030 0.677521 0.322679 0.089299 0.487781 0.802707 0.977073 0.977606 0.801648 0.478700 0.066104 0.360699 0.721757 0.947654 0.993207 0.847046 0.534983 0.116162 0.327626 0.707640 0.945999 0.992006 0.833527 0.500781 0.061354 0.392974 0.765145 0.973672 0.970926 0.754712 0.370193 0.098776 0.547383 0.873177 0.999699 0.895060 0.580767 0.128273 0.356545 0.757783 0.977317 0.959311 0.705241 0.275227 0.225311 0.670956 0.947678 0.982451 0.763356 0.344459 0.166540 0.635340 0.936224 0.986194 0.768733 0.340204 0.183693 0.658453 0.950531 0.975356 0.722813 0.262147 0.275898 0.735527 0.980992 0.937323 0.614301 0.105790 0.436473 0.847623 0.999996 0.843645 0.423925 0.130259 0.645125 0.956248 0.961620 0.656253 0.136262 0.430108 0.856300 0.999081 0.807661 0.343159 0.239415 0.741943 0.990426 0.896050 0.488309 0.092508 0.642367 0.964797 0.941713 0.578018 0.002757 0.575265 0.942744 0.961070 0.619980 0.044420 0.549695 0.935820 0.963634 0.618955 0.032381 0.568589 0.947113 0.950860 0.574816 0.033382 0.629808 0.971476 0.916000 0.482607 0.152293 0.725360 0.995160 0.844837 0.334573 0.320365 0.839045 0.995368 0.717918 0.124624 0.525294 0.943558 0.941170 0.515524 0.144473 0.740445 0.998935 0.797965 0.226725 0.451670 0.920019 0.955638 0.537966 0.137481 0.748641 0.999894 0.766225 0.157745 0.529725 0.957186 0.910085 0.408082 0.300225 0.858512 0.981787 0.603530 0.085852 0.732501 0.999944 0.745374 0.098459 0.602006 0.984196 0.841409 0.246258 0.483284 0.952021 0.901964 0.356611 0.386827 0.917262 0.937136 0.431419 0.318694 0.889799 0.955092 0.473371
1.000000 1.000000 1.000000 1.000000 1.000000 1.000000 1.000000 1.000000 1.000000 1.000000 1.000000 1.000000 1.000000 1.000000 1.000000 1.000000 1.000000 1.000000 1.000000 1.000000 -0.123220 -0.123220 -0.123220 -0.123220 -0.123220 -0.123220 -0.123220 -0.123220 -0.123220 -0.123220 -0.123220 -0.123220 -0.123220 -0.123220 -0.123220 -0.123220 -0.123220 -0.123220 -0.172974 -0.172974 -0.172974 -0.172974 -0.172974 -0.172974 -0.172974 -0.172974 -0.172974 -0.172974 -0.172974 -0.172974 -0.172974 -0.172974 -0.172974 -0.172974 -0.172820 -0.148802 -0.121759 -0.110740 -0.115856 -0.145504 -0.149722 -0.147482 -0.138985 -0.135020 -0.121341 -0.106173 -0.018013 0.017124 0.071235 0.105051 0.123142 0.134403 0.131217 0.085461 0.106724 0.097037 0.103353 0.119115 0.135563 0.146481 0.167088 0.221715 0.252309 0.253435 0.241834 0.231503 0.166410 0.154087 0.142756 0.127107 0.202142 0.244760 0.278203 0.316236 0.317745 0.332121 0.350186 0.369534 0.364314 0.432198 0.442188 0.444393 0.455678 0.456094 0.453954 0.406054 0.440392 0.492822 0.495455 0.499186 0.496645 0.481379 0.491893 0.480357 0.415871 0.579899 0.513329 0.438666 0.390384 0.378003 0.370472 0.390788 0.379637 0.417989 0.423931 0.416375 0.421172 0.458467 0.449942 0.403178 0.408182 0.394952 0.326153 0.245341 0.223206 0.180357 0.109911 0.041908 0.019554 0.047228 0.047214 -0.021806 -0.004437 0.047669 0.036226 0.026618 -0.009654 -0.030480 -0.013053 -0.051953 -0.116438 -0.121708 -0.140950 -0.147981 -0.105286 -0.070038 -0.072608 -0.053217 0.011109 0.089850 0.119931 0.105566 0.093830 0.041051 0.009162 -0.001103 -0.007505 -0.040995 -0.034146 -0.016926 -0.027737 -0.058624 -0.061094 -0.064736 0.025682 0.094883 0.118028 0.174732 0.142750 0.119610 0.158494 0.151928 0.123205 0.176433 0.193793 0.264094 0.264337 0.258929 0.271730 0.321247 0.351773 0.293218 0.301316 0.295283 0.303981 0.335334 0.327088 0.302621 0.337497 0.339029 0.334191 0.301795 0.320715 0.342307 0.388972 0.373991 0.350927 0.353095 0.372051 0.366915 0.321419 0.280066 0.297812 0.275479 0.308617 0.276279 0.288725 0.283503 0.286593 0.288870 0.319382 0.316966 0.267525 0.271880 0.275220 0.201960 0.144925 0.178720 0.147960 0.134802 0.116690 0.166672 0.168241 0.171736 0.129408 0.123074 0.118607 0.110428 0.029306 -0.013608 -0.010312 -0.086221 -0.120199 -0.119937 -0.179335 -0.160289 -0.218524 -0.214462 -0.207853 -0.211578 -0.178718 -0.142084 -0.113569 -0.052594 -0.034549 -0.055915 -0.084883 -0.005515 -0.044907 -0.102994 -0.112302 -0.117609 -0.000515 -0.023041 -0.063001 -0.078640 -0.105135 -0.162826 -0.148108 -0.127836 -0.143887 -0.149927 -0.128795 -0.054801 -0.007220 -0.006986 0.032338 0.004144 -0.024343 0.031715 0.054539 0.027503 0.034967 0.067931 0.065580 0.071078 0.084427 0.118289 0.095524 0.106516 0.126661 0.109039 0.089576 0.142134 0.138246 0.152779 0.177568 0.164632 0.148716 0.112211 0.113265 0.075346 0.056799 0.053654 0.049502 0.064086 0.025924 0.030693 -0.007858 -0.023079 -0.033374 -0.047907 -0.028276 -0.144005 -0.165264 -0.169044 -0.141332 -0.094095 -0.093208 -0.031551 -0.022730 -0.024937 -0.022084 -0.161980 -0.156733 -0.190799 -0.172636 -0.002289 -0.030913 -0.016216 -0.078344 -0.053388 -0.069086 -0.072516 -0.071624 -0.064407 -0.133706 -0.072322 -0.094692 -0.094692 -0.042335 -0.042335 -0.042335 -0.042335 -0.042335 -0.089640 -0.089640 -0.089640 -0.089640 -0.089640 -0.089640 -0.089640 -0.089640 -0.064992 -0.064992 -0.064992 -0.064992 -0.064992 -0.064992 -0.064992 -0.064992 -0.064992 -0.064992
0.000000 0.000000 0.000000 0.000000 3395292487354663936.000000 1358597539827801344.000000 722291323859967104.000000 1199725805972006656.000000 359658847267154432.000000 369771055753962368.000000 2008087854206404096.000000 798618321439273472.000000 655760424939497984.000000 540867984213214784.000000 862774824927888256.000000 661734621241988352.000000 279075054031842368.000000 1085754133717814016.000000 1466444237247676416.000000 518832671772457216.000000 0.216930 0.216930 0.216930 0.216930 0.216930 0.216930 0.216930 0.216930 0.216930 0.216930 0.216930 0.216930 0.216930 0.216930 0.216930 0.216930 0.216930 0.216930 0.240772 0.240772 0.240772 0.240772 0.240772 0.240772 0.240772 0.240772 0.240772 0.240772 0.240772 0.240772 0.240772 0.240772 0.240772 0.240772 0.240772 0.240772 0.240772 0.240772 0.240772 0.240772 0.240772 0.240772 0.240772 0.240772 0.240772 0.240772 0.269680 0.269680 0.269680 0.269680 0.269680 0.269680 0.269680 0.269680 0.269680 0.269680 0.269680 0.269680 0.269680 0.269680 0.269680 0.269680 0.269680 0.269680 0.269680 0.269680 0.298142 0.298142 0.298142 0.298142 0.298142 0.298142 0.298142 0.298142 0.298142 0.298142 0.298142 0.298142 0.298142 0.298142 0.298142 0.298142 0.298142 0.298142 0.298142 0.298142 0.298142 0.298142 0.298142 0.298142 0.298142 0.298142 0.298142 0.298142 0.298142 0.312348 0.312348 0.312348 0.312348 0.312348 0.312348 0.312348 0.312348 0.312348 0.312348 0.312348 0.312348 0.312348 0.312348 0.312348 0.312348 0.312348 0.312348 0.312348 0.312348 0.312348 0.312348 0.312348 0.320256 0.320256 0.320256 0.320256 0.320256 0.320256 0.320256 0.320256 0.320256 0.320256 0.312348 0.312348 0.312348 0.312348 0.312348 0.312348 0.312348 0.312348 0.312348 0.312348 0.312348 0.312348 0.312348 0.312348 0.312348 0.312348 0.312348 0.312348 0.312348 0.304997 0.304997 0.304997 0.304997 0.304997 0.304997 0.304997 0.304997 0.304997 0.320256 0.320256 0.320256 0.320256 0.320256 0.320256 0.320256 0.320256 0.328798 0.328798 0.328798 0.328798 0.328798 0.328798 0.328798 0.304997 0.304997 0.304997 0.304997 0.304997 0.304997 0.304997 0.304997 0.312348 0.312348 0.312348 0.312348 0.312348 0.312348 0.312348 0.312348 0.312348 0.312348 0.312348 0.312348 0.312348 0.312348 0.304997 0.304997 0.304997 0.304997 0.304997 0.304997 0.304997 0.298142 0.298142 0.298142 0.298142 0.298142 0.298142 0.298142 0.312348 0.312348 0.312348 0.312348 0.312348 0.312348 0.304997 0.304997 0.304997 0.304997 0.304997 0.304997 0.304997 0.304997 0.304997 0.304997 0.304997 0.304997 0.298142 0.298142 0.298142 0.298142 0.298142 0.298142 0.291730 0.291730 0.291730 0.291730 0.291730 0.291730 0.312348 0.312348 0.312348 0.312348 0.312348 0.285714 0.285714 0.285714 0.285714 0.285714 0.285714 0.304997 0.304997 0.304997 0.304997 0.304997 0.280056 0.280056 0.280056 0.280056 0.280056 0.280056 0.298142 0.298142 0.298142 0.298142 0.298142 0.291730 0.291730 0.291730 0.291730 0.291730 0.285714 0.285714 0.285714 0.285714 0.285714 0.285714 0.285714 0.285714 0.285714 0.285714 0.280056 0.280056 0.280056 0.280056 0.280056 0.280056 0.280056 0.280056 0.280056 0.280056 0.298142 0.298142 0.298142 0.298142 0.269680 0.269680 0.269680 0.269680 0.269680 0.269680 0.269680 0.269680 0.269680 0.269680 0.291730 0.291730 0.291730 0.291730 0.264906 0.264906 0.264906 0.264906 0.264906 0.285714 0.285714 0.285714 0.285714 0.280056 0.280056 0.280056 0.280056 0.256074 0.256074 0.256074 0.256074 0.256074 0.274721 0.274721 0.274721 0.274721 0.274721 0.274721 0.274721 0.274721 0.269680 0.269680 0.269680 0.269680 0.269680 0.269680 0.269680 0.269680 0.269680 0.269680
