# Output from CTFFind version 4.1.9, run on 2019-11-24 12:06:15
# Input file: stack1_ubbm3d_averaged_1_2.0_0_2000_half.mrc ; Number of micrographs: 1
# Pixel size: 1.500 Angstroms ; acceleration voltage: 300.0 keV ; spherical aberration: 0.00 mm ; amplitude contrast: 0.07
# Box size: 512 pixels ; min. res.: 40.0 Angstroms ; max. res.: 6.0 Angstroms ; min. def.: 5000.0 um; max. def. 50000.0 um; num. frames averaged: 1
# 6 lines per micrograph: #1 - spatial frequency (1/Angstroms); #2 - 1D rotational average of spectrum (assuming no astigmatism); #3 - 1D rotational average of spectrum; #4 - CTF fit; #5 - cross-correlation between spectrum and CTF fit; #6 - 2sigma of expected cross correlation of noise
0.000000 0.001302 0.002604 0.003906 0.005208 0.006510 0.007812 0.009115 0.010417 0.011719 0.013021 0.014323 0.015625 0.016927 0.018229 0.019531 0.020833 0.022135 0.023438 0.024740 0.026042 0.027344 0.028646 0.029948 0.031250 0.032552 0.033854 0.035156 0.036458 0.037760 0.039062 0.040365 0.041667 0.042969 0.044271 0.045573 0.046875 0.048177 0.049479 0.050781 0.052083 0.053385 0.054688 0.055990 0.057292 0.058594 0.059896 0.061198 0.062500 0.063802 0.065104 0.066406 0.067708 0.069010 0.070312 0.071615 0.072917 0.074219 0.075521 0.076823 0.078125 0.079427 0.080729 0.082031 0.083333 0.084635 0.085938 0.087240 0.088542 0.089844 0.091146 0.092448 0.093750 0.095052 0.096354 0.097656 0.098958 0.100260 0.101562 0.102865 0.104167 0.105469 0.106771 0.108073 0.109375 0.110677 0.111979 0.113281 0.114583 0.115885 0.117188 0.118490 0.119792 0.121094 0.122396 0.123698 0.125000 0.126302 0.127604 0.128906 0.130208 0.131510 0.132812 0.134115 0.135417 0.136719 0.138021 0.139323 0.140625 0.141927 0.143229 0.144531 0.145833 0.147135 0.148438 0.149740 0.151042 0.152344 0.153646 0.154948 0.156250 0.157552 0.158854 0.160156 0.161458 0.162760 0.164062 0.165365 0.166667 0.167969 0.169271 0.170573 0.171875 0.173177 0.174479 0.175781 0.177083 0.178385 0.179688 0.180990 0.182292 0.183594 0.184896 0.186198 0.187500 0.188802 0.190104 0.191406 0.192708 0.194010 0.195312 0.196615 0.197917 0.199219 0.200521 0.201823 0.203125 0.204427 0.205729 0.207031 0.208333 0.209635 0.210938 0.212240 0.213542 0.214844 0.216146 0.217448 0.218750 0.220052 0.221354 0.222656 0.223958 0.225260 0.226562 0.227865 0.229167 0.230469 0.231771 0.233073 0.234375 0.235677 0.236979 0.238281 0.239583 0.240885 0.242188 0.243490 0.244792 0.246094 0.247396 0.248698 0.250000 0.251302 0.252604 0.253906 0.255208 0.256510 0.257812 0.259115 0.260417 0.261719 0.263021 0.264323 0.265625 0.266927 0.268229 0.269531 0.270833 0.272135 0.273438 0.274740 0.276042 0.277344 0.278646 0.279948 0.281250 0.282552 0.283854 0.285156 0.286458 0.287760 0.289062 0.290365 0.291667 0.292969 0.294271 0.295573 0.296875 0.298177 0.299479 0.300781 0.302083 0.303385 0.304688 0.305990 0.307292 0.308594 0.309896 0.311198 0.312500 0.313802 0.315104 0.316406 0.317708 0.319010 0.320312 0.321615 0.322917 0.324219 0.325521 0.326823 0.328125 0.329427 0.330729 0.332031 0.333333 0.334635 0.335938 0.337240 0.338542 0.339844 0.341146 0.342448 0.343750 0.345052 0.346354 0.347656 0.348958 0.350260 0.351562 0.352865 0.354167 0.355469 0.356771 0.358073 0.359375 0.360677 0.361979 0.363281 0.364583 0.365885 0.367188 0.368490 0.369792 0.371094 0.372396 0.373698 0.375000 0.376302 0.377604 0.378906 0.380208 0.381510 0.382812 0.384115 0.385417 0.386719 0.388021 0.389323 0.390625 0.391927 0.393229 0.394531 0.395833 0.397135 0.398438 0.399740 0.401042 0.402344 0.403646 0.404948 0.406250 0.407552 0.408854 0.410156 0.411458 0.412760 0.414062 0.415365 0.416667 0.417969 0.419271 0.420573 0.421875 0.423177 0.424479 0.425781 0.427083 0.428385 0.429688 0.430990 0.432292 0.433594 0.434896 0.436198 0.437500 0.438802 0.440104 0.441406 0.442708 0.444010 0.445312 0.446615 0.447917 0.449219 0.450521 0.451823 0.453125 0.454427 0.455729 0.457031 0.458333 0.459635 0.460938 0.462240 0.463542 0.464844 0.466146 0.467448 0.468750 0.470052 0.471354
       0.48597        0.48597        0.48597        0.48597        0.48597        0.48597        0.48597        0.48597        0.48597        0.48597        0.48597        0.48597        0.48597        0.48597        0.48597        0.48597        0.48597        0.48597        0.48597        1.36409        2.12057        0.94099        0.11494       -0.05488        0.49946        1.12422        1.04837        0.52842        0.19441        0.16350        0.19788        0.20080        0.22347        0.24149        0.16604        0.13843        0.08019       -0.01636       -0.13161       -0.15451       -0.10741        0.02305        0.26803        0.49354        0.58954        0.58578        0.61761        0.74590        0.90717        0.97677        0.82800        0.49221        0.23227        0.23661        0.38176        0.39081        0.25694        0.16277        0.22224        0.36528        0.53835        0.64457        0.70153        0.69421        0.66507        0.61408        0.54782        0.50779        0.44793        0.39108        0.39935        0.51054        0.61429        0.54491        0.42382        0.38457        0.41762        0.41092        0.38070        0.41857        0.53122        0.55684        0.50070        0.40475        0.42566        0.50239        0.58196        0.57815        0.48876        0.37516        0.31506        0.37241        0.46131        0.51946        0.47987        0.45068        0.49734        0.58109        0.58630        0.49597        0.43014        0.44709        0.51941        0.57299        0.58561        0.57938        0.52231        0.44460        0.34482        0.27399        0.28613        0.38657        0.48344        0.53553        0.55438        0.58985        0.60007        0.58151        0.51969        0.44385        0.36904        0.35465        0.45879        0.61135        0.65595        0.56707        0.46277        0.43242        0.46239        0.48190        0.49910        0.51441        0.48807        0.41714        0.36296        0.38455        0.44352        0.45317        0.45055        0.49786        0.57089        0.58566        0.53195        0.48132        0.48704        0.48826        0.45169        0.40771        0.41379        0.45834        0.49982        0.53755        0.56479        0.54648        0.45700        0.38240        0.40585        0.50744        0.58058        0.55413        0.49858        0.46752        0.44343        0.42863        0.46726        0.53101        0.54156        0.49802        0.46225        0.46873        0.45600        0.46528        0.52354        0.59418        0.59186        0.52365        0.48683        0.49170        0.45846        0.42640        0.44912        0.50028        0.52998        0.51898        0.48174        0.43033        0.39016        0.40688        0.48154        0.52754        0.51457        0.47874        0.45271        0.43324        0.42702        0.45260        0.50808        0.54775        0.58084        0.60422        0.59015        0.51385        0.42490        0.40578        0.47398        0.53455        0.49658        0.39876        0.36351        0.43293        0.53022        0.55682        0.53336        0.49902        0.50236        0.52176        0.53522        0.50803        0.44784        0.42338        0.44296        0.47749        0.48346        0.48716        0.49088        0.47085        0.43496        0.45170        0.51144        0.54771        0.52097        0.48915        0.48263        0.49080        0.49529        0.50801        0.51882        0.52714        0.50225        0.45626        0.40677        0.40376        0.45497        0.50657        0.49995        0.45778        0.45534        0.50432        0.55308        0.56937        0.54555        0.51505        0.48781        0.47071        0.44083        0.42493        0.45295        0.49500        0.50912        0.50177        0.49051        0.47661        0.45001        0.44086        0.48348        0.54838        0.52513        0.45783        0.44112        0.46999        0.45829        0.37721        0.35423        0.44483        0.53044        0.52283        0.49933        0.51980        0.56062        0.55294        0.50151        0.46482        0.47753        0.50453        0.51021        0.49411        0.48109        0.46380        0.42124        0.40287        0.40872        0.45389        0.48980        0.52013        0.55472        0.54157        0.49741        0.44792        0.47598        0.50844        0.47700        0.39380        0.38577        0.46504        0.50628        0.50150        0.44746        0.41985        0.45463        0.51930        0.54813        0.51157        0.49361        0.51916        0.59800        0.58777        0.47193        0.41769        0.47749        0.52587        0.49516        0.46762        0.47450        0.44537        0.42555        0.49079        0.57227        0.51286        0.42229        0.39395        0.45945        0.45485        0.44374        0.50321        0.53362        0.50190        0.46437        0.53501        0.57754        0.49632        0.39020        0.40279        0.40412        0.38714        0.39692        0.47253        0.44092        0.36539        0.43513        0.62435        0.59622        0.47456        0.49349        0.63771        0.56376        0.33152        0.27198        0.33089        0.25285        0.02194       -0.15079       -0.18478       -0.18604
0.485973 0.485973 0.485973 0.485973 0.485973 0.485973 0.485973 0.485973 0.485973 0.485973 0.485973 0.485973 0.485973 0.485973 0.485973 0.485973 0.485973 0.485973 0.485973 1.394685 2.171742 1.126104 0.103571 -0.180885 0.394160 1.242306 1.046095 0.511670 0.243813 0.187679 0.110882 0.190051 0.280285 0.223133 0.193946 0.134598 0.074522 -0.001187 -0.148341 -0.111191 -0.109206 -0.006104 0.206619 0.538871 0.589968 0.559776 0.622340 0.699696 0.904889 0.964766 0.919230 0.491090 0.254547 0.229761 0.429446 0.348514 0.292353 0.092189 0.197832 0.393161 0.522355 0.640925 0.702304 0.691169 0.682211 0.642526 0.554568 0.509592 0.432591 0.420987 0.366440 0.536019 0.586759 0.589689 0.454307 0.359351 0.436310 0.369802 0.370948 0.423014 0.502358 0.561902 0.529409 0.400377 0.426776 0.474974 0.587667 0.589289 0.504226 0.386011 0.325088 0.361949 0.434475 0.540488 0.457725 0.442268 0.473823 0.576698 0.607170 0.548193 0.433606 0.424145 0.522157 0.546029 0.581232 0.588514 0.538378 0.488276 0.379455 0.266172 0.256556 0.357401 0.464123 0.533976 0.532621 0.563765 0.586149 0.602354 0.539870 0.476429 0.375103 0.336106 0.415255 0.570613 0.676054 0.612801 0.505546 0.422169 0.462613 0.468353 0.492238 0.501939 0.514462 0.438050 0.374035 0.378132 0.415884 0.468368 0.430211 0.486443 0.548070 0.597157 0.555651 0.498857 0.464040 0.497511 0.456746 0.423928 0.433948 0.424567 0.488837 0.518284 0.561349 0.573312 0.489299 0.402717 0.372912 0.455875 0.550304 0.587126 0.500905 0.494565 0.445885 0.423892 0.435036 0.509135 0.562989 0.523968 0.473397 0.471353 0.439946 0.451885 0.478829 0.577809 0.612216 0.597585 0.479262 0.492998 0.453080 0.433789 0.424647 0.494016 0.520363 0.547053 0.496092 0.441479 0.398351 0.395618 0.446507 0.518700 0.528583 0.497136 0.460905 0.445832 0.441693 0.430229 0.462770 0.532219 0.571004 0.594069 0.619471 0.554413 0.468815 0.383291 0.420442 0.516879 0.549686 0.480871 0.386853 0.375263 0.467712 0.564854 0.544864 0.525522 0.508122 0.508900 0.523305 0.529361 0.487388 0.419587 0.437683 0.472023 0.490217 0.490942 0.486727 0.481806 0.445262 0.427008 0.480784 0.550301 0.554308 0.496851 0.467731 0.498239 0.498350 0.484341 0.524724 0.506915 0.522664 0.507806 0.457370 0.394335 0.419806 0.476753 0.510726 0.494124 0.447601 0.465935 0.523332 0.556927 0.586848 0.533589 0.513594 0.476922 0.466909 0.432840 0.422655 0.468061 0.478260 0.517303 0.488523 0.494875 0.477766 0.437731 0.457203 0.506477 0.561162 0.509414 0.431705 0.435661 0.484991 0.436282 0.350687 0.366270 0.487104 0.543829 0.492282 0.509831 0.523771 0.566392 0.565061 0.498006 0.464360 0.457177 0.523332 0.521914 0.489913 0.464294 0.475632 0.423152 0.378658 0.423986 0.465132 0.504974 0.518479 0.540392 0.539600 0.500050 0.422369 0.497908 0.518110 0.450328 0.402140 0.372416 0.465631 0.550135 0.466897 0.465971 0.407807 0.473686 0.515247 0.547773 0.503670 0.453796 0.558827 0.624128 0.565529 0.460112 0.401178 0.519750 0.505591 0.477067 0.474655 0.470267 0.454209 0.424136 0.518808 0.538517 0.520250 0.443465 0.361061 0.472057 0.450986 0.428325 0.503898 0.569445 0.472226 0.467902 0.515254 0.605159 0.497242 0.391109 0.407625 0.406838 0.353109 0.417407 0.443317 0.455809 0.338027 0.479884 0.549168 0.591322 0.434231 0.475935 0.637497 0.573535 0.322724 0.267585 0.339771 0.199762 0.005879 -0.150243 -0.186035
0.072396 0.073454 0.076626 0.081912 0.089309 0.098811 0.110413 0.124104 0.139873 0.157701 0.177565 0.199436 0.223276 0.249039 0.276665 0.306084 0.337211 0.369945 0.404167 0.439739 0.476499 0.514264 0.552826 0.591949 0.631371 0.670799 0.709911 0.748355 0.785750 0.821683 0.855714 0.887375 0.916176 0.941605 0.963135 0.980225 0.992334 0.998920 0.999454 0.993427 0.980364 0.959831 0.931449 0.894910 0.849989 0.796557 0.734596 0.664215 0.585660 0.499328 0.405779 0.305743 0.200125 0.090008 0.023343 0.138495 0.253851 0.367667 0.478072 0.583100 0.680717 0.768865 0.845504 0.908664 0.956500 0.987350 0.999794 0.992719 0.965375 0.917436 0.849045 0.760862 0.654096 0.530517 0.392469 0.242844 0.085055 0.077025 0.239142 0.396760 0.545183 0.679698 0.795732 0.889021 0.955782 0.992897 0.998073 0.970002 0.908485 0.814539 0.690442 0.539755 0.367269 0.178906 0.018442 0.217138 0.409075 0.586006 0.739901 0.863337 0.949892 0.994520 0.993896 0.946705 0.853840 0.718518 0.546267 0.344785 0.123680 0.105937 0.331969 0.541958 0.723777 0.866365 0.960451 0.999227 0.978926 0.899243 0.763563 0.578974 0.356020 0.108207 0.148733 0.397796 0.621819 0.804677 0.932518 0.994888 0.985708 0.903973 0.754109 0.545931 0.294167 0.017545 0.262501 0.523449 0.743504 0.903479 0.988571 0.989874 0.905469 0.740945 0.509280 0.230022 0.072206 0.369768 0.634508 0.840445 0.966431 0.998480 0.931518 0.770323 0.529500 0.232407 0.090901 0.406599 0.680578 0.882191 0.987819 0.983853 0.868686 0.653437 0.361212 0.024896 0.316362 0.621615 0.853067 0.980891 0.987312 0.869374 0.639939 0.326671 0.030974 0.386522 0.692436 0.906526 0.997980 0.952093 0.772977 0.483733 0.123870 0.255784 0.600103 0.857669 0.988641 0.971227 0.805713 0.515252 0.143115 0.253417 0.611651 0.873430 0.994760 0.953579 0.754234 0.427696 0.027278 0.379730 0.723189 0.942300 0.996657 0.874178 0.594264 0.205366 0.222903 0.611967 0.888663 0.999264 0.920383 0.664501 0.278726 0.163279 0.575008 0.873981 0.998509 0.920926 0.654383 0.251433 0.205684 0.621464 0.907031 0.999453 0.876195 0.561319 0.121625 0.346884 0.739644 0.966943 0.974862 0.758783 0.365956 0.113991 0.568975 0.890481 0.999739 0.867693 0.523573 0.049390 0.438865 0.819308 0.994741 0.918112 0.606029 0.136279 0.370704 0.782309 0.988513 0.931923 0.624676 0.147104 0.372367 0.791270 0.992263 0.916687 0.582684 0.082124 0.443685 0.843492 0.999782 0.864111 0.473242 0.059526 0.576314 0.921136 0.987373 0.751737 0.283613 0.274140 0.748023 0.987822 0.914954 0.549408 0.005789 0.541475 0.913701 0.986627 0.732999 0.234065 0.345091 0.809348 0.999390 0.847236 0.401993 0.184443 0.708109 0.983747 0.911034 0.512508 0.071637 0.631599 0.962929 0.941741 0.572450 0.010916 0.591925 0.951503 0.951087 0.587403 0.003166 0.594217 0.955558 0.943379 0.559004 0.048414 0.638210 0.973032 0.915030 0.484237 0.146205 0.718104 0.993593 0.854958 0.356730 0.293661 0.820909 0.998244 0.746198 0.170190 0.481538 0.923827 0.959707 0.569719 0.075679 0.688767 0.992215 0.845434 0.311697 0.366777 0.877288 0.980824 0.625494 0.025237 0.665650 0.990606 0.841799 0.287025 0.408207 0.906204 0.961256 0.542618 0.146018 0.763526 0.999752 0.732541 0.093326 0.594976 0.979919 0.860678 0.295072 0.425623 0.924969 0.938139 0.454376 0.272503 0.855119 0.978674 0.572767 0.145766 0.786152 0.995571 0.654961 0.050480 0.729271
1.000000 1.000000 1.000000 1.000000 1.000000 1.000000 1.000000 1.000000 1.000000 1.000000 1.000000 1.000000 1.000000 1.000000 1.000000 1.000000 1.000000 1.000000 1.000000 1.000000 -0.036908 -0.036908 -0.036908 -0.036908 -0.036908 -0.036908 -0.036908 -0.036908 -0.036908 -0.036908 -0.036908 -0.036908 -0.036908 -0.036908 -0.036908 -0.036908 -0.036908 -0.036908 -0.053646 -0.053646 -0.053646 -0.053646 -0.053646 -0.053646 -0.053646 -0.053646 -0.053646 -0.053646 -0.053646 -0.053646 -0.053646 -0.053646 -0.053646 -0.053646 -0.053646 -0.053646 -0.034273 -0.017170 -0.010886 -0.010070 -0.020212 -0.024693 -0.021458 -0.018857 -0.031658 -0.035201 -0.022073 0.297233 0.326860 0.360395 0.357052 0.347040 0.347525 0.345845 0.300076 0.275341 0.287874 0.321605 0.341172 0.344547 0.335926 0.355080 0.381905 0.412935 0.412128 0.407849 0.380015 0.384761 0.373859 0.363553 0.357110 0.357894 0.381428 0.417069 0.468451 0.465488 0.469602 0.495704 0.538509 0.535299 0.548414 0.524499 0.503767 0.514762 0.504017 0.466348 0.480070 0.478892 0.477166 0.449077 0.387567 0.383583 0.427652 0.452147 0.439758 0.436104 0.508508 0.511938 0.449952 0.424030 0.422440 0.457822 0.477083 0.481307 0.489662 0.482207 0.470063 0.428755 0.407013 0.351281 0.302667 0.288658 0.267431 0.206962 0.180185 0.177109 0.138843 0.095827 0.087182 0.080154 0.105570 0.036319 0.000191 0.045559 0.128337 0.144891 0.144152 0.177777 0.165160 0.117169 0.101828 0.115807 0.149005 0.177599 0.194508 0.187319 0.175088 0.184169 0.166014 0.219117 0.272735 0.242966 0.230094 0.264089 0.287864 0.258610 0.239196 0.248931 0.194490 0.210977 0.238769 0.235421 0.200426 0.181491 0.212091 0.287365 0.295894 0.322006 0.278682 0.247215 0.273193 0.306676 0.303090 0.257038 0.270214 0.290334 0.299831 0.290021 0.260620 0.278946 0.289926 0.230364 0.202573 0.195963 0.208051 0.208246 0.232324 0.228650 0.189449 0.167261 0.152829 0.152129 0.098471 0.030548 0.021920 -0.011195 -0.037288 -0.042851 -0.039674 -0.049958 -0.046137 -0.039757 -0.047044 -0.032986 -0.018657 -0.071557 -0.084012 -0.118675 -0.156796 -0.193580 -0.219751 -0.168908 -0.212153 -0.241042 -0.282135 -0.301860 -0.366682 -0.426038 -0.435832 -0.426433 -0.447525 -0.461986 -0.393367 -0.388412 -0.317209 -0.303859 -0.263933 -0.237905 -0.239120 -0.280858 -0.314990 -0.268342 -0.267979 -0.298997 -0.329567 -0.353980 -0.326813 -0.314761 -0.262302 -0.261290 -0.156145 -0.144661 -0.185059 -0.170073 -0.130970 -0.124462 -0.105072 -0.060536 -0.056030 -0.033322 0.004737 -0.004903 0.044328 0.084758 0.097667 0.091981 0.087976 0.078828 0.102883 0.075479 0.187302 0.228013 0.191763 0.177068 0.173036 0.257742 0.287762 0.287479 0.296529 0.292298 0.313941 0.301990 0.286224 0.306132 0.304644 0.306094 0.336314 0.374116 0.413148 0.408536 0.470514 0.491203 0.505995 0.534056 0.535012 0.535505 0.542842 0.516688 0.534551 0.559059 0.529272 0.471287 0.453403 0.456607 0.451591 0.439795 0.386582 0.393990 0.342199 0.315603 0.277510 0.300810 0.305799 0.307099 0.330716 0.235696 0.247606 0.283496 0.311578 0.332596 0.340399 0.410258 0.396325 0.387453 0.386934 0.344790 0.317121 0.286246 0.304736 0.402463 0.399140 0.374809 0.340458 0.377777 0.332790 0.302788 0.284005 0.332279 0.319702 0.319702 0.319702 0.319702 0.382612 0.382612 0.382612 0.382612 0.382612 0.324649 0.324649 0.324649 0.324649 0.324649 0.324649 0.324649 0.324649 0.347705 0.347705 0.347705 0.347705 0.347705 0.347705 0.347705 0.347705
0.000000 0.000000 0.000000 0.000000 0.000000 0.000000 0.000000 0.000000 0.000000 0.000000 0.000000 0.000000 0.000000 0.000000 0.000000 0.000000 0.000000 0.000000 0.000000 0.000000 0.216930 0.216930 0.216930 0.216930 0.216930 0.216930 0.216930 0.216930 0.216930 0.216930 0.216930 0.216930 0.216930 0.216930 0.216930 0.216930 0.216930 0.216930 0.234082 0.234082 0.234082 0.234082 0.234082 0.234082 0.234082 0.234082 0.234082 0.234082 0.234082 0.234082 0.234082 0.234082 0.234082 0.234082 0.234082 0.234082 0.234082 0.234082 0.234082 0.234082 0.234082 0.234082 0.234082 0.234082 0.234082 0.234082 0.234082 0.274721 0.274721 0.274721 0.274721 0.274721 0.274721 0.274721 0.274721 0.274721 0.274721 0.274721 0.274721 0.274721 0.274721 0.274721 0.274721 0.274721 0.274721 0.274721 0.291730 0.291730 0.291730 0.291730 0.291730 0.291730 0.291730 0.291730 0.291730 0.291730 0.291730 0.291730 0.291730 0.291730 0.291730 0.291730 0.298142 0.298142 0.298142 0.298142 0.298142 0.298142 0.298142 0.298142 0.298142 0.298142 0.298142 0.298142 0.298142 0.298142 0.312348 0.312348 0.312348 0.312348 0.312348 0.312348 0.312348 0.312348 0.312348 0.312348 0.312348 0.312348 0.312348 0.312348 0.312348 0.312348 0.312348 0.312348 0.312348 0.312348 0.312348 0.312348 0.312348 0.320256 0.320256 0.320256 0.320256 0.320256 0.320256 0.320256 0.320256 0.320256 0.320256 0.312348 0.312348 0.312348 0.312348 0.312348 0.312348 0.312348 0.312348 0.312348 0.312348 0.312348 0.312348 0.312348 0.312348 0.312348 0.312348 0.312348 0.312348 0.312348 0.304997 0.304997 0.304997 0.304997 0.304997 0.304997 0.304997 0.304997 0.304997 0.320256 0.320256 0.320256 0.320256 0.320256 0.320256 0.320256 0.320256 0.312348 0.312348 0.312348 0.312348 0.312348 0.312348 0.312348 0.312348 0.320256 0.320256 0.320256 0.320256 0.320256 0.320256 0.320256 0.298142 0.298142 0.298142 0.298142 0.298142 0.298142 0.298142 0.298142 0.312348 0.312348 0.312348 0.312348 0.312348 0.312348 0.312348 0.328798 0.328798 0.328798 0.328798 0.328798 0.328798 0.298142 0.298142 0.298142 0.298142 0.298142 0.298142 0.298142 0.312348 0.312348 0.312348 0.312348 0.312348 0.312348 0.285714 0.285714 0.285714 0.285714 0.285714 0.285714 0.285714 0.304997 0.304997 0.304997 0.304997 0.304997 0.304997 0.298142 0.298142 0.298142 0.298142 0.298142 0.298142 0.291730 0.291730 0.291730 0.291730 0.291730 0.291730 0.312348 0.312348 0.312348 0.312348 0.312348 0.285714 0.285714 0.285714 0.285714 0.285714 0.285714 0.304997 0.304997 0.304997 0.304997 0.304997 0.280056 0.280056 0.280056 0.280056 0.280056 0.280056 0.298142 0.298142 0.298142 0.298142 0.298142 0.291730 0.291730 0.291730 0.291730 0.291730 0.285714 0.285714 0.285714 0.285714 0.285714 0.285714 0.285714 0.285714 0.285714 0.285714 0.280056 0.280056 0.280056 0.280056 0.280056 0.280056 0.280056 0.280056 0.280056 0.280056 0.298142 0.298142 0.298142 0.298142 0.269680 0.269680 0.269680 0.269680 0.269680 0.269680 0.269680 0.269680 0.269680 0.269680 0.291730 0.291730 0.291730 0.291730 0.264906 0.264906 0.264906 0.264906 0.264906 0.285714 0.285714 0.285714 0.285714 0.280056 0.280056 0.280056 0.280056 0.256074 0.256074 0.256074 0.256074 0.256074 0.274721 0.274721 0.274721 0.274721 0.274721 0.274721 0.274721 0.274721 0.269680 0.269680 0.269680 0.269680 0.269680 0.269680 0.269680 0.269680
