# Output from CTFFind version 4.1.9, run on 2019-11-24 12:06:15
# Input file: stack1_ubbm3d_averaged_1_4.0_0_2000_half.mrc ; Number of micrographs: 1
# Pixel size: 1.500 Angstroms ; acceleration voltage: 300.0 keV ; spherical aberration: 0.00 mm ; amplitude contrast: 0.07
# Box size: 512 pixels ; min. res.: 40.0 Angstroms ; max. res.: 6.0 Angstroms ; min. def.: 5000.0 um; max. def. 50000.0 um; num. frames averaged: 1
# 6 lines per micrograph: #1 - spatial frequency (1/Angstroms); #2 - 1D rotational average of spectrum (assuming no astigmatism); #3 - 1D rotational average of spectrum; #4 - CTF fit; #5 - cross-correlation between spectrum and CTF fit; #6 - 2sigma of expected cross correlation of noise
0.000000 0.001302 0.002604 0.003906 0.005208 0.006510 0.007812 0.009115 0.010417 0.011719 0.013021 0.014323 0.015625 0.016927 0.018229 0.019531 0.020833 0.022135 0.023438 0.024740 0.026042 0.027344 0.028646 0.029948 0.031250 0.032552 0.033854 0.035156 0.036458 0.037760 0.039062 0.040365 0.041667 0.042969 0.044271 0.045573 0.046875 0.048177 0.049479 0.050781 0.052083 0.053385 0.054688 0.055990 0.057292 0.058594 0.059896 0.061198 0.062500 0.063802 0.065104 0.066406 0.067708 0.069010 0.070312 0.071615 0.072917 0.074219 0.075521 0.076823 0.078125 0.079427 0.080729 0.082031 0.083333 0.084635 0.085938 0.087240 0.088542 0.089844 0.091146 0.092448 0.093750 0.095052 0.096354 0.097656 0.098958 0.100260 0.101562 0.102865 0.104167 0.105469 0.106771 0.108073 0.109375 0.110677 0.111979 0.113281 0.114583 0.115885 0.117188 0.118490 0.119792 0.121094 0.122396 0.123698 0.125000 0.126302 0.127604 0.128906 0.130208 0.131510 0.132812 0.134115 0.135417 0.136719 0.138021 0.139323 0.140625 0.141927 0.143229 0.144531 0.145833 0.147135 0.148438 0.149740 0.151042 0.152344 0.153646 0.154948 0.156250 0.157552 0.158854 0.160156 0.161458 0.162760 0.164062 0.165365 0.166667 0.167969 0.169271 0.170573 0.171875 0.173177 0.174479 0.175781 0.177083 0.178385 0.179688 0.180990 0.182292 0.183594 0.184896 0.186198 0.187500 0.188802 0.190104 0.191406 0.192708 0.194010 0.195312 0.196615 0.197917 0.199219 0.200521 0.201823 0.203125 0.204427 0.205729 0.207031 0.208333 0.209635 0.210938 0.212240 0.213542 0.214844 0.216146 0.217448 0.218750 0.220052 0.221354 0.222656 0.223958 0.225260 0.226562 0.227865 0.229167 0.230469 0.231771 0.233073 0.234375 0.235677 0.236979 0.238281 0.239583 0.240885 0.242188 0.243490 0.244792 0.246094 0.247396 0.248698 0.250000 0.251302 0.252604 0.253906 0.255208 0.256510 0.257812 0.259115 0.260417 0.261719 0.263021 0.264323 0.265625 0.266927 0.268229 0.269531 0.270833 0.272135 0.273438 0.274740 0.276042 0.277344 0.278646 0.279948 0.281250 0.282552 0.283854 0.285156 0.286458 0.287760 0.289062 0.290365 0.291667 0.292969 0.294271 0.295573 0.296875 0.298177 0.299479 0.300781 0.302083 0.303385 0.304688 0.305990 0.307292 0.308594 0.309896 0.311198 0.312500 0.313802 0.315104 0.316406 0.317708 0.319010 0.320312 0.321615 0.322917 0.324219 0.325521 0.326823 0.328125 0.329427 0.330729 0.332031 0.333333 0.334635 0.335938 0.337240 0.338542 0.339844 0.341146 0.342448 0.343750 0.345052 0.346354 0.347656 0.348958 0.350260 0.351562 0.352865 0.354167 0.355469 0.356771 0.358073 0.359375 0.360677 0.361979 0.363281 0.364583 0.365885 0.367188 0.368490 0.369792 0.371094 0.372396 0.373698 0.375000 0.376302 0.377604 0.378906 0.380208 0.381510 0.382812 0.384115 0.385417 0.386719 0.388021 0.389323 0.390625 0.391927 0.393229 0.394531 0.395833 0.397135 0.398438 0.399740 0.401042 0.402344 0.403646 0.404948 0.406250 0.407552 0.408854 0.410156 0.411458 0.412760 0.414062 0.415365 0.416667 0.417969 0.419271 0.420573 0.421875 0.423177 0.424479 0.425781 0.427083 0.428385 0.429688 0.430990 0.432292 0.433594 0.434896 0.436198 0.437500 0.438802 0.440104 0.441406 0.442708 0.444010 0.445312 0.446615 0.447917 0.449219 0.450521 0.451823 0.453125 0.454427 0.455729 0.457031 0.458333 0.459635 0.460938 0.462240 0.463542 0.464844 0.466146 0.467448 0.468750 0.470052 0.471354
       0.48680        0.48680        0.48680        0.48680        0.48680        0.48680        0.48680        0.48680        0.48680        0.48680        0.48680        0.48680        0.48680        0.48680        0.48680        0.48680        0.48680        0.48680        0.48680        1.35455        2.06485        0.90863        0.12391       -0.02815        0.51378        1.11164        1.03904        0.54560        0.23677        0.18521        0.16797        0.13732        0.18822        0.26152        0.22054        0.17970        0.09490       -0.02332       -0.12997       -0.13756       -0.08228        0.03703        0.25529        0.46758        0.56535        0.58477        0.63818        0.75144        0.87882        0.93055        0.80989        0.50787        0.25829        0.24729        0.37954        0.38435        0.25571        0.17542        0.25487        0.39675        0.53443        0.61920        0.70075        0.75080        0.72995        0.62746        0.49655        0.44805        0.42269        0.38952        0.38690        0.48161        0.58339        0.53820        0.43098        0.40199        0.44043        0.44782        0.42001        0.44754        0.53712        0.56963        0.54059        0.44564        0.40607        0.42627        0.50055        0.52885        0.47822        0.40833        0.38564        0.43087        0.46586        0.47872        0.43463        0.42266        0.48991        0.59801        0.61392        0.51886        0.45364        0.47336        0.52678        0.53895        0.55230        0.57585        0.53389        0.45159        0.38127        0.36494        0.35217        0.35971        0.40452        0.49697        0.57279        0.59727        0.56610        0.52054        0.47626        0.44584        0.44146        0.45621        0.50158        0.53795        0.52324        0.48826        0.48465        0.50483        0.51506        0.49809        0.50460        0.54076        0.52617        0.44136        0.34528        0.35030        0.43106        0.48298        0.47616        0.47777        0.51850        0.55956        0.55139        0.50791        0.48499        0.47980        0.48675        0.47620        0.47325        0.47011        0.47236        0.49766        0.52562        0.51602        0.45138        0.40760        0.42501        0.49967        0.54838        0.53405        0.48248        0.44288        0.42049        0.41329        0.44752        0.50791        0.52966        0.50982        0.49864        0.50107        0.46446        0.43258        0.48321        0.59277        0.63265        0.52919        0.43056        0.43001        0.46845        0.48582        0.48104        0.50570        0.54910        0.56819        0.54276        0.49601        0.45997        0.45082        0.45782        0.46514        0.49640        0.53415        0.52820        0.45151        0.38995        0.44228        0.55302        0.59328        0.55295        0.49630        0.46286        0.43450        0.41915        0.44718        0.49966        0.52879        0.51289        0.45486        0.39574        0.39523        0.47802        0.56816        0.56681        0.49929        0.47213        0.50612        0.53013        0.48946        0.44798        0.46549        0.50809        0.52670        0.51863        0.51507        0.50572        0.47739        0.44555        0.44653        0.45183        0.46542        0.48010        0.48425        0.47927        0.49036        0.52967        0.55347        0.51324        0.45866        0.45878        0.50583        0.53219        0.50144        0.48159        0.49621        0.50228        0.46973        0.44483        0.48467        0.54512        0.54969        0.49323        0.45080        0.46774        0.49277        0.48077        0.45706        0.47029        0.49351        0.47975        0.46046        0.46135        0.47349        0.46406        0.45717        0.47616        0.49732        0.47267        0.43048        0.44632        0.49186        0.50045        0.45213        0.43632        0.48842        0.53892        0.53632        0.51736        0.52764        0.54605        0.53869        0.51323        0.50165        0.49519        0.46404        0.42237        0.43882        0.49971        0.51460        0.46073        0.41505        0.44231        0.48745        0.49244        0.44334        0.43721        0.48538        0.50605        0.46565        0.43753        0.46695        0.55330        0.59443        0.56091        0.50360        0.46179        0.44947        0.43612        0.43994        0.47830        0.48408        0.45887        0.44011        0.46761        0.49825        0.51053        0.47237        0.44918        0.47278        0.53640        0.56063        0.52420        0.46001        0.44037        0.46741        0.50710        0.51991        0.53152        0.46215        0.38256        0.38598        0.47795        0.51765        0.44894        0.40667        0.43764        0.48124        0.45198        0.41173        0.41475        0.46721        0.51371        0.54786        0.56788        0.60422        0.52157        0.46782        0.45113        0.49100        0.50028        0.49990        0.46017        0.45764        0.51249        0.57872        0.52351        0.39501        0.30897        0.24039        0.11739       -0.02418       -0.09621       -0.09598       -0.08912
0.486798 0.486798 0.486798 0.486798 0.486798 0.486798 0.486798 0.486798 0.486798 0.486798 0.486798 0.486798 0.486798 0.486798 0.486798 0.486798 0.486798 0.486798 0.486798 1.383798 2.119688 1.086834 0.110153 -0.157357 0.423235 1.220880 1.040075 0.525532 0.289091 0.217926 0.073795 0.131511 0.227890 0.246402 0.243621 0.179869 0.071959 -0.030358 -0.139163 -0.083243 -0.081482 0.005862 0.208090 0.502565 0.563503 0.561887 0.640652 0.724855 0.855938 0.923656 0.883163 0.511226 0.281930 0.242030 0.434363 0.344105 0.281211 0.098027 0.237363 0.430762 0.533782 0.603348 0.687787 0.736478 0.754509 0.650376 0.508301 0.475994 0.386249 0.421631 0.353535 0.504340 0.548632 0.585208 0.447809 0.390703 0.462301 0.401295 0.402777 0.462791 0.514253 0.560725 0.570229 0.442048 0.434733 0.388374 0.471237 0.517906 0.486930 0.431197 0.377961 0.423280 0.453660 0.508568 0.430020 0.397620 0.454616 0.577490 0.654214 0.562433 0.472160 0.447821 0.542267 0.519672 0.564062 0.574215 0.556972 0.482611 0.406076 0.357106 0.339750 0.354710 0.394287 0.447587 0.549606 0.592625 0.561616 0.531510 0.488862 0.460138 0.447555 0.431058 0.497709 0.537594 0.532263 0.485591 0.491920 0.495769 0.507762 0.529317 0.492767 0.529045 0.546256 0.474270 0.358247 0.348242 0.390028 0.490590 0.459439 0.444207 0.504845 0.555426 0.582434 0.536245 0.479623 0.460811 0.478397 0.484590 0.467702 0.494655 0.449696 0.486408 0.537863 0.529308 0.473703 0.409664 0.409079 0.459669 0.531489 0.540084 0.520843 0.455858 0.422740 0.410771 0.420299 0.481599 0.547639 0.520075 0.501024 0.513090 0.455879 0.443136 0.423707 0.552436 0.651378 0.606199 0.456946 0.417849 0.426820 0.501721 0.484590 0.490158 0.526909 0.561645 0.565331 0.521389 0.475789 0.453286 0.465005 0.452975 0.485422 0.509452 0.548311 0.531271 0.415509 0.382454 0.498427 0.589075 0.594225 0.552418 0.456729 0.454339 0.433343 0.402612 0.462053 0.539248 0.546197 0.511425 0.417543 0.391840 0.414992 0.517558 0.595096 0.538439 0.456943 0.495084 0.509328 0.531093 0.469845 0.446824 0.474296 0.529593 0.530068 0.518582 0.513441 0.490465 0.468583 0.431339 0.449067 0.457989 0.469658 0.480658 0.483038 0.474416 0.505784 0.527330 0.558561 0.467059 0.446272 0.482870 0.526339 0.532184 0.491758 0.475921 0.506687 0.499508 0.452630 0.449655 0.515906 0.555821 0.538246 0.477185 0.446947 0.463823 0.496713 0.475695 0.455900 0.475083 0.504588 0.453163 0.471788 0.454247 0.474143 0.462824 0.448651 0.473002 0.500206 0.466145 0.418730 0.458795 0.505734 0.478004 0.436998 0.444320 0.500858 0.543905 0.548119 0.504154 0.544573 0.555898 0.532232 0.507833 0.507796 0.487776 0.456978 0.401268 0.464801 0.524463 0.489432 0.453862 0.426105 0.461686 0.489808 0.478535 0.420717 0.452824 0.499378 0.503642 0.439655 0.423019 0.492724 0.574011 0.570083 0.542166 0.506065 0.459699 0.445315 0.431451 0.423944 0.510349 0.457633 0.470185 0.423633 0.496564 0.480034 0.540796 0.468342 0.443984 0.483389 0.534713 0.582299 0.523258 0.461868 0.442653 0.476676 0.513180 0.526435 0.502397 0.464325 0.360631 0.391425 0.485577 0.503567 0.450012 0.408785 0.466282 0.466066 0.467438 0.374688 0.393834 0.497817 0.490058 0.528491 0.618049 0.542761 0.566014 0.446570 0.462043 0.475319 0.524908 0.494651 0.462565 0.492267 0.448076 0.603826 0.525580 0.388127 0.298783 0.244311 0.116994 -0.059632 -0.100860 -0.089125
0.072396 0.073444 0.076585 0.081820 0.089145 0.098555 0.110045 0.123604 0.139221 0.156878 0.176552 0.198216 0.221832 0.247354 0.274726 0.303879 0.334730 0.367181 0.401116 0.436399 0.472876 0.510367 0.548669 0.587553 0.626763 0.666015 0.704995 0.743359 0.780735 0.816720 0.850885 0.882773 0.911902 0.937773 0.959867 0.977653 0.990598 0.998166 0.999834 0.995097 0.983478 0.964540 0.937900 0.903238 0.860314 0.808980 0.749194 0.681034 0.604710 0.520579 0.429154 0.331113 0.227305 0.118754 0.006660 0.107606 0.222513 0.336377 0.447389 0.553633 0.653120 0.743825 0.823727 0.890859 0.943359 0.979526 0.997880 0.997222 0.976690 0.935820 0.874592 0.793484 0.693495 0.576179 0.443645 0.298554 0.144089 0.016092 0.177926 0.337034 0.488833 0.628668 0.751957 0.854358 0.931931 0.981317 0.999902 0.985975 0.938869 0.859065 0.748269 0.609443 0.446781 0.265644 0.072416 0.125681 0.320833 0.504932 0.669918 0.808144 0.912760 0.978091 0.999994 0.976162 0.906371 0.792633 0.639246 0.452725 0.241605 0.016118 0.212255 0.431345 0.628937 0.793468 0.914750 0.984656 0.997743 0.951752 0.847942 0.691226 0.490078 0.256186 0.003868 0.250734 0.490658 0.699254 0.861370 0.964533 1.000000 0.963613 0.856369 0.684622 0.459893 0.198242 0.080761 0.355416 0.603571 0.804413 0.940296 0.998411 0.972133 0.861923 0.675642 0.428217 0.140635 0.161701 0.451129 0.700251 0.884568 0.985019 0.990117 0.897457 0.714388 0.457720 0.152410 0.170674 0.477788 0.735807 0.915875 0.996786 0.967706 0.829852 0.596887 0.293888 0.045118 0.380798 0.673022 0.885706 0.991437 0.975245 0.837011 0.592104 0.270043 0.088774 0.437953 0.731045 0.927804 0.999933 0.935456 0.741038 0.441780 0.078366 0.298181 0.633541 0.877946 0.993767 0.961625 0.784029 0.485813 0.111129 0.282771 0.634079 0.886191 0.997006 0.946354 0.740098 0.410114 0.009837 0.394022 0.732472 0.946104 0.995832 0.870501 0.589852 0.202031 0.224189 0.611345 0.887321 0.999056 0.923189 0.671515 0.289884 0.149579 0.561744 0.864895 0.997166 0.929647 0.673330 0.278138 0.176174 0.595711 0.891797 0.999991 0.894667 0.595778 0.165910 0.302177 0.705217 0.952269 0.985628 0.794995 0.421266 0.051392 0.513941 0.857418 0.998848 0.901898 0.587031 0.128174 0.363884 0.767860 0.981978 0.950137 0.677467 0.230752 0.277039 0.714825 0.967243 0.965561 0.707267 0.258590 0.261530 0.712373 0.969514 0.959686 0.682606 0.213011 0.318472 0.761087 0.986771 0.927836 0.598315 0.091996 0.443269 0.848274 0.999997 0.849814 0.440231 0.105820 0.620979 0.944497 0.972876 0.694036 0.193473 0.370707 0.817091 0.999360 0.855125 0.428574 0.141592 0.666232 0.968298 0.943150 0.596077 0.043112 0.526480 0.914448 0.982914 0.704548 0.174902 0.418941 0.863648 0.996478 0.765913 0.253189 0.354715 0.832330 0.999377 0.789885 0.279850 0.338622 0.828621 0.999234 0.781002 0.255901 0.371670 0.853414 0.995444 0.737534 0.180423 0.451706 0.900478 0.979189 0.651859 0.051517 0.572096 0.955617 0.933854 0.512548 0.130476 0.718711 0.995429 0.836657 0.308630 0.357645 0.866100 0.987187 0.662946 0.036834 0.607699 0.974675 0.892173 0.394780 0.288417 0.837713 0.992211 0.675174 0.034391 0.624515 0.982885 0.863905 0.321925 0.379768 0.895232 0.966475 0.554298 0.137750 0.761740 0.999685 0.726817 0.079476 0.610464 0.984580 0.844814 0.260664 0.462581 0.941692 0.918851 0.402498 0.332334 0.888419 0.960970 0.506537
1.000000 1.000000 1.000000 1.000000 1.000000 1.000000 1.000000 1.000000 1.000000 1.000000 1.000000 1.000000 1.000000 1.000000 1.000000 1.000000 1.000000 1.000000 1.000000 1.000000 -0.066279 -0.066279 -0.066279 -0.066279 -0.066279 -0.066279 -0.066279 -0.066279 -0.066279 -0.066279 -0.066279 -0.066279 -0.066279 -0.066279 -0.066279 -0.066279 -0.066279 -0.066279 -0.142485 -0.142485 -0.142485 -0.142485 -0.142485 -0.142485 -0.142485 -0.142485 -0.142485 -0.142485 -0.142485 -0.142485 -0.142485 -0.142485 -0.142485 -0.142485 -0.142485 -0.142485 -0.126227 -0.116679 -0.086840 -0.067561 -0.070753 -0.078350 -0.079276 -0.078410 -0.076087 -0.079876 -0.061646 0.135011 0.211012 0.247121 0.260172 0.260738 0.255080 0.243474 0.210553 0.217635 0.221156 0.245102 0.269786 0.279504 0.282037 0.301883 0.369154 0.385123 0.377042 0.358809 0.353831 0.286971 0.299502 0.282878 0.269215 0.330217 0.358084 0.441553 0.451733 0.462154 0.468614 0.464598 0.452201 0.505743 0.453473 0.396914 0.402386 0.404335 0.405578 0.407180 0.415454 0.439488 0.493813 0.485501 0.446031 0.425781 0.473910 0.527655 0.529082 0.534347 0.546735 0.540866 0.543908 0.465100 0.441878 0.449605 0.470153 0.456540 0.477925 0.491030 0.488222 0.480608 0.411657 0.416271 0.416934 0.376396 0.322019 0.342682 0.349467 0.345916 0.354810 0.358837 0.348953 0.315292 0.288478 0.267665 0.310381 0.371274 0.420872 0.458574 0.451807 0.434767 0.430546 0.387679 0.350523 0.340312 0.366549 0.371386 0.363086 0.335168 0.285809 0.236956 0.199941 0.196253 0.239216 0.229014 0.186979 0.182020 0.218336 0.218905 0.167179 0.140926 0.154482 0.204686 0.222469 0.232801 0.261812 0.231064 0.213338 0.231031 0.158147 0.089394 0.081315 0.010857 -0.008161 -0.007873 -0.018586 -0.070582 -0.126149 -0.114796 -0.155409 -0.145603 -0.189152 -0.205459 -0.203775 -0.200955 -0.248115 -0.297187 -0.286775 -0.302645 -0.273890 -0.220970 -0.185784 -0.161198 -0.103240 -0.006717 -0.009671 -0.018072 -0.013340 -0.006570 -0.037365 -0.083821 -0.105328 -0.087155 -0.160879 -0.180957 -0.182574 -0.213862 -0.202466 -0.159936 -0.121997 -0.048755 -0.036497 0.030156 0.093048 0.086106 0.094618 0.127967 0.114804 0.146189 0.145356 0.118201 0.112063 0.074301 0.055071 0.063481 0.091912 0.164685 0.175918 0.194873 0.266346 0.272261 0.228669 0.250646 0.239360 0.123944 0.120000 0.070306 0.044760 0.045932 0.045155 0.111476 0.121163 0.107830 0.108988 0.178694 0.199848 0.220585 0.212304 0.201701 0.162177 0.161071 0.170620 0.182592 0.158462 0.150184 0.113273 0.095810 0.119617 0.092964 0.112304 0.120985 0.151156 0.211037 0.208404 0.234799 0.268266 0.294762 0.316431 0.292818 0.329712 0.369263 0.346133 0.326393 0.338591 0.337313 0.380179 0.383669 0.366126 0.390762 0.376008 0.321110 0.341176 0.292057 0.279435 0.276131 0.240788 0.167659 0.172366 0.149256 0.164695 0.198956 0.154423 0.185718 0.178393 0.174549 0.197853 0.208785 0.215613 0.226659 0.236647 0.191903 0.169079 0.165489 0.196826 0.188667 0.131426 0.105829 0.090354 0.078617 0.041602 0.059271 0.038347 0.078446 0.042603 0.018281 -0.070003 -0.055010 -0.049613 -0.085376 -0.097531 -0.090483 -0.096342 -0.076190 -0.088240 -0.186313 -0.134730 -0.120152 -0.083973 -0.119193 -0.119193 -0.119193 -0.119193 -0.119193 -0.092721 -0.092721 -0.092721 -0.092721 -0.092721 -0.092721 -0.092721 -0.092721 -0.067213 -0.067213 -0.067213 -0.067213 -0.067213 -0.121174 -0.121174 -0.121174 -0.121174 -0.145130 -0.145130 -0.145130 -0.145130 -0.145130 -0.145130
0.000000 0.000000 0.000000 0.000000 0.000000 0.000000 0.000000 0.000000 0.000000 0.000000 0.000000 0.000000 0.000000 0.000000 0.000000 0.000000 0.000000 0.000000 0.000000 0.000000 0.216930 0.216930 0.216930 0.216930 0.216930 0.216930 0.216930 0.216930 0.216930 0.216930 0.216930 0.216930 0.216930 0.216930 0.216930 0.216930 0.216930 0.216930 0.234082 0.234082 0.234082 0.234082 0.234082 0.234082 0.234082 0.234082 0.234082 0.234082 0.234082 0.234082 0.234082 0.234082 0.234082 0.234082 0.234082 0.234082 0.234082 0.234082 0.234082 0.234082 0.234082 0.234082 0.234082 0.234082 0.234082 0.234082 0.234082 0.269680 0.269680 0.269680 0.269680 0.269680 0.269680 0.269680 0.269680 0.269680 0.269680 0.269680 0.269680 0.269680 0.269680 0.269680 0.269680 0.269680 0.269680 0.269680 0.269680 0.298142 0.298142 0.298142 0.298142 0.298142 0.298142 0.298142 0.298142 0.298142 0.298142 0.298142 0.298142 0.298142 0.298142 0.298142 0.298142 0.298142 0.298142 0.298142 0.298142 0.298142 0.298142 0.298142 0.298142 0.298142 0.298142 0.298142 0.298142 0.298142 0.312348 0.312348 0.312348 0.312348 0.312348 0.312348 0.312348 0.312348 0.312348 0.312348 0.312348 0.312348 0.298142 0.298142 0.298142 0.298142 0.298142 0.298142 0.298142 0.298142 0.298142 0.298142 0.298142 0.298142 0.320256 0.320256 0.320256 0.320256 0.320256 0.320256 0.320256 0.320256 0.320256 0.320256 0.312348 0.312348 0.312348 0.312348 0.312348 0.312348 0.312348 0.312348 0.312348 0.312348 0.312348 0.312348 0.312348 0.312348 0.312348 0.312348 0.312348 0.312348 0.312348 0.304997 0.304997 0.304997 0.304997 0.304997 0.304997 0.304997 0.304997 0.304997 0.320256 0.320256 0.320256 0.320256 0.320256 0.320256 0.320256 0.320256 0.312348 0.312348 0.312348 0.312348 0.312348 0.312348 0.312348 0.312348 0.320256 0.320256 0.320256 0.320256 0.320256 0.320256 0.320256 0.298142 0.298142 0.298142 0.298142 0.298142 0.298142 0.298142 0.298142 0.312348 0.312348 0.312348 0.312348 0.312348 0.312348 0.312348 0.304997 0.304997 0.304997 0.304997 0.304997 0.304997 0.304997 0.320256 0.320256 0.320256 0.320256 0.320256 0.320256 0.291730 0.291730 0.291730 0.291730 0.291730 0.291730 0.291730 0.304997 0.304997 0.304997 0.304997 0.304997 0.304997 0.304997 0.304997 0.304997 0.304997 0.304997 0.304997 0.298142 0.298142 0.298142 0.298142 0.298142 0.298142 0.291730 0.291730 0.291730 0.291730 0.291730 0.291730 0.291730 0.291730 0.291730 0.291730 0.291730 0.291730 0.304997 0.304997 0.304997 0.304997 0.304997 0.280056 0.280056 0.280056 0.280056 0.280056 0.280056 0.298142 0.298142 0.298142 0.298142 0.298142 0.298142 0.298142 0.298142 0.298142 0.298142 0.291730 0.291730 0.291730 0.291730 0.291730 0.285714 0.285714 0.285714 0.285714 0.285714 0.285714 0.285714 0.285714 0.285714 0.285714 0.280056 0.280056 0.280056 0.280056 0.280056 0.280056 0.280056 0.280056 0.280056 0.280056 0.274721 0.274721 0.274721 0.274721 0.274721 0.269680 0.269680 0.269680 0.269680 0.269680 0.291730 0.291730 0.291730 0.291730 0.264906 0.264906 0.264906 0.264906 0.264906 0.285714 0.285714 0.285714 0.285714 0.260378 0.260378 0.260378 0.260378 0.260378 0.280056 0.280056 0.280056 0.280056 0.280056 0.280056 0.280056 0.280056 0.251976 0.251976 0.251976 0.251976 0.251976 0.274721 0.274721 0.274721 0.274721 0.269680 0.269680 0.269680 0.269680 0.269680 0.269680
