# Output from CTFFind version 4.1.9, run on 2019-11-24 11:56:25
# Input file: stack1_bm3d_averaged_1_1.0_0_1000_half.mrc ; Number of micrographs: 1
# Pixel size: 1.500 Angstroms ; acceleration voltage: 300.0 keV ; spherical aberration: 0.00 mm ; amplitude contrast: 0.07
# Box size: 512 pixels ; min. res.: 40.0 Angstroms ; max. res.: 6.0 Angstroms ; min. def.: 5000.0 um; max. def. 50000.0 um; num. frames averaged: 1
# 6 lines per micrograph: #1 - spatial frequency (1/Angstroms); #2 - 1D rotational average of spectrum (assuming no astigmatism); #3 - 1D rotational average of spectrum; #4 - CTF fit; #5 - cross-correlation between spectrum and CTF fit; #6 - 2sigma of expected cross correlation of noise
0.000000 0.001302 0.002604 0.003906 0.005208 0.006510 0.007812 0.009115 0.010417 0.011719 0.013021 0.014323 0.015625 0.016927 0.018229 0.019531 0.020833 0.022135 0.023438 0.024740 0.026042 0.027344 0.028646 0.029948 0.031250 0.032552 0.033854 0.035156 0.036458 0.037760 0.039062 0.040365 0.041667 0.042969 0.044271 0.045573 0.046875 0.048177 0.049479 0.050781 0.052083 0.053385 0.054688 0.055990 0.057292 0.058594 0.059896 0.061198 0.062500 0.063802 0.065104 0.066406 0.067708 0.069010 0.070312 0.071615 0.072917 0.074219 0.075521 0.076823 0.078125 0.079427 0.080729 0.082031 0.083333 0.084635 0.085938 0.087240 0.088542 0.089844 0.091146 0.092448 0.093750 0.095052 0.096354 0.097656 0.098958 0.100260 0.101562 0.102865 0.104167 0.105469 0.106771 0.108073 0.109375 0.110677 0.111979 0.113281 0.114583 0.115885 0.117188 0.118490 0.119792 0.121094 0.122396 0.123698 0.125000 0.126302 0.127604 0.128906 0.130208 0.131510 0.132812 0.134115 0.135417 0.136719 0.138021 0.139323 0.140625 0.141927 0.143229 0.144531 0.145833 0.147135 0.148438 0.149740 0.151042 0.152344 0.153646 0.154948 0.156250 0.157552 0.158854 0.160156 0.161458 0.162760 0.164062 0.165365 0.166667 0.167969 0.169271 0.170573 0.171875 0.173177 0.174479 0.175781 0.177083 0.178385 0.179688 0.180990 0.182292 0.183594 0.184896 0.186198 0.187500 0.188802 0.190104 0.191406 0.192708 0.194010 0.195312 0.196615 0.197917 0.199219 0.200521 0.201823 0.203125 0.204427 0.205729 0.207031 0.208333 0.209635 0.210938 0.212240 0.213542 0.214844 0.216146 0.217448 0.218750 0.220052 0.221354 0.222656 0.223958 0.225260 0.226562 0.227865 0.229167 0.230469 0.231771 0.233073 0.234375 0.235677 0.236979 0.238281 0.239583 0.240885 0.242188 0.243490 0.244792 0.246094 0.247396 0.248698 0.250000 0.251302 0.252604 0.253906 0.255208 0.256510 0.257812 0.259115 0.260417 0.261719 0.263021 0.264323 0.265625 0.266927 0.268229 0.269531 0.270833 0.272135 0.273438 0.274740 0.276042 0.277344 0.278646 0.279948 0.281250 0.282552 0.283854 0.285156 0.286458 0.287760 0.289062 0.290365 0.291667 0.292969 0.294271 0.295573 0.296875 0.298177 0.299479 0.300781 0.302083 0.303385 0.304688 0.305990 0.307292 0.308594 0.309896 0.311198 0.312500 0.313802 0.315104 0.316406 0.317708 0.319010 0.320312 0.321615 0.322917 0.324219 0.325521 0.326823 0.328125 0.329427 0.330729 0.332031 0.333333 0.334635 0.335938 0.337240 0.338542 0.339844 0.341146 0.342448 0.343750 0.345052 0.346354 0.347656 0.348958 0.350260 0.351562 0.352865 0.354167 0.355469 0.356771 0.358073 0.359375 0.360677 0.361979 0.363281 0.364583 0.365885 0.367188 0.368490 0.369792 0.371094 0.372396 0.373698 0.375000 0.376302 0.377604 0.378906 0.380208 0.381510 0.382812 0.384115 0.385417 0.386719 0.388021 0.389323 0.390625 0.391927 0.393229 0.394531 0.395833 0.397135 0.398438 0.399740 0.401042 0.402344 0.403646 0.404948 0.406250 0.407552 0.408854 0.410156 0.411458 0.412760 0.414062 0.415365 0.416667 0.417969 0.419271 0.420573 0.421875 0.423177 0.424479 0.425781 0.427083 0.428385 0.429688 0.430990 0.432292 0.433594 0.434896 0.436198 0.437500 0.438802 0.440104 0.441406 0.442708 0.444010 0.445312 0.446615 0.447917 0.449219 0.450521 0.451823 0.453125 0.454427 0.455729 0.457031 0.458333 0.459635 0.460938 0.462240 0.463542 0.464844 0.466146 0.467448 0.468750 0.470052 0.471354
       0.67188        0.67188        0.67188        0.67188        0.67188        0.67188        0.67189        0.67188        0.67188        0.67188        0.67188        0.67188        0.67188        0.67188        0.67188        0.67188        0.67188        0.67188        0.67188        1.53246        2.28265        1.13675        0.33134        0.16231        0.70282        1.30137        1.18271        0.65425        0.39122        0.41721        0.43317        0.36442        0.38410        0.45152        0.38311        0.28985        0.16483        0.06440       -0.00648        0.01683        0.07605        0.17586        0.40153        0.67052        0.83843        0.85516        0.82909        0.88133        1.02945        1.14285        1.05058        0.71952        0.44756        0.44785        0.58808        0.57247        0.43395        0.38504        0.47807        0.56275        0.63510        0.70877        0.83653        0.90796        0.89139        0.80667        0.69346        0.62782        0.58401        0.58507        0.65152        0.78160        0.84201        0.73313        0.59814        0.58736        0.65368        0.66662        0.61771        0.62718        0.72082        0.74651        0.68387        0.56920        0.56018        0.62160        0.69905        0.70880        0.66424        0.57581        0.50370        0.52763        0.61203        0.67900        0.64172        0.60122        0.66465        0.78979        0.83321        0.77728        0.74332        0.75558        0.75793        0.70909        0.66499        0.66269        0.64683        0.60991        0.56236        0.54069        0.56026        0.61072        0.65201        0.68012        0.72128        0.78043        0.80727        0.78191        0.70163        0.59933        0.53044        0.54730        0.66390        0.77145        0.77202        0.69869        0.65368        0.66362        0.68473        0.68622        0.69642        0.69773        0.64865        0.55486        0.50607        0.57097        0.66686        0.67508        0.64575        0.67185        0.74337        0.75452        0.71515        0.70293        0.73610        0.73793        0.71113        0.69573        0.70116        0.66333        0.62242        0.64127        0.69463        0.68130        0.59339        0.52864        0.54279        0.61057        0.66059        0.66861        0.67218        0.67470        0.63510        0.57370        0.58755        0.69751        0.78672        0.75376        0.66989        0.67073        0.72950        0.75896        0.73677        0.71129        0.71288        0.71429        0.70597        0.67362        0.61736        0.58738        0.63276        0.72666        0.79137        0.76106        0.66678        0.60939        0.64283        0.71300        0.71906        0.64649        0.57519        0.58165        0.61599        0.62482        0.60970        0.61918        0.64772        0.66748        0.66769        0.65933        0.65383        0.66323        0.69023        0.71759        0.73151        0.72417        0.70489        0.68596        0.69149        0.71342        0.69855        0.65776        0.65219        0.68847        0.69130        0.63767        0.63520        0.69769        0.73552        0.69309        0.63011        0.62570        0.64983        0.67795        0.68536        0.68801        0.67432        0.67161        0.67269        0.69956        0.72721        0.73502        0.69168        0.61807        0.57399        0.60497        0.65591        0.69646        0.70084        0.69615        0.67519        0.65957        0.67127        0.70369        0.72192        0.71567        0.70274        0.67632        0.64768        0.65622        0.67459        0.66608        0.62427        0.60598        0.63339        0.68436        0.71132        0.69300        0.64983        0.65660        0.69737        0.73154        0.71546        0.66137        0.63791        0.68189        0.69771        0.68853        0.67880        0.67994        0.68131        0.65717        0.64873        0.65136        0.65066        0.65849        0.68532        0.69947        0.65139        0.57083        0.56315        0.63855        0.71967        0.71698        0.66144        0.68183        0.77021        0.75527        0.63900        0.57309        0.62327        0.72973        0.77781        0.79173        0.73104        0.62498        0.54276        0.55375        0.64186        0.62942        0.57219        0.59989        0.68365        0.70127        0.62472        0.63801        0.68277        0.67010        0.67472        0.72476        0.70935        0.64316        0.68624        0.76029        0.73868        0.69917        0.75520        0.82360        0.71685        0.54663        0.50131        0.61339        0.62926        0.61698        0.65222        0.70185        0.60406        0.55866        0.62096        0.60224        0.52590        0.59278        0.73833        0.75462        0.68644        0.76741        0.77420        0.69317        0.68597        0.84133        0.80575        0.60506        0.52795        0.67929        0.73870        0.79632        0.74331        0.63129        0.50923        0.52690        0.54644        0.49751        0.51289        0.73482        0.94554        0.94281        0.85647        0.65048        0.23492       -0.27855       -0.62689       -0.71694       -0.73418
0.671885 0.671885 0.671885 0.671885 0.671885 0.671885 0.671885 0.671885 0.671885 0.671885 0.671885 0.671885 0.671885 0.671885 0.671885 0.671885 0.671885 0.671885 0.671885 1.571925 2.329116 1.312330 0.313520 0.046857 0.588484 1.441181 1.171748 0.631829 0.424626 0.452968 0.335484 0.366216 0.438277 0.434963 0.409906 0.290636 0.166005 0.089998 -0.026142 0.058277 0.080091 0.141124 0.351419 0.718140 0.832141 0.828539 0.840957 0.842077 1.014051 1.132238 1.143980 0.736572 0.459825 0.441453 0.648566 0.521258 0.460578 0.301966 0.455666 0.614528 0.630283 0.695614 0.812113 0.895388 0.923201 0.783773 0.721911 0.617455 0.573319 0.596287 0.615307 0.804116 0.817054 0.784416 0.618416 0.584060 0.661830 0.620496 0.604033 0.634685 0.694116 0.764566 0.724215 0.584401 0.550068 0.595164 0.672865 0.723921 0.668989 0.582804 0.499349 0.529622 0.597831 0.678241 0.644567 0.594205 0.621065 0.768091 0.853339 0.816172 0.744277 0.620272 0.814548 0.705608 0.664001 0.660894 0.667570 0.638490 0.580857 0.516197 0.544303 0.594223 0.660736 0.653981 0.705192 0.766793 0.794409 0.798786 0.742833 0.635561 0.546553 0.508982 0.630305 0.738110 0.814734 0.716376 0.643010 0.685200 0.698251 0.677965 0.678787 0.693117 0.681310 0.594100 0.512521 0.533157 0.638957 0.666255 0.688974 0.630871 0.711783 0.764328 0.738291 0.702597 0.713973 0.746084 0.733549 0.702855 0.692067 0.679595 0.625889 0.615487 0.689072 0.704415 0.619949 0.556959 0.516656 0.591488 0.644596 0.680356 0.661357 0.694031 0.662215 0.587967 0.564248 0.630362 0.764197 0.762702 0.695499 0.660446 0.702503 0.745551 0.752083 0.738158 0.711381 0.714887 0.711469 0.690444 0.642421 0.598533 0.587860 0.692637 0.753288 0.801715 0.689240 0.610958 0.607011 0.693722 0.740776 0.698321 0.607955 0.550715 0.581984 0.637083 0.647566 0.598792 0.623768 0.656842 0.676200 0.648023 0.677475 0.662876 0.670883 0.681708 0.714861 0.756340 0.731158 0.698420 0.690298 0.695681 0.678142 0.684975 0.669481 0.658676 0.690489 0.682620 0.616576 0.650436 0.727392 0.711747 0.648776 0.631748 0.637176 0.658868 0.689186 0.671011 0.682138 0.667609 0.669168 0.679942 0.726265 0.735485 0.710785 0.652636 0.589408 0.577719 0.633389 0.653307 0.705074 0.708253 0.688130 0.669947 0.652610 0.683317 0.731189 0.710068 0.711073 0.698990 0.659881 0.620723 0.673645 0.693824 0.653465 0.596537 0.616958 0.646022 0.701586 0.711118 0.666212 0.639644 0.664617 0.725629 0.731286 0.689485 0.654520 0.632616 0.693805 0.702605 0.694752 0.675571 0.690458 0.670364 0.653587 0.660855 0.636651 0.660257 0.669633 0.687366 0.700979 0.592246 0.550184 0.558967 0.658224 0.745339 0.704828 0.671949 0.690139 0.800466 0.741164 0.663932 0.559461 0.649212 0.752727 0.800852 0.780215 0.731486 0.595804 0.518488 0.589248 0.619808 0.641323 0.524442 0.626589 0.713175 0.686200 0.648314 0.601209 0.718640 0.653938 0.668933 0.758421 0.718682 0.635033 0.696540 0.755226 0.725287 0.694781 0.769869 0.775304 0.749842 0.506714 0.536643 0.634324 0.577488 0.598253 0.742009 0.652270 0.617932 0.542160 0.678379 0.606505 0.498581 0.679834 0.733608 0.708951 0.691829 0.803870 0.756615 0.626916 0.695943 0.898591 0.745704 0.559423 0.607528 0.658538 0.786986 0.756176 0.769984 0.557129 0.477524 0.521863 0.575020 0.474119 0.486152 0.726362 0.963870 0.977046 0.886861 0.604374 0.081226 -0.313327 -0.625658 -0.734176
0.072396 0.073463 0.076664 0.081997 0.089460 0.099047 0.110752 0.124565 0.140474 0.158459 0.178498 0.200560 0.224607 0.250590 0.278450 0.308114 0.339495 0.372490 0.406975 0.442810 0.479830 0.517845 0.556644 0.595984 0.635596 0.675182 0.714410 0.752922 0.790326 0.826201 0.860098 0.891539 0.920024 0.945032 0.966025 0.982458 0.993778 0.999439 0.998908 0.991673 0.977260 0.955237 0.925233 0.886950 0.840177 0.784803 0.720837 0.648413 0.567814 0.479477 0.384003 0.282172 0.174943 0.063455 0.050971 0.166839 0.282494 0.396135 0.505839 0.609591 0.705320 0.790941 0.864399 0.923729 0.967106 0.992908 0.999780 0.986695 0.953014 0.898546 0.823592 0.728990 0.616142 0.487029 0.344207 0.190787 0.030389 0.132922 0.294724 0.450350 0.595018 0.723982 0.832701 0.917010 0.973303 0.998712 0.991273 0.950074 0.875380 0.768717 0.632907 0.472065 0.291525 0.097714 0.102042 0.299769 0.487148 0.655867 0.798007 0.906438 0.975218 0.999968 0.978200 0.909575 0.796067 0.642026 0.454105 0.241060 0.013406 0.217043 0.437767 0.636217 0.800540 0.920339 0.987392 0.996298 0.944987 0.835062 0.671917 0.464619 0.225517 0.030392 0.286343 0.524866 0.728992 0.883499 0.976127 0.998661 0.947774 0.825559 0.639664 0.402999 0.132986 0.149608 0.422192 0.662156 0.848774 0.965086 0.999573 0.947453 0.811461 0.601979 0.336471 0.038207 0.265647 0.546438 0.776742 0.933117 0.998640 0.964927 0.833402 0.615613 0.332501 0.012603 0.310661 0.602412 0.830101 0.967259 0.996765 0.913234 0.724163 0.449629 0.120446 0.225066 0.545430 0.800981 0.958901 0.997647 0.910184 0.705506 0.408132 0.055506 0.306463 0.629281 0.868375 0.989441 0.973639 0.820888 0.550624 0.199770 0.181989 0.539024 0.817865 0.975336 0.985562 0.844606 0.571933 0.208213 0.190333 0.560418 0.841700 0.986793 0.969624 0.790569 0.477357 0.081326 0.330614 0.687083 0.924650 0.999418 0.895589 0.629325 0.246891 0.182844 0.580521 0.870886 0.997261 0.933090 0.688096 0.307598 0.135246 0.553143 0.861767 0.997014 0.928817 0.668490 0.267701 0.191121 0.611344 0.902418 0.999705 0.879420 0.565165 0.124161 0.346473 0.740785 0.967918 0.973500 0.753400 0.356227 0.126563 0.581177 0.898168 0.999104 0.856663 0.502886 0.022961 0.464569 0.836793 0.997620 0.903246 0.574999 0.095646 0.410643 0.810058 0.994667 0.912248 0.582033 0.091451 0.426132 0.827223 0.998165 0.888086 0.525083 0.010325 0.509245 0.882464 0.998249 0.819507 0.396184 0.147432 0.648371 0.953623 0.967409 0.682297 0.183816 0.373984 0.815512 0.999000 0.862879 0.447709 0.114413 0.640908 0.957681 0.957288 0.636566 0.100300 0.471723 0.884347 0.993924 0.759391 0.259113 0.333775 0.810414 0.999815 0.831171 0.361841 0.240484 0.756616 0.995463 0.865700 0.412213 0.197618 0.734467 0.993067 0.871566 0.413248 0.206989 0.748068 0.996230 0.850388 0.365021 0.268229 0.794940 0.999997 0.796545 0.264600 0.378454 0.865514 0.990825 0.698214 0.108213 0.529648 0.941462 0.946999 0.540250 0.104247 0.704523 0.994001 0.840824 0.309885 0.362364 0.871775 0.984171 0.644478 0.005905 0.637051 0.983588 0.868103 0.341368 0.349240 0.874317 0.979538 0.610426 0.057063 0.698230 0.996809 0.801969 0.206828 0.493454 0.946622 0.920882 0.425509 0.289239 0.856538 0.981056 0.594365 0.104848 0.750417 0.999720 0.716778 0.049090 0.646587 0.993585 0.800208 0.168201 0.557829 0.976737 0.853086 0.251930 0.492238 0.959755 0.882833
1.000000 1.000000 1.000000 1.000000 1.000000 1.000000 1.000000 1.000000 1.000000 1.000000 1.000000 1.000000 1.000000 1.000000 1.000000 1.000000 1.000000 1.000000 1.000000 1.000000 -0.097349 -0.097349 -0.097349 -0.097349 -0.097349 -0.097349 -0.097349 -0.097349 -0.097349 -0.097349 -0.097349 -0.097349 -0.097349 -0.097349 -0.097349 -0.097349 -0.097349 -0.097349 -0.165696 -0.165696 -0.165696 -0.165696 -0.165696 -0.165696 -0.165696 -0.165696 -0.165696 -0.165696 -0.165696 -0.165696 -0.165696 -0.165696 -0.165696 -0.165696 -0.164729 -0.139667 -0.114802 -0.105782 -0.121704 -0.150085 -0.147556 -0.127920 -0.121975 -0.119057 -0.106649 -0.086532 -0.014858 0.035984 0.099766 0.128693 0.146941 0.154974 0.158996 0.153766 0.108929 0.129381 0.149248 0.164030 0.183306 0.185615 0.198082 0.251564 0.285936 0.287760 0.277532 0.267582 0.236121 0.225528 0.204864 0.196447 0.195193 0.201985 0.279376 0.326437 0.351610 0.349235 0.359790 0.397947 0.448490 0.436903 0.464832 0.480497 0.491772 0.492773 0.481206 0.507462 0.575112 0.602446 0.597775 0.582736 0.549595 0.517038 0.560404 0.557576 0.539159 0.614845 0.597447 0.542373 0.514610 0.439469 0.427962 0.414644 0.445101 0.421371 0.400325 0.389508 0.393445 0.396597 0.404854 0.352593 0.316079 0.310396 0.279851 0.198324 0.192933 0.196470 0.132767 0.067947 0.085695 0.071330 0.051649 0.027560 0.031111 -0.044533 -0.077069 -0.041852 -0.017842 -0.032629 -0.045065 -0.115179 -0.123164 -0.092653 -0.086260 -0.128269 -0.167141 -0.174532 -0.161232 -0.121801 -0.112046 -0.032082 0.083120 0.082357 0.103752 0.151045 0.129972 0.103544 0.121828 0.114103 0.109836 0.082875 0.008472 -0.033675 -0.026145 -0.038937 -0.005476 0.050794 0.092148 0.106659 0.105835 0.059760 0.005992 0.014132 0.052004 0.047775 0.061875 0.078006 0.114603 0.079435 0.038313 0.052381 0.101645 0.101251 0.199471 0.170933 0.160837 0.150268 0.127683 0.154717 0.161427 0.141630 0.138922 0.141937 0.093422 0.053922 0.041687 -0.009447 -0.062955 -0.046742 -0.054388 -0.005528 -0.061704 -0.049259 0.022041 0.043874 0.043590 0.076606 0.056598 0.083075 0.118408 0.123704 0.150086 0.161485 0.217614 0.262039 0.285832 0.262639 0.249882 0.206445 0.203837 0.220201 0.225372 0.231366 0.231244 0.308051 0.301756 0.295976 0.301275 0.322708 0.354364 0.349781 0.306304 0.310636 0.340014 0.370611 0.399973 0.386032 0.412267 0.428914 0.407410 0.435265 0.476385 0.491974 0.573193 0.561293 0.588876 0.526069 0.537658 0.384429 0.430685 0.422875 0.435247 0.410739 0.374052 0.334869 0.326964 0.322707 0.292627 0.259750 0.224657 0.200707 0.207908 0.151236 0.154684 0.154192 0.175462 0.206690 0.194531 0.165429 0.170503 0.234545 0.254201 0.202997 0.187019 0.162939 0.146269 0.136124 0.090827 0.089128 0.068973 0.035884 0.025648 0.034838 0.074451 0.045945 0.076925 0.107255 0.130345 0.148525 0.143460 0.140824 0.073592 0.073572 0.096579 0.095834 0.052413 0.093791 0.116370 0.112552 0.060721 0.009549 0.024619 0.045479 0.096371 0.084064 0.106399 0.157045 0.173384 0.158614 0.202195 0.167801 0.179231 0.124423 0.155736 0.080547 0.067576 0.034666 0.003998 -0.025063 0.000344 -0.042588 -0.040251 -0.105808 -0.046979 -0.089930 -0.078498 -0.078498 -0.078498 -0.087493 -0.099205 -0.099205 -0.099205 -0.099205 -0.099205 -0.099205 -0.099205 -0.101540 -0.101540 -0.101540 -0.101540 -0.057889 -0.057889 -0.057889 -0.057889 -0.057889 -0.125669 -0.125669 -0.125669 -0.125669 -0.125669 -0.125669 -0.125669 -0.125669 -0.125669
0.000000 0.000000 0.000000 0.000000 2127748804277798912.000000 865546143928451968.000000 529647743020956288.000000 1260189049967413504.000000 603765619574577536.000000 546154161280854080.000000 573335463185158912.000000 1164546931620446208.000000 808373188548647680.000000 641223781574840320.000000 725429329978256640.000000 1297153531369430272.000000 633145669805536128.000000 789008589817975040.000000 1501886994532211456.000000 403337496530815296.000000 0.216930 0.216930 0.216930 0.216930 0.216930 0.216930 0.216930 0.216930 0.216930 0.216930 0.216930 0.216930 0.216930 0.216930 0.216930 0.216930 0.216930 0.216930 0.240772 0.240772 0.240772 0.240772 0.240772 0.240772 0.240772 0.240772 0.240772 0.240772 0.240772 0.240772 0.240772 0.240772 0.240772 0.240772 0.240772 0.240772 0.240772 0.240772 0.240772 0.240772 0.240772 0.240772 0.240772 0.240772 0.240772 0.240772 0.269680 0.269680 0.269680 0.269680 0.269680 0.269680 0.269680 0.269680 0.269680 0.269680 0.269680 0.269680 0.269680 0.269680 0.269680 0.269680 0.269680 0.269680 0.269680 0.269680 0.291730 0.291730 0.291730 0.291730 0.291730 0.291730 0.291730 0.291730 0.291730 0.291730 0.291730 0.291730 0.291730 0.291730 0.291730 0.291730 0.304997 0.304997 0.304997 0.304997 0.304997 0.304997 0.304997 0.304997 0.304997 0.304997 0.304997 0.304997 0.304997 0.312348 0.312348 0.312348 0.312348 0.312348 0.312348 0.312348 0.312348 0.312348 0.312348 0.312348 0.312348 0.312348 0.312348 0.312348 0.312348 0.312348 0.312348 0.312348 0.312348 0.312348 0.312348 0.312348 0.304997 0.304997 0.304997 0.304997 0.304997 0.304997 0.304997 0.304997 0.304997 0.304997 0.304997 0.320256 0.320256 0.320256 0.320256 0.320256 0.320256 0.320256 0.320256 0.320256 0.312348 0.312348 0.312348 0.312348 0.312348 0.312348 0.312348 0.312348 0.312348 0.304997 0.304997 0.304997 0.304997 0.304997 0.304997 0.304997 0.304997 0.304997 0.320256 0.320256 0.320256 0.320256 0.320256 0.320256 0.320256 0.320256 0.312348 0.312348 0.312348 0.312348 0.312348 0.312348 0.312348 0.312348 0.320256 0.320256 0.320256 0.320256 0.320256 0.320256 0.320256 0.298142 0.298142 0.298142 0.298142 0.298142 0.298142 0.298142 0.298142 0.312348 0.312348 0.312348 0.312348 0.312348 0.312348 0.312348 0.328798 0.328798 0.328798 0.328798 0.328798 0.328798 0.298142 0.298142 0.298142 0.298142 0.298142 0.298142 0.298142 0.312348 0.312348 0.312348 0.312348 0.312348 0.312348 0.285714 0.285714 0.285714 0.285714 0.285714 0.285714 0.285714 0.304997 0.304997 0.304997 0.304997 0.304997 0.304997 0.298142 0.298142 0.298142 0.298142 0.298142 0.298142 0.320256 0.320256 0.320256 0.320256 0.320256 0.291730 0.291730 0.291730 0.291730 0.291730 0.291730 0.285714 0.285714 0.285714 0.285714 0.285714 0.285714 0.304997 0.304997 0.304997 0.304997 0.304997 0.298142 0.298142 0.298142 0.298142 0.298142 0.274721 0.274721 0.274721 0.274721 0.274721 0.274721 0.291730 0.291730 0.291730 0.291730 0.291730 0.285714 0.285714 0.285714 0.285714 0.285714 0.285714 0.285714 0.285714 0.285714 0.285714 0.280056 0.280056 0.280056 0.280056 0.280056 0.304997 0.304997 0.304997 0.304997 0.274721 0.274721 0.274721 0.274721 0.274721 0.269680 0.269680 0.269680 0.269680 0.269680 0.291730 0.291730 0.291730 0.291730 0.264906 0.264906 0.264906 0.264906 0.264906 0.285714 0.285714 0.285714 0.285714 0.260378 0.260378 0.260378 0.260378 0.260378 0.280056 0.280056 0.280056 0.280056 0.280056 0.280056 0.280056 0.280056 0.274721 0.274721 0.274721 0.274721 0.251976 0.251976 0.251976 0.251976 0.251976 0.269680 0.269680 0.269680 0.269680 0.269680 0.269680 0.269680 0.269680 0.269680
