# Output from CTFFind version 4.1.9, run on 2019-11-24 12:06:12
# Input file: stack1_ubbm3d_averaged_1_0.0_0_1500_half.mrc ; Number of micrographs: 1
# Pixel size: 1.500 Angstroms ; acceleration voltage: 300.0 keV ; spherical aberration: 0.00 mm ; amplitude contrast: 0.07
# Box size: 512 pixels ; min. res.: 40.0 Angstroms ; max. res.: 6.0 Angstroms ; min. def.: 5000.0 um; max. def. 50000.0 um; num. frames averaged: 1
# 6 lines per micrograph: #1 - spatial frequency (1/Angstroms); #2 - 1D rotational average of spectrum (assuming no astigmatism); #3 - 1D rotational average of spectrum; #4 - CTF fit; #5 - cross-correlation between spectrum and CTF fit; #6 - 2sigma of expected cross correlation of noise
0.000000 0.001302 0.002604 0.003906 0.005208 0.006510 0.007812 0.009115 0.010417 0.011719 0.013021 0.014323 0.015625 0.016927 0.018229 0.019531 0.020833 0.022135 0.023438 0.024740 0.026042 0.027344 0.028646 0.029948 0.031250 0.032552 0.033854 0.035156 0.036458 0.037760 0.039062 0.040365 0.041667 0.042969 0.044271 0.045573 0.046875 0.048177 0.049479 0.050781 0.052083 0.053385 0.054688 0.055990 0.057292 0.058594 0.059896 0.061198 0.062500 0.063802 0.065104 0.066406 0.067708 0.069010 0.070312 0.071615 0.072917 0.074219 0.075521 0.076823 0.078125 0.079427 0.080729 0.082031 0.083333 0.084635 0.085938 0.087240 0.088542 0.089844 0.091146 0.092448 0.093750 0.095052 0.096354 0.097656 0.098958 0.100260 0.101562 0.102865 0.104167 0.105469 0.106771 0.108073 0.109375 0.110677 0.111979 0.113281 0.114583 0.115885 0.117188 0.118490 0.119792 0.121094 0.122396 0.123698 0.125000 0.126302 0.127604 0.128906 0.130208 0.131510 0.132812 0.134115 0.135417 0.136719 0.138021 0.139323 0.140625 0.141927 0.143229 0.144531 0.145833 0.147135 0.148438 0.149740 0.151042 0.152344 0.153646 0.154948 0.156250 0.157552 0.158854 0.160156 0.161458 0.162760 0.164062 0.165365 0.166667 0.167969 0.169271 0.170573 0.171875 0.173177 0.174479 0.175781 0.177083 0.178385 0.179688 0.180990 0.182292 0.183594 0.184896 0.186198 0.187500 0.188802 0.190104 0.191406 0.192708 0.194010 0.195312 0.196615 0.197917 0.199219 0.200521 0.201823 0.203125 0.204427 0.205729 0.207031 0.208333 0.209635 0.210938 0.212240 0.213542 0.214844 0.216146 0.217448 0.218750 0.220052 0.221354 0.222656 0.223958 0.225260 0.226562 0.227865 0.229167 0.230469 0.231771 0.233073 0.234375 0.235677 0.236979 0.238281 0.239583 0.240885 0.242188 0.243490 0.244792 0.246094 0.247396 0.248698 0.250000 0.251302 0.252604 0.253906 0.255208 0.256510 0.257812 0.259115 0.260417 0.261719 0.263021 0.264323 0.265625 0.266927 0.268229 0.269531 0.270833 0.272135 0.273438 0.274740 0.276042 0.277344 0.278646 0.279948 0.281250 0.282552 0.283854 0.285156 0.286458 0.287760 0.289062 0.290365 0.291667 0.292969 0.294271 0.295573 0.296875 0.298177 0.299479 0.300781 0.302083 0.303385 0.304688 0.305990 0.307292 0.308594 0.309896 0.311198 0.312500 0.313802 0.315104 0.316406 0.317708 0.319010 0.320312 0.321615 0.322917 0.324219 0.325521 0.326823 0.328125 0.329427 0.330729 0.332031 0.333333 0.334635 0.335938 0.337240 0.338542 0.339844 0.341146 0.342448 0.343750 0.345052 0.346354 0.347656 0.348958 0.350260 0.351562 0.352865 0.354167 0.355469 0.356771 0.358073 0.359375 0.360677 0.361979 0.363281 0.364583 0.365885 0.367188 0.368490 0.369792 0.371094 0.372396 0.373698 0.375000 0.376302 0.377604 0.378906 0.380208 0.381510 0.382812 0.384115 0.385417 0.386719 0.388021 0.389323 0.390625 0.391927 0.393229 0.394531 0.395833 0.397135 0.398438 0.399740 0.401042 0.402344 0.403646 0.404948 0.406250 0.407552 0.408854 0.410156 0.411458 0.412760 0.414062 0.415365 0.416667 0.417969 0.419271 0.420573 0.421875 0.423177 0.424479 0.425781 0.427083 0.428385 0.429688 0.430990 0.432292 0.433594 0.434896 0.436198 0.437500 0.438802 0.440104 0.441406 0.442708 0.444010 0.445312 0.446615 0.447917 0.449219 0.450521 0.451823 0.453125 0.454427 0.455729 0.457031 0.458333 0.459635 0.460938 0.462240 0.463542 0.464844 0.466146 0.467448 0.468750 0.470052 0.471354
       0.55112        0.55112        0.55112        0.55112        0.55112        0.55112        0.55112        0.55112        0.55112        0.55112        0.55112        0.55112        0.55112        0.55112        0.55112        0.55112        0.55112        0.55112        0.55112        1.42244        2.17426        1.00415        0.18288        0.02534        0.58377        1.19649        1.11102        0.58736        0.27268        0.26094        0.29693        0.28102        0.28536        0.29548        0.22208        0.20389        0.16116        0.06736       -0.06168       -0.09665       -0.04207        0.09751        0.33854        0.55581        0.65682        0.65890        0.68879        0.79888        0.94180        1.02102        0.89599        0.57147        0.30139        0.29282        0.43900        0.44441        0.30653        0.22045        0.30206        0.44702        0.59610        0.68610        0.75723        0.77147        0.74884        0.69030        0.60970        0.55975        0.49376        0.44813        0.47026        0.58427        0.67435        0.59616        0.47873        0.45896        0.51117        0.51047        0.47771        0.50865        0.60901        0.61169        0.54364        0.46154        0.49959        0.58103        0.63756        0.61595        0.52341        0.40910        0.35787        0.42365        0.51759        0.55530        0.50744        0.49779        0.57172        0.66568        0.66480        0.59537        0.56171        0.58898        0.63327        0.63293        0.59824        0.57371        0.53538        0.50118        0.43942        0.38444        0.38349        0.44606        0.51671        0.56741        0.61051        0.66752        0.68619        0.66323        0.59991        0.51985        0.43418        0.41979        0.53079        0.68821        0.73177        0.64674        0.54373        0.50701        0.51394        0.52719        0.56475        0.59545        0.54890        0.44931        0.39793        0.44893        0.52185        0.52321        0.51843        0.56867        0.63044        0.62792        0.59486        0.58840        0.60957        0.59050        0.55298        0.53106        0.54117        0.52928        0.51552        0.54210        0.59718        0.60778        0.51764        0.40661        0.38725        0.47963        0.58730        0.61455        0.59080        0.57566        0.54427        0.50522        0.52283        0.59850        0.64991        0.63045        0.57298        0.55055        0.52084        0.53083        0.57836        0.63125        0.61715        0.56342        0.56442        0.59663        0.55401        0.48082        0.47945        0.55243        0.62305        0.61467        0.54184        0.46129        0.43192        0.47663        0.55479        0.58606        0.55984        0.52148        0.50996        0.52725        0.55056        0.56039        0.55636        0.55293        0.59650        0.64321        0.62902        0.55094        0.49609        0.51670        0.58178        0.59852        0.55427        0.49890        0.49699        0.55171        0.59837        0.60790        0.59702        0.57221        0.54582        0.53873        0.57154        0.59435        0.56606        0.51734        0.48943        0.50402        0.53945        0.58785        0.59711        0.54430        0.47955        0.49649        0.57016        0.61745        0.59196        0.54358        0.50387        0.48792        0.51479        0.56990        0.58902        0.57543        0.55274        0.54452        0.52318        0.50993        0.53574        0.57832        0.58774        0.56827        0.56469        0.57337        0.57914        0.59918        0.61759        0.60237        0.53996        0.48265        0.46588        0.48795        0.52610        0.54607        0.55380        0.57099        0.58350        0.57037        0.53810        0.52783        0.55820        0.59992        0.57419        0.52046        0.49628        0.52221        0.54109        0.52148        0.48533        0.49687        0.54795        0.58530        0.58318        0.54893        0.56081        0.59192        0.58693        0.54039        0.54492        0.55674        0.54792        0.52793        0.53768        0.56310        0.50200        0.44133        0.47798        0.59359        0.62572        0.56715        0.51885        0.52933        0.52559        0.50651        0.53574        0.55659        0.51754        0.47311        0.52257        0.62503        0.65159        0.59599        0.53768        0.51637        0.54835        0.57655        0.57945        0.54068        0.54569        0.60955        0.64389        0.53897        0.38503        0.42329        0.58500        0.61461        0.49679        0.48326        0.57600        0.60894        0.55610        0.58436        0.67374        0.61689        0.46170        0.44205        0.58050        0.60245        0.48538        0.47408        0.53554        0.54046        0.44805        0.49006        0.58658        0.55729        0.48306        0.54899        0.66031        0.66728        0.58449        0.54036        0.48348        0.41378        0.39844        0.45812        0.48751        0.52350        0.60072        0.66799        0.61886        0.48527        0.45449        0.52152        0.55020        0.37106        0.05492       -0.15105       -0.23393
0.007645 -8.902776 -8.558984 -8.218890 -7.882495 -7.549792 -7.220786 -6.895479 -6.573865 -6.255954 -5.941736 -5.631211 -5.324389 -5.021259 -4.721828 -4.426095 -4.134060 -3.845718 -3.561073 77.273644 146.146190 54.144679 -36.685000 -59.651463 -8.173532 66.104513 48.498114 0.553007 -21.827451 -24.688995 -30.493621 -25.039208 -18.120053 -24.322253 -26.815044 -30.908417 -34.632723 -41.276067 -54.175056 -52.181566 -50.674518 -41.378355 -21.977403 6.936794 11.889113 9.908699 15.577861 21.033782 38.125529 44.069197 42.810929 5.200283 -16.077820 -19.665778 -1.612955 -8.397612 -14.119329 -31.834405 -20.194756 -1.653889 7.901980 17.302725 22.982793 24.444157 25.228714 14.839090 16.794567 4.848233 -0.724310 -0.819607 -4.075090 11.426859 15.228836 15.255041 1.783098 -2.344895 2.595124 -0.367489 -0.702100 3.374613 9.483152 13.313648 9.583746 -2.233048 2.670881 4.895647 15.503331 14.227628 5.679539 -3.987522 -9.890239 -5.284902 2.726303 8.792883 1.808410 1.189407 6.974289 16.972805 18.907006 15.406133 6.653454 11.259659 15.474358 15.334425 12.655128 11.237947 8.183372 6.873482 0.169282 -7.520884 -7.845167 -3.338585 3.563124 8.506594 12.822063 16.840403 21.557105 21.375927 16.725873 9.147119 -0.289052 -5.213519 2.858495 16.954570 25.731842 20.392844 10.914294 4.077507 1.450924 2.468590 5.589527 7.983955 7.654762 -1.150649 -8.104376 -6.772044 -0.796102 4.895060 -3.914145 1.037759 6.351290 9.691291 5.535617 3.958933 3.694482 5.804109 2.229026 -1.248758 -4.198911 -2.612137 -6.777917 -5.152809 -0.228518 3.867098 -3.101065 -11.668117 -18.542325 -12.467192 -1.955597 3.073393 2.123965 3.983580 0.799504 -4.032491 -5.338649 1.739093 5.657381 11.333586 10.285361 5.125773 0.643126 1.048309 2.961977 11.095420 12.129385 7.263553 4.298500 10.040565 7.235055 1.844377 -2.795375 2.906738 8.301542 11.907284 5.101078 -0.599811 -6.356672 -3.519145 1.143788 8.218016 7.013421 2.335899 0.120352 0.728039 4.556623 3.732155 3.915275 4.093857 5.306615 8.810596 11.739970 5.273259 -1.357998 -5.068021 0.771429 4.862944 3.508374 0.001851 -4.069694 -2.438971 1.686126 4.664527 5.544204 3.409678 -0.502076 -2.569489 -2.149724 0.596888 1.776251 -3.049486 -6.129274 -10.242275 -8.429439 -4.305491 -1.401676 -3.280863 -9.080970 -12.390179 -8.123406 -0.525319 2.504164 -3.220342 -7.386883 -10.957921 -10.346230 -6.809175 -0.759490 -2.330420 -2.266645 -4.775033 -3.257552 -4.516929 -4.855199 -1.153664 1.542734 1.256369 3.556720 3.163983 3.408728 3.628678 7.068128 8.199640 2.379107 -4.324968 -6.134754 -7.380333 -3.649791 -0.548700 -1.149351 -0.069204 1.711223 3.459165 1.158727 -4.259491 -2.410678 -0.538216 4.349308 -1.311638 -5.830239 -7.260546 -3.427885 -4.069148 -7.625041 -7.658192 -2.502856 2.529663 2.783648 1.697283 -0.512617 -0.048113 3.777188 1.074034 -1.193158 -2.026883 2.313069 -4.566320 -3.890903 -2.600502 -1.127605 -7.588534 -10.245194 -4.087838 6.200168 8.980870 0.556622 -1.541225 -0.358597 -0.730961 -2.573920 1.396293 2.392463 0.149700 -5.733865 -0.044486 12.273826 12.474614 3.011025 2.471060 2.318807 1.967460 7.736830 4.790204 4.043280 2.305427 6.690347 6.515326 -3.290081 -15.195565 -9.661857 10.214949 5.854743 -3.018753 -5.696706 6.255153 9.151193 -0.999742 10.098654 12.770320 1.619665 -5.966270 -9.853550 2.760162 5.667187 -6.229870 -13.728123 1.050598 -5.443731 -13.896717 -7.069864 2.808837 -5.283269 -7.205990 -1.730782 3.977755 6.965441 5.375498 -3.439504 -6.930025 -12.731043 -12.855331 -6.630127 -1.028002 -0.192070 10.568329 16.482775 12.744768 2.015111 2.986635 51.403833 48.426508 33.869112 11.767444 -10.752218
0.072396 0.073459 0.076649 0.081962 0.089398 0.098950 0.110612 0.124375 0.140226 0.158147 0.178114 0.200098 0.224059 0.249952 0.277715 0.307279 0.338555 0.371443 0.405820 0.441546 0.478459 0.516372 0.555074 0.594325 0.633859 0.673380 0.712562 0.751047 0.788448 0.824348 0.858301 0.889834 0.918451 0.943634 0.964850 0.981555 0.993202 0.999246 0.999155 0.992420 0.978565 0.957157 0.927823 0.890260 0.844250 0.789677 0.726536 0.654952 0.575193 0.487678 0.392993 0.291896 0.185323 0.074391 0.039603 0.155188 0.270734 0.384461 0.494471 0.598766 0.695291 0.781972 0.856760 0.917686 0.962916 0.990812 0.999992 0.989391 0.958325 0.906545 0.834287 0.742315 0.631950 0.505086 0.364192 0.212288 0.052910 0.109955 0.271955 0.428472 0.574760 0.706084 0.817886 0.905957 0.966615 0.996885 0.994664 0.958875 0.889589 0.788117 0.657060 0.500303 0.322957 0.131244 0.067685 0.265989 0.455430 0.627713 0.774865 0.889625 0.965843 0.998856 0.985823 0.925994 0.820896 0.674409 0.492724 0.284168 0.058892 0.171564 0.394839 0.598399 0.770255 0.899714 0.978098 0.999406 0.960854 0.863247 0.711151 0.512822 0.279882 0.026737 0.230237 0.473725 0.686629 0.853310 0.960805 0.999937 0.966216 0.860441 0.688933 0.463341 0.200019 0.081050 0.357683 0.607228 0.808430 0.943330 0.998984 0.968859 0.853746 0.662060 0.409457 0.117746 0.186845 0.475958 0.721722 0.899514 0.990542 0.984024 0.878658 0.683208 0.416069 0.103770 0.221482 0.525038 0.773482 0.938412 0.999856 0.948926 0.789336 0.537533 0.221312 0.123011 0.454613 0.732975 0.922907 0.999191 0.950199 0.779958 0.508283 0.168839 0.194769 0.534423 0.803864 0.965101 0.994040 0.884410 0.649374 0.320413 0.056533 0.427231 0.736865 0.938254 0.999278 0.908381 0.677143 0.339343 0.053544 0.439903 0.757542 0.953825 0.994675 0.870936 0.600817 0.227794 0.185944 0.569594 0.855813 0.992756 0.953866 0.743540 0.397427 0.023057 0.441223 0.778952 0.971424 0.979934 0.800243 0.464561 0.036434 0.400795 0.760022 0.967825 0.979894 0.791081 0.437742 0.008539 0.454928 0.806481 0.986484 0.953682 0.712438 0.313191 0.157336 0.594523 0.899001 0.999561 0.870438 0.538694 0.079460 0.400375 0.786754 0.985664 0.946579 0.676100 0.238014 0.260890 0.696380 0.957692 0.976173 0.744155 0.318685 0.191527 0.653278 0.943565 0.982772 0.757397 0.325556 0.196950 0.667046 0.953411 0.973712 0.719175 0.259112 0.276873 0.734761 0.980350 0.939210 0.620321 0.115587 0.425575 0.839934 0.999903 0.853620 0.442983 0.106965 0.625215 0.947641 0.969537 0.680688 0.171096 0.395806 0.834910 1.000000 0.833368 0.387350 0.190624 0.705755 0.981338 0.920101 0.539847 0.029953 0.591006 0.944734 0.963076 0.636117 0.078504 0.509343 0.912586 0.980846 0.685549 0.133422 0.470495 0.898198 0.985110 0.694658 0.135333 0.478180 0.906551 0.979498 0.664805 0.084272 0.531709 0.934817 0.959324 0.591739 0.020303 0.625646 0.972034 0.911919 0.466995 0.177352 0.747711 0.998333 0.818022 0.281405 0.379805 0.875542 0.984750 0.655385 0.031322 0.608510 0.973897 0.895706 0.406037 0.272430 0.826058 0.995046 0.696701 0.068183 0.594353 0.974231 0.886327 0.369306 0.328728 0.867578 0.980659 0.608507 0.067519 0.711371 0.998578 0.780824 0.164948 0.536852 0.963890 0.892866 0.356827 0.367280 0.899725 0.957222 0.505446 0.217807 0.825546 0.988151 0.613781 0.097017 0.756069 0.998812 0.687216 0.008876 0.701527 0.999747
1.000000 1.000000 1.000000 1.000000 1.000000 1.000000 1.000000 1.000000 1.000000 1.000000 1.000000 1.000000 1.000000 1.000000 1.000000 1.000000 1.000000 1.000000 1.000000 1.000000 -0.033694 -0.033694 -0.033694 -0.033694 -0.033694 -0.033694 -0.033694 -0.033694 -0.033694 -0.033694 -0.033694 -0.033694 -0.033694 -0.033694 -0.033694 -0.033694 -0.033694 -0.033694 -0.091875 -0.091875 -0.091875 -0.091875 -0.091875 -0.091875 -0.091875 -0.091875 -0.091875 -0.091875 -0.091875 -0.091875 -0.091875 -0.091875 -0.091875 -0.091875 -0.089689 -0.054323 -0.034341 -0.031016 -0.045397 -0.073351 -0.063697 -0.044410 -0.045646 -0.042650 -0.029038 -0.012067 0.117708 0.176202 0.241167 0.276342 0.295843 0.298859 0.294409 0.265962 0.254023 0.272333 0.291430 0.310612 0.331934 0.344870 0.365919 0.408533 0.429640 0.440571 0.432127 0.422194 0.393815 0.394000 0.377195 0.362998 0.355974 0.346098 0.374741 0.422718 0.487334 0.486084 0.493200 0.521218 0.557698 0.553190 0.571721 0.572273 0.583993 0.583179 0.583950 0.613859 0.617430 0.601976 0.585547 0.572406 0.536487 0.497306 0.540124 0.550069 0.534957 0.533361 0.505713 0.483851 0.467748 0.462272 0.459056 0.441300 0.426655 0.440031 0.443581 0.393275 0.372642 0.367288 0.339700 0.280122 0.266580 0.245935 0.230268 0.154876 0.123722 0.131832 0.086129 0.022037 -0.024270 -0.036840 -0.046246 -0.154481 -0.217327 -0.205693 -0.128151 -0.111244 -0.104435 -0.081692 -0.034135 -0.014111 0.002702 0.057668 0.109749 0.152634 0.160713 0.147077 0.143557 0.166615 0.147998 0.229121 0.318229 0.316447 0.322924 0.355155 0.372440 0.364678 0.362614 0.382314 0.382207 0.405533 0.401162 0.400978 0.491898 0.500597 0.429331 0.425990 0.395072 0.391489 0.411459 0.412375 0.416278 0.448513 0.463309 0.446346 0.492973 0.488320 0.492281 0.454690 0.399342 0.390336 0.368186 0.341542 0.367648 0.310226 0.255001 0.282987 0.234040 0.193157 0.170074 0.116628 0.107693 0.007332 -0.000580 -0.020615 -0.108345 -0.124572 -0.126979 -0.160412 -0.195156 -0.218211 -0.253659 -0.266798 -0.265178 -0.264370 -0.287282 -0.302773 -0.318674 -0.306828 -0.296484 -0.301253 -0.335408 -0.420007 -0.442437 -0.492526 -0.497949 -0.490691 -0.536880 -0.398211 -0.357413 -0.345459 -0.370284 -0.334518 -0.288202 -0.301258 -0.303499 -0.354602 -0.370469 -0.379688 -0.394120 -0.384027 -0.387181 -0.372635 -0.382948 -0.371159 -0.368593 -0.398081 -0.408823 -0.387614 -0.373123 -0.396572 -0.349969 -0.357354 -0.325644 -0.338986 -0.323041 -0.314406 -0.315456 -0.256909 -0.241035 -0.196296 -0.156955 -0.095540 -0.121654 -0.124620 -0.147673 -0.135392 -0.126885 -0.111784 -0.104940 -0.122199 -0.150698 -0.224993 -0.246371 -0.253577 -0.124681 -0.123374 -0.126239 -0.109603 -0.127494 -0.092488 -0.160335 -0.138257 -0.105923 -0.067091 -0.042812 0.012117 -0.017808 0.036829 0.046746 0.048589 0.071139 0.132986 0.127984 0.167987 0.173936 0.196678 0.231282 0.232830 0.253733 0.274797 0.298808 0.252963 0.287695 0.317766 0.312003 0.354956 0.338660 0.357990 0.336247 0.351370 0.325341 0.274530 0.307390 0.253922 0.246896 0.415304 0.440349 0.353330 0.372399 0.242123 0.281033 0.312517 0.272485 0.287850 0.260304 0.275748 0.210942 0.217404 0.269779 0.250694 0.250420 0.218302 0.226084 0.143162 0.180263 0.161440 0.171491 0.209389 0.209389 0.209389 0.209389 0.209389 0.118640 0.118640 0.118640 0.118640 0.107028 0.107028 0.107028 0.107028 0.107028 0.107028 0.107028 0.107028 0.144057 0.144057 0.144057 0.144057 0.144057 0.144057 0.144057 0.144057 0.144057
0.000000 0.000000 0.000000 0.000000 0.000000 0.000000 0.000000 0.000000 0.000000 0.000000 0.000000 0.000000 0.000000 0.000000 0.000000 0.000000 0.000000 0.000000 0.000000 0.000000 0.216930 0.216930 0.216930 0.216930 0.216930 0.216930 0.216930 0.216930 0.216930 0.216930 0.216930 0.216930 0.216930 0.216930 0.216930 0.216930 0.216930 0.216930 0.240772 0.240772 0.240772 0.240772 0.240772 0.240772 0.240772 0.240772 0.240772 0.240772 0.240772 0.240772 0.240772 0.240772 0.240772 0.240772 0.240772 0.240772 0.240772 0.240772 0.240772 0.240772 0.240772 0.240772 0.240772 0.240772 0.240772 0.240772 0.269680 0.269680 0.269680 0.269680 0.269680 0.269680 0.269680 0.269680 0.269680 0.269680 0.269680 0.269680 0.269680 0.269680 0.269680 0.269680 0.269680 0.269680 0.269680 0.269680 0.291730 0.291730 0.291730 0.291730 0.291730 0.291730 0.291730 0.291730 0.291730 0.291730 0.291730 0.291730 0.291730 0.291730 0.291730 0.291730 0.304997 0.304997 0.304997 0.304997 0.304997 0.304997 0.304997 0.304997 0.304997 0.304997 0.304997 0.304997 0.304997 0.298142 0.298142 0.298142 0.298142 0.298142 0.298142 0.298142 0.298142 0.298142 0.298142 0.298142 0.298142 0.298142 0.312348 0.312348 0.312348 0.312348 0.312348 0.312348 0.312348 0.312348 0.312348 0.312348 0.312348 0.320256 0.320256 0.320256 0.320256 0.320256 0.320256 0.320256 0.320256 0.320256 0.320256 0.312348 0.312348 0.312348 0.312348 0.312348 0.312348 0.312348 0.312348 0.312348 0.312348 0.312348 0.312348 0.312348 0.312348 0.312348 0.312348 0.312348 0.312348 0.312348 0.328798 0.328798 0.328798 0.328798 0.328798 0.328798 0.328798 0.328798 0.320256 0.320256 0.320256 0.320256 0.320256 0.320256 0.320256 0.320256 0.312348 0.312348 0.312348 0.312348 0.312348 0.312348 0.312348 0.312348 0.304997 0.304997 0.304997 0.304997 0.304997 0.304997 0.304997 0.304997 0.312348 0.312348 0.312348 0.312348 0.312348 0.312348 0.312348 0.312348 0.312348 0.312348 0.312348 0.312348 0.312348 0.312348 0.304997 0.304997 0.304997 0.304997 0.304997 0.304997 0.304997 0.320256 0.320256 0.320256 0.320256 0.320256 0.320256 0.291730 0.291730 0.291730 0.291730 0.291730 0.291730 0.291730 0.304997 0.304997 0.304997 0.304997 0.304997 0.304997 0.304997 0.304997 0.304997 0.304997 0.304997 0.304997 0.298142 0.298142 0.298142 0.298142 0.298142 0.298142 0.291730 0.291730 0.291730 0.291730 0.291730 0.291730 0.291730 0.291730 0.291730 0.291730 0.291730 0.291730 0.304997 0.304997 0.304997 0.304997 0.304997 0.304997 0.304997 0.304997 0.304997 0.304997 0.280056 0.280056 0.280056 0.280056 0.280056 0.280056 0.298142 0.298142 0.298142 0.298142 0.298142 0.291730 0.291730 0.291730 0.291730 0.291730 0.285714 0.285714 0.285714 0.285714 0.285714 0.285714 0.285714 0.285714 0.285714 0.285714 0.280056 0.280056 0.280056 0.280056 0.280056 0.280056 0.280056 0.280056 0.280056 0.280056 0.274721 0.274721 0.274721 0.274721 0.274721 0.298142 0.298142 0.298142 0.298142 0.269680 0.269680 0.269680 0.269680 0.269680 0.291730 0.291730 0.291730 0.291730 0.264906 0.264906 0.264906 0.264906 0.264906 0.285714 0.285714 0.285714 0.285714 0.256074 0.256074 0.256074 0.256074 0.256074 0.280056 0.280056 0.280056 0.280056 0.274721 0.274721 0.274721 0.274721 0.274721 0.274721 0.274721 0.274721 0.269680 0.269680 0.269680 0.269680 0.269680 0.269680 0.269680 0.269680 0.269680
