# Output from CTFFind version 4.1.9, run on 2019-11-24 11:56:28
# Input file: stack1_bm3d_averaged_1_1.0_0_2000_half.mrc ; Number of micrographs: 1
# Pixel size: 1.500 Angstroms ; acceleration voltage: 300.0 keV ; spherical aberration: 0.00 mm ; amplitude contrast: 0.07
# Box size: 512 pixels ; min. res.: 40.0 Angstroms ; max. res.: 6.0 Angstroms ; min. def.: 5000.0 um; max. def. 50000.0 um; num. frames averaged: 1
# 6 lines per micrograph: #1 - spatial frequency (1/Angstroms); #2 - 1D rotational average of spectrum (assuming no astigmatism); #3 - 1D rotational average of spectrum; #4 - CTF fit; #5 - cross-correlation between spectrum and CTF fit; #6 - 2sigma of expected cross correlation of noise
0.000000 0.001302 0.002604 0.003906 0.005208 0.006510 0.007812 0.009115 0.010417 0.011719 0.013021 0.014323 0.015625 0.016927 0.018229 0.019531 0.020833 0.022135 0.023438 0.024740 0.026042 0.027344 0.028646 0.029948 0.031250 0.032552 0.033854 0.035156 0.036458 0.037760 0.039062 0.040365 0.041667 0.042969 0.044271 0.045573 0.046875 0.048177 0.049479 0.050781 0.052083 0.053385 0.054688 0.055990 0.057292 0.058594 0.059896 0.061198 0.062500 0.063802 0.065104 0.066406 0.067708 0.069010 0.070312 0.071615 0.072917 0.074219 0.075521 0.076823 0.078125 0.079427 0.080729 0.082031 0.083333 0.084635 0.085938 0.087240 0.088542 0.089844 0.091146 0.092448 0.093750 0.095052 0.096354 0.097656 0.098958 0.100260 0.101562 0.102865 0.104167 0.105469 0.106771 0.108073 0.109375 0.110677 0.111979 0.113281 0.114583 0.115885 0.117188 0.118490 0.119792 0.121094 0.122396 0.123698 0.125000 0.126302 0.127604 0.128906 0.130208 0.131510 0.132812 0.134115 0.135417 0.136719 0.138021 0.139323 0.140625 0.141927 0.143229 0.144531 0.145833 0.147135 0.148438 0.149740 0.151042 0.152344 0.153646 0.154948 0.156250 0.157552 0.158854 0.160156 0.161458 0.162760 0.164062 0.165365 0.166667 0.167969 0.169271 0.170573 0.171875 0.173177 0.174479 0.175781 0.177083 0.178385 0.179688 0.180990 0.182292 0.183594 0.184896 0.186198 0.187500 0.188802 0.190104 0.191406 0.192708 0.194010 0.195312 0.196615 0.197917 0.199219 0.200521 0.201823 0.203125 0.204427 0.205729 0.207031 0.208333 0.209635 0.210938 0.212240 0.213542 0.214844 0.216146 0.217448 0.218750 0.220052 0.221354 0.222656 0.223958 0.225260 0.226562 0.227865 0.229167 0.230469 0.231771 0.233073 0.234375 0.235677 0.236979 0.238281 0.239583 0.240885 0.242188 0.243490 0.244792 0.246094 0.247396 0.248698 0.250000 0.251302 0.252604 0.253906 0.255208 0.256510 0.257812 0.259115 0.260417 0.261719 0.263021 0.264323 0.265625 0.266927 0.268229 0.269531 0.270833 0.272135 0.273438 0.274740 0.276042 0.277344 0.278646 0.279948 0.281250 0.282552 0.283854 0.285156 0.286458 0.287760 0.289062 0.290365 0.291667 0.292969 0.294271 0.295573 0.296875 0.298177 0.299479 0.300781 0.302083 0.303385 0.304688 0.305990 0.307292 0.308594 0.309896 0.311198 0.312500 0.313802 0.315104 0.316406 0.317708 0.319010 0.320312 0.321615 0.322917 0.324219 0.325521 0.326823 0.328125 0.329427 0.330729 0.332031 0.333333 0.334635 0.335938 0.337240 0.338542 0.339844 0.341146 0.342448 0.343750 0.345052 0.346354 0.347656 0.348958 0.350260 0.351562 0.352865 0.354167 0.355469 0.356771 0.358073 0.359375 0.360677 0.361979 0.363281 0.364583 0.365885 0.367188 0.368490 0.369792 0.371094 0.372396 0.373698 0.375000 0.376302 0.377604 0.378906 0.380208 0.381510 0.382812 0.384115 0.385417 0.386719 0.388021 0.389323 0.390625 0.391927 0.393229 0.394531 0.395833 0.397135 0.398438 0.399740 0.401042 0.402344 0.403646 0.404948 0.406250 0.407552 0.408854 0.410156 0.411458 0.412760 0.414062 0.415365 0.416667 0.417969 0.419271 0.420573 0.421875 0.423177 0.424479 0.425781 0.427083 0.428385 0.429688 0.430990 0.432292 0.433594 0.434896 0.436198 0.437500 0.438802 0.440104 0.441406 0.442708 0.444010 0.445312 0.446615 0.447917 0.449219 0.450521 0.451823 0.453125 0.454427 0.455729 0.457031 0.458333 0.459635 0.460938 0.462240 0.463542 0.464844 0.466146 0.467448 0.468750 0.470052 0.471354
       0.65123        0.65123        0.65123        0.65123        0.65123        0.65123        0.65123        0.65123        0.65123        0.65123        0.65123        0.65123        0.65123        0.65123        0.65123        0.65123        0.65123        0.65123        0.65123        1.51502        2.28569        1.13400        0.31853        0.13703        0.68002        1.29410        1.18714        0.65314        0.37309        0.40587        0.43268        0.35713        0.34844        0.39760        0.33090        0.26263        0.17985        0.11025        0.03400        0.01605        0.04136        0.14432        0.38808        0.64667        0.78115        0.77388        0.76185        0.85027        1.01712        1.12735        1.01821        0.68948        0.42031        0.42043        0.56276        0.55890        0.42672        0.37503        0.46715        0.57551        0.66992        0.73656        0.82052        0.85487        0.83557        0.77691        0.69884        0.64879        0.59431        0.57342        0.61473        0.71648        0.76080        0.65149        0.54027        0.55189        0.61612        0.61354        0.56972        0.59905        0.69882        0.70972        0.64292        0.55553        0.58223        0.64996        0.71248        0.71102        0.65215        0.55971        0.49694        0.54833        0.64599        0.70025        0.65211        0.61927        0.69039        0.79415        0.79538        0.70397        0.64401        0.64588        0.66961        0.67338        0.66581        0.66119        0.62758        0.59068        0.53702        0.48757        0.50035        0.59033        0.69023        0.72583        0.71051        0.71193        0.72175        0.74023        0.72053        0.63698        0.52633        0.47882        0.58683        0.75725        0.80353        0.72122        0.63948        0.64136        0.67084        0.65616        0.63606        0.63938        0.61745        0.55409        0.51359        0.57110        0.65671        0.67053        0.65971        0.69304        0.74942        0.72797        0.65840        0.63017        0.66510        0.67772        0.64565        0.60474        0.60471        0.61217        0.62367        0.65473        0.69713        0.69690        0.62369        0.53020        0.49716        0.57279        0.68457        0.72192        0.69356        0.65001        0.60150        0.56285        0.58964        0.67661        0.75061        0.75177        0.71889        0.71169        0.69517        0.68936        0.70297        0.71957        0.70939        0.68608        0.69406        0.69527        0.62824        0.55707        0.54954        0.59421        0.65201        0.67646        0.63514        0.55955        0.53220        0.58608        0.65306        0.65006        0.61274        0.60107        0.61791        0.62765        0.63042        0.63333        0.65828        0.70184        0.77710        0.79498        0.71956        0.62533        0.60237        0.64218        0.69187        0.70827        0.67822        0.61135        0.57409        0.60598        0.66567        0.68044        0.67449        0.66586        0.65401        0.62718        0.62785        0.66819        0.68612        0.66696        0.61898        0.60031        0.61932        0.67532        0.71929        0.70001        0.64367        0.61994        0.64267        0.68001        0.69212        0.68594        0.65664        0.60389        0.56036        0.57249        0.62769        0.69428        0.71679        0.70853        0.67230        0.65641        0.65350        0.64296        0.63324        0.64768        0.69878        0.72739        0.69572        0.65076        0.62029        0.63355        0.64000        0.62412        0.58854        0.57654        0.59696        0.62690        0.65192        0.69062        0.71854        0.69259        0.62792        0.61668        0.67484        0.76412        0.73734        0.62946        0.59353        0.65368        0.69954        0.63901        0.56718        0.58437        0.64578        0.66343        0.62672        0.61468        0.64693        0.64788        0.66454        0.68353        0.71913        0.68202        0.63996        0.65537        0.68014        0.62225        0.50730        0.48718        0.60285        0.76251        0.83380        0.81101        0.74635        0.68020        0.59195        0.53535        0.56662        0.62612        0.61469        0.54617        0.50136        0.51308        0.54867        0.63747        0.71066        0.68068        0.63584        0.63418        0.70909        0.69643        0.67580        0.67422        0.71816        0.68542        0.61409        0.71584        0.82737        0.80591        0.62641        0.62151        0.69970        0.68371        0.60827        0.68029        0.74736        0.70079        0.62883        0.55109        0.49900        0.40888        0.47439        0.59180        0.62467        0.58845        0.58282        0.70469        0.76478        0.73343        0.68895        0.73311        0.80032        0.86626        0.67893        0.49476        0.53712        0.76710        0.78147        0.49434        0.25896        0.38070        0.60208        0.70730        0.74383        0.87012        0.90936        0.60068        0.04389       -0.45877       -0.74169       -0.81483       -0.83221
0.651229 0.651229 0.651229 0.651229 0.651229 0.651229 0.651229 0.651229 0.651229 0.651229 0.651229 0.651229 0.651229 0.651229 0.651229 0.651229 0.651229 0.651229 0.651229 1.554977 2.330972 1.308901 0.302029 0.023282 0.565074 1.431927 1.173439 0.632423 0.409588 0.438323 0.344996 0.353092 0.405614 0.377042 0.353863 0.267676 0.164693 0.151637 0.004690 0.055795 0.041841 0.111792 0.331903 0.695880 0.775237 0.756285 0.760294 0.798450 1.024095 1.112513 1.112449 0.703724 0.424520 0.419413 0.614327 0.510598 0.459589 0.300042 0.436080 0.618511 0.657637 0.738279 0.810425 0.848747 0.860483 0.757834 0.723781 0.625532 0.579831 0.593731 0.586736 0.742430 0.747349 0.695558 0.554314 0.542265 0.622915 0.572134 0.555087 0.605683 0.667070 0.735525 0.670160 0.552523 0.583532 0.620260 0.695399 0.713159 0.657970 0.576107 0.495725 0.542618 0.626500 0.710312 0.641833 0.599240 0.657867 0.790706 0.829069 0.748597 0.635745 0.627011 0.679044 0.664906 0.653754 0.663395 0.648880 0.623413 0.557228 0.469984 0.477965 0.553583 0.673291 0.729415 0.729223 0.682318 0.705972 0.742781 0.740996 0.675599 0.556750 0.458742 0.531715 0.712271 0.831657 0.750753 0.650554 0.647744 0.673663 0.666484 0.626378 0.627960 0.629920 0.584951 0.519813 0.549741 0.618593 0.699857 0.624966 0.674495 0.739334 0.742285 0.683503 0.633316 0.627535 0.683810 0.679333 0.624364 0.570447 0.627027 0.607776 0.623762 0.703782 0.707010 0.645804 0.578696 0.490077 0.549721 0.667776 0.735844 0.694511 0.691579 0.623844 0.560419 0.555709 0.625003 0.749910 0.726991 0.735481 0.733587 0.696438 0.672440 0.693339 0.730004 0.721933 0.685009 0.700017 0.707038 0.653972 0.584634 0.537275 0.589107 0.620297 0.662071 0.651463 0.586325 0.524989 0.563103 0.628298 0.670456 0.625818 0.598368 0.603761 0.616932 0.658441 0.618888 0.629926 0.675005 0.723717 0.778391 0.804954 0.662539 0.598343 0.592355 0.664590 0.713534 0.716298 0.651074 0.598703 0.567722 0.602137 0.684982 0.697656 0.679893 0.651603 0.658189 0.618814 0.625457 0.692568 0.662533 0.674221 0.612327 0.607741 0.639540 0.693662 0.707268 0.684392 0.631512 0.611830 0.661756 0.708336 0.681559 0.669579 0.658857 0.596161 0.558339 0.587665 0.637810 0.718164 0.714567 0.710299 0.651518 0.652775 0.640042 0.644623 0.642412 0.656757 0.725822 0.724002 0.661662 0.665634 0.609531 0.633028 0.632004 0.617821 0.583501 0.578100 0.591628 0.637349 0.664095 0.692456 0.734220 0.666516 0.596654 0.642283 0.694680 0.782021 0.732473 0.609523 0.594734 0.676965 0.699610 0.608657 0.564673 0.632265 0.648079 0.671333 0.604337 0.621759 0.614176 0.664226 0.683950 0.675840 0.711339 0.704911 0.624157 0.675956 0.677659 0.625709 0.507128 0.469038 0.647212 0.788622 0.851890 0.794510 0.752920 0.646261 0.573108 0.531395 0.566005 0.627902 0.618256 0.521521 0.510356 0.500446 0.565573 0.637344 0.728795 0.696979 0.623549 0.641037 0.697879 0.759119 0.638377 0.666869 0.728385 0.684312 0.648412 0.698282 0.827522 0.769170 0.613226 0.598801 0.693799 0.693382 0.615116 0.693458 0.770444 0.628651 0.633434 0.612667 0.407805 0.420965 0.494618 0.596298 0.648878 0.512499 0.613440 0.695095 0.847625 0.660212 0.653064 0.730700 0.987814 0.824433 0.743883 0.529279 0.578565 0.776779 0.844337 0.567918 0.335414 0.268745 0.623266 0.708826 0.727785 0.919721 0.838298 0.524271 -0.137210 -0.495356 -0.740719 -0.832212
0.072396 0.073461 0.076656 0.081980 0.089428 0.098998 0.110681 0.124469 0.140348 0.158301 0.178304 0.200326 0.224330 0.250267 0.278079 0.307692 0.339020 0.371960 0.406391 0.442171 0.479137 0.517101 0.555850 0.595146 0.634718 0.674271 0.713476 0.751975 0.789377 0.825265 0.859191 0.890678 0.919230 0.944327 0.965433 0.982004 0.993490 0.999345 0.999037 0.992056 0.977925 0.956213 0.926548 0.888629 0.842242 0.787274 0.723724 0.651726 0.571551 0.483629 0.388553 0.287093 0.180194 0.068985 0.045223 0.160951 0.276553 0.390240 0.500101 0.604131 0.700266 0.786426 0.860561 0.920701 0.965018 0.991882 0.999923 0.988096 0.955739 0.902630 0.829038 0.735763 0.624167 0.496186 0.354332 0.201671 0.041780 0.121317 0.283231 0.439320 0.584820 0.714991 0.825281 0.911503 0.970013 0.997887 0.993091 0.954628 0.882666 0.778619 0.645200 0.486406 0.307460 0.114685 0.084682 0.282732 0.471186 0.641739 0.786444 0.898101 0.970662 0.999604 0.982257 0.918074 0.808802 0.658553 0.473746 0.262922 0.036415 0.194099 0.416177 0.617272 0.785462 0.910192 0.983009 0.998202 0.953339 0.849617 0.692011 0.489179 0.253106 0.001506 0.258082 0.499225 0.707891 0.868637 0.968844 0.999801 0.957588 0.843642 0.664937 0.433753 0.166977 0.115010 0.389813 0.634782 0.828914 0.954726 0.999965 0.958958 0.833452 0.632836 0.373664 0.078487 0.225987 0.511231 0.749570 0.916941 0.995455 0.975498 0.857110 0.650436 0.375138 0.058763 0.265854 0.563908 0.802376 0.953776 0.999514 0.932415 0.758063 0.494709 0.171673 0.173696 0.500197 0.767677 0.942062 0.999908 0.931830 0.744307 0.459502 0.112996 0.250403 0.582308 0.837217 0.978881 0.985754 0.854603 0.601706 0.261280 0.118790 0.483483 0.778533 0.958632 0.994667 0.878813 0.626557 0.275159 0.121457 0.500696 0.801134 0.972586 0.984837 0.833404 0.541242 0.155813 0.258190 0.629479 0.892453 0.999031 0.927880 0.689217 0.324035 0.102381 0.511775 0.827180 0.987581 0.960129 0.747463 0.388372 0.048618 0.477915 0.813447 0.986116 0.958467 0.733457 0.355149 0.099218 0.534552 0.857662 0.997464 0.921149 0.642598 0.220778 0.252046 0.670097 0.937725 0.991686 0.816775 0.450845 0.022513 0.492425 0.846498 0.997902 0.907299 0.593912 0.132481 0.363767 0.770497 0.983533 0.946088 0.664792 0.209788 0.301853 0.735745 0.975511 0.954552 0.675483 0.211342 0.312542 0.751815 0.982954 0.938575 0.628113 0.137203 0.394927 0.814436 0.997470 0.887506 0.513909 0.014571 0.540485 0.904238 0.992867 0.776081 0.317830 0.241278 0.726308 0.982666 0.926020 0.571277 0.030252 0.522418 0.905162 0.989480 0.744160 0.248170 0.333328 0.803165 0.999062 0.850579 0.405859 0.182351 0.708109 0.984127 0.909258 0.506962 0.080241 0.639956 0.966365 0.936499 0.558006 0.030672 0.609533 0.958704 0.942528 0.563747 0.034425 0.620913 0.965542 0.929968 0.524762 0.091457 0.672618 0.982980 0.893523 0.437274 0.200762 0.757172 0.998604 0.820643 0.294841 0.357970 0.859153 0.991239 0.693644 0.092476 0.550911 0.952593 0.931897 0.494393 0.166690 0.754052 0.999616 0.787958 0.212702 0.462621 0.923986 0.953204 0.532849 0.141387 0.749849 0.999890 0.767811 0.162324 0.523941 0.954541 0.914673 0.420297 0.285262 0.849200 0.985414 0.621243 0.061231 0.713866 0.999203 0.766070 0.132181 0.572630 0.976618 0.862860 0.288072 0.442703 0.936169 0.922661 0.405652 0.335067 0.892639 0.956508 0.487311 0.256024 0.856761 0.973587
1.000000 1.000000 1.000000 1.000000 1.000000 1.000000 1.000000 1.000000 1.000000 1.000000 1.000000 1.000000 1.000000 1.000000 1.000000 1.000000 1.000000 1.000000 1.000000 1.000000 -0.036300 -0.036300 -0.036300 -0.036300 -0.036300 -0.036300 -0.036300 -0.036300 -0.036300 -0.036300 -0.036300 -0.036300 -0.036300 -0.036300 -0.036300 -0.036300 -0.036300 -0.036300 -0.062643 -0.062643 -0.062643 -0.062643 -0.062643 -0.062643 -0.062643 -0.062643 -0.062643 -0.062643 -0.062643 -0.062643 -0.062643 -0.062643 -0.062643 -0.062643 -0.060484 -0.017889 0.006833 0.014207 0.002727 -0.030281 -0.044224 -0.025185 -0.026689 -0.024325 -0.013327 0.000546 0.139369 0.160969 0.232577 0.267489 0.287485 0.294347 0.288618 0.259994 0.232361 0.251026 0.270198 0.286132 0.306697 0.320701 0.343433 0.388762 0.424841 0.429333 0.421092 0.411850 0.390013 0.381891 0.365037 0.350648 0.349403 0.358739 0.387678 0.402411 0.426582 0.423707 0.432707 0.459584 0.490598 0.477504 0.498465 0.498890 0.504161 0.504457 0.503539 0.550729 0.554884 0.583088 0.576100 0.563512 0.555513 0.563059 0.614751 0.616509 0.601655 0.726627 0.708275 0.719568 0.628879 0.606759 0.605553 0.614360 0.643906 0.657443 0.663895 0.660665 0.659021 0.555516 0.557451 0.562406 0.509175 0.383677 0.345189 0.344668 0.312060 0.255844 0.241403 0.242433 0.244199 0.177857 0.184234 0.114174 0.080096 0.099160 0.148188 0.146647 0.126873 0.144334 0.134749 0.140665 0.146396 0.159240 0.228799 0.236378 0.208847 0.215540 0.237443 0.238008 0.250992 0.326796 0.383342 0.374533 0.379311 0.402678 0.384978 0.340463 0.334351 0.314342 0.294299 0.346476 0.309972 0.257045 0.236672 0.237215 0.296776 0.394908 0.443116 0.513231 0.511921 0.508649 0.521492 0.549566 0.549516 0.542824 0.573754 0.572492 0.592945 0.576282 0.558656 0.559463 0.562188 0.543076 0.560486 0.523023 0.514619 0.537075 0.553817 0.516168 0.499611 0.495182 0.493272 0.422287 0.410882 0.414242 0.344326 0.317221 0.336227 0.313278 0.275904 0.314025 0.242390 0.225705 0.275128 0.328223 0.304669 0.344134 0.340673 0.326894 0.338146 0.355949 0.336216 0.303509 0.273900 0.250992 0.276723 0.259611 0.181145 0.150615 0.151820 0.173124 0.140334 0.111219 0.133365 0.094635 0.086602 0.043687 0.009840 0.001299 -0.026767 -0.098905 -0.098291 -0.108648 -0.154721 -0.139472 -0.143082 -0.194616 -0.208505 -0.205883 -0.215734 -0.282602 -0.259978 -0.266682 -0.242844 -0.269518 -0.217577 -0.209715 -0.240200 -0.252004 -0.271702 -0.317837 -0.365846 -0.420459 -0.426844 -0.296517 -0.334269 -0.385470 -0.401315 -0.434321 -0.493176 -0.465845 -0.440869 -0.485857 -0.475254 -0.439249 -0.313897 -0.301077 -0.302578 -0.259148 -0.291989 -0.317706 -0.274059 -0.266255 -0.290986 -0.286674 -0.285575 -0.303605 -0.322738 -0.308905 -0.303649 -0.321302 -0.339881 -0.305954 -0.302757 -0.279497 -0.261501 -0.227592 -0.191307 -0.157694 -0.145404 -0.119446 -0.065854 -0.083192 -0.029761 -0.031945 -0.034421 -0.006867 -0.017065 -0.039217 -0.033639 -0.059566 -0.026165 -0.030677 -0.030393 -0.010362 -0.166386 -0.154511 -0.193401 -0.177231 -0.134698 -0.142926 -0.091611 -0.094381 -0.092917 -0.109225 -0.216569 -0.212625 -0.221768 -0.221368 -0.150629 -0.153761 -0.132972 -0.164584 -0.132324 -0.132182 -0.088987 -0.071707 -0.035182 -0.127324 -0.129864 -0.129864 -0.129864 -0.172785 -0.172785 -0.172785 -0.172785 -0.172785 -0.154436 -0.154436 -0.154436 -0.154436 -0.154436 -0.154436 -0.154436 -0.154436 -0.174356 -0.174356 -0.174356 -0.174356 -0.174356 -0.174356 -0.174356 -0.174356 -0.174356
0.000000 0.000000 0.000000 0.000000 2166304279259115008.000000 942742855347768192.000000 617526557379749632.000000 1307104111690293248.000000 708345118167987840.000000 407504645541743552.000000 1098710778864635904.000000 864078296020821632.000000 891005885490117376.000000 532177994055444480.000000 731989016363766400.000000 802352262875542144.000000 369724876306624512.000000 740788407879951104.000000 1088281361312435456.000000 768344368302166144.000000 0.216930 0.216930 0.216930 0.216930 0.216930 0.216930 0.216930 0.216930 0.216930 0.216930 0.216930 0.216930 0.216930 0.216930 0.216930 0.216930 0.216930 0.216930 0.240772 0.240772 0.240772 0.240772 0.240772 0.240772 0.240772 0.240772 0.240772 0.240772 0.240772 0.240772 0.240772 0.240772 0.240772 0.240772 0.240772 0.240772 0.240772 0.240772 0.240772 0.240772 0.240772 0.240772 0.240772 0.240772 0.240772 0.240772 0.269680 0.269680 0.269680 0.269680 0.269680 0.269680 0.269680 0.269680 0.269680 0.269680 0.269680 0.269680 0.269680 0.269680 0.269680 0.269680 0.269680 0.269680 0.269680 0.269680 0.291730 0.291730 0.291730 0.291730 0.291730 0.291730 0.291730 0.291730 0.291730 0.291730 0.291730 0.291730 0.291730 0.291730 0.291730 0.291730 0.304997 0.304997 0.304997 0.304997 0.304997 0.304997 0.304997 0.304997 0.304997 0.304997 0.304997 0.304997 0.304997 0.312348 0.312348 0.312348 0.312348 0.312348 0.312348 0.312348 0.312348 0.312348 0.312348 0.312348 0.312348 0.298142 0.298142 0.298142 0.298142 0.298142 0.298142 0.298142 0.298142 0.298142 0.298142 0.298142 0.298142 0.320256 0.320256 0.320256 0.320256 0.320256 0.320256 0.320256 0.320256 0.320256 0.320256 0.320256 0.320256 0.320256 0.320256 0.320256 0.320256 0.320256 0.320256 0.320256 0.312348 0.312348 0.312348 0.312348 0.312348 0.312348 0.312348 0.312348 0.312348 0.304997 0.304997 0.304997 0.304997 0.304997 0.304997 0.304997 0.304997 0.304997 0.320256 0.320256 0.320256 0.320256 0.320256 0.320256 0.320256 0.320256 0.312348 0.312348 0.312348 0.312348 0.312348 0.312348 0.312348 0.312348 0.304997 0.304997 0.304997 0.304997 0.304997 0.304997 0.304997 0.304997 0.312348 0.312348 0.312348 0.312348 0.312348 0.312348 0.312348 0.312348 0.312348 0.312348 0.312348 0.312348 0.312348 0.312348 0.304997 0.304997 0.304997 0.304997 0.304997 0.304997 0.304997 0.320256 0.320256 0.320256 0.320256 0.320256 0.320256 0.291730 0.291730 0.291730 0.291730 0.291730 0.291730 0.291730 0.304997 0.304997 0.304997 0.304997 0.304997 0.304997 0.304997 0.304997 0.304997 0.304997 0.304997 0.304997 0.298142 0.298142 0.298142 0.298142 0.298142 0.298142 0.291730 0.291730 0.291730 0.291730 0.291730 0.291730 0.312348 0.312348 0.312348 0.312348 0.312348 0.285714 0.285714 0.285714 0.285714 0.285714 0.285714 0.304997 0.304997 0.304997 0.304997 0.304997 0.280056 0.280056 0.280056 0.280056 0.280056 0.280056 0.298142 0.298142 0.298142 0.298142 0.298142 0.291730 0.291730 0.291730 0.291730 0.291730 0.285714 0.285714 0.285714 0.285714 0.285714 0.285714 0.285714 0.285714 0.285714 0.285714 0.280056 0.280056 0.280056 0.280056 0.280056 0.280056 0.280056 0.280056 0.280056 0.280056 0.298142 0.298142 0.298142 0.298142 0.269680 0.269680 0.269680 0.269680 0.269680 0.269680 0.269680 0.269680 0.269680 0.269680 0.291730 0.291730 0.291730 0.291730 0.264906 0.264906 0.264906 0.264906 0.264906 0.285714 0.285714 0.285714 0.285714 0.280056 0.280056 0.280056 0.280056 0.256074 0.256074 0.256074 0.256074 0.256074 0.274721 0.274721 0.274721 0.274721 0.274721 0.274721 0.274721 0.274721 0.269680 0.269680 0.269680 0.269680 0.269680 0.269680 0.269680 0.269680 0.269680
