# Output from CTFFind version 4.1.9, run on 2019-11-24 12:06:13
# Input file: stack1_ubbm3d_averaged_1_2.0_0_1500_half.mrc ; Number of micrographs: 1
# Pixel size: 1.500 Angstroms ; acceleration voltage: 300.0 keV ; spherical aberration: 0.00 mm ; amplitude contrast: 0.07
# Box size: 512 pixels ; min. res.: 40.0 Angstroms ; max. res.: 6.0 Angstroms ; min. def.: 5000.0 um; max. def. 50000.0 um; num. frames averaged: 1
# 6 lines per micrograph: #1 - spatial frequency (1/Angstroms); #2 - 1D rotational average of spectrum (assuming no astigmatism); #3 - 1D rotational average of spectrum; #4 - CTF fit; #5 - cross-correlation between spectrum and CTF fit; #6 - 2sigma of expected cross correlation of noise
0.000000 0.001302 0.002604 0.003906 0.005208 0.006510 0.007812 0.009115 0.010417 0.011719 0.013021 0.014323 0.015625 0.016927 0.018229 0.019531 0.020833 0.022135 0.023438 0.024740 0.026042 0.027344 0.028646 0.029948 0.031250 0.032552 0.033854 0.035156 0.036458 0.037760 0.039062 0.040365 0.041667 0.042969 0.044271 0.045573 0.046875 0.048177 0.049479 0.050781 0.052083 0.053385 0.054688 0.055990 0.057292 0.058594 0.059896 0.061198 0.062500 0.063802 0.065104 0.066406 0.067708 0.069010 0.070312 0.071615 0.072917 0.074219 0.075521 0.076823 0.078125 0.079427 0.080729 0.082031 0.083333 0.084635 0.085938 0.087240 0.088542 0.089844 0.091146 0.092448 0.093750 0.095052 0.096354 0.097656 0.098958 0.100260 0.101562 0.102865 0.104167 0.105469 0.106771 0.108073 0.109375 0.110677 0.111979 0.113281 0.114583 0.115885 0.117188 0.118490 0.119792 0.121094 0.122396 0.123698 0.125000 0.126302 0.127604 0.128906 0.130208 0.131510 0.132812 0.134115 0.135417 0.136719 0.138021 0.139323 0.140625 0.141927 0.143229 0.144531 0.145833 0.147135 0.148438 0.149740 0.151042 0.152344 0.153646 0.154948 0.156250 0.157552 0.158854 0.160156 0.161458 0.162760 0.164062 0.165365 0.166667 0.167969 0.169271 0.170573 0.171875 0.173177 0.174479 0.175781 0.177083 0.178385 0.179688 0.180990 0.182292 0.183594 0.184896 0.186198 0.187500 0.188802 0.190104 0.191406 0.192708 0.194010 0.195312 0.196615 0.197917 0.199219 0.200521 0.201823 0.203125 0.204427 0.205729 0.207031 0.208333 0.209635 0.210938 0.212240 0.213542 0.214844 0.216146 0.217448 0.218750 0.220052 0.221354 0.222656 0.223958 0.225260 0.226562 0.227865 0.229167 0.230469 0.231771 0.233073 0.234375 0.235677 0.236979 0.238281 0.239583 0.240885 0.242188 0.243490 0.244792 0.246094 0.247396 0.248698 0.250000 0.251302 0.252604 0.253906 0.255208 0.256510 0.257812 0.259115 0.260417 0.261719 0.263021 0.264323 0.265625 0.266927 0.268229 0.269531 0.270833 0.272135 0.273438 0.274740 0.276042 0.277344 0.278646 0.279948 0.281250 0.282552 0.283854 0.285156 0.286458 0.287760 0.289062 0.290365 0.291667 0.292969 0.294271 0.295573 0.296875 0.298177 0.299479 0.300781 0.302083 0.303385 0.304688 0.305990 0.307292 0.308594 0.309896 0.311198 0.312500 0.313802 0.315104 0.316406 0.317708 0.319010 0.320312 0.321615 0.322917 0.324219 0.325521 0.326823 0.328125 0.329427 0.330729 0.332031 0.333333 0.334635 0.335938 0.337240 0.338542 0.339844 0.341146 0.342448 0.343750 0.345052 0.346354 0.347656 0.348958 0.350260 0.351562 0.352865 0.354167 0.355469 0.356771 0.358073 0.359375 0.360677 0.361979 0.363281 0.364583 0.365885 0.367188 0.368490 0.369792 0.371094 0.372396 0.373698 0.375000 0.376302 0.377604 0.378906 0.380208 0.381510 0.382812 0.384115 0.385417 0.386719 0.388021 0.389323 0.390625 0.391927 0.393229 0.394531 0.395833 0.397135 0.398438 0.399740 0.401042 0.402344 0.403646 0.404948 0.406250 0.407552 0.408854 0.410156 0.411458 0.412760 0.414062 0.415365 0.416667 0.417969 0.419271 0.420573 0.421875 0.423177 0.424479 0.425781 0.427083 0.428385 0.429688 0.430990 0.432292 0.433594 0.434896 0.436198 0.437500 0.438802 0.440104 0.441406 0.442708 0.444010 0.445312 0.446615 0.447917 0.449219 0.450521 0.451823 0.453125 0.454427 0.455729 0.457031 0.458333 0.459635 0.460938 0.462240 0.463542 0.464844 0.466146 0.467448 0.468750 0.470052 0.471354
       0.51598        0.51598        0.51598        0.51598        0.51598        0.51598        0.51598        0.51598        0.51598        0.51598        0.51598        0.51598        0.51598        0.51598        0.51598        0.51598        0.51598        0.51598        0.51598        1.38416        2.13560        0.96987        0.14475       -0.01177        0.54855        1.16474        1.08948        0.56539        0.23472        0.20519        0.24368        0.25131        0.27451        0.28483        0.20281        0.17879        0.13305        0.03906       -0.08931       -0.13943       -0.10203        0.04805        0.31873        0.54328        0.61138        0.59040        0.63609        0.77819        0.93350        0.98931        0.83979        0.50716        0.24543        0.25289        0.41900        0.43787        0.28878        0.17794        0.24700        0.40485        0.56819        0.65207        0.71972        0.75358        0.75147        0.68269        0.56288        0.49213        0.44528        0.42807        0.45858        0.55388        0.62784        0.55261        0.44185        0.41110        0.44442        0.44351        0.42502        0.46739        0.58050        0.60956        0.55321        0.43967        0.44165        0.53808        0.64236        0.62911        0.49629        0.35429        0.31476        0.40097        0.48830        0.51216        0.45604        0.45809        0.54923        0.64543        0.63486        0.54597        0.51000        0.54220        0.59222        0.60289        0.59371        0.58093        0.52904        0.47593        0.41861        0.37497        0.35108        0.37453        0.42502        0.49636        0.57281        0.64228        0.65524        0.62438        0.56420        0.48994        0.41316        0.39116        0.48023        0.60443        0.64256        0.57600        0.49894        0.47023        0.48767        0.49653        0.50686        0.51580        0.48891        0.43606        0.40005        0.43581        0.49481        0.50774        0.51432        0.58137        0.67172        0.67513        0.58462        0.49836        0.49064        0.50307        0.49662        0.47612        0.47602        0.47221        0.47614        0.51123        0.55234        0.53693        0.44525        0.38736        0.43664        0.54405        0.60226        0.56458        0.52029        0.52246        0.51375        0.46694        0.45922        0.52640        0.59795        0.60267        0.55809        0.51551        0.45991        0.46166        0.54167        0.65279        0.65948        0.56073        0.49041        0.49840        0.50024        0.47021        0.46968        0.51119        0.56830        0.59335        0.55264        0.45661        0.38241        0.41442        0.52322        0.57814        0.54687        0.49286        0.48139        0.48794        0.49356        0.49933        0.51172        0.50435        0.50254        0.51609        0.53562        0.53660        0.52964        0.52906        0.54991        0.55338        0.52058        0.46880        0.46817        0.53326        0.59576        0.60199        0.56463        0.52274        0.51045        0.51319        0.53044        0.52328        0.47195        0.43050        0.44888        0.51483        0.55344        0.57741        0.58049        0.55484        0.48628        0.46294        0.50346        0.56109        0.55808        0.50632        0.45320        0.44242        0.48618        0.54828        0.57075        0.54901        0.51890        0.50315        0.49151        0.48737        0.49472        0.48879        0.46975        0.47362        0.52737        0.57926        0.58735        0.58540        0.58829        0.58308        0.54735        0.51724        0.48280        0.44638        0.42834        0.44527        0.49365        0.53233        0.52694        0.50225        0.48923        0.49303        0.51250        0.54637        0.53680        0.49064        0.47358        0.50319        0.51941        0.48614        0.45643        0.48910        0.53671        0.54381        0.52324        0.50740        0.55005        0.57925        0.54501        0.50645        0.52745        0.54959        0.53538        0.51732        0.51983        0.53088        0.46494        0.42413        0.47222        0.54790        0.54744        0.49170        0.46998        0.49251        0.49013        0.49196        0.51816        0.50333        0.43237        0.39576        0.47786        0.58612        0.56168        0.47341        0.45437        0.51482        0.58106        0.58983        0.56536        0.53044        0.54743        0.56900        0.56544        0.48724        0.42881        0.47662        0.52564        0.50617        0.46644        0.52231        0.58111        0.55936        0.52159        0.52358        0.53161        0.43238        0.39161        0.45894        0.53538        0.48545        0.40682        0.47916        0.52915        0.51116        0.51248        0.62585        0.68482        0.58431        0.47496        0.50376        0.54065        0.47272        0.43589        0.51249        0.55095        0.46201        0.35997        0.37196        0.40482        0.40901        0.42895        0.54204        0.64381        0.66076        0.64066        0.58960        0.45381        0.22599       -0.00070       -0.10940       -0.14806
0.515979 0.515979 0.515979 0.515979 0.515979 0.515979 0.515979 0.515979 0.515979 0.515979 0.515979 0.515979 0.515979 0.515979 0.515979 0.515979 0.515979 0.515979 0.515979 1.415656 2.183131 1.154412 0.129282 -0.127170 0.443479 1.276950 1.085888 0.548916 0.281401 0.229018 0.157558 0.242680 0.334747 0.267574 0.223203 0.174689 0.110376 0.054674 -0.129936 -0.082232 -0.102278 0.017324 0.259831 0.589629 0.614034 0.558793 0.634909 0.735437 0.931423 0.981996 0.928618 0.503830 0.269415 0.240353 0.472984 0.394991 0.327603 0.105545 0.220623 0.430197 0.550711 0.656138 0.715610 0.736898 0.772091 0.726569 0.539322 0.535682 0.407887 0.445438 0.432731 0.579083 0.605398 0.600573 0.463050 0.390633 0.459570 0.405254 0.410408 0.474577 0.543909 0.621148 0.584586 0.427664 0.453617 0.534037 0.644048 0.638029 0.516968 0.368837 0.308817 0.385793 0.474909 0.537317 0.430236 0.449846 0.514761 0.637172 0.669168 0.586509 0.492351 0.544650 0.597061 0.575687 0.592593 0.586686 0.554849 0.503598 0.437472 0.372453 0.341477 0.370671 0.410371 0.466954 0.536988 0.621314 0.640569 0.642563 0.577176 0.517808 0.426921 0.375535 0.456953 0.571017 0.654362 0.598118 0.526047 0.476086 0.489201 0.482868 0.504270 0.506446 0.516059 0.449205 0.404726 0.418678 0.473986 0.518186 0.499623 0.594036 0.651972 0.686242 0.625311 0.522649 0.471119 0.504066 0.489586 0.473509 0.486631 0.476107 0.485199 0.483625 0.540718 0.567268 0.476429 0.389129 0.403732 0.490402 0.602013 0.552876 0.530830 0.538392 0.512899 0.479083 0.441078 0.499894 0.580106 0.608804 0.563722 0.546474 0.438909 0.465813 0.473137 0.611383 0.690484 0.627089 0.505909 0.484777 0.506433 0.480674 0.468470 0.494163 0.534349 0.585938 0.589519 0.443243 0.392408 0.397408 0.475141 0.565369 0.567617 0.523774 0.471087 0.479237 0.519697 0.488269 0.491351 0.514500 0.502115 0.528409 0.517259 0.538081 0.539486 0.515233 0.526117 0.570893 0.544143 0.508180 0.449903 0.503142 0.556132 0.596169 0.593556 0.562710 0.501342 0.522199 0.513806 0.534501 0.507721 0.454050 0.430739 0.469232 0.535649 0.555937 0.586170 0.561776 0.545801 0.468046 0.467502 0.520452 0.574889 0.534335 0.479625 0.445503 0.442542 0.526755 0.564145 0.564145 0.524346 0.518387 0.500047 0.488629 0.481284 0.509458 0.477450 0.474528 0.492804 0.553672 0.593530 0.584397 0.600536 0.578993 0.566734 0.525459 0.501916 0.478176 0.442402 0.421538 0.468459 0.504567 0.532174 0.531378 0.486689 0.495710 0.477043 0.530755 0.558793 0.526262 0.471482 0.483755 0.521599 0.499422 0.483363 0.468910 0.471085 0.558585 0.534396 0.523234 0.525187 0.528394 0.585222 0.528520 0.495066 0.524970 0.578414 0.520897 0.502461 0.535446 0.524034 0.448282 0.422896 0.466334 0.545414 0.530045 0.487364 0.479443 0.483001 0.489375 0.497457 0.519073 0.505159 0.438606 0.402944 0.480778 0.613658 0.590295 0.470899 0.448200 0.523318 0.584276 0.595443 0.545603 0.515696 0.559135 0.576369 0.549425 0.458464 0.438052 0.463326 0.549759 0.489733 0.465061 0.562213 0.587444 0.543786 0.522358 0.514156 0.521318 0.433364 0.373610 0.476603 0.546932 0.448813 0.449768 0.462610 0.521064 0.492847 0.536848 0.597607 0.651356 0.642127 0.429393 0.498649 0.532056 0.491991 0.424625 0.496049 0.573695 0.506045 0.366091 0.334641 0.412203 0.407086 0.418858 0.540695 0.655720 0.662391 0.637298 0.609645 0.476670 0.147904 -0.081898 -0.148061
0.072396 0.073449 0.076606 0.081866 0.089227 0.098683 0.110228 0.123854 0.139546 0.157289 0.177058 0.198826 0.222554 0.248196 0.275695 0.304981 0.335970 0.368562 0.402641 0.438068 0.474687 0.512315 0.550747 0.589751 0.629068 0.668408 0.707455 0.745860 0.783246 0.819207 0.853306 0.885082 0.914050 0.939702 0.961516 0.978958 0.991487 0.998567 0.999672 0.994294 0.981956 0.962223 0.934716 0.899119 0.855199 0.802818 0.741946 0.672675 0.595235 0.510002 0.417512 0.318468 0.213748 0.104405 0.008329 0.123052 0.238199 0.352057 0.462786 0.568444 0.667021 0.756472 0.834769 0.899941 0.950134 0.983667 0.999087 0.995238 0.971313 0.926914 0.862104 0.777450 0.674053 0.553577 0.418247 0.270838 0.114650 0.046552 0.208608 0.367059 0.517262 0.654532 0.774288 0.872221 0.944468 0.987784 0.999712 0.978738 0.924425 0.837518 0.720007 0.575153 0.407448 0.222535 0.027056 0.171552 0.365325 0.546072 0.705739 0.836779 0.932543 0.987658 0.998378 0.962881 0.881494 0.756827 0.593791 0.399496 0.183026 0.044938 0.272585 0.487580 0.677724 0.831677 0.939679 0.994235 0.990717 0.927821 0.807863 0.636842 0.424274 0.182783 0.072575 0.325182 0.557923 0.754353 0.899912 0.983079 0.996398 0.937253 0.808339 0.617747 0.378626 0.108425 0.172282 0.441295 0.676534 0.857897 0.969059 0.999079 0.943625 0.805701 0.595741 0.331041 0.034507 0.267202 0.546015 0.775069 0.931370 0.998249 0.967319 0.839719 0.626448 0.347684 0.031097 0.290748 0.583660 0.815480 0.959719 0.998762 0.926264 0.748371 0.483560 0.161016 0.182360 0.506054 0.770695 0.942946 0.999900 0.932406 0.746804 0.464759 0.121071 0.240356 0.572003 0.828975 0.975219 0.988852 0.865767 0.620920 0.286945 0.089832 0.455605 0.756706 0.947582 0.997939 0.897927 0.660423 0.319895 0.072195 0.454886 0.767120 0.957598 0.993501 0.866576 0.595396 0.223215 0.188514 0.570014 0.854975 0.992297 0.955630 0.748952 0.406896 0.010485 0.427866 0.768112 0.966636 0.984033 0.814442 0.487799 0.065208 0.372002 0.737729 0.958114 0.986858 0.815522 0.476489 0.037561 0.411070 0.775141 0.976236 0.969138 0.752643 0.371217 0.093407 0.539226 0.866226 0.999075 0.905050 0.602859 0.159864 0.322229 0.730349 0.966619 0.972313 0.743210 0.332227 0.161921 0.617883 0.921362 0.994130 0.814949 0.426654 0.073111 0.555742 0.894557 0.998379 0.836817 0.450140 0.059669 0.555067 0.899794 0.996684 0.815884 0.405091 0.121916 0.615977 0.934604 0.983489 0.745369 0.287138 0.257775 0.727580 0.980101 0.936437 0.606723 0.089297 0.457520 0.863384 0.999201 0.819107 0.377214 0.187282 0.693027 0.974634 0.937370 0.590262 0.045636 0.516009 0.905325 0.988256 0.733336 0.224990 0.362980 0.826000 0.999993 0.820494 0.348003 0.250808 0.760815 0.995674 0.866711 0.417940 0.187212 0.724243 0.990612 0.882942 0.438696 0.175005 0.722959 0.991762 0.873745 0.411731 0.214575 0.757177 0.997757 0.836488 0.335171 0.304463 0.820708 0.998884 0.761784 0.204991 0.439701 0.899704 0.977139 0.635387 0.018350 0.608303 0.970743 0.907291 0.442327 0.220694 0.786641 0.999810 0.760618 0.174209 0.493550 0.935454 0.944662 0.513245 0.160061 0.759519 0.999991 0.763714 0.160200 0.522152 0.952625 0.918929 0.433846 0.266681 0.836445 0.989807 0.646403 0.024287 0.684234 0.996316 0.797524 0.186494 0.522780 0.960816 0.895580 0.357603 0.371329 0.903857 0.952860 0.488211 0.242124 0.842147 0.982144 0.581532 0.141940
1.000000 1.000000 1.000000 1.000000 1.000000 1.000000 1.000000 1.000000 1.000000 1.000000 1.000000 1.000000 1.000000 1.000000 1.000000 1.000000 1.000000 1.000000 1.000000 1.000000 0.013902 0.013902 0.013902 0.013902 0.013902 0.013902 0.013902 0.013902 0.013902 0.013902 0.013902 0.013902 0.013902 0.013902 0.013902 0.013902 0.013902 0.013902 -0.043216 -0.043216 -0.043216 -0.043216 -0.043216 -0.043216 -0.043216 -0.043216 -0.043216 -0.043216 -0.043216 -0.043216 -0.043216 -0.043216 -0.043216 -0.043216 -0.043216 -0.043216 -0.025624 -0.003971 0.016649 0.033021 0.024103 0.017909 0.020300 0.022477 0.017145 0.020441 0.045764 0.302278 0.349263 0.389493 0.383025 0.370911 0.371003 0.369049 0.344977 0.335796 0.365676 0.392103 0.411386 0.416939 0.406476 0.434783 0.457495 0.489325 0.490534 0.487404 0.462319 0.469911 0.459485 0.447497 0.440830 0.445508 0.496603 0.522494 0.552018 0.550749 0.554272 0.572612 0.603934 0.591072 0.607076 0.570667 0.560343 0.570977 0.547240 0.538462 0.558835 0.568192 0.564173 0.543759 0.495534 0.502651 0.570433 0.615334 0.619221 0.629384 0.666542 0.677483 0.620699 0.612442 0.615491 0.637809 0.651842 0.650948 0.676126 0.679788 0.666700 0.624437 0.567373 0.539779 0.496224 0.479504 0.471418 0.423540 0.407384 0.415568 0.393106 0.369114 0.371759 0.377901 0.372904 0.374277 0.382374 0.382405 0.389933 0.405369 0.428793 0.419485 0.426219 0.400481 0.395578 0.381132 0.440573 0.470078 0.403072 0.370021 0.377702 0.344986 0.343460 0.331487 0.351429 0.342455 0.321668 0.333414 0.353947 0.290828 0.237574 0.227094 0.151607 0.146072 0.182680 0.142551 0.108925 0.124055 0.127689 0.175385 0.151398 0.152457 0.071641 0.046692 0.070132 0.025055 0.023261 -0.000727 -0.026591 -0.015525 -0.016004 -0.032244 -0.082494 -0.092117 -0.103071 -0.156446 -0.193155 -0.165744 -0.178362 -0.153294 -0.163204 -0.196620 -0.170971 -0.159413 -0.182131 -0.229448 -0.270157 -0.263503 -0.301870 -0.363814 -0.351716 -0.348652 -0.373443 -0.380545 -0.352165 -0.347717 -0.326846 -0.303446 -0.308742 -0.273502 -0.314318 -0.321388 -0.345617 -0.320496 -0.326780 -0.362456 -0.302868 -0.261917 -0.277608 -0.268867 -0.280188 -0.352132 -0.372284 -0.305372 -0.333299 -0.331966 -0.266263 -0.233750 -0.238517 -0.168742 -0.173080 -0.230331 -0.236685 -0.210713 -0.220541 -0.213911 -0.206031 -0.203514 -0.197201 -0.202274 -0.185259 -0.171591 -0.108863 -0.103937 -0.068422 0.005853 -0.003959 0.015933 0.023346 0.086714 0.081850 0.113909 0.137604 0.116605 0.118032 0.125577 0.157916 0.170512 0.172873 0.205752 0.182960 0.149020 0.200447 0.181863 0.132548 0.095173 0.104195 0.103590 0.046558 0.060061 0.138015 0.078819 0.079703 0.030651 0.007801 0.037731 -0.013988 -0.015685 -0.000165 -0.028874 -0.067414 -0.081603 -0.068395 -0.055653 -0.066043 -0.040304 -0.040653 -0.055645 -0.021395 -0.059257 -0.077610 -0.105212 -0.156935 -0.187885 -0.206857 -0.175910 -0.187993 -0.179604 -0.254464 -0.258100 -0.292511 -0.289646 -0.331103 -0.347043 -0.336470 -0.281378 -0.279111 -0.266341 -0.295873 -0.243697 -0.202951 -0.225762 -0.158277 -0.131597 -0.121080 -0.194540 -0.128118 -0.093192 -0.062614 -0.076779 -0.082241 -0.071283 -0.017859 -0.018565 0.031424 0.049535 0.023562 0.060165 0.098600 0.131980 0.118109 0.134315 0.185954 0.157297 0.157297 0.157297 0.157297 0.042542 0.042542 0.042542 0.042542 0.042542 0.139842 0.139842 0.139842 0.139842 0.139842 0.139842 0.139842 0.139842 0.118882 0.118882 0.118882 0.118882 0.118882 0.118882 0.118882
0.000000 0.000000 0.000000 0.000000 0.000000 0.000000 0.000000 0.000000 0.000000 0.000000 0.000000 0.000000 0.000000 0.000000 0.000000 0.000000 0.000000 0.000000 0.000000 0.000000 0.216930 0.216930 0.216930 0.216930 0.216930 0.216930 0.216930 0.216930 0.216930 0.216930 0.216930 0.216930 0.216930 0.216930 0.216930 0.216930 0.216930 0.216930 0.234082 0.234082 0.234082 0.234082 0.234082 0.234082 0.234082 0.234082 0.234082 0.234082 0.234082 0.234082 0.234082 0.234082 0.234082 0.234082 0.234082 0.234082 0.234082 0.234082 0.234082 0.234082 0.234082 0.234082 0.234082 0.234082 0.234082 0.234082 0.234082 0.274721 0.274721 0.274721 0.274721 0.274721 0.274721 0.274721 0.274721 0.274721 0.274721 0.274721 0.274721 0.274721 0.274721 0.274721 0.274721 0.274721 0.274721 0.274721 0.291730 0.291730 0.291730 0.291730 0.291730 0.291730 0.291730 0.291730 0.291730 0.291730 0.291730 0.291730 0.291730 0.291730 0.291730 0.291730 0.298142 0.298142 0.298142 0.298142 0.298142 0.298142 0.298142 0.298142 0.298142 0.298142 0.298142 0.298142 0.298142 0.298142 0.312348 0.312348 0.312348 0.312348 0.312348 0.312348 0.312348 0.312348 0.312348 0.312348 0.312348 0.312348 0.312348 0.312348 0.312348 0.312348 0.312348 0.312348 0.312348 0.312348 0.312348 0.312348 0.312348 0.304997 0.304997 0.304997 0.304997 0.304997 0.304997 0.304997 0.304997 0.304997 0.304997 0.304997 0.320256 0.320256 0.320256 0.320256 0.320256 0.320256 0.320256 0.320256 0.320256 0.312348 0.312348 0.312348 0.312348 0.312348 0.312348 0.312348 0.312348 0.312348 0.304997 0.304997 0.304997 0.304997 0.304997 0.304997 0.304997 0.304997 0.304997 0.320256 0.320256 0.320256 0.320256 0.320256 0.320256 0.320256 0.320256 0.312348 0.312348 0.312348 0.312348 0.312348 0.312348 0.312348 0.312348 0.304997 0.304997 0.304997 0.304997 0.304997 0.304997 0.304997 0.304997 0.312348 0.312348 0.312348 0.312348 0.312348 0.312348 0.312348 0.312348 0.312348 0.312348 0.312348 0.312348 0.312348 0.312348 0.304997 0.304997 0.304997 0.304997 0.304997 0.304997 0.304997 0.298142 0.298142 0.298142 0.298142 0.298142 0.298142 0.298142 0.312348 0.312348 0.312348 0.312348 0.312348 0.312348 0.304997 0.304997 0.304997 0.304997 0.304997 0.304997 0.304997 0.304997 0.304997 0.304997 0.304997 0.304997 0.298142 0.298142 0.298142 0.298142 0.298142 0.298142 0.291730 0.291730 0.291730 0.291730 0.291730 0.291730 0.291730 0.291730 0.291730 0.291730 0.291730 0.291730 0.304997 0.304997 0.304997 0.304997 0.304997 0.280056 0.280056 0.280056 0.280056 0.280056 0.280056 0.298142 0.298142 0.298142 0.298142 0.298142 0.298142 0.298142 0.298142 0.298142 0.298142 0.269680 0.269680 0.269680 0.269680 0.269680 0.269680 0.285714 0.285714 0.285714 0.285714 0.285714 0.285714 0.285714 0.285714 0.285714 0.285714 0.280056 0.280056 0.280056 0.280056 0.280056 0.304997 0.304997 0.304997 0.304997 0.274721 0.274721 0.274721 0.274721 0.274721 0.269680 0.269680 0.269680 0.269680 0.269680 0.291730 0.291730 0.291730 0.291730 0.264906 0.264906 0.264906 0.264906 0.264906 0.264906 0.264906 0.264906 0.264906 0.264906 0.285714 0.285714 0.285714 0.285714 0.280056 0.280056 0.280056 0.280056 0.256074 0.256074 0.256074 0.256074 0.256074 0.274721 0.274721 0.274721 0.274721 0.274721 0.274721 0.274721 0.274721 0.269680 0.269680 0.269680 0.269680 0.269680 0.269680 0.269680
