# Output from CTFFind version 4.1.9, run on 2019-11-24 12:06:10
# Input file: stack1_ubbm3d_averaged_1_3.0_0_1000_half.mrc ; Number of micrographs: 1
# Pixel size: 1.500 Angstroms ; acceleration voltage: 300.0 keV ; spherical aberration: 0.00 mm ; amplitude contrast: 0.07
# Box size: 512 pixels ; min. res.: 40.0 Angstroms ; max. res.: 6.0 Angstroms ; min. def.: 5000.0 um; max. def. 50000.0 um; num. frames averaged: 1
# 6 lines per micrograph: #1 - spatial frequency (1/Angstroms); #2 - 1D rotational average of spectrum (assuming no astigmatism); #3 - 1D rotational average of spectrum; #4 - CTF fit; #5 - cross-correlation between spectrum and CTF fit; #6 - 2sigma of expected cross correlation of noise
0.000000 0.001302 0.002604 0.003906 0.005208 0.006510 0.007812 0.009115 0.010417 0.011719 0.013021 0.014323 0.015625 0.016927 0.018229 0.019531 0.020833 0.022135 0.023438 0.024740 0.026042 0.027344 0.028646 0.029948 0.031250 0.032552 0.033854 0.035156 0.036458 0.037760 0.039062 0.040365 0.041667 0.042969 0.044271 0.045573 0.046875 0.048177 0.049479 0.050781 0.052083 0.053385 0.054688 0.055990 0.057292 0.058594 0.059896 0.061198 0.062500 0.063802 0.065104 0.066406 0.067708 0.069010 0.070312 0.071615 0.072917 0.074219 0.075521 0.076823 0.078125 0.079427 0.080729 0.082031 0.083333 0.084635 0.085938 0.087240 0.088542 0.089844 0.091146 0.092448 0.093750 0.095052 0.096354 0.097656 0.098958 0.100260 0.101562 0.102865 0.104167 0.105469 0.106771 0.108073 0.109375 0.110677 0.111979 0.113281 0.114583 0.115885 0.117188 0.118490 0.119792 0.121094 0.122396 0.123698 0.125000 0.126302 0.127604 0.128906 0.130208 0.131510 0.132812 0.134115 0.135417 0.136719 0.138021 0.139323 0.140625 0.141927 0.143229 0.144531 0.145833 0.147135 0.148438 0.149740 0.151042 0.152344 0.153646 0.154948 0.156250 0.157552 0.158854 0.160156 0.161458 0.162760 0.164062 0.165365 0.166667 0.167969 0.169271 0.170573 0.171875 0.173177 0.174479 0.175781 0.177083 0.178385 0.179688 0.180990 0.182292 0.183594 0.184896 0.186198 0.187500 0.188802 0.190104 0.191406 0.192708 0.194010 0.195312 0.196615 0.197917 0.199219 0.200521 0.201823 0.203125 0.204427 0.205729 0.207031 0.208333 0.209635 0.210938 0.212240 0.213542 0.214844 0.216146 0.217448 0.218750 0.220052 0.221354 0.222656 0.223958 0.225260 0.226562 0.227865 0.229167 0.230469 0.231771 0.233073 0.234375 0.235677 0.236979 0.238281 0.239583 0.240885 0.242188 0.243490 0.244792 0.246094 0.247396 0.248698 0.250000 0.251302 0.252604 0.253906 0.255208 0.256510 0.257812 0.259115 0.260417 0.261719 0.263021 0.264323 0.265625 0.266927 0.268229 0.269531 0.270833 0.272135 0.273438 0.274740 0.276042 0.277344 0.278646 0.279948 0.281250 0.282552 0.283854 0.285156 0.286458 0.287760 0.289062 0.290365 0.291667 0.292969 0.294271 0.295573 0.296875 0.298177 0.299479 0.300781 0.302083 0.303385 0.304688 0.305990 0.307292 0.308594 0.309896 0.311198 0.312500 0.313802 0.315104 0.316406 0.317708 0.319010 0.320312 0.321615 0.322917 0.324219 0.325521 0.326823 0.328125 0.329427 0.330729 0.332031 0.333333 0.334635 0.335938 0.337240 0.338542 0.339844 0.341146 0.342448 0.343750 0.345052 0.346354 0.347656 0.348958 0.350260 0.351562 0.352865 0.354167 0.355469 0.356771 0.358073 0.359375 0.360677 0.361979 0.363281 0.364583 0.365885 0.367188 0.368490 0.369792 0.371094 0.372396 0.373698 0.375000 0.376302 0.377604 0.378906 0.380208 0.381510 0.382812 0.384115 0.385417 0.386719 0.388021 0.389323 0.390625 0.391927 0.393229 0.394531 0.395833 0.397135 0.398438 0.399740 0.401042 0.402344 0.403646 0.404948 0.406250 0.407552 0.408854 0.410156 0.411458 0.412760 0.414062 0.415365 0.416667 0.417969 0.419271 0.420573 0.421875 0.423177 0.424479 0.425781 0.427083 0.428385 0.429688 0.430990 0.432292 0.433594 0.434896 0.436198 0.437500 0.438802 0.440104 0.441406 0.442708 0.444010 0.445312 0.446615 0.447917 0.449219 0.450521 0.451823 0.453125 0.454427 0.455729 0.457031 0.458333 0.459635 0.460938 0.462240 0.463542 0.464844 0.466146 0.467448 0.468750 0.470052 0.471354
       0.47320        0.47320        0.47320        0.47320        0.47320        0.47320        0.47320        0.47320        0.47320        0.47320        0.47320        0.47320        0.47320        0.47320        0.47320        0.47320        0.47320        0.47320        0.47320        1.32468        2.04588        0.87690        0.07369       -0.06837        0.51519        1.15250        1.08910        0.55850        0.17689        0.10193        0.15555        0.20614        0.23188        0.20597        0.11069        0.10625        0.07627       -0.03363       -0.14381       -0.13406       -0.05778        0.03196        0.21357        0.42529        0.56463        0.61868        0.68311        0.79487        0.92067        0.92642        0.74827        0.43598        0.22354        0.23706        0.37023        0.39489        0.28334        0.16184        0.17309        0.30271        0.48415        0.57751        0.63653        0.69984        0.74651        0.68033        0.51733        0.41563        0.36488        0.32268        0.33541        0.48323        0.67366        0.67727        0.55556        0.46200        0.44725        0.43692        0.38949        0.37690        0.46437        0.53945        0.55853        0.45732        0.38342        0.38146        0.44495        0.45365        0.40254        0.35930        0.37979        0.45032        0.47725        0.44380        0.35298        0.34440        0.44395        0.56150        0.56981        0.48987        0.45355        0.49507        0.57503        0.61262        0.59969        0.55110        0.45756        0.39732        0.37931        0.40768        0.41895        0.41073        0.38078        0.40695        0.50793        0.60460        0.60353        0.52771        0.46602        0.44942        0.43993        0.43156        0.45987        0.47703        0.45270        0.41468        0.42458        0.45747        0.50191        0.53086        0.53741        0.49744        0.42819        0.40297        0.41955        0.47108        0.49911        0.47805        0.43021        0.44427        0.53730        0.62736        0.60753        0.49659        0.42430        0.42531        0.46365        0.47528        0.47509        0.47035        0.46153        0.45887        0.44425        0.41655        0.37002        0.37468        0.42057        0.48837        0.51642        0.52434        0.52088        0.50792        0.45435        0.39325        0.41467        0.51265        0.58529        0.56894        0.49894        0.45127        0.41787        0.42768        0.47973        0.55346        0.56210        0.50195        0.45117        0.44680        0.44706        0.43848        0.45156        0.49470        0.55448        0.58002        0.54207        0.46580        0.40576        0.40838        0.44166        0.44609        0.45849        0.50500        0.53626        0.48850        0.42529        0.44432        0.50755        0.50704        0.44472        0.39463        0.39444        0.41949        0.45852        0.49771        0.50459        0.46471        0.43393        0.43818        0.47552        0.53040        0.57926        0.58507        0.53268        0.47381        0.45805        0.47711        0.48802        0.46492        0.42272        0.41238        0.45459        0.51677        0.52729        0.48892        0.44559        0.44059        0.44462        0.44125        0.42897        0.45655        0.49573        0.49955        0.46747        0.45563        0.48413        0.51893        0.52194        0.51024        0.50205        0.48689        0.44781        0.41979        0.44650        0.49108        0.48794        0.46001        0.45702        0.49558        0.51570        0.49323        0.46629        0.46461        0.46517        0.45669        0.44273        0.43986        0.43632        0.41549        0.42108        0.48065        0.51974        0.48760        0.43747        0.43959        0.48862        0.49654        0.45800        0.43318        0.46097        0.49902        0.50856        0.49271        0.49732        0.49833        0.47012        0.43570        0.44617        0.49038        0.51890        0.49606        0.45408        0.43994        0.46196        0.47956        0.46532        0.47480        0.49821        0.49772        0.45098        0.40675        0.43259        0.49148        0.52438        0.49186        0.45277        0.48341        0.51907        0.46166        0.36607        0.32690        0.38665        0.46353        0.49047        0.51300        0.55271        0.56095        0.50210        0.44880        0.44493        0.47327        0.47664        0.45846        0.43454        0.38272        0.40375        0.47497        0.50351        0.49807        0.48236        0.50251        0.47848        0.46861        0.50477        0.53602        0.51960        0.43648        0.37078        0.32563        0.34345        0.43613        0.53824        0.50487        0.44313        0.47648        0.48882        0.45590        0.44837        0.56938        0.60704        0.48247        0.35887        0.36810        0.47005        0.52465        0.56682        0.54406        0.44618        0.39384        0.36796        0.35538        0.35293        0.41696        0.44182        0.43045        0.42152        0.47538        0.54481        0.56045        0.48801        0.28098       -0.02271       -0.22076       -0.30191
-0.006381 37.296360 37.870134 38.432606 38.983789 39.523657 40.052235 40.569510 41.075497 41.570168 42.053550 42.525629 42.986420 43.435894 43.874080 44.300963 44.716544 45.120835 45.513824 432.999252 763.323791 303.839238 -141.707968 -239.786513 22.924902 390.519127 323.551749 80.516540 -63.258944 -103.777112 -134.474109 -65.983942 -30.677483 -70.649123 -98.807539 -109.915220 -138.013889 -132.526911 -187.130454 -235.910579 -185.670256 -147.430851 -90.076440 47.273327 86.285913 105.089734 138.895727 188.615419 236.072636 255.392366 205.020501 33.802399 -44.963784 -57.631209 35.061901 -0.189839 -20.864508 -114.284079 -80.366947 -15.094377 49.482258 97.821751 114.915463 140.542022 181.723974 151.650727 68.738906 36.015170 17.736082 -15.367991 -23.541231 61.460533 115.176457 154.371142 103.249727 39.130030 55.983426 17.525796 7.201815 13.256511 25.069099 64.735685 99.170794 43.116336 20.594835 -12.862592 26.681684 49.179988 15.943030 -1.655514 3.864652 30.045566 45.623297 32.798568 -4.960267 -15.496314 5.626750 72.281563 95.680935 65.876997 37.779417 17.453092 60.249270 92.159372 92.500479 78.924096 42.589448 5.901537 -8.863983 -2.061572 -0.017639 9.805419 -13.556786 -13.841490 23.466096 69.085514 98.676207 58.967590 26.294121 6.887368 6.937815 -12.519749 23.852363 11.172041 18.217778 -14.172791 -11.060118 5.670644 19.540118 39.829296 44.868921 30.147762 0.094900 -12.003350 -21.211485 6.432088 22.006208 18.995643 -9.811137 -10.671761 25.562820 68.357814 89.416990 37.495569 -6.917749 -19.045198 -0.161898 -2.490650 5.615202 5.937825 6.828833 4.665033 -12.073774 -2.923476 -42.977938 -51.032929 -32.709737 1.667607 17.533005 25.443573 21.369520 2.978709 -8.960517 -52.863602 -49.830480 -13.999443 26.959986 35.723715 -2.276009 -23.610333 -34.821022 -70.746848 -51.532906 -14.316720 7.942926 -6.325301 -45.272162 -53.809174 -52.265045 -58.052959 -58.391090 -41.612825 -23.014843 10.577109 -2.033762 -31.104981 -56.278333 -70.548989 -35.755939 -26.651857 -27.014352 -17.988739 13.302373 9.948231 -19.522788 -34.015943 5.712041 15.488390 12.787200 -28.801642 -29.694169 -26.429768 -16.503282 10.417663 23.573921 17.183001 1.292753 -2.384405 5.878458 14.554981 53.424783 63.769566 49.487879 24.571056 12.565101 11.869647 17.184010 14.483126 -14.679966 -30.401138 -17.248126 5.265374 27.100139 16.210850 -7.538579 -13.144038 -14.760807 -16.623746 -15.009140 -9.629296 -6.148584 17.825436 8.982027 -9.606552 -0.705906 15.106910 29.081880 23.718741 18.426794 15.302194 6.242414 -10.283761 -23.159374 -0.221401 18.480238 12.451969 -1.002227 3.615102 21.264521 22.126294 14.186034 12.045829 5.169954 5.855792 0.591535 -4.118086 -9.737000 -15.597289 -30.536021 -17.683208 16.001742 21.314994 -3.021066 -15.303249 -11.610240 10.472221 2.574472 -12.502462 -19.999966 -2.420226 16.491331 9.852047 5.390583 10.652007 2.179504 -13.564032 -26.566219 -8.846686 -0.350456 11.300032 -0.641549 -26.642145 -15.588799 -14.543200 -1.199361 -19.980410 -4.122474 18.868140 -3.666898 -16.781006 -36.120279 -27.197114 6.283665 5.932559 3.575852 -9.068770 -1.796316 29.912965 -17.429932 -57.997259 -60.725831 -20.832326 19.258675 10.791236 38.419631 53.789980 50.802878 18.819243 -2.670801 12.333189 7.539980 10.187811 -16.574832 -11.858050 -41.265111 -27.998434 13.444482 22.031398 9.760846 23.041423 17.621860 14.606974 0.342417 28.441853 39.853207 6.294459 -20.779678 -48.768901 -55.852787 -44.191823 8.513332 63.107550 22.530611 25.163946 11.013888 23.033926 -8.888923 20.009126 57.081712 58.156211 -4.208311 -47.744825 -21.172268 -17.190578 55.934991 58.914384 55.649126 12.558127 -23.776234 -2.408957 -30.030080 -34.305049 -19.439134 13.179401 -5.022241 -10.041668 16.656801 245.075045 246.486367 218.413059 84.005267 -71.637286 -132.674327
0.072396 0.073419 0.076487 0.081599 0.088752 0.097942 0.109163 0.122406 0.137659 0.154906 0.174127 0.195293 0.218371 0.243318 0.270080 0.298593 0.328780 0.360548 0.393790 0.428379 0.464169 0.500993 0.538661 0.576957 0.615642 0.654450 0.693085 0.731225 0.768520 0.804589 0.839027 0.871403 0.901259 0.928120 0.951491 0.970864 0.985725 0.995557 0.999849 0.998104 0.989848 0.974641 0.952087 0.921844 0.883642 0.837290 0.782692 0.719859 0.648923 0.570147 0.483940 0.390860 0.291630 0.187133 0.078424 0.033279 0.146596 0.259996 0.371813 0.480264 0.583475 0.679512 0.766418 0.842251 0.905134 0.953305 0.985168 0.999350 0.994761 0.970640 0.926620 0.862765 0.779616 0.678223 0.560160 0.427537 0.282982 0.129620 0.028977 0.188858 0.345778 0.495307 0.632952 0.754297 0.855159 0.931742 0.980807 0.999823 0.987121 0.942019 0.864933 0.757441 0.622318 0.463522 0.286125 0.096194 0.099380 0.293116 0.477208 0.643848 0.785565 0.895589 0.968204 0.999093 0.985636 0.927156 0.825083 0.683027 0.506738 0.303957 0.084138 0.141937 0.362664 0.566196 0.741091 0.876986 0.965268 0.999678 0.976838 0.896623 0.762370 0.580872 0.362156 0.119028 0.133610 0.379619 0.602642 0.787217 0.919894 0.990298 0.992045 0.923420 0.787762 0.593488 0.353726 0.085562 0.191086 0.454896 0.684774 0.861584 0.969827 0.999122 0.945340 0.811282 0.606775 0.348154 0.057121 0.240952 0.519184 0.751609 0.915661 0.994498 0.978896 0.868506 0.672309 0.408140 0.101281 0.217796 0.516379 0.762863 0.930177 0.998910 0.959780 0.815099 0.579024 0.276461 0.059326 0.390231 0.677573 0.886665 0.991163 0.976615 0.842727 0.603991 0.288460 0.065266 0.412591 0.708470 0.913341 0.998583 0.950814 0.774303 0.491074 0.138535 0.235186 0.577657 0.839492 0.981643 0.981492 0.836821 0.566912 0.210417 0.179818 0.544383 0.826329 0.980209 0.979722 0.822626 0.531952 0.153141 0.252698 0.618420 0.881979 0.997160 0.942077 0.723805 0.378135 0.035781 0.445211 0.776494 0.968418 0.983883 0.817575 0.498015 0.083285 0.349088 0.716398 0.946661 0.993041 0.843929 0.526375 0.101869 0.345050 0.723378 0.954244 0.987729 0.814250 0.467839 0.020199 0.433611 0.795144 0.984066 0.956483 0.715823 0.313472 0.161446 0.601367 0.904546 0.998911 0.859819 0.517267 0.050324 0.430473 0.808989 0.991703 0.931380 0.640093 0.187877 0.313301 0.736842 0.973521 0.960172 0.697383 0.251102 0.263024 0.709078 0.966767 0.964410 0.699730 0.242354 0.283552 0.732392 0.977489 0.947378 0.647618 0.161213 0.373402 0.801209 0.995698 0.896961 0.531229 0.005203 0.524133 0.895984 0.994920 0.787600 0.335186 0.223448 0.713553 0.979065 0.932933 0.586814 0.049690 0.505317 0.896259 0.992318 0.758596 0.270090 0.310983 0.788271 0.997622 0.864377 0.431348 0.153374 0.686018 0.977882 0.922838 0.537280 0.043000 0.609393 0.954989 0.950731 0.594910 0.016669 0.569474 0.942640 0.959298 0.609804 0.025074 0.570992 0.946611 0.952744 0.583634 0.017794 0.613785 0.965131 0.927812 0.513538 0.111716 0.692716 0.988742 0.874103 0.393213 0.254551 0.796172 0.999876 0.775422 0.215953 0.438647 0.903517 0.972984 0.613041 0.020064 0.645813 0.983002 0.876873 0.371979 0.304186 0.842201 0.992212 0.681296 0.051084 0.604692 0.976140 0.884351 0.369497 0.324244 0.862885 0.983313 0.623346 0.043860 0.690959 0.996218 0.804449 0.208124 0.494710 0.947935 0.918258 0.417190 0.300294 0.863615 0.977810 0.579601
1.000000 1.000000 1.000000 1.000000 1.000000 1.000000 1.000000 1.000000 1.000000 1.000000 1.000000 1.000000 1.000000 1.000000 1.000000 1.000000 1.000000 1.000000 1.000000 1.000000 -0.019566 -0.019566 -0.019566 -0.019566 -0.019566 -0.019566 -0.019566 -0.019566 -0.019566 -0.019566 -0.019566 -0.019566 -0.019566 -0.019566 -0.019566 -0.019566 -0.019566 -0.019566 -0.019566 -0.159195 -0.159195 -0.159195 -0.159195 -0.159195 -0.159195 -0.159195 -0.159195 -0.159195 -0.159195 -0.159195 -0.159195 -0.159195 -0.159195 -0.159195 -0.159195 -0.159195 -0.152270 -0.132197 -0.097761 -0.060580 -0.041825 -0.059791 -0.069578 -0.073029 -0.073006 -0.074235 -0.061389 -0.032562 0.232884 0.303364 0.309708 0.294548 0.288501 0.274356 0.244861 0.240188 0.258951 0.283592 0.306316 0.312143 0.306969 0.298598 0.337124 0.355660 0.334521 0.324169 0.312004 0.310245 0.263993 0.265021 0.263742 0.268169 0.302978 0.373551 0.462684 0.468354 0.425723 0.420853 0.417862 0.406367 0.409084 0.372635 0.358192 0.340419 0.360177 0.368529 0.379102 0.400631 0.460824 0.461753 0.428732 0.423272 0.465542 0.473313 0.449771 0.450555 0.453366 0.409578 0.399737 0.395383 0.379724 0.391648 0.425841 0.418732 0.393326 0.393922 0.405851 0.416835 0.417085 0.405637 0.367616 0.372186 0.384926 0.369511 0.359509 0.377468 0.381959 0.328890 0.278336 0.255856 0.303812 0.298106 0.268101 0.268978 0.299588 0.265303 0.283411 0.273951 0.265619 0.235922 0.169874 0.128893 0.063085 0.064875 0.012782 -0.065561 -0.061825 -0.039077 -0.042565 -0.074689 -0.092464 -0.098223 -0.137078 -0.248550 -0.280110 -0.283097 -0.335658 -0.411736 -0.456519 -0.465375 -0.461158 -0.486886 -0.480696 -0.504081 -0.520509 -0.487065 -0.454067 -0.494168 -0.472067 -0.406750 -0.544955 -0.502167 -0.503570 -0.501126 -0.490294 -0.441313 -0.401090 -0.350501 -0.250320 -0.248592 -0.217653 -0.153845 -0.111476 -0.093438 -0.033168 0.034394 0.035598 0.075991 0.053419 0.060600 0.044249 0.039953 0.079116 0.120551 0.188443 0.211682 0.198230 0.235219 0.303332 0.313863 0.329529 0.345667 0.351505 0.412779 0.442144 0.410628 0.425603 0.426927 0.454766 0.441606 0.462209 0.447913 0.425514 0.444257 0.461980 0.464436 0.419790 0.402977 0.421143 0.425215 0.388705 0.373943 0.350356 0.336225 0.344659 0.287657 0.249131 0.237240 0.256213 0.183809 0.159373 0.113739 0.102069 0.107481 0.092144 0.188053 0.144215 0.119396 0.132252 0.103313 0.011424 0.030689 0.051998 0.036247 0.050739 0.050891 0.067317 0.103550 0.088039 0.124951 0.135896 0.111504 0.047032 0.030460 -0.002615 -0.021852 -0.056116 -0.087393 -0.121557 -0.150075 -0.132893 -0.165856 -0.250632 -0.275696 -0.155431 -0.189858 -0.231191 -0.259588 -0.270847 -0.271828 -0.268747 -0.276376 -0.302870 -0.250467 -0.234600 -0.104592 -0.125239 -0.106278 -0.112061 -0.134525 -0.096550 -0.028719 -0.025793 -0.008851 -0.010027 0.008581 0.017631 0.019104 0.021348 -0.028576 -0.009070 -0.027537 -0.032272 -0.001164 -0.012453 -0.046385 -0.051401 -0.058221 -0.084035 -0.097922 -0.075986 -0.020418 -0.033625 0.006794 0.024860 0.036869 0.087533 0.089521 0.118279 0.113737 0.128453 0.160322 0.176748 0.188806 0.180069 0.113964 0.122411 0.119205 0.150124 0.131002 0.130267 0.146083 0.150975 0.119260 0.103567 0.081351 0.043006 0.003219 0.019064 0.097860 0.097860 0.097860 0.097860 0.097860 0.035087 0.035087 0.035087 0.035087 0.088443 0.088443 0.088443 0.088443 0.088443 0.045719 0.045719 0.045719 0.045719 0.045719 0.045719 0.045719 0.045719 0.045719 0.045719
0.000000 0.000000 0.000000 0.000000 0.000000 0.000000 0.000000 0.000000 0.000000 0.000000 0.000000 0.000000 0.000000 0.000000 0.000000 0.000000 0.000000 0.000000 0.000000 0.000000 0.212000 0.212000 0.212000 0.212000 0.212000 0.212000 0.212000 0.212000 0.212000 0.212000 0.212000 0.212000 0.212000 0.212000 0.212000 0.212000 0.212000 0.212000 0.212000 0.234082 0.234082 0.234082 0.234082 0.234082 0.234082 0.234082 0.234082 0.234082 0.234082 0.234082 0.234082 0.234082 0.234082 0.234082 0.234082 0.234082 0.234082 0.234082 0.234082 0.234082 0.234082 0.234082 0.234082 0.234082 0.234082 0.234082 0.234082 0.234082 0.269680 0.269680 0.269680 0.269680 0.269680 0.269680 0.269680 0.269680 0.269680 0.269680 0.269680 0.269680 0.269680 0.269680 0.269680 0.269680 0.269680 0.269680 0.269680 0.269680 0.291730 0.291730 0.291730 0.291730 0.291730 0.291730 0.291730 0.291730 0.291730 0.291730 0.291730 0.291730 0.291730 0.291730 0.291730 0.291730 0.298142 0.298142 0.298142 0.298142 0.298142 0.298142 0.298142 0.298142 0.298142 0.298142 0.298142 0.298142 0.298142 0.298142 0.312348 0.312348 0.312348 0.312348 0.312348 0.312348 0.312348 0.312348 0.312348 0.312348 0.312348 0.312348 0.312348 0.312348 0.312348 0.312348 0.312348 0.312348 0.312348 0.312348 0.312348 0.312348 0.312348 0.304997 0.304997 0.304997 0.304997 0.304997 0.304997 0.304997 0.304997 0.304997 0.304997 0.304997 0.312348 0.312348 0.312348 0.312348 0.312348 0.312348 0.312348 0.312348 0.312348 0.312348 0.312348 0.312348 0.312348 0.312348 0.312348 0.312348 0.312348 0.312348 0.312348 0.304997 0.304997 0.304997 0.304997 0.304997 0.304997 0.304997 0.304997 0.304997 0.320256 0.320256 0.320256 0.320256 0.320256 0.320256 0.320256 0.320256 0.312348 0.312348 0.312348 0.312348 0.312348 0.312348 0.312348 0.312348 0.304997 0.304997 0.304997 0.304997 0.304997 0.304997 0.304997 0.304997 0.312348 0.312348 0.312348 0.312348 0.312348 0.312348 0.312348 0.312348 0.312348 0.312348 0.312348 0.312348 0.312348 0.312348 0.304997 0.304997 0.304997 0.304997 0.304997 0.304997 0.304997 0.298142 0.298142 0.298142 0.298142 0.298142 0.298142 0.298142 0.312348 0.312348 0.312348 0.312348 0.312348 0.312348 0.285714 0.285714 0.285714 0.285714 0.285714 0.285714 0.285714 0.304997 0.304997 0.304997 0.304997 0.304997 0.304997 0.298142 0.298142 0.298142 0.298142 0.298142 0.298142 0.291730 0.291730 0.291730 0.291730 0.291730 0.291730 0.291730 0.291730 0.291730 0.291730 0.291730 0.291730 0.304997 0.304997 0.304997 0.304997 0.304997 0.280056 0.280056 0.280056 0.280056 0.280056 0.280056 0.298142 0.298142 0.298142 0.298142 0.298142 0.274721 0.274721 0.274721 0.274721 0.274721 0.274721 0.291730 0.291730 0.291730 0.291730 0.291730 0.285714 0.285714 0.285714 0.285714 0.285714 0.285714 0.285714 0.285714 0.285714 0.285714 0.280056 0.280056 0.280056 0.280056 0.280056 0.280056 0.280056 0.280056 0.280056 0.280056 0.274721 0.274721 0.274721 0.274721 0.274721 0.298142 0.298142 0.298142 0.298142 0.269680 0.269680 0.269680 0.269680 0.269680 0.264906 0.264906 0.264906 0.264906 0.264906 0.285714 0.285714 0.285714 0.285714 0.260378 0.260378 0.260378 0.260378 0.260378 0.280056 0.280056 0.280056 0.280056 0.256074 0.256074 0.256074 0.256074 0.256074 0.274721 0.274721 0.274721 0.274721 0.274721 0.274721 0.274721 0.274721 0.274721 0.274721
