# Output from CTFFind version 4.1.9, run on 2019-11-24 11:56:22
# Input file: stack1_bm3d_averaged_1_2.0_0_0_half.mrc ; Number of micrographs: 1
# Pixel size: 1.500 Angstroms ; acceleration voltage: 300.0 keV ; spherical aberration: 0.00 mm ; amplitude contrast: 0.07
# Box size: 512 pixels ; min. res.: 40.0 Angstroms ; max. res.: 6.0 Angstroms ; min. def.: 5000.0 um; max. def. 50000.0 um; num. frames averaged: 1
# 6 lines per micrograph: #1 - spatial frequency (1/Angstroms); #2 - 1D rotational average of spectrum (assuming no astigmatism); #3 - 1D rotational average of spectrum; #4 - CTF fit; #5 - cross-correlation between spectrum and CTF fit; #6 - 2sigma of expected cross correlation of noise
0.000000 0.001302 0.002604 0.003906 0.005208 0.006510 0.007812 0.009115 0.010417 0.011719 0.013021 0.014323 0.015625 0.016927 0.018229 0.019531 0.020833 0.022135 0.023438 0.024740 0.026042 0.027344 0.028646 0.029948 0.031250 0.032552 0.033854 0.035156 0.036458 0.037760 0.039062 0.040365 0.041667 0.042969 0.044271 0.045573 0.046875 0.048177 0.049479 0.050781 0.052083 0.053385 0.054688 0.055990 0.057292 0.058594 0.059896 0.061198 0.062500 0.063802 0.065104 0.066406 0.067708 0.069010 0.070312 0.071615 0.072917 0.074219 0.075521 0.076823 0.078125 0.079427 0.080729 0.082031 0.083333 0.084635 0.085938 0.087240 0.088542 0.089844 0.091146 0.092448 0.093750 0.095052 0.096354 0.097656 0.098958 0.100260 0.101562 0.102865 0.104167 0.105469 0.106771 0.108073 0.109375 0.110677 0.111979 0.113281 0.114583 0.115885 0.117188 0.118490 0.119792 0.121094 0.122396 0.123698 0.125000 0.126302 0.127604 0.128906 0.130208 0.131510 0.132812 0.134115 0.135417 0.136719 0.138021 0.139323 0.140625 0.141927 0.143229 0.144531 0.145833 0.147135 0.148438 0.149740 0.151042 0.152344 0.153646 0.154948 0.156250 0.157552 0.158854 0.160156 0.161458 0.162760 0.164062 0.165365 0.166667 0.167969 0.169271 0.170573 0.171875 0.173177 0.174479 0.175781 0.177083 0.178385 0.179688 0.180990 0.182292 0.183594 0.184896 0.186198 0.187500 0.188802 0.190104 0.191406 0.192708 0.194010 0.195312 0.196615 0.197917 0.199219 0.200521 0.201823 0.203125 0.204427 0.205729 0.207031 0.208333 0.209635 0.210938 0.212240 0.213542 0.214844 0.216146 0.217448 0.218750 0.220052 0.221354 0.222656 0.223958 0.225260 0.226562 0.227865 0.229167 0.230469 0.231771 0.233073 0.234375 0.235677 0.236979 0.238281 0.239583 0.240885 0.242188 0.243490 0.244792 0.246094 0.247396 0.248698 0.250000 0.251302 0.252604 0.253906 0.255208 0.256510 0.257812 0.259115 0.260417 0.261719 0.263021 0.264323 0.265625 0.266927 0.268229 0.269531 0.270833 0.272135 0.273438 0.274740 0.276042 0.277344 0.278646 0.279948 0.281250 0.282552 0.283854 0.285156 0.286458 0.287760 0.289062 0.290365 0.291667 0.292969 0.294271 0.295573 0.296875 0.298177 0.299479 0.300781 0.302083 0.303385 0.304688 0.305990 0.307292 0.308594 0.309896 0.311198 0.312500 0.313802 0.315104 0.316406 0.317708 0.319010 0.320312 0.321615 0.322917 0.324219 0.325521 0.326823 0.328125 0.329427 0.330729 0.332031 0.333333 0.334635 0.335938 0.337240 0.338542 0.339844 0.341146 0.342448 0.343750 0.345052 0.346354 0.347656 0.348958 0.350260 0.351562 0.352865 0.354167 0.355469 0.356771 0.358073 0.359375 0.360677 0.361979 0.363281 0.364583 0.365885 0.367188 0.368490 0.369792 0.371094 0.372396 0.373698 0.375000 0.376302 0.377604 0.378906 0.380208 0.381510 0.382812 0.384115 0.385417 0.386719 0.388021 0.389323 0.390625 0.391927 0.393229 0.394531 0.395833 0.397135 0.398438 0.399740 0.401042 0.402344 0.403646 0.404948 0.406250 0.407552 0.408854 0.410156 0.411458 0.412760 0.414062 0.415365 0.416667 0.417969 0.419271 0.420573 0.421875 0.423177 0.424479 0.425781 0.427083 0.428385 0.429688 0.430990 0.432292 0.433594 0.434896 0.436198 0.437500 0.438802 0.440104 0.441406 0.442708 0.444010 0.445312 0.446615 0.447917 0.449219 0.450521 0.451823 0.453125 0.454427 0.455729 0.457031 0.458333 0.459635 0.460938 0.462240 0.463542 0.464844 0.466146 0.467448 0.468750 0.470052 0.471354
       0.80397        0.80416        0.80432        0.80437        0.80440        0.80442        0.80442        0.80443        0.80444        0.80444        0.80445        0.80445        0.80445        0.80445        0.80445        0.80446        0.80446        0.80446        0.80446        0.74316        0.80274        1.00160        1.19693        1.23023        1.12940        0.95725        0.94009        0.97793        0.90500        0.69899        0.57360        0.65128        0.77437        0.81368        0.80590        0.81459        0.76833        0.67941        0.62222        0.62011        0.67143        0.75040        0.86070        0.86165        0.76866        0.74811        0.85544        0.90463        0.77117        0.68865        0.80740        0.97854        0.95384        0.74278        0.55954        0.56845        0.70131        0.86745        0.92932        0.86614        0.79974        0.80610        0.84419        0.86323        0.84459        0.81612        0.76897        0.73629        0.78102        0.80774        0.75315        0.66107        0.70471        0.88312        1.00508        0.98002        0.88175        0.80847        0.77168        0.75322        0.74307        0.74516        0.81335        0.89025        0.86413        0.74052        0.62243        0.69335        0.85303        0.93328        0.88122        0.79033        0.72942        0.73593        0.78760        0.83685        0.79543        0.71041        0.70742        0.78095        0.83596        0.85080        0.87479        0.94452        0.91314        0.76281        0.61199        0.59039        0.72170        0.89617        0.98038        0.92463        0.77902        0.71140        0.73621        0.78981        0.77235        0.74598        0.76626        0.82967        0.88139        0.86717        0.77772        0.70710        0.73427        0.83197        0.87188        0.84738        0.85838        0.91136        0.89731        0.81265        0.74274        0.77950        0.83708        0.82571        0.77384        0.72452        0.70364        0.70077        0.71779        0.75708        0.83176        0.93198        0.98952        0.94648        0.84405        0.77469        0.72099        0.70939        0.73316        0.83639        0.89003        0.84086        0.76248        0.75250        0.80390        0.85148        0.83079        0.79195        0.79477        0.83326        0.86819        0.82707        0.75364        0.74258        0.78819        0.79562        0.75644        0.73348        0.75938        0.80794        0.85984        0.90969        0.91897        0.84354        0.76500        0.75797        0.78291        0.78382        0.77674        0.81506        0.86335        0.85405        0.78446        0.74161        0.75797        0.80514        0.81788        0.79253        0.77082        0.77835        0.81302        0.82219        0.77619        0.75187        0.79040        0.84505        0.85322        0.80851        0.76705        0.75327        0.75554        0.74713        0.73357        0.75890        0.83924        0.95857        1.02572        0.97034        0.83196        0.74668        0.76897        0.84739        0.85581        0.82790        0.81523        0.81589        0.77314        0.73606        0.76201        0.82896        0.81008        0.73760        0.70090        0.75013        0.80633        0.82323        0.80012        0.78415        0.79419        0.83141        0.85839        0.84884        0.78844        0.73769        0.77004        0.83561        0.87262        0.83302        0.76892        0.73384        0.75792        0.81689        0.89094        0.93730        0.92724        0.85448        0.76866        0.73214        0.75456        0.81078        0.83561        0.79858        0.71988        0.68806        0.76343        0.87905        0.88392        0.78104        0.71417        0.78064        0.86222        0.86914        0.80411        0.76951        0.75261        0.70780        0.66407        0.71384        0.84203        0.91604        0.90746        0.84996        0.81645        0.82443        0.84748        0.85117        0.83644        0.80213        0.80831        0.80306        0.76522        0.68212        0.65514        0.71312        0.75729        0.78601        0.80848        0.88340        0.92002        0.87373        0.84844        0.87675        0.92734        0.86857        0.72968        0.70561        0.83007        0.92614        0.80413        0.66110        0.69560        0.84934        0.85507        0.75094        0.74536        0.82537        0.82798        0.73359        0.72186        0.81183        0.78332        0.61542        0.63438        0.90558        1.10492        0.97283        0.73279        0.78410        0.98150        0.96253        0.69508        0.54688        0.68989        0.92575        0.95278        0.84024        0.72658        0.62422        0.58012        0.70137        0.88664        0.91234        0.73781        0.80711        1.02109        1.06296        0.89902        0.82840        0.89462        0.80994        0.74087        0.78706        0.93323        0.74873        0.41918        0.30047        0.33727        0.54391        0.83520        1.13677        1.02111        0.76274        0.76611        0.95453        0.97373        0.83933        0.75449        0.48743       -0.11096       -0.58813       -0.79665
-0.800590 -0.758834 -0.721109 -0.684546 -0.647711 -0.612719 -0.577237 -0.542451 -0.507679 -0.473023 -0.438997 -0.404850 -0.371128 -0.337420 -0.304070 -0.270951 -0.237875 -0.205140 -0.172611 -2.232644 -0.818600 5.485917 7.637947 9.634238 6.961570 4.918857 2.278305 4.221130 2.304197 -1.953308 -4.773545 -3.747257 -0.188968 0.110569 0.482415 -0.041623 0.028910 -0.110601 -0.231361 -0.155340 -0.268145 -0.013834 0.073539 0.232501 0.003810 -0.148671 0.332119 0.689132 0.253795 -0.870881 -0.509105 -36.765717 -5.243672 0.147269 1.857013 1.312970 0.769371 -0.342801 -0.854377 -0.790272 -0.089206 -0.256050 -2.504978 -6.682990 -41.060423 4.661393 1.158863 -0.045182 0.072113 0.250117 0.067919 -0.141121 -0.027485 0.117132 0.336560 0.349171 0.193688 0.119755 0.065427 0.056172 0.350984 0.555553 1.224036 3.436928 4.227236 0.735436 -3.402423 -1.335113 0.092010 4.702357 3.534426 0.048347 -0.028466 -0.012060 0.031972 0.095695 0.085473 -0.017808 -1.257479 0.991661 2.584379 3.115598 2.793911 4.977922 5.066739 1.480562 -1.807048 -4.137887 -1.192504 3.451040 6.936991 7.202852 3.216841 0.705902 0.543958 2.473580 1.168690 2.555493 1.343241 2.658269 3.967938 0.140174 -0.004829 -0.256125 -0.295343 -0.040760 0.121866 0.223398 0.118996 0.260590 0.395435 0.260948 -0.103547 -0.096402 0.049858 0.029686 -0.123274 -0.504978 -1.360070 5.980442 1.527390 -30.800848 0.380246 -0.346356 -0.829219 -0.373357 -0.150780 -0.032005 0.334706 0.351626 0.328293 0.020059 -0.312943 -0.310327 -0.026361 -0.241497 -0.080695 0.389421 0.249374 0.026801 0.019157 0.052924 0.203032 0.167859 0.007825 -0.065731 -0.085307 -0.041854 -0.036874 -0.505024 -2.145761 0.111050 -0.102000 -0.157105 -0.152646 1.500733 -1.180944 -1.766666 -1.081620 -0.518467 -1.158619 -0.073980 0.669181 1.640542 -0.055184 -1.228955 -1.510769 -0.374499 0.564358 0.926879 -0.368070 -0.350293 0.264097 0.486957 0.328611 -0.387092 -1.659240 0.435535 2.960833 2.119637 0.943778 -0.465740 -0.957915 -0.591506 -1.679392 -2.032928 -0.809263 2.226969 3.698903 4.382034 0.998260 -2.213070 -2.370634 -0.195852 0.422904 0.390659 1.237552 0.796648 0.852010 -1.100159 -1.314976 0.075459 1.698524 0.265780 -1.140697 -2.091249 0.922128 0.167441 0.340266 -0.738428 -0.078622 -0.209437 1.013489 1.571015 0.672275 -0.686380 -1.092278 -0.008216 1.111150 1.823237 0.146368 -2.745920 -1.707803 -0.703161 -0.344104 1.203618 1.851023 1.100447 -0.916340 -2.061497 -1.754674 -0.878029 1.070192 1.622768 0.316808 -1.133181 -1.384931 0.710333 3.189523 1.795484 -0.186113 -1.477599 0.229840 2.046793 2.146505 0.810962 -0.166411 -0.991405 -2.823077 -2.978807 -1.016212 0.713796 1.962242 0.981783 -0.602957 -1.975724 -0.343560 -0.111333 0.977548 0.003476 0.727083 0.232116 1.673727 0.047148 -1.882953 -2.147151 -0.619385 -0.481652 -0.178286 -0.251221 0.548809 1.567988 0.528599 -1.043808 0.553059 1.044324 0.159090 -2.231895 -0.754110 2.304091 3.210194 -0.712268 -3.074197 -1.107869 2.037408 1.907815 -0.442020 -1.984413 1.432469 1.399286 0.448739 0.784308 1.205817 -0.781294 -3.927121 -3.645367 0.751232 5.231268 1.389154 -2.253087 -2.010110 1.928522 4.092136 -2.584720 -7.676530 -1.105504 2.808941 4.641512 1.472340 -2.224634 -1.462404 -1.651818 -2.370555 2.146411 1.947833 -3.397201 -1.116246 5.395097 3.718949 -3.163315 -1.130626 -2.509312 -0.036279 -2.232717 7.135755 5.867956 -2.359082 -2.428988 -7.196793 -0.628396 1.411745 3.559454 4.916273 4.506597 -6.837847 -5.971058 -1.178498 2.935347 -16.523332 4.382552 11.786463 -2.412480 -18.130844
0.072396 0.074853 0.082219 0.094486 0.111635 0.133635 0.160433 0.191950 0.228070 0.268626 0.313393 0.362071 0.414268 0.469491 0.527127 0.586430 0.646509 0.706316 0.764643 0.820119 0.871218 0.916268 0.953479 0.980973 0.996832 0.999157 0.986141 0.956153 0.907840 0.840232 0.752857 0.645857 0.520105 0.377297 0.220036 0.051878 0.122665 0.298172 0.468423 0.626582 0.765450 0.877799 0.956768 0.996325 0.991752 0.940146 0.840887 0.696032 0.510587 0.292607 0.053085 0.194411 0.434381 0.650294 0.825742 0.945780 0.998353 0.975697 0.875578 0.702180 0.466519 0.186230 0.115374 0.410965 0.671565 0.869432 0.981224 0.991102 0.893368 0.694229 0.412307 0.077617 0.271085 0.590487 0.838067 0.978016 0.986931 0.858380 0.605450 0.260589 0.127643 0.500817 0.799233 0.971723 0.985081 0.831381 0.531530 0.133897 0.292398 0.668874 0.922141 0.998820 0.877903 0.577613 0.154591 0.305348 0.703809 0.950894 0.986318 0.795580 0.416707 0.065207 0.535628 0.877285 0.999957 0.865821 0.503017 0.002458 0.503027 0.873126 0.999544 0.839452 0.432275 0.106965 0.618066 0.942595 0.974010 0.694999 0.188469 0.384012 0.832057 0.999984 0.822999 0.355293 0.242700 0.756827 0.995573 0.863301 0.401995 0.217555 0.756037 0.997502 0.838060 0.334441 0.311355 0.830039 0.997123 0.732861 0.144670 0.511635 0.940561 0.940873 0.503944 0.172937 0.771187 0.999764 0.739497 0.110425 0.577735 0.975167 0.871212 0.311044 0.416882 0.925078 0.933551 0.428755 0.317311 0.888389 0.955665 0.471614 0.290346 0.884409 0.952334 0.444224 0.338295 0.914975 0.921093 0.343536 0.456840 0.964749 0.842624 0.161529 0.630801 0.999261 0.684981 0.104833 0.824636 0.964245 0.415232 0.435960 0.972409 0.793835 0.023005 0.768185 0.978209 0.437472 0.444846 0.981800 0.743460 0.090215 0.854107 0.924353 0.233809 0.653561 0.995521 0.495135 0.430513 0.987582 0.685763 0.220361 0.933816 0.812817 0.043621 0.862993 0.890282 0.090456 0.796651 0.932987 0.179482 0.749053 0.952988 0.224080 0.728318 0.957709 0.225261 0.737552 0.949169 0.183050 0.775394 0.923804 0.096473 0.835796 0.872788 0.035168 0.907019 0.783035 0.209733 0.970444 0.639501 0.418472 0.999964 0.429397 0.641592 0.963481 0.148902 0.844542 0.828144 0.188092 0.977691 0.570849 0.541529 0.982718 0.193731 0.841264 0.809011 0.258969 0.995055 0.440354 0.691248 0.914495 0.074738 0.965875 0.559584 0.605147 0.946715 0.010815 0.954934 0.571737 0.613004 0.935030 0.069919 0.976425 0.479606 0.712392 0.867758 0.249623 0.999943 0.265402 0.866974 0.696015 0.529273 0.949403 0.085997 0.989888 0.357746 0.834026 0.716028 0.534555 0.935836 0.160596 0.999466 0.219880 0.918787 0.552170 0.725376 0.800745 0.459884 0.949742 0.163116 0.999899 0.130100 0.963708 0.394086 0.860278 0.613099 0.710882 0.780314 0.535757 0.895998 0.352059 0.965268 0.172961 0.996108 0.007599 0.997680 0.138475 0.979101 0.262642 0.948677 0.364287 0.913476 0.444209 0.879206 0.503807 0.850180 0.544683 0.829478 0.568192 0.819039 0.575245 0.819753 0.566129 0.831575 0.540462 0.853472 0.497288 0.883360 0.435182 0.918013 0.352580 0.952946 0.248081 0.982287 0.121059 0.998785 0.027666 0.994002 0.195150 0.958762 0.375434 0.883992 0.558855 0.761962 0.731731 0.588035 0.876443 0.362736 0.972486 0.093955 0.998656 0.201343 0.936415 0.496243 0.774489 0.754891 0.513963 0.936117 0.173159 0.999868 0.209898 0.916478 0.578315 0.677361
1.000000 1.000000 1.000000 1.000000 1.000000 1.000000 1.000000 1.000000 1.000000 1.000000 1.000000 1.000000 1.000000 1.000000 1.000000 1.000000 1.000000 1.000000 1.000000 1.000000 0.293019 0.293019 0.293019 0.293019 0.293019 0.192913 0.192913 0.192913 0.192913 0.192913 0.192913 0.192913 0.192913 0.192913 0.192913 0.192913 0.192913 0.192913 0.192913 0.192913 0.192913 0.192913 0.192913 0.192913 0.081524 0.046409 0.017681 -0.020697 0.039230 0.032142 0.034641 0.035820 0.026333 0.131655 0.144404 0.195315 0.221111 0.192134 0.160658 0.141760 0.182493 0.264314 0.259874 0.257285 0.292382 0.319214 0.305316 0.365233 0.413991 0.436464 0.459567 0.477262 0.621979 0.595219 0.575937 0.593330 0.591364 0.594123 0.524055 0.528899 0.555571 0.508069 0.562223 0.517218 0.549373 0.388393 0.374818 0.339292 0.204204 0.144816 0.134862 0.182253 0.178379 0.261418 0.249208 0.180639 0.213624 0.221454 0.166339 0.178589 0.243643 0.200449 0.232171 0.170816 0.208684 0.130730 0.166662 0.247553 0.240740 0.255660 0.325010 0.322692 0.286777 0.350465 0.372812 0.388809 0.538695 0.523009 0.522782 0.471442 0.486560 0.503736 0.517957 0.515959 0.429980 0.396724 0.384613 0.346416 0.293892 0.192255 0.189414 0.288912 0.275025 0.298402 0.264900 0.240771 0.163450 0.082197 0.121789 0.090288 0.067392 0.088865 0.084882 0.108637 0.128580 0.175267 0.220656 0.187987 0.178316 0.167944 0.165201 0.093382 0.100131 0.016983 -0.041847 -0.085889 -0.053898 -0.025742 -0.011977 0.058064 0.113427 0.080139 0.029975 -0.003656 -0.039595 -0.045855 -0.082497 -0.039296 -0.029505 0.021348 0.005604 -0.024335 -0.088423 -0.131848 -0.141070 -0.261515 -0.264842 -0.206390 -0.201430 -0.277521 -0.257997 -0.338916 -0.281431 -0.299457 -0.174132 -0.162311 -0.100125 -0.097667 -0.074043 -0.101303 -0.041110 -0.044712 -0.156252 -0.150465 -0.051783 -0.047098 -0.091874 -0.053028 -0.040091 0.036481 0.033125 0.094357 0.073257 0.109000 0.076266 0.138550 0.184537 0.149524 0.163365 0.175055 0.207907 0.268804 0.297043 0.283070 0.287928 0.299541 0.334319 0.352026 0.297649 0.263583 0.231451 0.222946 0.180836 0.121146 0.097087 0.070797 0.058741 0.090107 0.086216 0.104514 0.127225 0.100687 0.105089 0.052054 0.106302 0.065190 0.057732 0.098666 0.128292 0.030507 -0.061085 0.043819 0.066836 0.056212 0.108421 0.101027 0.087690 0.017154 0.018014 0.050441 0.081152 0.099564 0.029544 -0.006507 0.109705 0.117116 0.127352 0.067835 0.081771 0.158863 0.116312 0.122625 0.245724 0.287977 0.178220 0.222533 0.241001 0.330139 0.345271 0.343782 0.318788 0.282022 0.300755 0.346256 0.344567 0.333885 0.341794 0.324625 0.293967 0.292499 0.331426 0.318421 0.242001 0.289845 0.341841 0.375594 0.388148 0.396987 0.351347 0.305599 0.290625 0.261656 0.305420 0.285274 0.273244 0.280690 0.263890 0.306850 0.298842 0.287782 0.286048 0.269935 0.209347 0.222086 0.192130 0.240713 0.243695 0.191979 0.131678 0.099508 0.129357 0.117465 0.140774 0.145634 0.142186 0.119546 0.125792 0.114189 0.162458 0.161364 0.123598 0.168000 0.189273 0.207508 0.232648 0.232172 0.218831 0.198123 0.162465 0.116125 0.122331 0.077445 0.102366 0.119445 0.091735 0.210399 0.045103 0.045103 0.045103 0.045103 0.045103 0.045103 0.045103 0.045103 0.074304 0.074304 0.074304 0.074304 0.031849 0.090637 0.090637 0.090637 0.090637 0.090637 0.090637 0.086294 0.086294 0.039118 0.086294 0.086294 0.086294 0.086294 0.086294
0.000000 0.000000 0.000000 0.000000 542962553881113856.000000 1040481742373365888.000000 254478291673941952.000000 893938283071696768.000000 774858424759919744.000000 0.000000 0.000000 0.000000 0.000000 0.000000 0.000000 0.000000 0.000000 0.000000 0.000000 688633073801958400.000000 0.264906 0.264906 0.264906 0.264906 0.264906 0.285714 0.285714 0.285714 0.285714 0.285714 0.285714 0.285714 0.285714 0.285714 0.285714 0.285714 0.285714 0.285714 0.285714 0.285714 0.285714 0.285714 0.285714 0.285714 0.328798 0.328798 0.328798 0.328798 0.328798 0.328798 0.328798 0.328798 0.328798 0.328798 0.328798 0.328798 0.328798 0.359211 0.359211 0.359211 0.359211 0.359211 0.359211 0.359211 0.359211 0.359211 0.359211 0.359211 0.359211 0.359211 0.359211 0.359211 0.359211 0.359211 0.359211 0.359211 0.371391 0.371391 0.371391 0.371391 0.371391 0.371391 0.371391 0.371391 0.384900 0.384900 0.384900 0.384900 0.384900 0.384900 0.384900 0.371391 0.371391 0.371391 0.371391 0.371391 0.371391 0.371391 0.384900 0.384900 0.384900 0.384900 0.384900 0.384900 0.371391 0.371391 0.371391 0.371391 0.371391 0.371391 0.371391 0.371391 0.371391 0.371391 0.371391 0.371391 0.384900 0.384900 0.384900 0.384900 0.384900 0.348155 0.348155 0.348155 0.348155 0.348155 0.348155 0.371391 0.371391 0.371391 0.371391 0.371391 0.400000 0.400000 0.400000 0.400000 0.359211 0.359211 0.359211 0.359211 0.359211 0.384900 0.384900 0.384900 0.384900 0.348155 0.348155 0.348155 0.348155 0.348155 0.371391 0.371391 0.371391 0.371391 0.359211 0.359211 0.359211 0.359211 0.359211 0.359211 0.359211 0.359211 0.348155 0.348155 0.348155 0.348155 0.348155 0.348155 0.348155 0.348155 0.338062 0.338062 0.338062 0.338062 0.371391 0.371391 0.371391 0.328798 0.328798 0.328798 0.328798 0.371391 0.371391 0.371391 0.320256 0.320256 0.320256 0.320256 0.359211 0.359211 0.359211 0.348155 0.348155 0.348155 0.312348 0.312348 0.312348 0.312348 0.348155 0.348155 0.348155 0.338062 0.338062 0.338062 0.338062 0.338062 0.338062 0.328798 0.328798 0.328798 0.328798 0.328798 0.328798 0.328798 0.328798 0.328798 0.320256 0.320256 0.320256 0.320256 0.320256 0.320256 0.312348 0.312348 0.312348 0.312348 0.312348 0.312348 0.312348 0.312348 0.312348 0.359211 0.359211 0.304997 0.304997 0.304997 0.298142 0.298142 0.298142 0.348155 0.348155 0.298142 0.298142 0.298142 0.291730 0.291730 0.291730 0.338062 0.338062 0.285714 0.285714 0.285714 0.328798 0.328798 0.285714 0.285714 0.285714 0.328798 0.328798 0.280056 0.280056 0.280056 0.320256 0.320256 0.274721 0.274721 0.274721 0.312348 0.312348 0.312348 0.312348 0.269680 0.269680 0.269680 0.304997 0.304997 0.304997 0.304997 0.264906 0.264906 0.264906 0.304997 0.304997 0.298142 0.298142 0.298142 0.298142 0.298142 0.298142 0.256074 0.256074 0.256074 0.291730 0.291730 0.291730 0.291730 0.285714 0.285714 0.285714 0.285714 0.285714 0.285714 0.244339 0.244339 0.244339 0.280056 0.280056 0.280056 0.280056 0.280056 0.280056 0.274721 0.274721 0.274721 0.274721 0.274721 0.274721 0.269680 0.269680 0.269680 0.269680 0.269680 0.269680 0.269680 0.269680 0.264906 0.264906 0.264906 0.264906 0.264906 0.264906 0.260378 0.260378 0.260378 0.260378 0.320256 0.256074 0.256074 0.256074 0.256074 0.256074 0.256074 0.256074 0.256074 0.251976 0.251976 0.251976 0.251976 0.304997 0.248069 0.248069 0.248069 0.248069 0.248069 0.248069 0.244339 0.244339 0.298142 0.244339 0.244339 0.244339 0.244339 0.244339
