# Output from CTFFind version 4.1.9, run on 2019-11-24 12:06:05
# Input file: stack1_ubbm3d_averaged_1_1.0_0_0_half.mrc ; Number of micrographs: 1
# Pixel size: 1.500 Angstroms ; acceleration voltage: 300.0 keV ; spherical aberration: 0.00 mm ; amplitude contrast: 0.07
# Box size: 512 pixels ; min. res.: 40.0 Angstroms ; max. res.: 6.0 Angstroms ; min. def.: 5000.0 um; max. def. 50000.0 um; num. frames averaged: 1
# 6 lines per micrograph: #1 - spatial frequency (1/Angstroms); #2 - 1D rotational average of spectrum (assuming no astigmatism); #3 - 1D rotational average of spectrum; #4 - CTF fit; #5 - cross-correlation between spectrum and CTF fit; #6 - 2sigma of expected cross correlation of noise
0.000000 0.001302 0.002604 0.003906 0.005208 0.006510 0.007812 0.009115 0.010417 0.011719 0.013021 0.014323 0.015625 0.016927 0.018229 0.019531 0.020833 0.022135 0.023438 0.024740 0.026042 0.027344 0.028646 0.029948 0.031250 0.032552 0.033854 0.035156 0.036458 0.037760 0.039062 0.040365 0.041667 0.042969 0.044271 0.045573 0.046875 0.048177 0.049479 0.050781 0.052083 0.053385 0.054688 0.055990 0.057292 0.058594 0.059896 0.061198 0.062500 0.063802 0.065104 0.066406 0.067708 0.069010 0.070312 0.071615 0.072917 0.074219 0.075521 0.076823 0.078125 0.079427 0.080729 0.082031 0.083333 0.084635 0.085938 0.087240 0.088542 0.089844 0.091146 0.092448 0.093750 0.095052 0.096354 0.097656 0.098958 0.100260 0.101562 0.102865 0.104167 0.105469 0.106771 0.108073 0.109375 0.110677 0.111979 0.113281 0.114583 0.115885 0.117188 0.118490 0.119792 0.121094 0.122396 0.123698 0.125000 0.126302 0.127604 0.128906 0.130208 0.131510 0.132812 0.134115 0.135417 0.136719 0.138021 0.139323 0.140625 0.141927 0.143229 0.144531 0.145833 0.147135 0.148438 0.149740 0.151042 0.152344 0.153646 0.154948 0.156250 0.157552 0.158854 0.160156 0.161458 0.162760 0.164062 0.165365 0.166667 0.167969 0.169271 0.170573 0.171875 0.173177 0.174479 0.175781 0.177083 0.178385 0.179688 0.180990 0.182292 0.183594 0.184896 0.186198 0.187500 0.188802 0.190104 0.191406 0.192708 0.194010 0.195312 0.196615 0.197917 0.199219 0.200521 0.201823 0.203125 0.204427 0.205729 0.207031 0.208333 0.209635 0.210938 0.212240 0.213542 0.214844 0.216146 0.217448 0.218750 0.220052 0.221354 0.222656 0.223958 0.225260 0.226562 0.227865 0.229167 0.230469 0.231771 0.233073 0.234375 0.235677 0.236979 0.238281 0.239583 0.240885 0.242188 0.243490 0.244792 0.246094 0.247396 0.248698 0.250000 0.251302 0.252604 0.253906 0.255208 0.256510 0.257812 0.259115 0.260417 0.261719 0.263021 0.264323 0.265625 0.266927 0.268229 0.269531 0.270833 0.272135 0.273438 0.274740 0.276042 0.277344 0.278646 0.279948 0.281250 0.282552 0.283854 0.285156 0.286458 0.287760 0.289062 0.290365 0.291667 0.292969 0.294271 0.295573 0.296875 0.298177 0.299479 0.300781 0.302083 0.303385 0.304688 0.305990 0.307292 0.308594 0.309896 0.311198 0.312500 0.313802 0.315104 0.316406 0.317708 0.319010 0.320312 0.321615 0.322917 0.324219 0.325521 0.326823 0.328125 0.329427 0.330729 0.332031 0.333333 0.334635 0.335938 0.337240 0.338542 0.339844 0.341146 0.342448 0.343750 0.345052 0.346354 0.347656 0.348958 0.350260 0.351562 0.352865 0.354167 0.355469 0.356771 0.358073 0.359375 0.360677 0.361979 0.363281 0.364583 0.365885 0.367188 0.368490 0.369792 0.371094 0.372396 0.373698 0.375000 0.376302 0.377604 0.378906 0.380208 0.381510 0.382812 0.384115 0.385417 0.386719 0.388021 0.389323 0.390625 0.391927 0.393229 0.394531 0.395833 0.397135 0.398438 0.399740 0.401042 0.402344 0.403646 0.404948 0.406250 0.407552 0.408854 0.410156 0.411458 0.412760 0.414062 0.415365 0.416667 0.417969 0.419271 0.420573 0.421875 0.423177 0.424479 0.425781 0.427083 0.428385 0.429688 0.430990 0.432292 0.433594 0.434896 0.436198 0.437500 0.438802 0.440104 0.441406 0.442708 0.444010 0.445312 0.446615 0.447917 0.449219 0.450521 0.451823 0.453125 0.454427 0.455729 0.457031 0.458333 0.459635 0.460938 0.462240 0.463542 0.464844 0.466146 0.467448 0.468750 0.470052 0.471354
       0.45929        0.45929        0.45929        0.45929        0.45929        0.45929        0.45929        0.45929        0.45929        0.45929        0.45929        0.45929        0.45929        0.45929        0.45929        0.45929        0.45929        0.45929        0.45929        0.63213        0.82104        0.34476       -0.00675        0.14507        0.56674        0.64857        0.42755        0.29367        0.50076        0.71448        0.66655        0.47044        0.41673        0.57722        0.69037        0.56602        0.26185        0.10600        0.28054        0.58115        0.63224        0.38550        0.16682        0.24379        0.52074        0.65978        0.54247        0.31565        0.24311        0.37210        0.55185        0.63296        0.58922        0.51158        0.40777        0.35511        0.40209        0.49024        0.51548        0.41785        0.27302        0.22144        0.35614        0.52869        0.56573        0.43396        0.36512        0.48144        0.59665        0.53820        0.39458        0.37404        0.47296        0.54382        0.49310        0.44364        0.42900        0.45038        0.50474        0.56940        0.56686        0.45206        0.29207        0.25671        0.39297        0.60062        0.66268        0.55012        0.39515        0.36753        0.41737        0.45139        0.46483        0.49569        0.55608        0.59592        0.56857        0.49976        0.43664        0.45418        0.51039        0.53996        0.50998        0.41739        0.33691        0.32253        0.37882        0.41010        0.32964        0.20795        0.22243        0.39020        0.55016        0.56739        0.54518        0.56529        0.56479        0.49376        0.39148        0.39285        0.50222        0.61711        0.64545        0.55136        0.43187        0.35555        0.38763        0.44877        0.46433        0.40817        0.35748        0.36851        0.41408        0.42959        0.41179        0.44809        0.52774        0.54002        0.44602        0.38218        0.45725        0.56746        0.57026        0.47821        0.43069        0.43950        0.46418        0.48468        0.48430        0.47396        0.42481        0.35963        0.34366        0.40708        0.50538        0.57106        0.55746        0.51015        0.49051        0.48694        0.47081        0.44903        0.47458        0.51225        0.49594        0.45628        0.43384        0.46180        0.46450        0.44468        0.42434        0.44109        0.46440        0.44059        0.36982        0.32414        0.36532        0.46527        0.56254        0.58551        0.54991        0.49113        0.47978        0.51698        0.50314        0.39952        0.29626        0.33503        0.45592        0.52469        0.46372        0.39257        0.36941        0.37887        0.39861        0.45282        0.51217        0.55062        0.56246        0.57780        0.57037        0.52066        0.44882        0.41795        0.41628        0.44218        0.45363        0.46379        0.46263        0.48229        0.46892        0.41979        0.39166        0.41309        0.45847        0.44928        0.42449        0.45864        0.53281        0.55034        0.48775        0.41496        0.39597        0.43973        0.52021        0.57094        0.54755        0.44671        0.34755        0.32575        0.39206        0.48867        0.54812        0.53770        0.49256        0.46081        0.45581        0.43383        0.40750        0.40015        0.43458        0.45423        0.43872        0.41112        0.41422        0.46511        0.50393        0.48560        0.43814        0.44004        0.49712        0.55607        0.55609        0.52663        0.48099        0.44114        0.41196        0.41221        0.40519        0.38643        0.41158        0.46715        0.48222        0.42547        0.41166        0.48560        0.53479        0.49218        0.42010        0.42849        0.47801        0.48229        0.42268        0.37974        0.38024        0.43104        0.49935        0.52263        0.47829        0.41822        0.45111        0.52619        0.55539        0.48286        0.41527        0.43290        0.53246        0.51392        0.41232        0.34690        0.40838        0.47652        0.46436        0.43840        0.48246        0.51075        0.43818        0.31794        0.30013        0.38059        0.45658        0.49100        0.51632        0.50765        0.45987        0.41138        0.39744        0.41635        0.50479        0.56511        0.52225        0.40658        0.38282        0.51207        0.59054        0.49098        0.38429        0.41375        0.49270        0.43120        0.33856        0.34174        0.42750        0.47432        0.51064        0.57089        0.60628        0.50627        0.36345        0.31022        0.36757        0.46888        0.46032        0.40765        0.38779        0.45737        0.48610        0.45419        0.46221        0.52540        0.51808        0.45345        0.42119        0.46241        0.44419        0.42727        0.50796        0.60049        0.54201        0.38515        0.31071        0.37084        0.45492        0.50036        0.45136        0.34564        0.26356        0.22599        0.19010        0.07696       -0.09213       -0.19925       -0.24211
37.781113 -0.818107 -0.778633 -0.739620 -0.701067 -0.662974 -0.625342 -0.588170 -0.551459 -0.515208 -0.479417 -0.444086 -0.409216 -0.374806 -0.340856 -0.307367 -0.274338 -0.241769 -0.209661 0.896325 1.903627 -0.488357 -2.785130 -1.997063 0.284656 1.690449 -0.566293 -0.944427 0.163955 1.846021 1.413149 0.122695 -0.107683 0.722360 1.836228 0.912535 -0.772847 -2.053331 -0.817842 1.078685 1.682355 0.100342 -1.165614 -0.934565 0.801382 1.718955 1.038413 -0.348038 -0.500631 -0.157506 1.330396 1.333989 1.721667 0.694659 0.454095 -0.165948 0.389099 0.621789 1.189346 0.732225 -0.168598 -0.817741 -0.125589 0.972975 1.522334 0.841024 0.190921 0.790430 1.582801 1.444764 0.608108 0.241347 0.808039 1.346221 0.863207 0.838759 0.704081 0.822855 1.349792 1.456494 1.491528 1.142515 0.004589 -0.328672 0.341369 1.164048 2.186156 1.531280 0.758134 0.554774 0.572520 0.793130 0.939237 1.010997 1.233081 1.584432 1.725676 1.165872 0.669521 0.818360 1.067796 1.344637 1.232828 0.609749 0.327730 -0.055355 0.357988 0.577660 0.360658 -0.671956 -0.702859 -0.056077 1.243521 1.329716 1.302792 1.169546 1.328379 1.022545 0.250077 -0.153343 0.635726 1.288896 1.727655 1.241202 0.538401 -0.283025 -0.160463 0.161311 0.598395 0.180555 -0.197531 -0.255618 0.038215 0.121341 -0.041399 0.127340 0.650802 0.806657 0.408390 -0.349945 0.055566 0.629457 0.959442 0.396581 0.175698 -0.098191 0.063617 0.055301 0.166431 -0.201841 -0.371324 -0.809274 -0.912155 -0.782827 -0.381098 0.104446 0.205437 -0.054895 -0.124766 -0.365761 -0.383526 -0.173173 -0.490072 -0.209746 -0.116520 -0.175754 -0.600107 -0.523833 -0.430891 -0.318789 -0.570776 -0.645550 -0.400491 -0.516419 -0.895093 -1.203731 -1.075733 -0.677251 -0.035223 0.278403 0.207050 0.071622 -0.316871 -0.328799 -0.184145 -0.220472 -1.218785 -1.184695 -0.819901 -0.063370 -0.170416 -0.711055 -0.833623 -0.938904 -0.780887 -0.727253 -0.534375 -0.144453 0.066758 0.102224 0.205242 -0.051257 -0.360082 -0.751277 -0.754036 -0.500617 -0.294458 -0.343030 -0.256190 -0.315581 -0.064598 -0.280256 -0.669812 -0.653728 -0.363308 -0.202594 -0.375602 -0.450463 -0.076748 0.309701 0.320089 -0.040750 -0.407919 -0.450882 -0.000936 0.719548 0.702671 0.454316 -0.212878 -0.633644 -0.653236 -0.117731 0.210827 0.497704 0.331623 0.020369 0.004898 0.052143 -0.317568 -0.354067 -0.390421 -0.022184 0.026450 -0.154664 -0.155135 -0.166298 0.161332 0.286544 0.065308 -0.394701 -0.059031 0.150227 0.474163 0.380431 0.170274 -0.149587 -0.269416 -0.388973 -0.231879 -0.314283 -0.472406 -0.155012 0.128935 0.046917 -0.183986 -0.457683 0.261342 0.347797 -0.018052 -0.413890 -0.147079 0.029192 0.125455 -0.267582 -0.352135 -0.198463 0.008266 0.452072 0.575284 0.254470 -0.183700 0.199275 0.605438 0.542715 0.076251 -0.338240 -0.027713 0.481638 0.186129 -0.377232 -0.583529 -0.183068 0.109308 -0.184879 -0.304406 -0.038159 0.076990 -0.551079 -1.156629 -1.066000 -0.651251 -0.109306 -0.260783 0.113855 -0.137565 -0.313510 -0.525410 -0.778103 -0.580142 -0.095840 0.261894 -0.035524 -0.819944 -0.562651 0.253127 0.628080 -0.153009 -0.643279 -0.224588 0.224432 -0.041547 -0.835651 -0.271952 -0.087004 0.242418 0.457730 0.992029 1.176065 0.336855 -0.170983 -0.799778 -0.373916 0.103532 0.240406 -0.442510 -0.316371 0.065695 0.122336 -0.196492 0.027966 0.191240 0.545350 -0.286622 0.181163 -0.085464 -0.072646 0.297906 0.371596 1.031576 1.140415 0.213759 -0.368755 0.034607 0.674797 1.017743 2.612828 1.960651 1.411435 1.298824 1.135657 0.458274 -0.519093 -1.382500
0.072396 0.073180 0.075531 0.079448 0.084930 0.091975 0.100578 0.110737 0.122443 0.135690 0.150467 0.166760 0.184552 0.203823 0.224548 0.246694 0.270226 0.295099 0.321263 0.348657 0.377212 0.406850 0.437478 0.468996 0.501288 0.534226 0.567666 0.601451 0.635407 0.669345 0.703059 0.736326 0.768908 0.800548 0.830975 0.859903 0.887030 0.912042 0.934614 0.954411 0.971091 0.984308 0.993716 0.998971 0.999736 0.995685 0.986510 0.971924 0.951668 0.925517 0.893286 0.854837 0.810085 0.759008 0.701646 0.638118 0.568620 0.493431 0.412924 0.327562 0.237907 0.144618 0.048453 0.049734 0.148996 0.248297 0.346525 0.442493 0.534961 0.622644 0.704235 0.778420 0.843902 0.899428 0.943809 0.975955 0.994896 0.999817 0.990083 0.965270 0.925187 0.869907 0.799779 0.715450 0.617875 0.508322 0.388369 0.259897 0.125070 0.013690 0.153738 0.292254 0.426289 0.552834 0.668885 0.771520 0.857976 0.925736 0.972611 0.996819 0.997068 0.972620 0.923356 0.849818 0.753242 0.635567 0.499426 0.348114 0.185527 0.016087 0.155374 0.323731 0.483725 0.630125 0.757903 0.862426 0.939636 0.986231 0.999828 0.979108 0.923926 0.835388 0.715882 0.569060 0.399771 0.213933 0.018361 0.179471 0.371692 0.550351 0.707752 0.836797 0.931340 0.986504 0.998973 0.967229 0.891718 0.774927 0.621379 0.437513 0.231472 0.012777 0.208076 0.420108 0.612400 0.774669 0.897851 0.974640 0.999981 0.971454 0.889536 0.757711 0.582417 0.372800 0.140317 0.101859 0.339535 0.558338 0.744585 0.886171 0.973413 0.999777 0.962438 0.862633 0.705757 0.501179 0.261771 0.003180 0.257145 0.501113 0.711250 0.871982 0.970855 0.999577 0.954816 0.838646 0.658612 0.427369 0.161902 0.117644 0.389440 0.631667 0.824292 0.950789 0.999645 0.965528 0.849969 0.661501 0.415178 0.131505 0.165175 0.448718 0.693472 0.876639 0.980491 0.994192 0.915084 0.749225 0.511129 0.222648 0.088892 0.393209 0.659989 0.861926 0.977630 0.994013 0.907941 0.726906 0.468591 0.159327 0.168439 0.479488 0.739595 0.919356 0.997633 0.964223 0.821373 0.583924 0.278015 0.061633 0.395528 0.683966 0.891798 0.992832 0.973335 0.834110 0.590854 0.272648 0.081310 0.426409 0.718196 0.918181 0.999054 0.948636 0.771961 0.491120 0.142769 0.226449 0.566037 0.828556 0.976360 0.987210 0.857887 0.605206 0.264161 0.116662 0.481848 0.777177 0.957770 0.995114 0.881854 0.633515 0.286741 0.105813 0.483299 0.786053 0.965132 0.990456 0.856181 0.582311 0.212107 0.194431 0.570125 0.851694 0.990566 0.961544 0.767737 0.440776 0.036045 0.376417 0.723928 0.944018 0.995907 0.868430 0.582814 0.189620 0.239847 0.626270 0.896978 0.999796 0.913473 0.652516 0.265273 0.174598 0.581890 0.876325 0.998547 0.922475 0.661342 0.265952 0.184728 0.599081 0.891426 0.999944 0.900163 0.610980 0.191687 0.269725 0.674775 0.935542 0.993989 0.835380 0.492522 0.039557 0.423606 0.793162 0.984781 0.953239 0.703636 0.291366 0.189603 0.627820 0.920091 0.996074 0.835722 0.475180 0.000680 0.477752 0.839894 0.997326 0.909389 0.595674 0.132435 0.365359 0.772292 0.984136 0.945001 0.662731 0.208216 0.301745 0.734124 0.974347 0.957095 0.684733 0.228080 0.291320 0.733114 0.976102 0.951916 0.664961 0.192659 0.334684 0.769447 0.988083 0.926682 0.600445 0.100887 0.429108 0.835832 0.999441 0.869877 0.483022 0.048307 0.566555 0.915959 0.989615 0.762940 0.302735 0.251559 0.729589 0.982365 0.929222 0.584419
1.000000 1.000000 1.000000 1.000000 1.000000 1.000000 1.000000 1.000000 1.000000 1.000000 1.000000 1.000000 1.000000 1.000000 1.000000 1.000000 1.000000 1.000000 1.000000 1.000000 0.186520 0.186520 0.186520 0.186520 0.186520 0.186520 0.186520 0.186520 0.186520 0.186520 0.186520 0.186520 0.186520 0.186520 0.186520 0.186520 0.186520 0.186520 0.186520 0.186520 0.186520 0.186520 0.186520 0.186520 0.126299 0.126299 0.126299 0.126299 0.126299 0.126299 0.126299 0.126299 0.126299 0.126299 0.126299 0.126299 0.126299 0.126299 0.126299 0.126299 0.110487 0.136717 0.141285 0.124899 0.107686 0.107892 0.115759 0.099976 0.096174 0.145455 0.169840 0.177518 0.175854 0.176241 0.179536 0.175432 0.187445 0.210619 0.247591 0.288797 0.331592 0.337348 0.324748 0.318323 0.303714 0.314369 0.324148 0.312758 0.276984 0.284530 0.305647 0.318056 0.295826 0.257492 0.268617 0.317885 0.337886 0.331998 0.309074 0.306091 0.401122 0.378045 0.366034 0.378770 0.377406 0.340996 0.323282 0.284953 0.241165 0.258159 0.292337 0.303085 0.307357 0.339807 0.363517 0.307773 0.252478 0.205518 0.192471 0.193202 0.179537 0.164986 0.138958 0.143318 0.160697 0.133382 0.096088 0.075534 0.075428 0.076432 0.049193 0.031194 0.027040 0.041497 -0.033805 -0.083487 -0.104572 -0.087093 -0.113085 -0.110425 -0.104009 -0.136606 -0.100522 -0.038408 0.004729 -0.008083 -0.036963 -0.076452 -0.071289 -0.119019 -0.159808 -0.160547 -0.152161 -0.140225 -0.130142 -0.144958 -0.195362 -0.203107 -0.178506 -0.178442 -0.199540 -0.186041 -0.161206 -0.207412 -0.194989 -0.134954 -0.144436 -0.163579 -0.158984 -0.154539 -0.166136 -0.193996 -0.242224 -0.241074 -0.254346 -0.276884 -0.304939 -0.321965 -0.349106 -0.376432 -0.364838 -0.348368 -0.331474 -0.335160 -0.344462 -0.359931 -0.382816 -0.402757 -0.428218 -0.488536 -0.562247 -0.593169 -0.599753 -0.602934 -0.601054 -0.570869 -0.607879 -0.620138 -0.612190 -0.615996 -0.627602 -0.633554 -0.594572 -0.568766 -0.566977 -0.483321 -0.484369 -0.491352 -0.482255 -0.477555 -0.498991 -0.488095 -0.473687 -0.473034 -0.432058 -0.412786 -0.420152 -0.432008 -0.405736 -0.386222 -0.379284 -0.363449 -0.326064 -0.306361 -0.288360 -0.268996 -0.257790 -0.258032 -0.277375 -0.298792 -0.301515 -0.324241 -0.317771 -0.279261 -0.262661 -0.277470 -0.260708 -0.240894 -0.185744 -0.176963 -0.183579 -0.178022 -0.204873 -0.138618 -0.134082 -0.135433 -0.086599 -0.077677 -0.067422 -0.078038 -0.095170 -0.065315 -0.035497 -0.049846 -0.039612 -0.024440 -0.038591 -0.076513 -0.128176 -0.165908 -0.196705 -0.189755 -0.163711 -0.165467 -0.149905 -0.137885 -0.115031 -0.067850 -0.084062 -0.099897 -0.070922 -0.076466 -0.107453 -0.139362 -0.119996 -0.138509 -0.173442 -0.154123 -0.145056 -0.165500 -0.081895 -0.082104 -0.080406 -0.104003 -0.110241 -0.165779 -0.203210 -0.222483 -0.238654 -0.246184 -0.242509 -0.193284 -0.188058 -0.182606 -0.206509 -0.224468 -0.187594 -0.158211 -0.159570 -0.189652 -0.113542 -0.098529 -0.090501 -0.130640 -0.166185 -0.150245 -0.167796 -0.153662 -0.102227 -0.098881 -0.032403 -0.009390 -0.032305 -0.070827 -0.061798 -0.071124 -0.116918 -0.113182 -0.117391 -0.153885 -0.220590 -0.200984 -0.162402 -0.141016 -0.104467 -0.084664 -0.034578 -0.028434 -0.014908 0.010874 0.064317 0.095611 0.109814 0.082125 0.073045 0.101459 0.077898 0.077898 0.065409 0.065409 0.065409 0.065409 0.065409 0.065409 0.065409 0.065409 0.065409 0.065409 0.065409 0.065409 0.168147 0.168147 0.168147 0.168147 0.168147 0.007043 0.007043 0.007043 0.007043 0.007043 0.007043 0.007043 0.007043
0.000000 0.000000 0.000000 0.000000 535477078728937280.000000 389999320789462272.000000 437873981272846336.000000 247711897112119488.000000 761711564477537664.000000 418958258119746304.000000 483452036790084800.000000 786188342523716608.000000 612764572379777408.000000 679720432592691584.000000 486897906268447104.000000 627625021807312896.000000 389781342801307072.000000 779020076348715392.000000 1369527784646861056.000000 740885164875087872.000000 0.201008 0.201008 0.201008 0.201008 0.201008 0.201008 0.201008 0.201008 0.201008 0.201008 0.201008 0.201008 0.201008 0.201008 0.201008 0.201008 0.201008 0.201008 0.201008 0.201008 0.201008 0.201008 0.201008 0.201008 0.222222 0.222222 0.222222 0.222222 0.222222 0.222222 0.222222 0.222222 0.222222 0.222222 0.222222 0.222222 0.222222 0.222222 0.222222 0.222222 0.222222 0.222222 0.222222 0.222222 0.222222 0.222222 0.222222 0.222222 0.222222 0.222222 0.222222 0.222222 0.222222 0.222222 0.222222 0.222222 0.222222 0.251976 0.251976 0.251976 0.251976 0.251976 0.251976 0.251976 0.251976 0.251976 0.251976 0.251976 0.251976 0.251976 0.251976 0.251976 0.251976 0.251976 0.251976 0.251976 0.251976 0.251976 0.251976 0.251976 0.274721 0.274721 0.274721 0.274721 0.274721 0.274721 0.274721 0.274721 0.274721 0.274721 0.274721 0.274721 0.274721 0.274721 0.274721 0.274721 0.274721 0.274721 0.280056 0.280056 0.280056 0.280056 0.280056 0.280056 0.280056 0.280056 0.280056 0.280056 0.280056 0.280056 0.280056 0.280056 0.280056 0.280056 0.285714 0.285714 0.285714 0.285714 0.285714 0.285714 0.285714 0.285714 0.285714 0.285714 0.285714 0.285714 0.285714 0.285714 0.291730 0.291730 0.291730 0.291730 0.291730 0.291730 0.291730 0.291730 0.291730 0.291730 0.291730 0.291730 0.291730 0.291730 0.291730 0.291730 0.291730 0.291730 0.291730 0.291730 0.291730 0.291730 0.291730 0.291730 0.291730 0.285714 0.285714 0.285714 0.285714 0.285714 0.285714 0.285714 0.285714 0.285714 0.285714 0.285714 0.285714 0.298142 0.298142 0.298142 0.298142 0.298142 0.298142 0.298142 0.298142 0.298142 0.298142 0.291730 0.291730 0.291730 0.291730 0.291730 0.291730 0.291730 0.291730 0.291730 0.291730 0.285714 0.285714 0.285714 0.285714 0.285714 0.285714 0.285714 0.285714 0.285714 0.285714 0.291730 0.291730 0.291730 0.291730 0.291730 0.291730 0.291730 0.291730 0.291730 0.285714 0.285714 0.285714 0.285714 0.285714 0.285714 0.285714 0.285714 0.285714 0.298142 0.298142 0.298142 0.298142 0.298142 0.298142 0.298142 0.298142 0.291730 0.291730 0.291730 0.291730 0.291730 0.291730 0.291730 0.291730 0.285714 0.285714 0.285714 0.285714 0.285714 0.285714 0.285714 0.285714 0.280056 0.280056 0.280056 0.280056 0.280056 0.280056 0.280056 0.280056 0.291730 0.291730 0.291730 0.291730 0.291730 0.291730 0.291730 0.269680 0.269680 0.269680 0.269680 0.269680 0.269680 0.269680 0.269680 0.285714 0.285714 0.285714 0.285714 0.285714 0.285714 0.285714 0.280056 0.280056 0.280056 0.280056 0.280056 0.280056 0.280056 0.291730 0.291730 0.291730 0.291730 0.291730 0.291730 0.269680 0.269680 0.269680 0.269680 0.269680 0.269680 0.269680 0.285714 0.285714 0.285714 0.285714 0.285714 0.285714 0.264906 0.264906 0.264906 0.264906 0.264906 0.264906 0.264906 0.280056 0.280056 0.280056 0.280056 0.280056 0.280056 0.274721 0.274721 0.274721 0.274721 0.274721 0.274721 0.269680 0.269680 0.269680 0.269680 0.269680 0.269680 0.264906 0.264906 0.264906 0.264906 0.264906 0.264906 0.264906 0.264906 0.264906 0.264906 0.264906 0.264906 0.280056 0.280056 0.280056 0.280056 0.280056 0.256074 0.256074 0.256074 0.256074 0.256074 0.256074 0.256074 0.256074
