# Output from CTFFind version 4.1.9, run on 2019-11-24 12:06:05
# Input file: stack1_ubbm3d_averaged_1_3.0_0_0_half.mrc ; Number of micrographs: 1
# Pixel size: 1.500 Angstroms ; acceleration voltage: 300.0 keV ; spherical aberration: 0.00 mm ; amplitude contrast: 0.07
# Box size: 512 pixels ; min. res.: 40.0 Angstroms ; max. res.: 6.0 Angstroms ; min. def.: 5000.0 um; max. def. 50000.0 um; num. frames averaged: 1
# 6 lines per micrograph: #1 - spatial frequency (1/Angstroms); #2 - 1D rotational average of spectrum (assuming no astigmatism); #3 - 1D rotational average of spectrum; #4 - CTF fit; #5 - cross-correlation between spectrum and CTF fit; #6 - 2sigma of expected cross correlation of noise
0.000000 0.001302 0.002604 0.003906 0.005208 0.006510 0.007812 0.009115 0.010417 0.011719 0.013021 0.014323 0.015625 0.016927 0.018229 0.019531 0.020833 0.022135 0.023438 0.024740 0.026042 0.027344 0.028646 0.029948 0.031250 0.032552 0.033854 0.035156 0.036458 0.037760 0.039062 0.040365 0.041667 0.042969 0.044271 0.045573 0.046875 0.048177 0.049479 0.050781 0.052083 0.053385 0.054688 0.055990 0.057292 0.058594 0.059896 0.061198 0.062500 0.063802 0.065104 0.066406 0.067708 0.069010 0.070312 0.071615 0.072917 0.074219 0.075521 0.076823 0.078125 0.079427 0.080729 0.082031 0.083333 0.084635 0.085938 0.087240 0.088542 0.089844 0.091146 0.092448 0.093750 0.095052 0.096354 0.097656 0.098958 0.100260 0.101562 0.102865 0.104167 0.105469 0.106771 0.108073 0.109375 0.110677 0.111979 0.113281 0.114583 0.115885 0.117188 0.118490 0.119792 0.121094 0.122396 0.123698 0.125000 0.126302 0.127604 0.128906 0.130208 0.131510 0.132812 0.134115 0.135417 0.136719 0.138021 0.139323 0.140625 0.141927 0.143229 0.144531 0.145833 0.147135 0.148438 0.149740 0.151042 0.152344 0.153646 0.154948 0.156250 0.157552 0.158854 0.160156 0.161458 0.162760 0.164062 0.165365 0.166667 0.167969 0.169271 0.170573 0.171875 0.173177 0.174479 0.175781 0.177083 0.178385 0.179688 0.180990 0.182292 0.183594 0.184896 0.186198 0.187500 0.188802 0.190104 0.191406 0.192708 0.194010 0.195312 0.196615 0.197917 0.199219 0.200521 0.201823 0.203125 0.204427 0.205729 0.207031 0.208333 0.209635 0.210938 0.212240 0.213542 0.214844 0.216146 0.217448 0.218750 0.220052 0.221354 0.222656 0.223958 0.225260 0.226562 0.227865 0.229167 0.230469 0.231771 0.233073 0.234375 0.235677 0.236979 0.238281 0.239583 0.240885 0.242188 0.243490 0.244792 0.246094 0.247396 0.248698 0.250000 0.251302 0.252604 0.253906 0.255208 0.256510 0.257812 0.259115 0.260417 0.261719 0.263021 0.264323 0.265625 0.266927 0.268229 0.269531 0.270833 0.272135 0.273438 0.274740 0.276042 0.277344 0.278646 0.279948 0.281250 0.282552 0.283854 0.285156 0.286458 0.287760 0.289062 0.290365 0.291667 0.292969 0.294271 0.295573 0.296875 0.298177 0.299479 0.300781 0.302083 0.303385 0.304688 0.305990 0.307292 0.308594 0.309896 0.311198 0.312500 0.313802 0.315104 0.316406 0.317708 0.319010 0.320312 0.321615 0.322917 0.324219 0.325521 0.326823 0.328125 0.329427 0.330729 0.332031 0.333333 0.334635 0.335938 0.337240 0.338542 0.339844 0.341146 0.342448 0.343750 0.345052 0.346354 0.347656 0.348958 0.350260 0.351562 0.352865 0.354167 0.355469 0.356771 0.358073 0.359375 0.360677 0.361979 0.363281 0.364583 0.365885 0.367188 0.368490 0.369792 0.371094 0.372396 0.373698 0.375000 0.376302 0.377604 0.378906 0.380208 0.381510 0.382812 0.384115 0.385417 0.386719 0.388021 0.389323 0.390625 0.391927 0.393229 0.394531 0.395833 0.397135 0.398438 0.399740 0.401042 0.402344 0.403646 0.404948 0.406250 0.407552 0.408854 0.410156 0.411458 0.412760 0.414062 0.415365 0.416667 0.417969 0.419271 0.420573 0.421875 0.423177 0.424479 0.425781 0.427083 0.428385 0.429688 0.430990 0.432292 0.433594 0.434896 0.436198 0.437500 0.438802 0.440104 0.441406 0.442708 0.444010 0.445312 0.446615 0.447917 0.449219 0.450521 0.451823 0.453125 0.454427 0.455729 0.457031 0.458333 0.459635 0.460938 0.462240 0.463542 0.464844 0.466146 0.467448 0.468750 0.470052 0.471354
       0.43832        0.44105        0.44333        0.44415        0.44449        0.44479        0.44490        0.44503        0.44511        0.44517        0.44523        0.44526        0.44531        0.44533        0.44536        0.44538        0.44540        0.44542        0.44543        0.65122        0.79877        0.57895        0.35927        0.32006        0.44302        0.43344        0.21641        0.07368        0.26700        0.67253        0.88435        0.71185        0.39382        0.27521        0.39701        0.48851        0.40711        0.27935        0.25995        0.36470        0.49884        0.49224        0.38942        0.28547        0.39130        0.57127        0.61639        0.51960        0.40348        0.44255        0.52991        0.56065        0.44192        0.33547        0.35035        0.52989        0.67144        0.61680        0.42904        0.27417        0.28717        0.40772        0.46765        0.43871        0.37150        0.40415        0.48382        0.48543        0.42710        0.46805        0.61283        0.64645        0.48493        0.31503        0.31486        0.37573        0.40100        0.40324        0.45890        0.46359        0.43646        0.44507        0.45255        0.34247        0.23873        0.27132        0.44466        0.50865        0.40516        0.33302        0.44472        0.64228        0.71523        0.58774        0.43260        0.42026        0.51107        0.53695        0.44102        0.37449        0.39689        0.42380        0.39054        0.31893        0.31015        0.31163        0.32320        0.39522        0.48390        0.55231        0.54455        0.49704        0.45118        0.41696        0.41815        0.47039        0.49561        0.45398        0.38089        0.38886        0.48092        0.56021        0.54742        0.44180        0.36772        0.37241        0.43425        0.48258        0.49391        0.46382        0.39383        0.30983        0.29150        0.36914        0.48115        0.53021        0.51329        0.51561        0.55388        0.55837        0.46804        0.35392        0.33762        0.43050        0.50833        0.48732        0.40672        0.38159        0.44178        0.51670        0.52353        0.46032        0.40292        0.39699        0.42429        0.43130        0.41676        0.42324        0.48008        0.52339        0.47416        0.38482        0.35542        0.41490        0.45995        0.45248        0.44245        0.50419        0.54436        0.51452        0.47573        0.47569        0.46738        0.39449        0.31385        0.33264        0.40428        0.44006        0.42371        0.39379        0.39707        0.40478        0.41598        0.41824        0.43930        0.49505        0.53437        0.51866        0.45089        0.39757        0.42253        0.47295        0.49889        0.48519        0.48232        0.49772        0.50257        0.48235        0.49305        0.53384        0.55634        0.49932        0.39298        0.33318        0.34554        0.37986        0.38693        0.35969        0.36981        0.42137        0.48425        0.49089        0.46297        0.43566        0.47297        0.54671        0.58255        0.53482        0.42884        0.36148        0.37946        0.43366        0.45635        0.43893        0.42585        0.42961        0.41784        0.40312        0.40387        0.42101        0.42091        0.42997        0.43941        0.43483        0.42128        0.44710        0.52177        0.57460        0.54979        0.47096        0.41895        0.41953        0.44329        0.46557        0.47129        0.46017        0.43312        0.41530        0.41249        0.43032        0.44706        0.46338        0.46469        0.45425        0.44187        0.43029        0.45284        0.45992        0.41362        0.34120        0.32236        0.39914        0.47688        0.48009        0.44074        0.42061        0.44251        0.46762        0.45266        0.43757        0.45403        0.50488        0.52254        0.47609        0.39577        0.38990        0.45802        0.46750        0.39545        0.35213        0.37809        0.41700        0.45725        0.48164        0.48817        0.44691        0.39763        0.37834        0.39435        0.43691        0.49105        0.54901        0.54527        0.46819        0.39249        0.36457        0.41687        0.49974        0.52709        0.47481        0.42936        0.48610        0.53978        0.49071        0.40653        0.38379        0.39092        0.35146        0.38363        0.46076        0.46211        0.34125        0.28146        0.35996        0.48198        0.51982        0.46094        0.43283        0.46635        0.53432        0.55474        0.49834        0.40691        0.35247        0.38747        0.41798        0.45746        0.47786        0.42524        0.32051        0.30954        0.42166        0.49993        0.52144        0.48855        0.43335        0.42087        0.47942        0.53389        0.49059        0.40740        0.41292        0.40820        0.40518        0.37613        0.41658        0.44306        0.45651        0.43508        0.42874        0.40959        0.41631        0.39050        0.36665        0.43276        0.56448        0.59980        0.43538        0.16213       -0.07811       -0.23720       -0.29984       -0.32141
0.119892 0.149631 0.169750 0.187299 0.205800 0.220052 0.235794 0.250105 0.264664 0.279222 0.292512 0.306383 0.319492 0.332848 0.345606 0.358080 0.370729 0.382820 0.394690 1.271057 1.675079 1.075007 -0.129601 0.080442 0.556156 0.462034 -0.449714 -1.009359 -0.221434 1.411654 2.325731 1.537952 0.292787 -0.018556 0.089382 0.918685 0.479380 -0.116392 -0.202015 0.317906 0.681180 1.076175 0.443632 -0.013448 0.286280 1.011292 1.642252 0.790704 0.541280 0.514613 1.035220 1.057056 0.702703 0.297582 0.204992 0.940037 1.414818 1.565392 0.676574 0.043932 0.172984 0.430455 0.801210 0.700867 0.365251 0.529261 0.836590 0.974460 0.520025 0.701704 1.266110 1.540664 1.206845 0.262815 0.134838 0.473598 0.457414 0.600270 0.789601 0.675204 0.736220 0.739897 0.694346 0.387698 -0.077851 -0.225811 0.618047 1.059838 0.657248 0.158579 0.432277 1.267782 1.744707 1.375403 0.518074 0.574317 0.925534 0.989754 0.534293 0.324874 0.406303 0.653108 0.686901 -0.028892 0.038210 0.027111 0.039258 0.360824 0.582278 0.861444 0.969112 0.708179 0.489062 0.401164 0.259342 0.517319 0.710956 0.550580 0.153004 0.155683 0.439946 0.739984 0.892262 0.510864 0.165367 0.086073 0.183292 0.540948 0.513150 0.396035 0.121185 -0.185371 -0.377128 -0.249435 0.220775 0.577893 0.531091 0.417583 0.471501 0.447800 0.406359 -0.225586 -0.377638 -0.174486 0.288868 0.274168 -0.017551 -0.251864 -0.091427 0.183118 0.326439 0.151385 -0.004575 -0.260759 -0.197088 -0.078584 -0.105925 -0.169638 -0.003011 0.210367 0.182647 -0.238369 -0.355530 -0.238987 -0.089297 -0.065487 -0.307007 -0.102919 0.159171 0.236879 0.089035 -0.129848 -0.080162 -0.142285 -0.516701 -0.618082 -0.363026 -0.164774 -0.158352 -0.314269 -0.392868 -0.267482 -0.271885 -0.321810 -0.227897 -0.061412 0.062754 0.290628 0.057784 -0.183341 -0.366451 -0.147400 -0.033967 0.155622 0.141540 0.185426 0.084142 0.126738 0.071653 0.280865 0.467204 0.331813 0.001661 -0.440782 -0.427039 -0.328067 -0.174432 -0.243509 -0.396659 -0.181506 0.048493 0.295938 0.254293 0.167065 0.062756 0.284693 0.608873 0.695760 0.366195 -0.132833 -0.286608 -0.047883 -0.007523 0.106524 -0.008062 -0.026248 -0.162753 -0.211128 -0.258603 -0.188976 -0.140270 -0.210696 -0.131085 -0.132815 -0.239306 -0.226180 -0.042751 0.192942 0.231314 0.187702 -0.084253 -0.286465 -0.245381 -0.122144 -0.093698 -0.060170 -0.131961 -0.220924 -0.278904 -0.125915 -0.023215 -0.078281 0.053319 0.013026 -0.038954 -0.079594 -0.031459 0.052862 0.024451 -0.164888 -0.502298 -0.379298 -0.072506 0.271333 0.084666 -0.004998 -0.064708 0.066094 0.135238 0.093721 0.000938 0.068598 0.354508 0.344647 0.067804 -0.249619 -0.142558 0.096327 -0.079165 -0.379270 -0.456700 -0.278608 -0.043178 0.082566 0.197825 0.178912 -0.116818 -0.240913 -0.313934 -0.228352 -0.029018 0.082057 0.490083 0.266781 0.030591 -0.375333 -0.396189 -0.233577 0.172334 0.158851 0.027889 -0.102808 0.168850 0.303988 0.060603 -0.285819 -0.435515 -0.343770 -0.596283 -0.257662 -0.114325 -0.198313 -0.833376 -0.885568 -0.537534 -0.011406 -0.023802 -0.170598 -0.118768 -0.105259 0.250244 0.273667 -0.001866 -0.381571 -0.511252 -0.438763 -0.053696 -0.181588 0.104084 0.046774 -0.734128 -0.217897 -0.193166 0.467090 0.378296 0.292216 0.202037 0.011512 0.429238 0.596378 0.392023 0.228478 -0.054544 0.344868 -0.069668 -0.040716 0.217869 0.091074 0.073578 0.074167 -0.041405 -0.046520 -0.320785 -0.344704 -0.381925 1.403496 2.199127 2.328256 1.847543 0.736081 -0.352457 -0.903772 -1.228627
0.072396 0.073282 0.075938 0.080365 0.086559 0.094518 0.104238 0.115712 0.128931 0.143886 0.160561 0.178938 0.198994 0.220699 0.244018 0.268908 0.295316 0.323182 0.352433 0.382985 0.414741 0.447587 0.481398 0.516030 0.551320 0.587088 0.623135 0.659241 0.695164 0.730643 0.765395 0.799116 0.831480 0.862144 0.890745 0.916905 0.940229 0.960314 0.976747 0.989113 0.996995 0.999984 0.997683 0.989712 0.975718 0.955379 0.928419 0.894607 0.853774 0.805818 0.750715 0.688527 0.619411 0.543628 0.461546 0.373655 0.280561 0.182998 0.081824 0.021978 0.127305 0.232939 0.337559 0.439751 0.538029 0.630850 0.716642 0.793829 0.860861 0.916249 0.958600 0.986657 0.999332 0.995753 0.975297 0.937630 0.882740 0.810965 0.723017 0.620001 0.503421 0.375176 0.237550 0.093188 0.054944 0.203609 0.349362 0.488625 0.617777 0.733249 0.831632 0.909785 0.964954 0.994879 0.997901 0.973061 0.920184 0.839937 0.733874 0.604448 0.454991 0.289663 0.113367 0.068375 0.249577 0.423979 0.585260 0.727276 0.844303 0.931297 0.984135 0.999840 0.976783 0.914833 0.815457 0.681761 0.518453 0.331731 0.129098 0.080907 0.289043 0.485761 0.661650 0.807898 0.916767 0.982047 0.999452 0.966959 0.885041 0.756776 0.587832 0.386293 0.162344 0.072189 0.304437 0.521168 0.709554 0.857961 0.956712 0.998783 0.980380 0.901340 0.765328 0.579792 0.355657 0.106783 0.150843 0.400078 0.623773 0.805960 0.933052 0.994934 0.985861 0.905093 0.757178 0.551859 0.303560 0.030479 0.246664 0.506164 0.727040 0.890775 0.982950 0.994631 0.923363 0.773661 0.556920 0.290710 0.002509 0.297205 0.566946 0.786796 0.935681 0.998529 0.967945 0.845235 0.640631 0.372644 0.066569 0.247788 0.538948 0.776917 0.936354 0.999402 0.957868 0.814469 0.582961 0.287050 0.041840 0.367787 0.654241 0.868170 0.983988 0.986796 0.874524 0.658649 0.363308 0.022834 0.322080 0.629148 0.859745 0.983854 0.984214 0.858961 0.622413 0.303755 0.056302 0.410568 0.711473 0.917556 0.999322 0.943749 0.756644 0.462461 0.101421 0.275736 0.614762 0.865718 0.990502 0.968883 0.802125 0.513483 0.145340 0.246726 0.602185 0.864896 0.992152 0.961908 0.776985 0.465365 0.076383 0.326793 0.677273 0.915588 1.000000 0.914172 0.670745 0.309999 0.106405 0.505688 0.816620 0.982353 0.971157 0.782928 0.450125 0.032668 0.392484 0.745385 0.958209 0.988589 0.828531 0.506904 0.084828 0.355557 0.726848 0.953822 0.988967 0.822944 0.487529 0.050141 0.399258 0.766487 0.972974 0.972938 0.764100 0.389322 0.071570 0.518360 0.852114 0.997268 0.919223 0.633211 0.202108 0.276784 0.693386 0.950141 0.985213 0.788002 0.402935 0.079808 0.544912 0.879330 0.999994 0.875023 0.532871 0.056688 0.435257 0.818700 0.994898 0.916594 0.601458 0.129041 0.378614 0.788137 0.989968 0.928193 0.616843 0.137705 0.380387 0.795809 0.992982 0.915058 0.581190 0.082857 0.440412 0.839766 0.999508 0.871295 0.489673 0.036167 0.552901 0.907497 0.992843 0.780886 0.332838 0.217484 0.702968 0.973864 0.944493 0.621296 0.102785 0.449530 0.860991 0.999233 0.817516 0.371640 0.196034 0.701264 0.977615 0.931811 0.576289 0.027209 0.532478 0.913595 0.984980 0.719574 0.205859 0.380444 0.835846 0.999799 0.812131 0.336377 0.260395 0.765429 0.996039 0.866426 0.420864 0.179996 0.716058 0.988208 0.892928 0.462953 0.142449 0.695398 0.984899 0.898007 0.465196 0.148731 0.706261 0.988786 0.883006 0.427734 0.198705
1.000000 1.000000 1.000000 1.000000 1.000000 1.000000 1.000000 1.000000 1.000000 1.000000 1.000000 1.000000 1.000000 1.000000 1.000000 1.000000 1.000000 1.000000 1.000000 1.000000 0.209716 0.209716 0.209716 0.209716 0.209716 0.209716 0.209716 0.209716 0.209716 0.209716 0.209716 0.209716 0.209716 0.209716 0.209716 0.209716 0.209716 0.209716 0.209716 0.209716 0.209716 0.209716 0.152120 0.152120 0.152120 0.152120 0.152120 0.152120 0.152120 0.152120 0.152120 0.152120 0.152120 0.152120 0.152120 0.152120 0.152120 0.152120 0.144046 0.160431 0.162113 0.157869 0.161000 0.142804 0.111363 0.155009 0.164462 0.177747 0.176792 0.174856 0.179163 0.196124 0.219724 0.329885 0.285507 0.316384 0.320158 0.331422 0.338474 0.336423 0.342453 0.356402 0.373889 0.382876 0.387616 0.404811 0.431975 0.445813 0.386063 0.329485 0.358826 0.406933 0.417243 0.405544 0.417365 0.423487 0.401415 0.383952 0.367630 0.375921 0.418109 0.432181 0.458848 0.467975 0.470006 0.470484 0.488498 0.540482 0.588680 0.592817 0.548192 0.533854 0.545828 0.537586 0.546672 0.566664 0.569139 0.520119 0.473054 0.491728 0.470314 0.418142 0.409258 0.418390 0.424765 0.424553 0.456488 0.505935 0.449562 0.390856 0.361172 0.365247 0.376201 0.393904 0.374686 0.338011 0.322457 0.290702 0.244376 0.226704 0.290667 0.219338 0.176716 0.174270 0.197216 0.201942 0.136016 0.116955 0.114522 0.091192 0.058772 0.070879 0.061544 0.029835 -0.050262 -0.099037 -0.149811 -0.184514 -0.193982 -0.190588 -0.200353 -0.236921 -0.311486 -0.325136 -0.312373 -0.331700 -0.338485 -0.307192 -0.275522 -0.291908 -0.339294 -0.349172 -0.370267 -0.414359 -0.410938 -0.357759 -0.298760 -0.291429 -0.252162 -0.213425 -0.247852 -0.260162 -0.240599 -0.224227 -0.184134 -0.146858 -0.138526 -0.148946 -0.160436 -0.189494 -0.138924 -0.097904 -0.078596 -0.024414 -0.029249 -0.008494 -0.009537 -0.008365 -0.004594 -0.004127 0.020732 0.071868 0.074018 0.104519 0.095640 0.076669 0.051907 0.011545 0.017982 0.021683 0.005271 0.109369 0.092528 0.062130 0.069216 0.075877 0.039350 -0.030696 -0.060831 -0.092644 -0.142901 -0.166446 -0.181661 -0.271054 -0.334676 -0.356767 -0.363209 -0.409350 -0.443861 -0.453087 -0.435804 -0.412134 -0.449219 -0.456990 -0.383955 -0.356136 -0.319240 -0.321094 -0.356654 -0.384288 -0.404644 -0.381259 -0.476715 -0.445960 -0.368165 -0.380468 -0.371071 -0.382184 -0.397295 -0.419307 -0.443824 -0.436322 -0.441966 -0.434745 -0.394486 -0.407839 -0.335061 -0.357794 -0.346079 -0.312333 -0.299202 -0.328656 -0.303146 -0.281023 -0.297249 -0.306593 -0.284933 -0.265890 -0.290441 -0.274240 -0.231652 -0.198824 -0.167167 -0.198112 -0.194219 -0.124704 -0.127864 -0.108363 -0.118664 -0.144736 -0.220190 -0.249248 -0.186807 -0.211307 -0.227691 -0.267601 -0.267495 -0.257447 -0.307381 -0.307089 -0.317102 -0.408210 -0.397196 -0.416834 -0.424539 -0.441913 -0.435023 -0.407847 -0.392397 -0.380030 -0.358457 -0.370084 -0.376779 -0.357102 -0.331455 -0.366846 -0.367896 -0.392608 -0.348710 -0.346319 -0.337209 -0.278630 -0.219154 -0.181209 -0.184731 -0.138243 -0.108934 -0.119007 -0.088286 -0.097420 -0.103980 -0.122420 -0.162772 -0.130518 -0.066308 -0.071512 -0.111152 -0.111973 -0.132753 -0.055121 -0.072266 -0.067517 -0.091712 -0.092008 -0.124318 -0.132514 -0.094686 -0.043106 -0.032968 -0.111352 -0.111352 -0.111352 -0.111352 -0.111352 -0.111352 -0.044709 -0.044709 -0.044709 -0.044709 -0.044709 -0.044709 -0.044709 -0.044709 -0.044709 -0.044709 -0.065336 -0.065336 -0.065336 -0.065336 -0.065336 -0.065336 -0.065336 -0.065336
0.000000 0.000000 0.000000 0.000000 401365247517903872.000000 898676628369996416.000000 810394640750568832.000000 1077078437338802816.000000 770783634758588544.000000 327025342185359680.000000 641658088879465728.000000 797569387360487680.000000 589978293589747840.000000 728910933509672576.000000 470928599376496960.000000 656285991456688768.000000 902500729850056832.000000 494457048747615104.000000 833398073188038144.000000 382081462841378112.000000 0.205196 0.205196 0.205196 0.205196 0.205196 0.205196 0.205196 0.205196 0.205196 0.205196 0.205196 0.205196 0.205196 0.205196 0.205196 0.205196 0.205196 0.205196 0.205196 0.205196 0.205196 0.205196 0.227921 0.227921 0.227921 0.227921 0.227921 0.227921 0.227921 0.227921 0.227921 0.227921 0.227921 0.227921 0.227921 0.227921 0.227921 0.227921 0.227921 0.227921 0.227921 0.227921 0.227921 0.227921 0.227921 0.227921 0.227921 0.227921 0.227921 0.227921 0.227921 0.227921 0.227921 0.264906 0.264906 0.264906 0.264906 0.264906 0.264906 0.264906 0.264906 0.264906 0.264906 0.264906 0.264906 0.264906 0.264906 0.264906 0.264906 0.264906 0.264906 0.264906 0.264906 0.264906 0.280056 0.280056 0.280056 0.280056 0.280056 0.280056 0.280056 0.280056 0.280056 0.280056 0.280056 0.280056 0.280056 0.280056 0.280056 0.280056 0.280056 0.285714 0.285714 0.285714 0.285714 0.285714 0.285714 0.285714 0.285714 0.285714 0.285714 0.285714 0.285714 0.285714 0.285714 0.285714 0.285714 0.285714 0.285714 0.285714 0.285714 0.285714 0.285714 0.285714 0.285714 0.285714 0.285714 0.285714 0.285714 0.285714 0.298142 0.298142 0.298142 0.298142 0.298142 0.298142 0.298142 0.298142 0.298142 0.298142 0.298142 0.298142 0.304997 0.304997 0.304997 0.304997 0.304997 0.304997 0.304997 0.304997 0.304997 0.304997 0.304997 0.298142 0.298142 0.298142 0.298142 0.298142 0.298142 0.298142 0.298142 0.298142 0.298142 0.298142 0.298142 0.298142 0.298142 0.298142 0.298142 0.298142 0.298142 0.298142 0.298142 0.298142 0.304997 0.304997 0.304997 0.304997 0.304997 0.304997 0.304997 0.304997 0.304997 0.298142 0.298142 0.298142 0.298142 0.298142 0.298142 0.298142 0.298142 0.298142 0.291730 0.291730 0.291730 0.291730 0.291730 0.291730 0.291730 0.291730 0.291730 0.304997 0.304997 0.304997 0.304997 0.304997 0.304997 0.304997 0.304997 0.298142 0.298142 0.298142 0.298142 0.298142 0.298142 0.298142 0.298142 0.312348 0.312348 0.312348 0.312348 0.312348 0.312348 0.312348 0.285714 0.285714 0.285714 0.285714 0.285714 0.285714 0.285714 0.285714 0.298142 0.298142 0.298142 0.298142 0.298142 0.298142 0.298142 0.291730 0.291730 0.291730 0.291730 0.291730 0.291730 0.291730 0.285714 0.285714 0.285714 0.285714 0.285714 0.285714 0.285714 0.285714 0.285714 0.285714 0.285714 0.285714 0.285714 0.285714 0.298142 0.298142 0.298142 0.298142 0.298142 0.298142 0.291730 0.291730 0.291730 0.291730 0.291730 0.291730 0.269680 0.269680 0.269680 0.269680 0.269680 0.269680 0.269680 0.285714 0.285714 0.285714 0.285714 0.285714 0.285714 0.280056 0.280056 0.280056 0.280056 0.280056 0.280056 0.280056 0.280056 0.280056 0.280056 0.280056 0.280056 0.298142 0.298142 0.298142 0.298142 0.298142 0.269680 0.269680 0.269680 0.269680 0.269680 0.269680 0.285714 0.285714 0.285714 0.285714 0.285714 0.264906 0.264906 0.264906 0.264906 0.264906 0.264906 0.280056 0.280056 0.280056 0.280056 0.280056 0.280056 0.280056 0.280056 0.280056 0.280056 0.256074 0.256074 0.256074 0.256074 0.256074 0.256074 0.269680 0.269680 0.269680 0.269680 0.269680 0.269680 0.269680 0.269680 0.269680 0.269680 0.264906 0.264906 0.264906 0.264906 0.264906 0.264906 0.264906 0.264906
