# Output from CTFFind version 4.1.9, run on 2019-11-24 11:56:28
# Input file: stack1_bm3d_averaged_1_0.0_0_2000_half.mrc ; Number of micrographs: 1
# Pixel size: 1.500 Angstroms ; acceleration voltage: 300.0 keV ; spherical aberration: 0.00 mm ; amplitude contrast: 0.07
# Box size: 512 pixels ; min. res.: 40.0 Angstroms ; max. res.: 6.0 Angstroms ; min. def.: 5000.0 um; max. def. 50000.0 um; num. frames averaged: 1
# 6 lines per micrograph: #1 - spatial frequency (1/Angstroms); #2 - 1D rotational average of spectrum (assuming no astigmatism); #3 - 1D rotational average of spectrum; #4 - CTF fit; #5 - cross-correlation between spectrum and CTF fit; #6 - 2sigma of expected cross correlation of noise
0.000000 0.001302 0.002604 0.003906 0.005208 0.006510 0.007812 0.009115 0.010417 0.011719 0.013021 0.014323 0.015625 0.016927 0.018229 0.019531 0.020833 0.022135 0.023438 0.024740 0.026042 0.027344 0.028646 0.029948 0.031250 0.032552 0.033854 0.035156 0.036458 0.037760 0.039062 0.040365 0.041667 0.042969 0.044271 0.045573 0.046875 0.048177 0.049479 0.050781 0.052083 0.053385 0.054688 0.055990 0.057292 0.058594 0.059896 0.061198 0.062500 0.063802 0.065104 0.066406 0.067708 0.069010 0.070312 0.071615 0.072917 0.074219 0.075521 0.076823 0.078125 0.079427 0.080729 0.082031 0.083333 0.084635 0.085938 0.087240 0.088542 0.089844 0.091146 0.092448 0.093750 0.095052 0.096354 0.097656 0.098958 0.100260 0.101562 0.102865 0.104167 0.105469 0.106771 0.108073 0.109375 0.110677 0.111979 0.113281 0.114583 0.115885 0.117188 0.118490 0.119792 0.121094 0.122396 0.123698 0.125000 0.126302 0.127604 0.128906 0.130208 0.131510 0.132812 0.134115 0.135417 0.136719 0.138021 0.139323 0.140625 0.141927 0.143229 0.144531 0.145833 0.147135 0.148438 0.149740 0.151042 0.152344 0.153646 0.154948 0.156250 0.157552 0.158854 0.160156 0.161458 0.162760 0.164062 0.165365 0.166667 0.167969 0.169271 0.170573 0.171875 0.173177 0.174479 0.175781 0.177083 0.178385 0.179688 0.180990 0.182292 0.183594 0.184896 0.186198 0.187500 0.188802 0.190104 0.191406 0.192708 0.194010 0.195312 0.196615 0.197917 0.199219 0.200521 0.201823 0.203125 0.204427 0.205729 0.207031 0.208333 0.209635 0.210938 0.212240 0.213542 0.214844 0.216146 0.217448 0.218750 0.220052 0.221354 0.222656 0.223958 0.225260 0.226562 0.227865 0.229167 0.230469 0.231771 0.233073 0.234375 0.235677 0.236979 0.238281 0.239583 0.240885 0.242188 0.243490 0.244792 0.246094 0.247396 0.248698 0.250000 0.251302 0.252604 0.253906 0.255208 0.256510 0.257812 0.259115 0.260417 0.261719 0.263021 0.264323 0.265625 0.266927 0.268229 0.269531 0.270833 0.272135 0.273438 0.274740 0.276042 0.277344 0.278646 0.279948 0.281250 0.282552 0.283854 0.285156 0.286458 0.287760 0.289062 0.290365 0.291667 0.292969 0.294271 0.295573 0.296875 0.298177 0.299479 0.300781 0.302083 0.303385 0.304688 0.305990 0.307292 0.308594 0.309896 0.311198 0.312500 0.313802 0.315104 0.316406 0.317708 0.319010 0.320312 0.321615 0.322917 0.324219 0.325521 0.326823 0.328125 0.329427 0.330729 0.332031 0.333333 0.334635 0.335938 0.337240 0.338542 0.339844 0.341146 0.342448 0.343750 0.345052 0.346354 0.347656 0.348958 0.350260 0.351562 0.352865 0.354167 0.355469 0.356771 0.358073 0.359375 0.360677 0.361979 0.363281 0.364583 0.365885 0.367188 0.368490 0.369792 0.371094 0.372396 0.373698 0.375000 0.376302 0.377604 0.378906 0.380208 0.381510 0.382812 0.384115 0.385417 0.386719 0.388021 0.389323 0.390625 0.391927 0.393229 0.394531 0.395833 0.397135 0.398438 0.399740 0.401042 0.402344 0.403646 0.404948 0.406250 0.407552 0.408854 0.410156 0.411458 0.412760 0.414062 0.415365 0.416667 0.417969 0.419271 0.420573 0.421875 0.423177 0.424479 0.425781 0.427083 0.428385 0.429688 0.430990 0.432292 0.433594 0.434896 0.436198 0.437500 0.438802 0.440104 0.441406 0.442708 0.444010 0.445312 0.446615 0.447917 0.449219 0.450521 0.451823 0.453125 0.454427 0.455729 0.457031 0.458333 0.459635 0.460938 0.462240 0.463542 0.464844 0.466146 0.467448 0.468750 0.470052 0.471354
       0.63605        0.63605        0.63605        0.63605        0.63605        0.63605        0.63605        0.63605        0.63605        0.63605        0.63605        0.63605        0.63605        0.63605        0.63605        0.63605        0.63605        0.63605        0.63605        1.49974        2.27140        1.12267        0.30801        0.12522        0.66738        1.28183        1.17301        0.63378        0.35691        0.39419        0.41908        0.34085        0.33391        0.38466        0.31504        0.24441        0.16884        0.10676        0.03126        0.00783        0.02499        0.12143        0.36304        0.62674        0.76776        0.76304        0.74886        0.83496        1.00027        1.11186        1.00449        0.67708        0.41055        0.41129        0.55299        0.54282        0.40543        0.35532        0.45356        0.56550        0.65627        0.71569        0.79424        0.82873        0.81448        0.75665        0.67437        0.62231        0.57648        0.56478        0.60699        0.70564        0.75327        0.64964        0.53562        0.53984        0.60257        0.60350        0.56195        0.58833        0.68302        0.68825        0.61992        0.53669        0.56813        0.63405        0.68931        0.68452        0.62892        0.53902        0.47651        0.52777        0.62953        0.68656        0.64187        0.61255        0.68518        0.78592        0.78381        0.69108        0.63150        0.63257        0.65801        0.66397        0.65418        0.64281        0.60614        0.57718        0.53317        0.48392        0.48725        0.56500        0.66230        0.70070        0.68969        0.69352        0.70730        0.73057        0.71233        0.62233        0.50274        0.45234        0.56300        0.73703        0.78826        0.70858        0.62741        0.62856        0.66242        0.65573        0.63583        0.62848        0.59494        0.52696        0.49038        0.55274        0.64409        0.66416        0.66120        0.69981        0.75191        0.71745        0.63365        0.60128        0.63762        0.65234        0.62290        0.58526        0.58512        0.58714        0.59935        0.64120        0.69465        0.69359        0.61394        0.51769        0.48460        0.55519        0.66578        0.71003        0.68535        0.63186        0.57339        0.54071        0.58549        0.67819        0.73748        0.72799        0.70359        0.71203        0.69439        0.67978        0.69147        0.71216        0.69625        0.65669        0.65653        0.66730        0.61539        0.54441        0.52576        0.56499        0.63501        0.67348        0.62847        0.53753        0.50706        0.57715        0.65476        0.64302        0.59252        0.57825        0.59726        0.61003        0.61890        0.62501        0.64202        0.67629        0.75125        0.77722        0.70330        0.60458        0.57867        0.62628        0.68905        0.71367        0.67791        0.59575        0.55063        0.59184        0.65937        0.66817        0.64985        0.64049        0.63823        0.61965        0.62272        0.66300        0.67957        0.65761        0.60672        0.58230        0.59455        0.65055        0.70309        0.69241        0.62982        0.59268        0.61123        0.65631        0.67829        0.67076        0.63237        0.57567        0.54177        0.56390        0.61551        0.67261        0.69673        0.70045        0.67284        0.65547        0.64590        0.63411        0.62561        0.64125        0.69165        0.71521        0.67551        0.62989        0.61094        0.63107        0.63065        0.60075        0.56247        0.56026        0.58969        0.61597        0.62822        0.65969        0.68352        0.65669        0.59268        0.58504        0.65887        0.76463        0.75396        0.64400        0.58720        0.63929        0.70227        0.65992        0.57203        0.55259        0.59605        0.62200        0.60188        0.60213        0.63606        0.63838        0.64916        0.67015        0.70157        0.64890        0.59989        0.62442        0.66824        0.61002        0.47997        0.45651        0.58991        0.77508        0.85096        0.79276        0.69721        0.62022        0.55740        0.53599        0.58363        0.63460        0.60962        0.52812        0.48405        0.51350        0.56459        0.64595        0.70220        0.66473        0.62546        0.61842        0.69366        0.68602        0.65929        0.64778        0.68646        0.65895        0.57876        0.68336        0.83166        0.83977        0.62331        0.54619        0.62381        0.65298        0.60512        0.66631        0.73407        0.69922        0.62002        0.52185        0.46742        0.38026        0.43732        0.58545        0.66015        0.63797        0.60421        0.69048        0.74715        0.70884        0.65889        0.72450        0.76931        0.76305        0.54500        0.43926        0.59459        0.85543        0.81767        0.46733        0.20352        0.35042        0.64919        0.78346        0.72312        0.74542        0.84007        0.68243        0.19758       -0.35899       -0.71605       -0.81517       -0.83868
0.636046 0.636046 0.636046 0.636046 0.636046 0.636046 0.636046 0.636046 0.636046 0.636046 0.636046 0.636046 0.636046 0.636046 0.636046 0.636046 0.636046 0.636046 0.636046 1.540230 2.315122 1.297923 0.290657 0.011736 0.553275 1.420781 1.158748 0.612633 0.392082 0.427405 0.331539 0.337960 0.389766 0.365518 0.337088 0.247709 0.154771 0.146541 0.001790 0.048727 0.028063 0.087377 0.305816 0.673092 0.763160 0.746866 0.748642 0.781426 1.007397 1.098101 1.097648 0.691037 0.413958 0.410932 0.603588 0.495882 0.439624 0.278311 0.422803 0.609441 0.643364 0.719244 0.783356 0.822771 0.839608 0.737238 0.696286 0.599955 0.560464 0.584872 0.579420 0.729722 0.738207 0.695929 0.550924 0.531755 0.607801 0.562114 0.546563 0.594990 0.652495 0.713568 0.649954 0.531838 0.567630 0.606764 0.674405 0.686109 0.633155 0.553647 0.477055 0.519321 0.614046 0.695822 0.630179 0.592706 0.652292 0.783385 0.819268 0.735601 0.620443 0.611939 0.667823 0.653110 0.643957 0.647932 0.630232 0.605937 0.550269 0.466966 0.472399 0.530353 0.644467 0.700710 0.706399 0.665708 0.690758 0.731168 0.734031 0.662303 0.536587 0.431866 0.503283 0.689477 0.816796 0.739955 0.630969 0.644603 0.664737 0.664370 0.627228 0.624398 0.611253 0.555046 0.495315 0.526756 0.606090 0.689370 0.627018 0.677014 0.744659 0.738402 0.661796 0.603658 0.599220 0.656126 0.657065 0.604232 0.553352 0.603665 0.582473 0.603967 0.696405 0.707948 0.639716 0.560358 0.478415 0.536327 0.645226 0.721193 0.691065 0.677474 0.596499 0.529691 0.543869 0.632566 0.740833 0.689719 0.724645 0.730700 0.695802 0.669432 0.678067 0.721399 0.715623 0.671411 0.653969 0.671383 0.635528 0.575601 0.522309 0.561127 0.589904 0.656640 0.643075 0.570109 0.502345 0.542487 0.626426 0.671184 0.616129 0.578349 0.579347 0.595055 0.639811 0.614203 0.622978 0.666351 0.673398 0.760980 0.784784 0.642938 0.580684 0.570844 0.651794 0.714243 0.721285 0.648116 0.578303 0.544336 0.592036 0.676499 0.685321 0.647882 0.631973 0.651838 0.607714 0.622420 0.689344 0.654040 0.655974 0.605380 0.586665 0.612190 0.669980 0.692689 0.678051 0.607638 0.578064 0.632351 0.688632 0.672853 0.654587 0.627698 0.572979 0.543391 0.584205 0.621800 0.687510 0.699574 0.705329 0.653114 0.654768 0.631919 0.633450 0.636176 0.648657 0.714210 0.711134 0.642509 0.642925 0.603468 0.627745 0.617195 0.592720 0.558710 0.569129 0.587233 0.619032 0.635866 0.662231 0.694900 0.626186 0.577913 0.608661 0.687580 0.788987 0.745699 0.623025 0.584389 0.668756 0.711911 0.624139 0.563102 0.572819 0.603814 0.636745 0.580866 0.611344 0.618601 0.646569 0.668851 0.662363 0.690554 0.664333 0.590188 0.658486 0.666744 0.605961 0.482444 0.441636 0.640562 0.795265 0.863757 0.789732 0.688573 0.595222 0.535187 0.541915 0.584461 0.631053 0.612109 0.504752 0.490499 0.495027 0.587628 0.634845 0.716358 0.683382 0.602970 0.632801 0.678703 0.739099 0.628007 0.646979 0.679466 0.669297 0.612974 0.627976 0.871531 0.802748 0.610011 0.519047 0.631565 0.645717 0.595499 0.683653 0.765770 0.622297 0.603980 0.596097 0.398849 0.380223 0.494658 0.591999 0.708010 0.565849 0.611973 0.690006 0.818954 0.643269 0.627824 0.710014 0.953337 0.737111 0.604554 0.451889 0.641878 0.873863 0.900878 0.550600 0.269155 0.254517 0.669451 0.785252 0.701663 0.795524 0.763053 0.633116 0.019036 -0.397197 -0.714738 -0.838681
0.072396 0.073461 0.076657 0.081981 0.089431 0.099001 0.110686 0.124476 0.140357 0.158312 0.178318 0.200343 0.224350 0.250290 0.278105 0.307721 0.339053 0.371998 0.406432 0.442216 0.479186 0.517153 0.555906 0.595205 0.634781 0.674336 0.713542 0.752042 0.789444 0.825332 0.859255 0.890739 0.919286 0.944377 0.965475 0.982036 0.993510 0.999352 0.999028 0.992029 0.977878 0.956144 0.926456 0.888511 0.842097 0.787100 0.723521 0.651492 0.571287 0.483336 0.388232 0.286745 0.179823 0.068595 0.045629 0.161367 0.276973 0.390657 0.500507 0.604518 0.700625 0.786747 0.860834 0.920917 0.965168 0.991957 0.999915 0.988000 0.955549 0.902344 0.828656 0.735287 0.623602 0.495541 0.353618 0.200903 0.040975 0.122138 0.284044 0.440102 0.585544 0.715630 0.825810 0.911898 0.970252 0.997952 0.992969 0.954313 0.882158 0.777926 0.644337 0.485398 0.306338 0.113486 0.085910 0.283939 0.472319 0.642745 0.787270 0.898701 0.970996 0.999643 0.981984 0.917487 0.807914 0.657395 0.472366 0.261382 0.034790 0.195723 0.417710 0.618624 0.786543 0.910928 0.983340 0.998090 0.952771 0.848608 0.690608 0.487456 0.251163 0.003546 0.260087 0.501051 0.709403 0.869715 0.969390 0.999754 0.956928 0.842393 0.663176 0.431597 0.164582 0.117459 0.392117 0.636745 0.830354 0.955501 0.999984 0.958191 0.831939 0.630686 0.371055 0.075646 0.228801 0.513747 0.751535 0.918139 0.995741 0.974813 0.855491 0.648017 0.372150 0.055503 0.269039 0.566671 0.804396 0.954803 0.999399 0.931135 0.755731 0.491566 0.168067 0.177343 0.503441 0.770105 0.943344 0.999847 0.930395 0.741642 0.455921 0.108943 0.254394 0.585695 0.839516 0.979745 0.985018 0.852326 0.598172 0.256966 0.123277 0.487479 0.781424 0.959951 0.994169 0.876525 0.622792 0.270469 0.126348 0.505002 0.804135 0.973756 0.983932 0.830524 0.536824 0.150574 0.263360 0.633676 0.894906 0.999259 0.925786 0.685124 0.318649 0.108094 0.516751 0.830458 0.988493 0.958442 0.743443 0.382755 0.054759 0.483358 0.817077 0.987147 0.956626 0.729059 0.349058 0.105753 0.540140 0.861082 0.997922 0.918477 0.637319 0.214012 0.258810 0.675322 0.940175 0.990736 0.812572 0.444306 0.029884 0.498889 0.850469 0.998363 0.904063 0.587698 0.124779 0.371050 0.775507 0.984941 0.943455 0.658721 0.201796 0.309694 0.741341 0.977318 0.952006 0.669186 0.202953 0.320741 0.757532 0.984532 0.935484 0.621142 0.128287 0.403244 0.819701 0.998083 0.883193 0.505862 0.023999 0.548452 0.908285 0.991670 0.769920 0.308534 0.250840 0.733105 0.984473 0.922163 0.562907 0.020017 0.531185 0.909530 0.987912 0.737075 0.237868 0.343393 0.809536 0.999473 0.844779 0.395773 0.193239 0.715946 0.986060 0.904487 0.497098 0.091681 0.648800 0.969293 0.932323 0.548173 0.042551 0.618978 0.962060 0.938403 0.553610 0.046713 0.630572 0.968711 0.925281 0.513972 0.104114 0.682036 0.985266 0.887624 0.425497 0.213622 0.765747 0.999219 0.812910 0.281926 0.370610 0.866061 0.989329 0.683614 0.078603 0.562547 0.956788 0.926656 0.481935 0.180838 0.763468 0.999913 0.778864 0.198285 0.475706 0.929584 0.948562 0.520019 0.156400 0.759866 1.000000 0.757816 0.146954 0.537198 0.959114 0.908156 0.405797 0.300581 0.857603 0.982526 0.608385 0.077595 0.725325 0.999728 0.755239 0.115511 0.586395 0.980128 0.854104 0.271592 0.458124 0.942132 0.915783 0.389538 0.351662 0.900511 0.951138 0.471537 0.273460 0.865991 0.969251
1.000000 1.000000 1.000000 1.000000 1.000000 1.000000 1.000000 1.000000 1.000000 1.000000 1.000000 1.000000 1.000000 1.000000 1.000000 1.000000 1.000000 1.000000 1.000000 1.000000 -0.052944 -0.052944 -0.052944 -0.052944 -0.052944 -0.052944 -0.052944 -0.052944 -0.052944 -0.052944 -0.052944 -0.052944 -0.052944 -0.052944 -0.052944 -0.052944 -0.052944 -0.052944 -0.081227 -0.081227 -0.081227 -0.081227 -0.081227 -0.081227 -0.081227 -0.081227 -0.081227 -0.081227 -0.081227 -0.081227 -0.081227 -0.081227 -0.081227 -0.081227 -0.079233 -0.040113 -0.015842 -0.008520 -0.020523 -0.054256 -0.068706 -0.049897 -0.051161 -0.048407 -0.036978 -0.022792 0.114377 0.135920 0.207049 0.241289 0.261058 0.268064 0.262278 0.233978 0.206718 0.225780 0.245142 0.260861 0.281125 0.294870 0.318027 0.364555 0.400504 0.404570 0.395933 0.386164 0.362957 0.354478 0.336936 0.322550 0.321277 0.338373 0.367044 0.381844 0.405692 0.402402 0.411615 0.439122 0.470977 0.457071 0.490979 0.491336 0.499466 0.499818 0.499658 0.544966 0.553362 0.582411 0.576611 0.565204 0.554379 0.564336 0.620143 0.621455 0.605678 0.731401 0.714353 0.725153 0.665864 0.653220 0.651303 0.664853 0.700441 0.714655 0.719435 0.716892 0.711257 0.595623 0.592880 0.598143 0.548219 0.422378 0.386181 0.385791 0.351799 0.297971 0.281817 0.282450 0.284765 0.223670 0.229933 0.165229 0.131783 0.154958 0.206174 0.202620 0.190574 0.202182 0.152485 0.153724 0.160260 0.174978 0.243824 0.257351 0.231372 0.239338 0.267419 0.263692 0.273668 0.318619 0.362373 0.352719 0.355647 0.376354 0.354756 0.309517 0.302542 0.280191 0.262453 0.307773 0.277245 0.229526 0.216139 0.212804 0.249999 0.329418 0.387188 0.435149 0.429196 0.426230 0.440425 0.469761 0.461438 0.448984 0.486775 0.486338 0.505353 0.487795 0.505358 0.510190 0.513514 0.499993 0.496383 0.441618 0.420719 0.445889 0.460521 0.418824 0.401380 0.394258 0.396468 0.331301 0.319497 0.335146 0.275919 0.251515 0.281335 0.262759 0.220805 0.259979 0.192177 0.171735 0.225705 0.279402 0.253789 0.287287 0.286239 0.289728 0.312383 0.338512 0.320949 0.282339 0.254807 0.217645 0.246117 0.222068 0.140053 0.119479 0.126977 0.145661 0.112833 0.103348 0.128268 0.095328 0.086722 0.073120 0.048067 0.037816 0.011232 -0.049470 -0.048589 -0.066026 -0.111747 -0.104787 -0.108571 -0.166484 -0.168897 -0.171251 -0.180346 -0.261362 -0.248455 -0.255876 -0.270151 -0.298049 -0.239337 -0.223986 -0.258896 -0.273721 -0.274061 -0.321536 -0.369848 -0.435533 -0.441246 -0.333807 -0.370228 -0.426560 -0.439806 -0.460000 -0.516322 -0.491533 -0.467914 -0.524508 -0.512354 -0.481045 -0.319430 -0.314255 -0.315241 -0.281242 -0.316289 -0.338153 -0.324081 -0.316726 -0.340092 -0.331852 -0.333611 -0.348124 -0.360477 -0.345836 -0.340044 -0.357076 -0.359405 -0.327280 -0.353603 -0.334695 -0.324441 -0.290455 -0.259421 -0.237231 -0.225764 -0.210663 -0.163493 -0.173727 -0.118544 -0.149829 -0.142640 -0.072531 -0.077623 -0.096609 -0.091354 -0.110719 -0.052156 -0.054201 -0.049544 -0.031734 -0.209987 -0.170725 -0.209811 -0.196793 -0.182704 -0.188402 -0.156117 -0.158868 -0.157142 -0.164978 -0.322936 -0.315268 -0.313977 -0.314083 -0.257155 -0.254621 -0.226267 -0.210813 -0.191528 -0.227660 -0.226924 -0.226924 -0.226924 -0.166950 -0.171187 -0.171187 -0.171187 -0.205035 -0.205035 -0.205035 -0.205035 -0.205035 -0.190905 -0.190905 -0.190905 -0.190905 -0.190905 -0.190905 -0.190905 -0.190905 -0.209285 -0.209285 -0.209285 -0.209285 -0.209285 -0.209285 -0.209285 -0.209285 -0.209285
0.000000 0.000000 0.000000 0.000000 2026296866675327744.000000 895984474104298496.000000 654323913017183744.000000 1261122535416260608.000000 789929980447389952.000000 377212825320328896.000000 963206416116028416.000000 805567235017576960.000000 805515557895213696.000000 527803037290092928.000000 754375073107756160.000000 812092286634406912.000000 343312133103469760.000000 662653813101126528.000000 1098855914407291008.000000 766343806891817216.000000 0.216930 0.216930 0.216930 0.216930 0.216930 0.216930 0.216930 0.216930 0.216930 0.216930 0.216930 0.216930 0.216930 0.216930 0.216930 0.216930 0.216930 0.216930 0.240772 0.240772 0.240772 0.240772 0.240772 0.240772 0.240772 0.240772 0.240772 0.240772 0.240772 0.240772 0.240772 0.240772 0.240772 0.240772 0.240772 0.240772 0.240772 0.240772 0.240772 0.240772 0.240772 0.240772 0.240772 0.240772 0.240772 0.240772 0.269680 0.269680 0.269680 0.269680 0.269680 0.269680 0.269680 0.269680 0.269680 0.269680 0.269680 0.269680 0.269680 0.269680 0.269680 0.269680 0.269680 0.269680 0.269680 0.269680 0.291730 0.291730 0.291730 0.291730 0.291730 0.291730 0.291730 0.291730 0.291730 0.291730 0.291730 0.291730 0.291730 0.291730 0.291730 0.291730 0.304997 0.304997 0.304997 0.304997 0.304997 0.304997 0.304997 0.304997 0.304997 0.304997 0.304997 0.304997 0.304997 0.312348 0.312348 0.312348 0.312348 0.312348 0.312348 0.312348 0.312348 0.312348 0.312348 0.312348 0.312348 0.298142 0.298142 0.298142 0.298142 0.298142 0.298142 0.298142 0.298142 0.298142 0.298142 0.298142 0.298142 0.320256 0.320256 0.320256 0.320256 0.320256 0.320256 0.320256 0.320256 0.320256 0.320256 0.320256 0.320256 0.320256 0.320256 0.320256 0.320256 0.320256 0.320256 0.320256 0.312348 0.312348 0.312348 0.312348 0.312348 0.312348 0.312348 0.312348 0.312348 0.304997 0.304997 0.304997 0.304997 0.304997 0.304997 0.304997 0.304997 0.304997 0.320256 0.320256 0.320256 0.320256 0.320256 0.320256 0.320256 0.320256 0.312348 0.312348 0.312348 0.312348 0.312348 0.312348 0.312348 0.312348 0.304997 0.304997 0.304997 0.304997 0.304997 0.304997 0.304997 0.304997 0.312348 0.312348 0.312348 0.312348 0.312348 0.312348 0.312348 0.312348 0.312348 0.312348 0.312348 0.312348 0.312348 0.312348 0.304997 0.304997 0.304997 0.304997 0.304997 0.304997 0.304997 0.320256 0.320256 0.320256 0.320256 0.320256 0.320256 0.291730 0.291730 0.291730 0.291730 0.291730 0.291730 0.291730 0.304997 0.304997 0.304997 0.304997 0.304997 0.304997 0.304997 0.304997 0.304997 0.304997 0.304997 0.304997 0.298142 0.298142 0.298142 0.298142 0.298142 0.298142 0.291730 0.291730 0.291730 0.291730 0.291730 0.291730 0.312348 0.312348 0.312348 0.312348 0.312348 0.285714 0.285714 0.285714 0.285714 0.285714 0.285714 0.304997 0.304997 0.304997 0.304997 0.304997 0.280056 0.280056 0.280056 0.280056 0.280056 0.280056 0.298142 0.298142 0.298142 0.298142 0.298142 0.291730 0.291730 0.291730 0.291730 0.291730 0.285714 0.285714 0.285714 0.285714 0.285714 0.285714 0.285714 0.285714 0.285714 0.285714 0.280056 0.280056 0.280056 0.280056 0.280056 0.280056 0.280056 0.280056 0.280056 0.280056 0.298142 0.298142 0.298142 0.298142 0.269680 0.269680 0.269680 0.269680 0.269680 0.269680 0.269680 0.269680 0.269680 0.269680 0.291730 0.291730 0.291730 0.291730 0.285714 0.285714 0.285714 0.285714 0.260378 0.260378 0.260378 0.260378 0.260378 0.280056 0.280056 0.280056 0.280056 0.256074 0.256074 0.256074 0.256074 0.256074 0.274721 0.274721 0.274721 0.274721 0.274721 0.274721 0.274721 0.274721 0.269680 0.269680 0.269680 0.269680 0.269680 0.269680 0.269680 0.269680 0.269680
