# Output from CTFFind version 4.1.9, run on 2019-11-24 11:56:27
# Input file: stack1_bm3d_averaged_1_4.0_0_2000_half.mrc ; Number of micrographs: 1
# Pixel size: 1.500 Angstroms ; acceleration voltage: 300.0 keV ; spherical aberration: 0.00 mm ; amplitude contrast: 0.07
# Box size: 512 pixels ; min. res.: 40.0 Angstroms ; max. res.: 6.0 Angstroms ; min. def.: 5000.0 um; max. def. 50000.0 um; num. frames averaged: 1
# 6 lines per micrograph: #1 - spatial frequency (1/Angstroms); #2 - 1D rotational average of spectrum (assuming no astigmatism); #3 - 1D rotational average of spectrum; #4 - CTF fit; #5 - cross-correlation between spectrum and CTF fit; #6 - 2sigma of expected cross correlation of noise
0.000000 0.001302 0.002604 0.003906 0.005208 0.006510 0.007812 0.009115 0.010417 0.011719 0.013021 0.014323 0.015625 0.016927 0.018229 0.019531 0.020833 0.022135 0.023438 0.024740 0.026042 0.027344 0.028646 0.029948 0.031250 0.032552 0.033854 0.035156 0.036458 0.037760 0.039062 0.040365 0.041667 0.042969 0.044271 0.045573 0.046875 0.048177 0.049479 0.050781 0.052083 0.053385 0.054688 0.055990 0.057292 0.058594 0.059896 0.061198 0.062500 0.063802 0.065104 0.066406 0.067708 0.069010 0.070312 0.071615 0.072917 0.074219 0.075521 0.076823 0.078125 0.079427 0.080729 0.082031 0.083333 0.084635 0.085938 0.087240 0.088542 0.089844 0.091146 0.092448 0.093750 0.095052 0.096354 0.097656 0.098958 0.100260 0.101562 0.102865 0.104167 0.105469 0.106771 0.108073 0.109375 0.110677 0.111979 0.113281 0.114583 0.115885 0.117188 0.118490 0.119792 0.121094 0.122396 0.123698 0.125000 0.126302 0.127604 0.128906 0.130208 0.131510 0.132812 0.134115 0.135417 0.136719 0.138021 0.139323 0.140625 0.141927 0.143229 0.144531 0.145833 0.147135 0.148438 0.149740 0.151042 0.152344 0.153646 0.154948 0.156250 0.157552 0.158854 0.160156 0.161458 0.162760 0.164062 0.165365 0.166667 0.167969 0.169271 0.170573 0.171875 0.173177 0.174479 0.175781 0.177083 0.178385 0.179688 0.180990 0.182292 0.183594 0.184896 0.186198 0.187500 0.188802 0.190104 0.191406 0.192708 0.194010 0.195312 0.196615 0.197917 0.199219 0.200521 0.201823 0.203125 0.204427 0.205729 0.207031 0.208333 0.209635 0.210938 0.212240 0.213542 0.214844 0.216146 0.217448 0.218750 0.220052 0.221354 0.222656 0.223958 0.225260 0.226562 0.227865 0.229167 0.230469 0.231771 0.233073 0.234375 0.235677 0.236979 0.238281 0.239583 0.240885 0.242188 0.243490 0.244792 0.246094 0.247396 0.248698 0.250000 0.251302 0.252604 0.253906 0.255208 0.256510 0.257812 0.259115 0.260417 0.261719 0.263021 0.264323 0.265625 0.266927 0.268229 0.269531 0.270833 0.272135 0.273438 0.274740 0.276042 0.277344 0.278646 0.279948 0.281250 0.282552 0.283854 0.285156 0.286458 0.287760 0.289062 0.290365 0.291667 0.292969 0.294271 0.295573 0.296875 0.298177 0.299479 0.300781 0.302083 0.303385 0.304688 0.305990 0.307292 0.308594 0.309896 0.311198 0.312500 0.313802 0.315104 0.316406 0.317708 0.319010 0.320312 0.321615 0.322917 0.324219 0.325521 0.326823 0.328125 0.329427 0.330729 0.332031 0.333333 0.334635 0.335938 0.337240 0.338542 0.339844 0.341146 0.342448 0.343750 0.345052 0.346354 0.347656 0.348958 0.350260 0.351562 0.352865 0.354167 0.355469 0.356771 0.358073 0.359375 0.360677 0.361979 0.363281 0.364583 0.365885 0.367188 0.368490 0.369792 0.371094 0.372396 0.373698 0.375000 0.376302 0.377604 0.378906 0.380208 0.381510 0.382812 0.384115 0.385417 0.386719 0.388021 0.389323 0.390625 0.391927 0.393229 0.394531 0.395833 0.397135 0.398438 0.399740 0.401042 0.402344 0.403646 0.404948 0.406250 0.407552 0.408854 0.410156 0.411458 0.412760 0.414062 0.415365 0.416667 0.417969 0.419271 0.420573 0.421875 0.423177 0.424479 0.425781 0.427083 0.428385 0.429688 0.430990 0.432292 0.433594 0.434896 0.436198 0.437500 0.438802 0.440104 0.441406 0.442708 0.444010 0.445312 0.446615 0.447917 0.449219 0.450521 0.451823 0.453125 0.454427 0.455729 0.457031 0.458333 0.459635 0.460938 0.462240 0.463542 0.464844 0.466146 0.467448 0.468750 0.470052 0.471354
       0.71400        0.71400        0.71400        0.71400        0.71400        0.71400        0.71400        0.71400        0.71400        0.71400        0.71400        0.71400        0.71400        0.71400        0.71400        0.71400        0.71400        0.71400        0.71400        1.54295        2.24785        1.14535        0.32994        0.14389        0.70487        1.34258        1.30538        0.81110        0.49264        0.45183        0.47107        0.46348        0.47319        0.44730        0.34935        0.36493        0.39230        0.31385        0.18549        0.16607        0.23133        0.27616        0.35825        0.52740        0.72627        0.82964        0.83776        0.87448        1.04192        1.18695        1.09419        0.77948        0.52481        0.51707        0.62990        0.69239        0.66485        0.60381        0.51558        0.45358        0.54096        0.72164        0.91245        0.97180        0.89683        0.74760        0.63178        0.63905        0.67904        0.67838        0.67839        0.76122        0.85821        0.81800        0.72877        0.71382        0.70875        0.64382        0.59384        0.67153        0.80927        0.81369        0.71356        0.58278        0.54867        0.60636        0.71849        0.77814        0.76456        0.71527        0.69788        0.69926        0.66283        0.63755        0.64981        0.72236        0.78649        0.82375        0.80891        0.75152        0.72227        0.74543        0.78518        0.76438        0.70436        0.69439        0.70530        0.70197        0.65244        0.63180        0.67502        0.72629        0.70400        0.64431        0.64113        0.71937        0.78728        0.77987        0.72096        0.68249        0.68898        0.68390        0.68228        0.69127        0.68690        0.67640        0.68455        0.72839        0.74977        0.71042        0.66884        0.72050        0.78315        0.77615        0.69492        0.66265        0.69075        0.73530        0.78369        0.81747        0.80460        0.72439        0.65600        0.67265        0.71515        0.73127        0.72914        0.73838        0.71692        0.63525        0.59287        0.64540        0.74660        0.77567        0.68360        0.60952        0.62328        0.71469        0.76934        0.73566        0.67618        0.66300        0.72327        0.76856        0.75942        0.69227        0.65788        0.69230        0.73015        0.70047        0.62849        0.66315        0.82259        0.93974        0.87528        0.69182        0.58690        0.61946        0.71357        0.74400        0.72438        0.69296        0.71755        0.77372        0.80563        0.76133        0.70537        0.69263        0.72108        0.73268        0.70084        0.63971        0.60415        0.62124        0.67523        0.70966        0.69045        0.65847        0.67321        0.71212        0.73670        0.75996        0.78948        0.80052        0.78355        0.75045        0.72570        0.70703        0.73046        0.79315        0.81941        0.75147        0.66029        0.63231        0.64943        0.64536        0.64258        0.70266        0.78198        0.81136        0.76878        0.71861        0.68448        0.66480        0.64589        0.67155        0.71088        0.75186        0.74463        0.70186        0.66561        0.66666        0.68953        0.72497        0.76286        0.75846        0.70656        0.64089        0.65740        0.72627        0.73610        0.69008        0.69125        0.74390        0.76767        0.73928        0.73514        0.78271        0.79708        0.76482        0.74926        0.75831        0.75668        0.72218        0.68523        0.66910        0.67066        0.65474        0.63862        0.62582        0.64597        0.68681        0.74208        0.74855        0.71282        0.69595        0.67466        0.64842        0.67844        0.77012        0.83864        0.81727        0.73852        0.66507        0.64305        0.65728        0.70519        0.71212        0.71555        0.70920        0.74756        0.77570        0.75999        0.75041        0.75272        0.75699        0.71761        0.65385        0.61919        0.62158        0.62420        0.62750        0.64844        0.71155        0.76767        0.72846        0.63545        0.61679        0.73142        0.81682        0.77762        0.74754        0.77498        0.75517        0.68917        0.72047        0.83491        0.78402        0.61434        0.51772        0.64626        0.75104        0.71421        0.68503        0.75058        0.77115        0.68835        0.65565        0.68408        0.74436        0.78353        0.82869        0.83953        0.74977        0.68874        0.70266        0.66276        0.57599        0.55725        0.62737        0.70762        0.73067        0.72263        0.63701        0.53469        0.58170        0.79196        0.95821        0.91819        0.77704        0.74781        0.78396        0.72430        0.54488        0.49434        0.72048        0.94242        0.82386        0.46039        0.36744        0.68184        1.05917        1.01760        0.76503        0.64308        0.72124        0.71863        0.48145        0.12305       -0.20857       -0.46106       -0.57715       -0.61984
3.790973 3.694916 3.600089 3.506490 3.414120 3.322978 3.233066 3.144382 3.056926 2.970700 2.885702 2.801933 2.719392 2.638081 2.557998 2.479144 2.401518 2.325121 2.249953 4.178152 5.756745 3.371373 1.013586 0.339271 1.566336 3.168420 3.327568 2.083404 1.067073 0.879208 0.758006 0.821331 0.882211 0.666328 0.307918 0.448618 0.345402 0.130078 -0.130816 -0.344942 -0.296933 -0.055751 -0.056590 0.322018 0.702631 0.960864 0.923172 0.888784 1.282875 1.650380 1.515204 0.632104 0.049325 -0.118094 0.300760 0.166554 0.235677 -0.025369 -0.090922 -0.382616 -0.398403 2.413240 -2.132276 -1.236775 -0.614797 -0.111070 0.184866 0.152975 0.108180 -0.029406 0.015253 -0.196046 -0.367724 -0.364803 -0.065999 -0.001006 0.221505 -0.356968 -0.765898 -0.618396 0.461365 0.228976 0.082936 -0.085772 -0.081242 -0.210933 0.238499 0.289440 0.295987 0.149354 0.133932 0.165308 0.054683 -0.028295 -0.102414 0.135428 0.345258 0.381184 0.443038 0.332582 0.248266 0.156692 0.349069 0.221231 0.300372 0.007066 0.029288 0.064545 -0.017713 -0.084516 -0.031846 0.162260 0.034409 -0.019168 -0.044400 -0.014311 0.192597 0.225355 0.095132 -0.020223 0.103434 -0.018556 0.044188 -4.735350 4.337199 1.242366 -1.762467 0.343498 17.555654 8.474031 2.452819 1.333177 0.218057 0.499281 0.133587 -0.340339 -0.256835 0.006804 0.127678 0.239159 0.347801 0.273605 -0.297919 0.395912 0.178455 -0.353641 -0.004488 -0.999646 -0.135997 0.082860 0.373445 0.286680 -0.050308 -0.358428 -0.075891 0.310624 0.545075 -0.037349 0.349715 0.185787 0.107387 0.015174 0.151657 0.259756 0.114423 0.061122 -0.074128 0.027530 -0.080770 0.049051 0.169249 0.253552 0.035266 -0.216266 -0.318063 -0.098801 0.222466 0.253108 0.188040 0.018980 0.051642 0.158103 0.223141 0.035483 0.484844 0.381939 0.173128 0.040834 0.033823 0.184665 -0.171446 0.020822 -3.890442 -3.338842 -0.098556 0.046583 0.019776 -0.064657 -0.023540 -0.054434 0.101141 0.029105 0.122665 0.125519 0.082612 0.072451 -0.011309 -0.012789 -0.014537 0.006357 0.240074 0.199312 0.022175 -0.225609 -0.179102 -0.177199 -0.146506 -0.080816 0.040874 0.217567 0.234611 0.112511 -0.024949 -0.110474 -0.095840 -0.152209 -0.054050 0.129369 0.112645 0.096202 -0.117240 -0.092920 -0.077670 -0.042320 0.055225 0.162671 0.124776 -0.046599 -0.123586 -0.107559 0.059234 -0.084382 -0.050340 -0.037316 0.177300 0.135973 -0.048065 -0.106702 0.053163 0.099790 -0.003825 0.103229 0.112459 0.120928 -0.014815 -0.045086 -0.025220 0.015234 -0.053350 -0.086171 -0.086532 -0.008524 0.083134 0.111844 0.132393 -0.005219 -0.086515 -0.151638 -0.171179 -0.058495 0.122622 0.268454 0.204484 0.007591 -0.174798 -0.184032 -0.182621 0.032013 -0.046010 -0.131976 -0.031268 -0.019730 0.027540 -0.033912 0.012086 0.047117 0.172269 0.045379 -0.097076 -0.189875 -0.095638 -0.066743 -0.038147 0.017715 0.150438 0.176529 0.086062 -0.190074 -0.224479 -0.000846 0.126022 -0.039576 -0.024089 0.014786 -0.062450 -0.271039 -0.048742 0.182717 0.220427 -0.174459 -0.491129 -0.285398 0.042029 -0.016030 0.005621 0.191781 0.134745 -0.043884 -0.278031 -0.046355 -0.084425 0.124909 0.167825 0.124402 0.147129 -0.057969 0.024363 -0.053596 -0.337307 -0.105244 -0.093546 0.299150 0.224792 0.105646 -0.084451 -0.464710 -0.292338 0.087246 0.370897 0.604758 0.024837 0.051878 0.185210 -0.184687 -0.406622 -0.161173 0.482349 0.578486 0.350766 -0.624402 -0.989038 -0.019081 0.764615 0.484199 -0.369500 -0.368133 0.101389 0.182252 0.466336 0.023340 -0.513714 -0.953381 -1.420065
0.072396 0.074558 0.081043 0.091843 0.106945 0.126325 0.149946 0.177750 0.209655 0.245545 0.285259 0.328588 0.375259 0.424926 0.477161 0.531439 0.587132 0.643499 0.699678 0.754682 0.807398 0.856589 0.900907 0.938901 0.969043 0.989760 0.999467 0.996619 0.979766 0.947620 0.899131 0.833560 0.750571 0.650312 0.533495 0.401472 0.256292 0.100736 0.061666 0.226667 0.389363 0.544306 0.685667 0.807449 0.903748 0.969065 0.998644 0.988837 0.937460 0.844134 0.710564 0.540738 0.341011 0.120044 0.111428 0.341010 0.555245 0.740397 0.883368 0.972719 0.999715 0.959312 0.850992 0.679330 0.454216 0.190623 0.092102 0.371478 0.623571 0.825079 0.955608 0.999978 0.950274 0.807398 0.581856 0.293562 0.029438 0.353372 0.642104 0.861208 0.982302 0.987122 0.870749 0.643434 0.330555 0.029525 0.389682 0.699987 0.914718 0.999481 0.937340 0.732832 0.412958 0.024585 0.371718 0.710806 0.933755 0.998626 0.889193 0.619769 0.234771 0.197512 0.596360 0.883570 0.999257 0.915279 0.643235 0.234686 0.227257 0.644029 0.922529 0.996561 0.843809 0.493842 0.024326 0.454832 0.826595 0.995717 0.914333 0.597197 0.121509 0.390081 0.800173 0.993734 0.911644 0.570728 0.063142 0.466532 0.861516 0.999696 0.833034 0.406550 0.150975 0.663973 0.964889 0.950031 0.617656 0.073784 0.498959 0.901395 0.987685 0.720440 0.189686 0.414219 0.867099 0.994476 0.741099 0.198113 0.426101 0.883895 0.986969 0.686427 0.099443 0.532613 0.941587 0.947177 0.539646 0.108409 0.711477 0.995781 0.825472 0.271600 0.412560 0.904377 0.964272 0.555824 0.127957 0.751484 0.999983 0.740807 0.099100 0.597264 0.982561 0.846729 0.254615 0.478759 0.952172 0.898334 0.339384 0.414850 0.934250 0.913877 0.357590 0.412955 0.939583 0.900155 0.310515 0.473268 0.965162 0.851130 0.195134 0.588885 0.993878 0.749139 0.007680 0.741794 0.993656 0.569590 0.247814 0.896226 0.918910 0.291572 0.546267 0.993419 0.719540 0.083550 0.827568 0.955508 0.363090 0.507723 0.991589 0.708794 0.128990 0.867831 0.918773 0.232663 0.643961 0.997710 0.531148 0.377904 0.973338 0.748677 0.114181 0.881612 0.888082 0.119360 0.756666 0.963881 0.309521 0.625805 0.994949 0.453525 0.508250 0.999566 0.554459 0.416111 0.992758 0.617591 0.356203 0.985180 0.647741 0.331856 0.982882 0.647676 0.344178 0.987356 0.617384 0.392636 0.995580 0.554098 0.474720 0.999949 0.452987 0.584945 0.988274 0.308785 0.713181 0.944245 0.118407 0.842688 0.848985 0.115304 0.948833 0.684414 0.379115 0.999388 0.439017 0.645086 0.958155 0.115916 0.868646 0.793258 0.258207 0.991822 0.490603 0.626879 0.954917 0.070332 0.905666 0.718033 0.399557 0.998400 0.289335 0.802510 0.830922 0.250237 0.996815 0.397027 0.743594 0.868479 0.201849 0.994190 0.402828 0.753771 0.849536 0.258963 0.999623 0.307459 0.829121 0.764107 0.416035 0.987011 0.101862 0.935509 0.577619 0.647737 0.896688 0.215161 0.999789 0.250839 0.885951 0.649265 0.600520 0.909601 0.215411 0.999949 0.191404 0.924558 0.552143 0.714694 0.819156 0.416732 0.968120 0.080784 0.996207 0.248163 0.917082 0.535480 0.754620 0.759168 0.536935 0.909318 0.291561 0.986105 0.042254 0.996958 0.192763 0.953669 0.401240 0.869890 0.576493 0.759212 0.716398 0.633879 0.822326 0.504134 0.897917 0.377893 0.948090 0.260967 0.978282 0.157207 0.993813 0.069010 0.999514 0.002399 0.999500 0.056467 0.997032 0.093158 0.994476 0.112485 0.993288
1.000000 1.000000 1.000000 1.000000 1.000000 1.000000 1.000000 1.000000 1.000000 1.000000 1.000000 1.000000 1.000000 1.000000 1.000000 1.000000 1.000000 1.000000 1.000000 1.000000 0.403622 0.403622 0.403622 0.403622 0.403622 0.403622 0.403622 0.401264 0.401264 0.401264 0.401264 0.401264 0.401264 0.401264 0.401264 0.401264 0.401264 0.401264 0.401264 0.401264 0.401264 0.401264 0.401264 0.401264 0.401264 0.395705 0.443418 0.506958 0.509067 0.521484 0.512631 0.517385 0.429584 0.445932 0.461805 0.459423 0.422002 0.381970 0.312872 0.268545 0.290416 0.244370 0.214914 0.214531 0.225485 0.235360 0.227111 0.217316 0.215365 0.270037 0.214541 0.187801 0.230062 0.270243 0.286599 0.317728 0.420548 0.542453 0.547050 0.540722 0.545237 0.575313 0.599619 0.594799 0.602502 0.634318 0.627886 0.690382 0.697127 0.662003 0.721552 0.793906 0.773506 0.774072 0.709135 0.699527 0.642745 0.574639 0.593812 0.588506 0.601366 0.632462 0.581596 0.566277 0.570329 0.533609 0.534100 0.534685 0.531692 0.513458 0.417224 0.388618 0.396966 0.317597 0.263475 0.247154 0.198793 0.192664 0.171098 0.110319 0.139757 0.093956 0.151156 0.112970 0.147093 0.091688 0.133961 0.173189 0.099938 0.235538 0.221928 0.115433 0.069903 0.043495 -0.048365 -0.035319 -0.115984 -0.106402 -0.070975 -0.090224 -0.101984 -0.083537 -0.115575 -0.082075 -0.041730 0.008970 0.087494 0.071587 0.112733 0.149598 0.206432 0.196027 0.271852 0.279765 0.302912 0.322886 0.243225 0.218990 0.155814 0.117979 0.099039 0.112848 0.113218 0.108253 0.058611 0.101554 0.150027 0.192731 0.161489 0.230756 0.206788 0.239892 0.250871 0.284095 0.274684 0.272358 0.235914 0.214164 0.079079 0.082552 0.086209 0.102070 0.031233 0.055598 -0.011173 -0.027125 -0.011226 -0.029760 0.023780 0.007369 0.031692 0.076796 0.101635 0.158136 0.225285 0.196840 0.182886 0.212065 0.187673 0.215807 0.159089 0.194285 0.170157 0.237353 0.125161 0.152199 0.182169 0.270823 0.234444 0.253768 0.196367 0.397683 0.358582 0.337936 0.292422 0.296060 0.247330 0.246237 0.237879 0.232356 0.197583 0.266907 0.232579 0.248452 0.167604 0.149159 0.144569 0.153566 0.151195 0.140874 0.127745 0.138997 0.170787 0.172854 0.063280 0.076692 0.109848 0.139838 0.212382 0.189232 0.209532 0.115258 0.083609 0.039790 -0.013637 0.004084 0.022296 -0.052379 -0.095131 -0.034957 0.032381 -0.075906 -0.059629 -0.030122 -0.064636 -0.120177 -0.068065 -0.073266 -0.032811 -0.055508 -0.097061 -0.100901 -0.155846 -0.099311 -0.080299 -0.082101 -0.132972 -0.138434 -0.127848 -0.113927 -0.133457 -0.160020 -0.150527 -0.098130 -0.196023 -0.211139 -0.146079 -0.147030 -0.115770 -0.239084 -0.213623 -0.121961 -0.118416 -0.094267 -0.132630 -0.169412 -0.159252 -0.188648 -0.151674 -0.092984 -0.054133 -0.048129 -0.071920 -0.048512 -0.025150 -0.002237 0.019898 -0.049516 -0.030134 0.032354 0.011472 0.130293 0.148687 0.105543 0.141130 0.178332 0.091202 0.091000 0.111721 0.220808 0.214733 0.234439 0.197074 0.179671 0.165565 0.109070 0.100078 0.082487 0.213928 0.204889 0.220602 0.207386 0.074538 0.103835 0.136675 0.106554 0.151972 0.199086 0.137645 0.100864 0.134034 0.182413 0.202980 0.138890 0.138890 0.138890 0.174492 0.189400 0.179803 0.179803 0.179803 0.179803 0.179803 0.179803 0.179803 0.179803 0.175717 0.175717 0.175717 0.175717 0.175717 0.175717 0.190068 0.190068 0.117358 0.117358 0.117358 0.190068 0.190068 0.180468 0.180468 0.180468 0.180468
0.000000 0.000000 0.000000 0.000000 1149747359690068480.000000 811474910998784768.000000 834221607570190592.000000 836961040640622336.000000 369053349539956032.000000 273373673921024544.000000 507865043234903680.000000 674706109866828288.000000 346341287575143360.000000 1122281009444429440.000000 845427280210587776.000000 462837568202327424.000000 754976506014231552.000000 1390575735514790656.000000 923972542753071616.000000 455039007140664768.000000 0.256074 0.256074 0.256074 0.256074 0.256074 0.256074 0.256074 0.280056 0.280056 0.280056 0.280056 0.280056 0.280056 0.280056 0.280056 0.280056 0.280056 0.280056 0.280056 0.280056 0.280056 0.280056 0.280056 0.280056 0.280056 0.280056 0.280056 0.328798 0.328798 0.328798 0.328798 0.328798 0.328798 0.328798 0.328798 0.328798 0.328798 0.328798 0.328798 0.328798 0.348155 0.348155 0.348155 0.348155 0.348155 0.348155 0.348155 0.348155 0.348155 0.348155 0.348155 0.348155 0.348155 0.348155 0.348155 0.348155 0.348155 0.348155 0.348155 0.348155 0.348155 0.348155 0.348155 0.348155 0.348155 0.348155 0.348155 0.348155 0.348155 0.348155 0.384900 0.384900 0.384900 0.384900 0.384900 0.384900 0.384900 0.348155 0.348155 0.348155 0.348155 0.348155 0.348155 0.348155 0.348155 0.384900 0.384900 0.384900 0.384900 0.384900 0.384900 0.348155 0.348155 0.348155 0.348155 0.348155 0.348155 0.348155 0.371391 0.371391 0.371391 0.371391 0.371391 0.371391 0.384900 0.384900 0.384900 0.384900 0.384900 0.348155 0.348155 0.348155 0.348155 0.348155 0.348155 0.371391 0.371391 0.371391 0.371391 0.371391 0.359211 0.359211 0.359211 0.359211 0.359211 0.359211 0.359211 0.359211 0.359211 0.359211 0.348155 0.348155 0.348155 0.348155 0.348155 0.348155 0.348155 0.348155 0.348155 0.348155 0.371391 0.371391 0.371391 0.371391 0.359211 0.359211 0.359211 0.359211 0.328798 0.328798 0.328798 0.328798 0.328798 0.348155 0.348155 0.348155 0.348155 0.348155 0.348155 0.348155 0.348155 0.338062 0.338062 0.338062 0.338062 0.338062 0.338062 0.338062 0.338062 0.328798 0.328798 0.328798 0.328798 0.371391 0.371391 0.371391 0.320256 0.320256 0.320256 0.320256 0.320256 0.320256 0.320256 0.320256 0.348155 0.348155 0.348155 0.312348 0.312348 0.312348 0.312348 0.348155 0.348155 0.348155 0.338062 0.338062 0.338062 0.298142 0.298142 0.298142 0.298142 0.328798 0.328798 0.328798 0.328798 0.328798 0.328798 0.328798 0.328798 0.328798 0.285714 0.285714 0.285714 0.285714 0.320256 0.320256 0.320256 0.312348 0.312348 0.312348 0.312348 0.312348 0.312348 0.312348 0.312348 0.312348 0.304997 0.304997 0.304997 0.348155 0.348155 0.298142 0.298142 0.298142 0.298142 0.298142 0.298142 0.298142 0.298142 0.298142 0.291730 0.291730 0.291730 0.291730 0.291730 0.291730 0.328798 0.328798 0.285714 0.285714 0.285714 0.285714 0.285714 0.285714 0.328798 0.328798 0.280056 0.280056 0.280056 0.320256 0.320256 0.274721 0.274721 0.274721 0.274721 0.274721 0.274721 0.312348 0.312348 0.269680 0.269680 0.269680 0.304997 0.304997 0.264906 0.264906 0.264906 0.304997 0.304997 0.304997 0.304997 0.260378 0.260378 0.260378 0.298142 0.298142 0.256074 0.256074 0.256074 0.291730 0.291730 0.291730 0.291730 0.291730 0.291730 0.248069 0.248069 0.248069 0.285714 0.285714 0.285714 0.285714 0.244339 0.244339 0.244339 0.280056 0.280056 0.280056 0.280056 0.280056 0.280056 0.274721 0.274721 0.237356 0.237356 0.237356 0.274721 0.274721 0.269680 0.269680 0.269680 0.269680 0.269680 0.269680 0.269680 0.269680 0.264906 0.264906 0.264906 0.264906 0.264906 0.264906 0.260378 0.260378 0.225018 0.225018 0.225018 0.260378 0.260378 0.256074 0.256074 0.256074 0.256074
