# Output from CTFFind version 4.1.9, run on 2019-11-24 12:06:10
# Input file: stack1_ubbm3d_averaged_1_0.0_0_1000_half.mrc ; Number of micrographs: 1
# Pixel size: 1.500 Angstroms ; acceleration voltage: 300.0 keV ; spherical aberration: 0.00 mm ; amplitude contrast: 0.07
# Box size: 512 pixels ; min. res.: 40.0 Angstroms ; max. res.: 6.0 Angstroms ; min. def.: 5000.0 um; max. def. 50000.0 um; num. frames averaged: 1
# 6 lines per micrograph: #1 - spatial frequency (1/Angstroms); #2 - 1D rotational average of spectrum (assuming no astigmatism); #3 - 1D rotational average of spectrum; #4 - CTF fit; #5 - cross-correlation between spectrum and CTF fit; #6 - 2sigma of expected cross correlation of noise
0.000000 0.001302 0.002604 0.003906 0.005208 0.006510 0.007812 0.009115 0.010417 0.011719 0.013021 0.014323 0.015625 0.016927 0.018229 0.019531 0.020833 0.022135 0.023438 0.024740 0.026042 0.027344 0.028646 0.029948 0.031250 0.032552 0.033854 0.035156 0.036458 0.037760 0.039062 0.040365 0.041667 0.042969 0.044271 0.045573 0.046875 0.048177 0.049479 0.050781 0.052083 0.053385 0.054688 0.055990 0.057292 0.058594 0.059896 0.061198 0.062500 0.063802 0.065104 0.066406 0.067708 0.069010 0.070312 0.071615 0.072917 0.074219 0.075521 0.076823 0.078125 0.079427 0.080729 0.082031 0.083333 0.084635 0.085938 0.087240 0.088542 0.089844 0.091146 0.092448 0.093750 0.095052 0.096354 0.097656 0.098958 0.100260 0.101562 0.102865 0.104167 0.105469 0.106771 0.108073 0.109375 0.110677 0.111979 0.113281 0.114583 0.115885 0.117188 0.118490 0.119792 0.121094 0.122396 0.123698 0.125000 0.126302 0.127604 0.128906 0.130208 0.131510 0.132812 0.134115 0.135417 0.136719 0.138021 0.139323 0.140625 0.141927 0.143229 0.144531 0.145833 0.147135 0.148438 0.149740 0.151042 0.152344 0.153646 0.154948 0.156250 0.157552 0.158854 0.160156 0.161458 0.162760 0.164062 0.165365 0.166667 0.167969 0.169271 0.170573 0.171875 0.173177 0.174479 0.175781 0.177083 0.178385 0.179688 0.180990 0.182292 0.183594 0.184896 0.186198 0.187500 0.188802 0.190104 0.191406 0.192708 0.194010 0.195312 0.196615 0.197917 0.199219 0.200521 0.201823 0.203125 0.204427 0.205729 0.207031 0.208333 0.209635 0.210938 0.212240 0.213542 0.214844 0.216146 0.217448 0.218750 0.220052 0.221354 0.222656 0.223958 0.225260 0.226562 0.227865 0.229167 0.230469 0.231771 0.233073 0.234375 0.235677 0.236979 0.238281 0.239583 0.240885 0.242188 0.243490 0.244792 0.246094 0.247396 0.248698 0.250000 0.251302 0.252604 0.253906 0.255208 0.256510 0.257812 0.259115 0.260417 0.261719 0.263021 0.264323 0.265625 0.266927 0.268229 0.269531 0.270833 0.272135 0.273438 0.274740 0.276042 0.277344 0.278646 0.279948 0.281250 0.282552 0.283854 0.285156 0.286458 0.287760 0.289062 0.290365 0.291667 0.292969 0.294271 0.295573 0.296875 0.298177 0.299479 0.300781 0.302083 0.303385 0.304688 0.305990 0.307292 0.308594 0.309896 0.311198 0.312500 0.313802 0.315104 0.316406 0.317708 0.319010 0.320312 0.321615 0.322917 0.324219 0.325521 0.326823 0.328125 0.329427 0.330729 0.332031 0.333333 0.334635 0.335938 0.337240 0.338542 0.339844 0.341146 0.342448 0.343750 0.345052 0.346354 0.347656 0.348958 0.350260 0.351562 0.352865 0.354167 0.355469 0.356771 0.358073 0.359375 0.360677 0.361979 0.363281 0.364583 0.365885 0.367188 0.368490 0.369792 0.371094 0.372396 0.373698 0.375000 0.376302 0.377604 0.378906 0.380208 0.381510 0.382812 0.384115 0.385417 0.386719 0.388021 0.389323 0.390625 0.391927 0.393229 0.394531 0.395833 0.397135 0.398438 0.399740 0.401042 0.402344 0.403646 0.404948 0.406250 0.407552 0.408854 0.410156 0.411458 0.412760 0.414062 0.415365 0.416667 0.417969 0.419271 0.420573 0.421875 0.423177 0.424479 0.425781 0.427083 0.428385 0.429688 0.430990 0.432292 0.433594 0.434896 0.436198 0.437500 0.438802 0.440104 0.441406 0.442708 0.444010 0.445312 0.446615 0.447917 0.449219 0.450521 0.451823 0.453125 0.454427 0.455729 0.457031 0.458333 0.459635 0.460938 0.462240 0.463542 0.464844 0.466146 0.467448 0.468750 0.470052 0.471354
       0.49510        0.49510        0.49510        0.49510        0.49510        0.49510        0.49510        0.49510        0.49510        0.49510        0.49510        0.49510        0.49510        0.49510        0.49510        0.49510        0.49510        0.49510        0.49510        1.36785        2.10217        0.93869        0.13128       -0.02815        0.51507        1.12348        1.05081        0.53292        0.21612        0.19007        0.22475        0.21788        0.23193        0.24417        0.16933        0.14223        0.08775       -0.01067       -0.11908       -0.13194       -0.07963        0.03509        0.26474        0.50547        0.63403        0.64186        0.65635        0.75166        0.88783        0.96089        0.82225        0.48712        0.22480        0.24014        0.41087        0.42168        0.26387        0.14880        0.21370        0.35700        0.50770        0.60557        0.70439        0.75477        0.74419        0.66255        0.54495        0.47486        0.40833        0.35930        0.38764        0.53681        0.66948        0.60713        0.46538        0.42002        0.46671        0.47612        0.43944        0.45629        0.55330        0.56584        0.49509        0.39259        0.41002        0.49952        0.56961        0.54574        0.44840        0.34801        0.31452        0.36315        0.41430        0.42837        0.39312        0.41045        0.51101        0.62682        0.64394        0.58109        0.54571        0.56920        0.60250        0.58393        0.53540        0.52096        0.49911        0.46053        0.38288        0.33482        0.34883        0.40616        0.44571        0.47924        0.53779        0.60773        0.62012        0.57921        0.51629        0.44818        0.38177        0.38714        0.49733        0.61434        0.63251        0.56409        0.50177        0.48249        0.47754        0.48832        0.52024        0.52953        0.47936        0.41455        0.38943        0.42675        0.47150        0.47097        0.46328        0.48499        0.51856        0.53600        0.55690        0.58398        0.59591        0.54461        0.49375        0.48943        0.52350        0.50759        0.46162        0.46339        0.51249        0.50910        0.40291        0.29979        0.32592        0.46125        0.57174        0.56716        0.51106        0.48576        0.46478        0.43068        0.44676        0.53959        0.62447        0.60905        0.52281        0.48365        0.46926        0.47383        0.48388        0.52346        0.55340        0.54717        0.53187        0.51434        0.45981        0.42617        0.47912        0.58104        0.63796        0.58147        0.48315        0.42224        0.41628        0.44593        0.47984        0.48681        0.47216        0.46699        0.46875        0.46183        0.45537        0.48127        0.52233        0.52331        0.49991        0.50083        0.52247        0.50398        0.47070        0.48454        0.54206        0.54527        0.47996        0.42980        0.46893        0.55213        0.58018        0.55802        0.52938        0.50508        0.47685        0.46157        0.49178        0.51417        0.48892        0.43755        0.42809        0.45935        0.50589        0.54205        0.54472        0.50199        0.44441        0.45214        0.50485        0.55069        0.54394        0.51992        0.49476        0.47468        0.47422        0.50338        0.51450        0.50037        0.47469        0.47813        0.48357        0.47855        0.47714        0.49878        0.53075        0.54015        0.52566        0.49362        0.47442        0.50141        0.54985        0.55249        0.48167        0.41372        0.41564        0.47341        0.51668        0.50649        0.48601        0.48647        0.48661        0.47260        0.47201        0.47766        0.49989        0.51037        0.49519        0.46881        0.44781        0.46748        0.49642        0.51564        0.50047        0.47488        0.47301        0.51151        0.54855        0.54491        0.49102        0.44162        0.46074        0.53028        0.57283        0.53886        0.48432        0.46777        0.50965        0.53629        0.48307        0.42418        0.44750        0.53164        0.55342        0.48884        0.42420        0.41609        0.41606        0.41703        0.46478        0.50936        0.49090        0.47751        0.53122        0.57883        0.55822        0.48357        0.43494        0.44279        0.48493        0.52264        0.50687        0.45850        0.43553        0.49655        0.56900        0.55297        0.44912        0.43591        0.50165        0.53268        0.47964        0.45557        0.47231        0.50909        0.54806        0.54068        0.51131        0.50957        0.54063        0.50700        0.40691        0.42925        0.48628        0.45568        0.40204        0.48788        0.55299        0.49553        0.44687        0.51435        0.50641        0.36129        0.32017        0.47106        0.61136        0.58582        0.47266        0.42849        0.40917        0.48710        0.55443        0.55247        0.47326        0.43992        0.49356        0.51411        0.49980        0.50331        0.47311        0.27261       -0.05614       -0.27022       -0.35670
0.495100 0.495100 0.495100 0.495100 0.495100 0.495100 0.495100 0.495100 0.495100 0.495100 0.495100 0.495100 0.495100 0.495100 0.495100 0.495100 0.495100 0.495100 0.495100 1.400315 2.148183 1.122584 0.117855 -0.145318 0.413652 1.232443 1.052789 0.521588 0.257923 0.211709 0.132841 0.214580 0.293455 0.225840 0.194276 0.135626 0.080838 -0.003323 -0.130734 -0.084203 -0.070499 0.003932 0.207469 0.549229 0.631019 0.613249 0.667911 0.712026 0.877691 0.950321 0.915511 0.481031 0.255232 0.222774 0.461242 0.389405 0.296266 0.070185 0.191183 0.389971 0.492426 0.601780 0.686066 0.740437 0.767668 0.632783 0.580702 0.463145 0.402741 0.379486 0.348763 0.551524 0.639332 0.661405 0.493972 0.419043 0.461289 0.434105 0.425802 0.467969 0.526955 0.570517 0.541644 0.387317 0.401764 0.418070 0.604377 0.556635 0.467103 0.359952 0.309695 0.360281 0.404927 0.441608 0.380455 0.394280 0.471485 0.605561 0.659551 0.629220 0.533540 0.553630 0.599394 0.584643 0.536748 0.526550 0.508395 0.492596 0.404927 0.326550 0.329238 0.393609 0.437754 0.466540 0.535848 0.563850 0.619097 0.592675 0.554182 0.473157 0.396017 0.347979 0.466653 0.576976 0.659956 0.593446 0.529498 0.496204 0.477359 0.473059 0.513270 0.518875 0.506286 0.436916 0.392055 0.415892 0.453110 0.501054 0.442825 0.476316 0.497958 0.539031 0.549253 0.572549 0.589803 0.572046 0.508026 0.478612 0.500866 0.530436 0.466629 0.451874 0.500768 0.532805 0.440777 0.329628 0.288670 0.403851 0.514500 0.574925 0.517921 0.503915 0.474970 0.440192 0.419155 0.498913 0.563613 0.618416 0.592777 0.502005 0.453359 0.471093 0.461418 0.523347 0.544603 0.553767 0.534516 0.539487 0.477001 0.432862 0.435348 0.530968 0.611537 0.615244 0.481866 0.441086 0.397216 0.446587 0.464710 0.500919 0.481432 0.456183 0.464934 0.461146 0.480448 0.438408 0.503200 0.530394 0.529282 0.501130 0.512583 0.522644 0.481071 0.459498 0.505336 0.556324 0.514336 0.457920 0.435794 0.506966 0.568158 0.561673 0.553462 0.524417 0.495683 0.465861 0.473910 0.500829 0.512238 0.475635 0.418148 0.447074 0.472091 0.534663 0.541080 0.526764 0.480244 0.439842 0.455039 0.534191 0.569955 0.533894 0.503052 0.478569 0.477997 0.469266 0.527595 0.506320 0.502513 0.471074 0.479420 0.487108 0.477515 0.487855 0.497050 0.535383 0.532010 0.520592 0.483759 0.478224 0.522434 0.561053 0.525842 0.433506 0.410512 0.419063 0.484725 0.526939 0.499865 0.481291 0.492496 0.495115 0.478860 0.448120 0.487657 0.493955 0.521861 0.486576 0.458848 0.452082 0.482159 0.506337 0.500768 0.514949 0.455512 0.484468 0.518478 0.555468 0.541607 0.484678 0.429382 0.469531 0.560886 0.563602 0.544072 0.463673 0.479259 0.508228 0.535569 0.468253 0.406083 0.473422 0.558855 0.548769 0.476071 0.412436 0.411052 0.404285 0.413010 0.489139 0.510333 0.489794 0.462469 0.538806 0.592660 0.541762 0.452515 0.444031 0.451002 0.479316 0.520913 0.513728 0.434062 0.455685 0.481348 0.550077 0.552249 0.441391 0.447275 0.526631 0.492602 0.530414 0.416328 0.467956 0.524288 0.542635 0.553937 0.497938 0.525790 0.557282 0.442317 0.454509 0.412317 0.498377 0.418558 0.426083 0.515329 0.525798 0.495886 0.411805 0.516602 0.550937 0.409085 0.227881 0.469962 0.670604 0.596716 0.412043 0.397321 0.419655 0.489832 0.591471 0.532539 0.449397 0.447872 0.497291 0.516044 0.498321 0.513204 0.453829 0.279757 0.023651 -0.238294
0.072396 0.073459 0.076648 0.081960 0.089394 0.098944 0.110603 0.124363 0.140210 0.158127 0.178089 0.200068 0.224024 0.249911 0.277668 0.307225 0.338495 0.371376 0.405746 0.441465 0.478372 0.516278 0.554973 0.594219 0.633748 0.673265 0.712443 0.750926 0.788327 0.824229 0.858185 0.889724 0.918349 0.943544 0.964774 0.981496 0.993164 0.999232 0.999170 0.992467 0.978647 0.957279 0.927987 0.890470 0.844509 0.789987 0.726899 0.655369 0.575664 0.488202 0.393568 0.292517 0.185986 0.075091 0.038874 0.154441 0.269979 0.383712 0.493740 0.598069 0.694644 0.781392 0.856264 0.917291 0.962640 0.990669 0.999996 0.989554 0.958655 0.907047 0.834961 0.743158 0.632953 0.506235 0.365466 0.213662 0.054352 0.108483 0.270491 0.427062 0.573451 0.704922 0.816918 0.905226 0.966161 0.996741 0.994853 0.959410 0.890471 0.789334 0.658585 0.502094 0.324958 0.133386 0.065482 0.263814 0.453378 0.625881 0.773345 0.888503 0.965192 0.998731 0.986256 0.926992 0.822437 0.676441 0.495165 0.286909 0.061802 0.168639 0.392060 0.595928 0.768252 0.898316 0.977417 0.999515 0.961780 0.864969 0.713593 0.515857 0.283335 0.030395 0.226616 0.470392 0.683830 0.851268 0.959697 0.999884 0.967264 0.862552 0.691987 0.467138 0.204284 0.076642 0.353490 0.603603 0.805701 0.941763 0.998758 0.970043 0.856287 0.665776 0.414049 0.122820 0.181753 0.471330 0.718026 0.897142 0.989776 0.984997 0.881328 0.687357 0.421312 0.109589 0.215699 0.519919 0.769612 0.936265 0.999731 0.950900 0.793248 0.542984 0.227702 0.116419 0.448616 0.728330 0.920233 0.998887 0.952374 0.784405 0.514491 0.176037 0.187510 0.528087 0.799339 0.963069 0.994854 0.888037 0.655376 0.327988 0.048449 0.419812 0.731244 0.935325 0.999564 0.911924 0.683479 0.347551 0.044720 0.431865 0.751622 0.951047 0.995583 0.875472 0.608310 0.237036 0.176505 0.561594 0.850704 0.991519 0.956819 0.750255 0.406767 0.012759 0.431864 0.772324 0.968853 0.982013 0.806681 0.474198 0.047445 0.390579 0.752675 0.964910 0.982113 0.798093 0.448193 0.003230 0.444318 0.799337 0.984429 0.957283 0.721027 0.324970 0.144941 0.584304 0.893338 0.999860 0.876760 0.549687 0.092633 0.388123 0.778381 0.983285 0.950903 0.686205 0.251510 0.247313 0.686151 0.953485 0.979195 0.753772 0.332524 0.177021 0.641942 0.938488 0.985454 0.767267 0.340053 0.181743 0.655324 0.948545 0.977204 0.730199 0.274648 0.261229 0.723558 0.976960 0.944793 0.633381 0.132348 0.410104 0.830503 0.999513 0.862563 0.458653 0.089374 0.611207 0.941756 0.973807 0.693921 0.189152 0.378763 0.824516 0.999830 0.843664 0.404828 0.171769 0.691938 0.977413 0.927598 0.556355 0.010082 0.574740 0.937934 0.968342 0.651760 0.099007 0.491396 0.903853 0.984723 0.700802 0.154508 0.451457 0.888491 0.988616 0.710241 0.157137 0.458572 0.896897 0.983781 0.681548 0.106964 0.512141 0.926364 0.965627 0.610438 0.003247 0.606974 0.966154 0.921512 0.488229 0.153358 0.731226 0.996608 0.832036 0.305262 0.356453 0.863056 0.988856 0.674496 0.057046 0.587741 0.967649 0.907059 0.430017 0.246783 0.810707 0.997359 0.715851 0.095305 0.572112 0.967648 0.898817 0.395067 0.302115 0.853204 0.985818 0.630917 0.038836 0.690776 0.996607 0.798748 0.193873 0.511672 0.955546 0.905939 0.384771 0.338958 0.886031 0.965629 0.531772 0.187475 0.807573 0.992471 0.638337 0.065446 0.734847 0.999860 0.710255 0.023501 0.677954 0.998476
1.000000 1.000000 1.000000 1.000000 1.000000 1.000000 1.000000 1.000000 1.000000 1.000000 1.000000 1.000000 1.000000 1.000000 1.000000 1.000000 1.000000 1.000000 1.000000 1.000000 -0.076095 -0.076095 -0.076095 -0.076095 -0.076095 -0.076095 -0.076095 -0.076095 -0.076095 -0.076095 -0.076095 -0.076095 -0.076095 -0.076095 -0.076095 -0.076095 -0.076095 -0.076095 -0.166859 -0.166859 -0.166859 -0.166859 -0.166859 -0.166859 -0.166859 -0.166859 -0.166859 -0.166859 -0.166859 -0.166859 -0.166859 -0.166859 -0.166859 -0.166859 -0.163984 -0.141377 -0.123524 -0.127424 -0.144853 -0.164801 -0.155357 -0.135962 -0.130667 -0.127007 -0.112289 -0.090038 0.025272 0.083465 0.148815 0.179169 0.197293 0.200270 0.202069 0.190148 0.199632 0.218365 0.237467 0.252396 0.271384 0.283952 0.305514 0.350313 0.387776 0.391963 0.382612 0.371342 0.348211 0.340065 0.321856 0.308158 0.306142 0.303911 0.353386 0.416150 0.482804 0.481713 0.489508 0.523399 0.572059 0.579273 0.584742 0.601138 0.624925 0.624047 0.625023 0.654995 0.695379 0.690185 0.676668 0.662255 0.626127 0.617665 0.673232 0.672019 0.660742 0.654102 0.610517 0.574279 0.541583 0.537230 0.529161 0.472847 0.405611 0.396915 0.377304 0.324399 0.321728 0.337938 0.291283 0.250624 0.218248 0.210704 0.194024 0.129329 0.110833 0.123365 0.072407 0.029341 0.007937 -0.000652 -0.000747 -0.106660 -0.155543 -0.113086 -0.041351 -0.025641 -0.021022 -0.017985 0.014367 0.023342 0.036438 0.076947 0.138900 0.182886 0.169414 0.146753 0.144102 0.148681 0.128304 0.220126 0.307575 0.317647 0.321972 0.355591 0.393029 0.440801 0.452750 0.464327 0.434834 0.435794 0.435802 0.465011 0.580343 0.589639 0.562598 0.573904 0.593869 0.538435 0.500543 0.489633 0.475741 0.482044 0.488131 0.477294 0.504762 0.496898 0.499572 0.451271 0.396791 0.367980 0.262351 0.220912 0.260884 0.232292 0.174328 0.186158 0.157046 0.129514 0.110034 0.063598 0.037304 -0.040470 -0.036912 -0.082883 -0.177288 -0.173585 -0.166613 -0.198172 -0.233466 -0.273123 -0.319996 -0.325868 -0.310508 -0.318037 -0.332285 -0.349435 -0.352736 -0.408945 -0.422592 -0.429273 -0.458737 -0.483311 -0.497894 -0.584070 -0.586473 -0.603083 -0.563047 -0.353664 -0.320143 -0.317344 -0.327398 -0.265065 -0.214451 -0.214610 -0.164136 -0.206586 -0.166523 -0.155114 -0.168787 -0.134308 -0.114451 -0.121701 -0.123053 -0.105289 -0.109362 -0.134688 -0.155121 -0.135208 -0.130747 -0.158153 -0.141943 -0.100694 -0.139966 -0.142278 -0.135417 -0.119367 -0.122640 -0.127137 -0.106039 -0.154160 -0.125420 -0.085957 -0.113601 -0.087550 -0.096948 -0.086343 -0.090288 -0.134530 -0.175733 -0.155285 -0.177131 -0.208797 -0.193903 -0.189916 -0.214905 -0.340578 -0.322493 -0.367650 -0.394816 -0.395480 -0.376236 -0.381335 -0.344399 -0.360840 -0.362533 -0.278311 -0.261821 -0.205340 -0.215084 -0.163034 -0.172385 -0.113208 -0.138276 -0.094448 -0.076107 -0.046639 -0.020322 -0.054664 -0.066504 -0.064047 -0.067667 -0.087640 -0.084958 -0.038174 -0.034979 0.013811 0.041341 0.011757 0.079832 0.101797 0.128935 0.132282 0.160216 0.198213 0.209798 0.278204 0.296773 0.315125 0.346418 0.322393 0.378689 0.408625 0.373165 0.391752 0.405928 0.422342 0.364383 0.371098 0.245297 0.242131 0.240695 0.210461 0.234523 0.165067 0.164137 0.144230 0.172591 0.199906 0.199906 0.199906 0.199906 0.199906 0.107220 0.107220 0.107220 0.107220 0.126044 0.126044 0.126044 0.126044 0.126044 0.126044 0.126044 0.126044 0.163396 0.163396 0.163396 0.163396 0.163396 0.163396 0.163396 0.163396 0.163396
0.000000 0.000000 0.000000 0.000000 0.000000 0.000000 0.000000 0.000000 0.000000 0.000000 0.000000 0.000000 0.000000 0.000000 0.000000 0.000000 0.000000 0.000000 0.000000 0.000000 0.216930 0.216930 0.216930 0.216930 0.216930 0.216930 0.216930 0.216930 0.216930 0.216930 0.216930 0.216930 0.216930 0.216930 0.216930 0.216930 0.216930 0.216930 0.240772 0.240772 0.240772 0.240772 0.240772 0.240772 0.240772 0.240772 0.240772 0.240772 0.240772 0.240772 0.240772 0.240772 0.240772 0.240772 0.240772 0.240772 0.240772 0.240772 0.240772 0.240772 0.240772 0.240772 0.240772 0.240772 0.240772 0.240772 0.269680 0.269680 0.269680 0.269680 0.269680 0.269680 0.269680 0.269680 0.269680 0.269680 0.269680 0.269680 0.269680 0.269680 0.269680 0.269680 0.269680 0.269680 0.269680 0.269680 0.291730 0.291730 0.291730 0.291730 0.291730 0.291730 0.291730 0.291730 0.291730 0.291730 0.291730 0.291730 0.291730 0.291730 0.291730 0.291730 0.304997 0.304997 0.304997 0.304997 0.304997 0.304997 0.304997 0.304997 0.304997 0.304997 0.304997 0.304997 0.304997 0.298142 0.298142 0.298142 0.298142 0.298142 0.298142 0.298142 0.298142 0.298142 0.298142 0.298142 0.298142 0.298142 0.312348 0.312348 0.312348 0.312348 0.312348 0.312348 0.312348 0.312348 0.312348 0.312348 0.312348 0.320256 0.320256 0.320256 0.320256 0.320256 0.320256 0.320256 0.320256 0.320256 0.320256 0.312348 0.312348 0.312348 0.312348 0.312348 0.312348 0.312348 0.312348 0.312348 0.312348 0.312348 0.312348 0.312348 0.312348 0.312348 0.312348 0.312348 0.312348 0.312348 0.328798 0.328798 0.328798 0.328798 0.328798 0.328798 0.328798 0.328798 0.320256 0.320256 0.320256 0.320256 0.320256 0.320256 0.320256 0.320256 0.312348 0.312348 0.312348 0.312348 0.312348 0.312348 0.312348 0.312348 0.304997 0.304997 0.304997 0.304997 0.304997 0.304997 0.304997 0.304997 0.312348 0.312348 0.312348 0.312348 0.312348 0.312348 0.312348 0.312348 0.312348 0.312348 0.312348 0.312348 0.312348 0.312348 0.304997 0.304997 0.304997 0.304997 0.304997 0.304997 0.304997 0.320256 0.320256 0.320256 0.320256 0.320256 0.320256 0.291730 0.291730 0.291730 0.291730 0.291730 0.291730 0.291730 0.304997 0.304997 0.304997 0.304997 0.304997 0.304997 0.304997 0.304997 0.304997 0.304997 0.304997 0.304997 0.298142 0.298142 0.298142 0.298142 0.298142 0.298142 0.291730 0.291730 0.291730 0.291730 0.291730 0.291730 0.291730 0.291730 0.291730 0.291730 0.291730 0.291730 0.304997 0.304997 0.304997 0.304997 0.304997 0.280056 0.280056 0.280056 0.280056 0.280056 0.280056 0.298142 0.298142 0.298142 0.298142 0.298142 0.298142 0.298142 0.298142 0.298142 0.298142 0.291730 0.291730 0.291730 0.291730 0.291730 0.285714 0.285714 0.285714 0.285714 0.285714 0.285714 0.285714 0.285714 0.285714 0.285714 0.280056 0.280056 0.280056 0.280056 0.280056 0.280056 0.280056 0.280056 0.280056 0.280056 0.274721 0.274721 0.274721 0.274721 0.274721 0.298142 0.298142 0.298142 0.298142 0.269680 0.269680 0.269680 0.269680 0.269680 0.291730 0.291730 0.291730 0.291730 0.264906 0.264906 0.264906 0.264906 0.264906 0.285714 0.285714 0.285714 0.285714 0.256074 0.256074 0.256074 0.256074 0.256074 0.280056 0.280056 0.280056 0.280056 0.274721 0.274721 0.274721 0.274721 0.274721 0.274721 0.274721 0.274721 0.269680 0.269680 0.269680 0.269680 0.269680 0.269680 0.269680 0.269680 0.269680
