# Output from CTFFind version 4.1.9, run on 2019-11-24 12:06:07
# Input file: stack1_ubbm3d_averaged_1_1.0_0_500_half.mrc ; Number of micrographs: 1
# Pixel size: 1.500 Angstroms ; acceleration voltage: 300.0 keV ; spherical aberration: 0.00 mm ; amplitude contrast: 0.07
# Box size: 512 pixels ; min. res.: 40.0 Angstroms ; max. res.: 6.0 Angstroms ; min. def.: 5000.0 um; max. def. 50000.0 um; num. frames averaged: 1
# 6 lines per micrograph: #1 - spatial frequency (1/Angstroms); #2 - 1D rotational average of spectrum (assuming no astigmatism); #3 - 1D rotational average of spectrum; #4 - CTF fit; #5 - cross-correlation between spectrum and CTF fit; #6 - 2sigma of expected cross correlation of noise
0.000000 0.001302 0.002604 0.003906 0.005208 0.006510 0.007812 0.009115 0.010417 0.011719 0.013021 0.014323 0.015625 0.016927 0.018229 0.019531 0.020833 0.022135 0.023438 0.024740 0.026042 0.027344 0.028646 0.029948 0.031250 0.032552 0.033854 0.035156 0.036458 0.037760 0.039062 0.040365 0.041667 0.042969 0.044271 0.045573 0.046875 0.048177 0.049479 0.050781 0.052083 0.053385 0.054688 0.055990 0.057292 0.058594 0.059896 0.061198 0.062500 0.063802 0.065104 0.066406 0.067708 0.069010 0.070312 0.071615 0.072917 0.074219 0.075521 0.076823 0.078125 0.079427 0.080729 0.082031 0.083333 0.084635 0.085938 0.087240 0.088542 0.089844 0.091146 0.092448 0.093750 0.095052 0.096354 0.097656 0.098958 0.100260 0.101562 0.102865 0.104167 0.105469 0.106771 0.108073 0.109375 0.110677 0.111979 0.113281 0.114583 0.115885 0.117188 0.118490 0.119792 0.121094 0.122396 0.123698 0.125000 0.126302 0.127604 0.128906 0.130208 0.131510 0.132812 0.134115 0.135417 0.136719 0.138021 0.139323 0.140625 0.141927 0.143229 0.144531 0.145833 0.147135 0.148438 0.149740 0.151042 0.152344 0.153646 0.154948 0.156250 0.157552 0.158854 0.160156 0.161458 0.162760 0.164062 0.165365 0.166667 0.167969 0.169271 0.170573 0.171875 0.173177 0.174479 0.175781 0.177083 0.178385 0.179688 0.180990 0.182292 0.183594 0.184896 0.186198 0.187500 0.188802 0.190104 0.191406 0.192708 0.194010 0.195312 0.196615 0.197917 0.199219 0.200521 0.201823 0.203125 0.204427 0.205729 0.207031 0.208333 0.209635 0.210938 0.212240 0.213542 0.214844 0.216146 0.217448 0.218750 0.220052 0.221354 0.222656 0.223958 0.225260 0.226562 0.227865 0.229167 0.230469 0.231771 0.233073 0.234375 0.235677 0.236979 0.238281 0.239583 0.240885 0.242188 0.243490 0.244792 0.246094 0.247396 0.248698 0.250000 0.251302 0.252604 0.253906 0.255208 0.256510 0.257812 0.259115 0.260417 0.261719 0.263021 0.264323 0.265625 0.266927 0.268229 0.269531 0.270833 0.272135 0.273438 0.274740 0.276042 0.277344 0.278646 0.279948 0.281250 0.282552 0.283854 0.285156 0.286458 0.287760 0.289062 0.290365 0.291667 0.292969 0.294271 0.295573 0.296875 0.298177 0.299479 0.300781 0.302083 0.303385 0.304688 0.305990 0.307292 0.308594 0.309896 0.311198 0.312500 0.313802 0.315104 0.316406 0.317708 0.319010 0.320312 0.321615 0.322917 0.324219 0.325521 0.326823 0.328125 0.329427 0.330729 0.332031 0.333333 0.334635 0.335938 0.337240 0.338542 0.339844 0.341146 0.342448 0.343750 0.345052 0.346354 0.347656 0.348958 0.350260 0.351562 0.352865 0.354167 0.355469 0.356771 0.358073 0.359375 0.360677 0.361979 0.363281 0.364583 0.365885 0.367188 0.368490 0.369792 0.371094 0.372396 0.373698 0.375000 0.376302 0.377604 0.378906 0.380208 0.381510 0.382812 0.384115 0.385417 0.386719 0.388021 0.389323 0.390625 0.391927 0.393229 0.394531 0.395833 0.397135 0.398438 0.399740 0.401042 0.402344 0.403646 0.404948 0.406250 0.407552 0.408854 0.410156 0.411458 0.412760 0.414062 0.415365 0.416667 0.417969 0.419271 0.420573 0.421875 0.423177 0.424479 0.425781 0.427083 0.428385 0.429688 0.430990 0.432292 0.433594 0.434896 0.436198 0.437500 0.438802 0.440104 0.441406 0.442708 0.444010 0.445312 0.446615 0.447917 0.449219 0.450521 0.451823 0.453125 0.454427 0.455729 0.457031 0.458333 0.459635 0.460938 0.462240 0.463542 0.464844 0.466146 0.467448 0.468750 0.470052 0.471354
       0.44569        0.44569        0.44569        0.44569        0.44569        0.44569        0.44569        0.44569        0.44569        0.44569        0.44569        0.44569        0.44569        0.44569        0.44569        0.44569        0.44569        0.44569        0.44569        1.28105        1.96871        0.82883        0.04515       -0.07762        0.50485        1.11247        1.02133        0.50248        0.17457        0.12876        0.16056        0.17565        0.18326        0.15317        0.06968        0.09117        0.08422       -0.03087       -0.14483       -0.12057       -0.03291        0.02576        0.15210        0.37437        0.57593        0.66264        0.68694        0.73730        0.84180        0.86662        0.71732        0.42108        0.19800        0.19439        0.33211        0.39693        0.31192        0.18500        0.14595        0.21246        0.35313        0.47178        0.60619        0.71600        0.74750        0.64964        0.48839        0.39673        0.34884        0.31637        0.35571        0.49981        0.63989        0.59326        0.47451        0.42842        0.44025        0.41364        0.34529        0.34444        0.45832        0.52242        0.47466        0.33318        0.28723        0.37458        0.48850        0.50788        0.45659        0.40016        0.39624        0.41453        0.39716        0.35445        0.30503        0.34182        0.45028        0.55033        0.58012        0.53870        0.50902        0.49320        0.50627        0.50074        0.47335        0.43696        0.39827        0.38368        0.36702        0.37196        0.41316        0.46282        0.44226        0.38647        0.41045        0.51744        0.57848        0.52944        0.44827        0.42125        0.42741        0.41880        0.44105        0.48988        0.50832        0.46923        0.39584        0.34639        0.36720        0.43202        0.48499        0.47022        0.39905        0.37774        0.44258        0.55460        0.57003        0.46311        0.35084        0.35091        0.44004        0.52860        0.53383        0.47953        0.43687        0.42138        0.44729        0.46884        0.49206        0.46852        0.43659        0.41781        0.41558        0.40313        0.36275        0.35566        0.40589        0.47985        0.49349        0.44900        0.42120        0.44020        0.45382        0.41059        0.37824        0.43340        0.51145        0.54242        0.49942        0.46200        0.43190        0.41179        0.40996        0.44600        0.49255        0.50335        0.48119        0.45123        0.43631        0.43634        0.45703        0.47910        0.50086        0.48473        0.45000        0.42512        0.42669        0.43910        0.43189        0.40815        0.39848        0.42443        0.43659        0.40546        0.38421        0.43165        0.50575        0.51227        0.45739        0.41661        0.41344        0.41775        0.43104        0.46086        0.49191        0.46743        0.42419        0.41536        0.45657        0.51805        0.54134        0.50691        0.44794        0.42363        0.46138        0.49949        0.49766        0.45527        0.42050        0.39078        0.39848        0.44979        0.48909        0.46986        0.39298        0.35229        0.37363        0.41520        0.42023        0.43114        0.46926        0.51157        0.50937        0.45938        0.42927        0.44150        0.46348        0.46232        0.42788        0.40351        0.40296        0.42592        0.45523        0.48050        0.48265        0.47775        0.47411        0.48376        0.47745        0.45740        0.43992        0.43487        0.42811        0.42661        0.44063        0.46452        0.45789        0.41668        0.39704        0.42023        0.42942        0.40626        0.40413        0.42905        0.45824        0.45134        0.41541        0.40744        0.43969        0.46685        0.46220        0.45624        0.48611        0.49832        0.45506        0.41885        0.45230        0.49813        0.47023        0.37771        0.34104        0.39099        0.45111        0.47234        0.46655        0.44917        0.43066        0.41969        0.42801        0.44881        0.46507        0.46916        0.46215        0.45450        0.44218        0.46441        0.46858        0.42278        0.36446        0.35255        0.38409        0.43832        0.46034        0.47889        0.48454        0.46722        0.43106        0.41781        0.43081        0.44224        0.45735        0.46240        0.45419        0.42892        0.47948        0.53759        0.50378        0.42207        0.41453        0.47670        0.48328        0.41211        0.37770        0.40961        0.41618        0.37111        0.36902        0.40368        0.40174        0.35876        0.38833        0.44029        0.43546        0.39108        0.40211        0.49371        0.58107        0.58903        0.55096        0.56807        0.51922        0.31789        0.15956        0.31873        0.61515        0.63277        0.39936        0.31072        0.35752        0.36996        0.36264        0.44764        0.43057        0.29227        0.32429        0.58040        0.70817        0.53666        0.28702        0.10420       -0.06516       -0.18202       -0.23375
0.445691 0.445691 0.445691 0.445691 0.445691 0.445691 0.445691 0.445691 0.445691 0.445691 0.445691 0.445691 0.445691 0.445691 0.445691 0.445691 0.445691 0.445691 0.445691 1.315541 2.035695 0.996910 0.010905 -0.190398 0.411571 1.217822 1.028512 0.482885 0.219837 0.145936 0.061054 0.185585 0.243694 0.142770 0.096591 0.080627 0.085704 0.001060 -0.188823 -0.081806 -0.024797 0.004588 0.096055 0.406152 0.556472 0.644681 0.689850 0.730902 0.809291 0.869285 0.796901 0.404260 0.233740 0.169091 0.403808 0.347927 0.329434 0.125187 0.156832 0.247563 0.331025 0.461925 0.564925 0.700679 0.768149 0.694973 0.510165 0.414892 0.351120 0.321152 0.328128 0.528671 0.588204 0.613797 0.514560 0.422672 0.462429 0.400623 0.332476 0.345540 0.417207 0.508141 0.534959 0.353307 0.284184 0.360201 0.482219 0.486208 0.479637 0.400688 0.407566 0.428413 0.405393 0.371968 0.273064 0.334532 0.400044 0.527637 0.599344 0.574930 0.503392 0.520741 0.482253 0.482639 0.479929 0.447877 0.403292 0.394573 0.371956 0.379897 0.391115 0.455021 0.465822 0.388591 0.368031 0.467269 0.552458 0.562211 0.478651 0.420105 0.425259 0.413619 0.445553 0.484157 0.503459 0.481827 0.412274 0.365811 0.368627 0.401478 0.475692 0.464104 0.440067 0.375703 0.404058 0.532156 0.564846 0.548270 0.386019 0.314088 0.390982 0.524810 0.566382 0.501599 0.441228 0.418139 0.435765 0.443525 0.475888 0.497990 0.471189 0.423637 0.402558 0.411563 0.373334 0.348429 0.367383 0.451247 0.503988 0.471359 0.415954 0.424998 0.463851 0.429436 0.377033 0.388546 0.497602 0.535294 0.508222 0.475976 0.439845 0.415076 0.398376 0.437008 0.469057 0.516135 0.483709 0.475074 0.425113 0.439543 0.444684 0.463477 0.480854 0.523224 0.464340 0.419923 0.407275 0.436874 0.457718 0.417510 0.406916 0.402687 0.448460 0.418822 0.387261 0.376817 0.474948 0.526021 0.500375 0.438406 0.389142 0.427389 0.426967 0.432843 0.466319 0.501995 0.457703 0.408992 0.440912 0.470959 0.530640 0.532983 0.485637 0.441640 0.423769 0.471097 0.521590 0.486102 0.426807 0.417665 0.383513 0.404796 0.466889 0.487256 0.449754 0.347288 0.357762 0.401386 0.412144 0.428072 0.457380 0.491306 0.510708 0.497574 0.452716 0.423542 0.449992 0.470649 0.468897 0.416547 0.389863 0.415164 0.436740 0.452765 0.490448 0.472651 0.483759 0.467942 0.485726 0.470829 0.465330 0.433609 0.435287 0.426340 0.423258 0.441193 0.476306 0.464106 0.397602 0.400869 0.421025 0.441367 0.391330 0.405482 0.425173 0.462355 0.443021 0.412092 0.410405 0.447060 0.478564 0.446027 0.455899 0.497086 0.509501 0.458774 0.416735 0.475032 0.500650 0.457922 0.362014 0.352644 0.411301 0.460996 0.476764 0.467223 0.429924 0.430167 0.416285 0.436988 0.450648 0.465717 0.481790 0.450139 0.449132 0.446833 0.487701 0.468677 0.401277 0.361295 0.351501 0.405625 0.466275 0.465596 0.470971 0.483044 0.457632 0.436410 0.405923 0.437175 0.451680 0.456959 0.463591 0.427745 0.454573 0.470931 0.540602 0.475849 0.404494 0.441971 0.504405 0.473633 0.382372 0.392771 0.426286 0.385301 0.383001 0.365409 0.429516 0.379768 0.352123 0.407126 0.468322 0.407107 0.381494 0.432809 0.500105 0.570506 0.621453 0.550849 0.566449 0.551756 0.307916 0.132567 0.370225 0.630798 0.595525 0.301508 0.286665 0.406416 0.321236 0.401664 0.475313 0.461001 0.294854 0.299477 0.598006 0.732336 0.587386 0.310924 0.100668 -0.063939 -0.233754
0.072396 0.073451 0.076616 0.081888 0.089265 0.098743 0.110315 0.123972 0.139700 0.157483 0.177297 0.199113 0.222894 0.248593 0.276152 0.305500 0.336554 0.369214 0.403360 0.438855 0.475540 0.513233 0.551727 0.590787 0.630153 0.669535 0.708613 0.747037 0.784427 0.820375 0.854442 0.886165 0.915055 0.940602 0.962283 0.979560 0.991891 0.998740 0.999576 0.993893 0.981214 0.961105 0.933187 0.897147 0.852756 0.799880 0.738495 0.668702 0.590736 0.504985 0.411995 0.312482 0.207337 0.097627 0.015400 0.130329 0.245578 0.359421 0.470003 0.575369 0.673500 0.762344 0.839866 0.904096 0.953185 0.985459 0.999483 0.994118 0.968585 0.922519 0.856022 0.769702 0.664713 0.542768 0.406147 0.257681 0.100723 0.060911 0.223016 0.381095 0.530483 0.666479 0.784504 0.880271 0.949953 0.990363 0.999121 0.974808 0.917100 0.826867 0.706237 0.558609 0.388618 0.202038 0.005630 0.193073 0.386037 0.565044 0.722047 0.849556 0.941024 0.991230 0.996624 0.955618 0.868806 0.739082 0.571647 0.373891 0.155145 0.073700 0.300698 0.513447 0.699777 0.848471 0.949992 0.997162 0.985753 0.914928 0.787504 0.609992 0.392397 0.147765 0.108523 0.359653 0.588476 0.778683 0.916031 0.989491 0.992243 0.922423 0.783538 0.584492 0.339188 0.065691 0.215002 0.480515 0.708876 0.880390 0.979422 0.995972 0.926830 0.776215 0.555767 0.283855 0.015774 0.315969 0.588576 0.807104 0.949388 0.999986 0.952049 0.808423 0.581813 0.293922 0.026412 0.345972 0.630541 0.848603 0.974961 0.993838 0.901096 0.705222 0.426906 0.097131 0.246062 0.561858 0.811527 0.963292 0.996593 0.905156 0.698396 0.400851 0.049602 0.310119 0.630638 0.868191 0.989073 0.974697 0.824796 0.558196 0.210866 0.168597 0.525570 0.807250 0.970596 0.989182 0.857881 0.594444 0.237604 0.158222 0.531013 0.820802 0.979497 0.979182 0.817480 0.518882 0.131559 0.279980 0.645441 0.900773 0.999630 0.922230 0.679820 0.313724 0.111184 0.517606 0.829831 0.987993 0.959980 0.748521 0.391825 0.042704 0.470772 0.807398 0.983953 0.962586 0.744963 0.373197 0.077610 0.514089 0.843795 0.995005 0.932828 0.667961 0.255756 0.214639 0.639147 0.921750 0.996552 0.843794 0.495824 0.031134 0.442710 0.813702 0.992033 0.932401 0.646342 0.201061 0.295532 0.720541 0.966510 0.969093 0.724710 0.293209 0.215854 0.670459 0.950303 0.979081 0.746164 0.311294 0.209716 0.675201 0.956077 0.972116 0.715817 0.256473 0.277467 0.733741 0.979623 0.941190 0.626567 0.125698 0.414323 0.831911 0.999526 0.863426 0.462073 0.083376 0.604708 0.938213 0.976594 0.704513 0.205875 0.360815 0.812108 0.999105 0.857430 0.430724 0.141305 0.667596 0.969277 0.941106 0.589429 0.032690 0.537166 0.920346 0.979634 0.690742 0.153665 0.440421 0.876495 0.993699 0.745832 0.221127 0.387535 0.852628 0.997162 0.763144 0.236514 0.382706 0.855411 0.995837 0.745749 0.200332 0.426295 0.884111 0.987211 0.690562 0.111482 0.514944 0.930480 0.960553 0.589127 0.031142 0.639914 0.977810 0.897639 0.430274 0.224962 0.783772 0.999983 0.775114 0.205265 0.457825 0.916780 0.962248 0.570006 0.084122 0.701198 0.995129 0.826272 0.269865 0.415117 0.905052 0.964763 0.562061 0.112670 0.734418 0.999489 0.774956 0.167605 0.524357 0.956405 0.909705 0.403982 0.307872 0.864371 0.978827 0.588718 0.107594 0.749438 0.999839 0.723764 0.063456 0.632181 0.990706 0.816402 0.199592 0.527263 0.967161 0.875862 0.299854 0.444169
1.000000 1.000000 1.000000 1.000000 1.000000 1.000000 1.000000 1.000000 1.000000 1.000000 1.000000 1.000000 1.000000 1.000000 1.000000 1.000000 1.000000 1.000000 1.000000 1.000000 -0.043083 -0.043083 -0.043083 -0.043083 -0.043083 -0.043083 -0.043083 -0.043083 -0.043083 -0.043083 -0.043083 -0.043083 -0.043083 -0.043083 -0.043083 -0.043083 -0.043083 -0.043083 -0.181499 -0.181499 -0.181499 -0.181499 -0.181499 -0.181499 -0.181499 -0.181499 -0.181499 -0.181499 -0.181499 -0.181499 -0.181499 -0.181499 -0.181499 -0.181499 -0.181499 -0.181499 -0.202044 -0.161857 -0.095222 -0.082061 -0.087241 -0.090821 -0.089360 -0.084066 -0.080930 -0.057014 -0.034165 0.104636 0.207733 0.256378 0.258467 0.250109 0.248255 0.251887 0.243514 0.267387 0.292744 0.325774 0.339531 0.341117 0.337523 0.364542 0.422713 0.447791 0.422752 0.407690 0.418474 0.398766 0.375834 0.362994 0.343772 0.320684 0.362978 0.446207 0.504810 0.505238 0.497773 0.517490 0.566320 0.561448 0.576413 0.563020 0.552838 0.557422 0.529578 0.452462 0.387046 0.388710 0.430176 0.413681 0.403237 0.427222 0.449968 0.436172 0.444322 0.461975 0.374331 0.380715 0.354069 0.293410 0.264226 0.266704 0.223642 0.177066 0.145193 0.135255 0.129901 0.129324 0.130623 0.114089 0.087094 0.100248 0.118472 0.126325 0.174935 0.226344 0.203421 0.177557 0.184130 0.186681 0.173096 0.162217 0.164716 0.154791 0.180504 0.220441 0.261402 0.277562 0.293902 0.343376 0.444278 0.437099 0.444062 0.449575 0.441197 0.461597 0.477982 0.467092 0.490289 0.450719 0.532568 0.552551 0.545565 0.576659 0.628185 0.630491 0.597799 0.596138 0.537386 0.537397 0.498346 0.470605 0.433829 0.408917 0.411094 0.374871 0.293908 0.332061 0.232284 0.208261 0.216382 0.168458 0.175358 0.180670 0.143234 0.082206 0.082549 0.024739 -0.032867 -0.066710 -0.109083 -0.175311 -0.199764 -0.215466 -0.277038 -0.277743 -0.290168 -0.282390 -0.290323 -0.313866 -0.299673 -0.345458 -0.331507 -0.319943 -0.362038 -0.354061 -0.341293 -0.348505 -0.367425 -0.346165 -0.383787 -0.429798 -0.430874 -0.411879 -0.380563 -0.394747 -0.413974 -0.455300 -0.453867 -0.452294 -0.465123 -0.464938 -0.438928 -0.455251 -0.453708 -0.478136 -0.478142 -0.407785 -0.392153 -0.400024 -0.421855 -0.399745 -0.369310 -0.389109 -0.370122 -0.334436 -0.316887 -0.349198 -0.381626 -0.372830 -0.444703 -0.418977 -0.413908 -0.421897 -0.417837 -0.432376 -0.348557 -0.357034 -0.403533 -0.407197 -0.352178 -0.345692 -0.311530 -0.320053 -0.325542 -0.336530 -0.325383 -0.360281 -0.396111 -0.384795 -0.409787 -0.384891 -0.326087 -0.333182 -0.314222 -0.299142 -0.267104 -0.212395 -0.250259 -0.285985 -0.125296 -0.091161 -0.111265 -0.113778 -0.107127 -0.107283 -0.067000 -0.037684 -0.064633 -0.024325 -0.019716 -0.042126 -0.046368 -0.020239 0.043094 0.021543 0.068976 0.085611 0.117843 0.092678 0.142695 0.141222 0.122496 0.119485 0.181619 0.182803 0.218630 0.199635 0.248789 0.248573 0.268983 0.255369 0.314563 0.323241 0.356150 0.334476 0.361507 0.372563 0.348524 0.366203 0.384871 0.361342 0.366030 0.366694 0.379784 0.359136 0.367664 0.331171 0.342709 0.323357 0.285274 0.264116 0.251124 0.238646 0.219556 0.177143 0.168814 0.133673 0.122664 0.103547 0.209735 0.166429 0.173279 0.092639 0.111907 0.111907 0.111907 0.111907 0.111907 0.098748 0.098748 0.098748 0.098748 0.098748 0.098748 0.098748 0.098748 0.108509 0.108509 0.108509 0.108509 0.114079 0.114079 0.114079 0.114079 0.114079 0.137978 0.137978 0.137978 0.137978 0.137978 0.137978 0.137978
0.000000 0.000000 0.000000 0.000000 1264262740583237632.000000 484648580283790976.000000 788940969902272512.000000 662550458951500672.000000 585563204629702912.000000 498264657474706368.000000 749542719516762880.000000 670345446875767808.000000 553008516769541120.000000 969303207952373632.000000 1247136747372704000.000000 1711272491311897344.000000 547844385595703744.000000 953444401901259776.000000 1112124270941881088.000000 290621886655156672.000000 0.216930 0.216930 0.216930 0.216930 0.216930 0.216930 0.216930 0.216930 0.216930 0.216930 0.216930 0.216930 0.216930 0.216930 0.216930 0.216930 0.216930 0.216930 0.234082 0.234082 0.234082 0.234082 0.234082 0.234082 0.234082 0.234082 0.234082 0.234082 0.234082 0.234082 0.234082 0.234082 0.234082 0.234082 0.234082 0.234082 0.234082 0.234082 0.234082 0.234082 0.234082 0.234082 0.234082 0.234082 0.234082 0.234082 0.234082 0.274721 0.274721 0.274721 0.274721 0.274721 0.274721 0.274721 0.274721 0.274721 0.274721 0.274721 0.274721 0.274721 0.274721 0.274721 0.274721 0.274721 0.274721 0.274721 0.291730 0.291730 0.291730 0.291730 0.291730 0.291730 0.291730 0.291730 0.291730 0.291730 0.291730 0.291730 0.291730 0.291730 0.291730 0.291730 0.298142 0.298142 0.298142 0.298142 0.298142 0.298142 0.298142 0.298142 0.298142 0.298142 0.298142 0.298142 0.298142 0.298142 0.312348 0.312348 0.312348 0.312348 0.312348 0.312348 0.312348 0.312348 0.312348 0.312348 0.312348 0.312348 0.312348 0.312348 0.312348 0.312348 0.312348 0.312348 0.312348 0.312348 0.312348 0.312348 0.312348 0.304997 0.304997 0.304997 0.304997 0.304997 0.304997 0.304997 0.304997 0.304997 0.304997 0.304997 0.320256 0.320256 0.320256 0.320256 0.320256 0.320256 0.320256 0.320256 0.320256 0.312348 0.312348 0.312348 0.312348 0.312348 0.312348 0.312348 0.312348 0.312348 0.304997 0.304997 0.304997 0.304997 0.304997 0.304997 0.304997 0.304997 0.304997 0.320256 0.320256 0.320256 0.320256 0.320256 0.320256 0.320256 0.320256 0.312348 0.312348 0.312348 0.312348 0.312348 0.312348 0.312348 0.312348 0.304997 0.304997 0.304997 0.304997 0.304997 0.304997 0.304997 0.304997 0.312348 0.312348 0.312348 0.312348 0.312348 0.312348 0.312348 0.312348 0.312348 0.312348 0.312348 0.312348 0.312348 0.312348 0.304997 0.304997 0.304997 0.304997 0.304997 0.304997 0.304997 0.320256 0.320256 0.320256 0.320256 0.320256 0.320256 0.291730 0.291730 0.291730 0.291730 0.291730 0.291730 0.291730 0.304997 0.304997 0.304997 0.304997 0.304997 0.304997 0.304997 0.304997 0.304997 0.304997 0.304997 0.304997 0.298142 0.298142 0.298142 0.298142 0.298142 0.298142 0.291730 0.291730 0.291730 0.291730 0.291730 0.291730 0.291730 0.291730 0.291730 0.291730 0.291730 0.291730 0.304997 0.304997 0.304997 0.304997 0.304997 0.280056 0.280056 0.280056 0.280056 0.280056 0.280056 0.298142 0.298142 0.298142 0.298142 0.298142 0.298142 0.298142 0.298142 0.298142 0.298142 0.291730 0.291730 0.291730 0.291730 0.291730 0.285714 0.285714 0.285714 0.285714 0.285714 0.285714 0.285714 0.285714 0.285714 0.285714 0.280056 0.280056 0.280056 0.280056 0.280056 0.280056 0.280056 0.280056 0.280056 0.280056 0.274721 0.274721 0.274721 0.274721 0.274721 0.298142 0.298142 0.298142 0.298142 0.269680 0.269680 0.269680 0.269680 0.269680 0.264906 0.264906 0.264906 0.264906 0.264906 0.285714 0.285714 0.285714 0.285714 0.260378 0.260378 0.260378 0.260378 0.260378 0.280056 0.280056 0.280056 0.280056 0.280056 0.280056 0.280056 0.280056 0.274721 0.274721 0.274721 0.274721 0.251976 0.251976 0.251976 0.251976 0.251976 0.269680 0.269680 0.269680 0.269680 0.269680 0.269680 0.269680
