# Output from CTFFind version 4.1.9, run on 2019-11-24 12:06:05
# Input file: stack1_ubbm3d_averaged_1_0.0_0_0_half.mrc ; Number of micrographs: 1
# Pixel size: 1.500 Angstroms ; acceleration voltage: 300.0 keV ; spherical aberration: 0.00 mm ; amplitude contrast: 0.07
# Box size: 512 pixels ; min. res.: 40.0 Angstroms ; max. res.: 6.0 Angstroms ; min. def.: 5000.0 um; max. def. 50000.0 um; num. frames averaged: 1
# 6 lines per micrograph: #1 - spatial frequency (1/Angstroms); #2 - 1D rotational average of spectrum (assuming no astigmatism); #3 - 1D rotational average of spectrum; #4 - CTF fit; #5 - cross-correlation between spectrum and CTF fit; #6 - 2sigma of expected cross correlation of noise
0.000000 0.001302 0.002604 0.003906 0.005208 0.006510 0.007812 0.009115 0.010417 0.011719 0.013021 0.014323 0.015625 0.016927 0.018229 0.019531 0.020833 0.022135 0.023438 0.024740 0.026042 0.027344 0.028646 0.029948 0.031250 0.032552 0.033854 0.035156 0.036458 0.037760 0.039062 0.040365 0.041667 0.042969 0.044271 0.045573 0.046875 0.048177 0.049479 0.050781 0.052083 0.053385 0.054688 0.055990 0.057292 0.058594 0.059896 0.061198 0.062500 0.063802 0.065104 0.066406 0.067708 0.069010 0.070312 0.071615 0.072917 0.074219 0.075521 0.076823 0.078125 0.079427 0.080729 0.082031 0.083333 0.084635 0.085938 0.087240 0.088542 0.089844 0.091146 0.092448 0.093750 0.095052 0.096354 0.097656 0.098958 0.100260 0.101562 0.102865 0.104167 0.105469 0.106771 0.108073 0.109375 0.110677 0.111979 0.113281 0.114583 0.115885 0.117188 0.118490 0.119792 0.121094 0.122396 0.123698 0.125000 0.126302 0.127604 0.128906 0.130208 0.131510 0.132812 0.134115 0.135417 0.136719 0.138021 0.139323 0.140625 0.141927 0.143229 0.144531 0.145833 0.147135 0.148438 0.149740 0.151042 0.152344 0.153646 0.154948 0.156250 0.157552 0.158854 0.160156 0.161458 0.162760 0.164062 0.165365 0.166667 0.167969 0.169271 0.170573 0.171875 0.173177 0.174479 0.175781 0.177083 0.178385 0.179688 0.180990 0.182292 0.183594 0.184896 0.186198 0.187500 0.188802 0.190104 0.191406 0.192708 0.194010 0.195312 0.196615 0.197917 0.199219 0.200521 0.201823 0.203125 0.204427 0.205729 0.207031 0.208333 0.209635 0.210938 0.212240 0.213542 0.214844 0.216146 0.217448 0.218750 0.220052 0.221354 0.222656 0.223958 0.225260 0.226562 0.227865 0.229167 0.230469 0.231771 0.233073 0.234375 0.235677 0.236979 0.238281 0.239583 0.240885 0.242188 0.243490 0.244792 0.246094 0.247396 0.248698 0.250000 0.251302 0.252604 0.253906 0.255208 0.256510 0.257812 0.259115 0.260417 0.261719 0.263021 0.264323 0.265625 0.266927 0.268229 0.269531 0.270833 0.272135 0.273438 0.274740 0.276042 0.277344 0.278646 0.279948 0.281250 0.282552 0.283854 0.285156 0.286458 0.287760 0.289062 0.290365 0.291667 0.292969 0.294271 0.295573 0.296875 0.298177 0.299479 0.300781 0.302083 0.303385 0.304688 0.305990 0.307292 0.308594 0.309896 0.311198 0.312500 0.313802 0.315104 0.316406 0.317708 0.319010 0.320312 0.321615 0.322917 0.324219 0.325521 0.326823 0.328125 0.329427 0.330729 0.332031 0.333333 0.334635 0.335938 0.337240 0.338542 0.339844 0.341146 0.342448 0.343750 0.345052 0.346354 0.347656 0.348958 0.350260 0.351562 0.352865 0.354167 0.355469 0.356771 0.358073 0.359375 0.360677 0.361979 0.363281 0.364583 0.365885 0.367188 0.368490 0.369792 0.371094 0.372396 0.373698 0.375000 0.376302 0.377604 0.378906 0.380208 0.381510 0.382812 0.384115 0.385417 0.386719 0.388021 0.389323 0.390625 0.391927 0.393229 0.394531 0.395833 0.397135 0.398438 0.399740 0.401042 0.402344 0.403646 0.404948 0.406250 0.407552 0.408854 0.410156 0.411458 0.412760 0.414062 0.415365 0.416667 0.417969 0.419271 0.420573 0.421875 0.423177 0.424479 0.425781 0.427083 0.428385 0.429688 0.430990 0.432292 0.433594 0.434896 0.436198 0.437500 0.438802 0.440104 0.441406 0.442708 0.444010 0.445312 0.446615 0.447917 0.449219 0.450521 0.451823 0.453125 0.454427 0.455729 0.457031 0.458333 0.459635 0.460938 0.462240 0.463542 0.464844 0.466146 0.467448 0.468750 0.470052 0.471354
       0.49005        0.49005        0.49005        0.49005        0.49005        0.49005        0.49005        0.49005        0.49005        0.49005        0.49005        0.49005        0.49005        0.49005        0.49005        0.49005        0.49005        0.49005        0.49005        0.59068        0.36324        0.03206        0.09398        0.45485        0.74181        0.68527        0.54689        0.54330        0.65389        0.65029        0.51321        0.37896        0.42432        0.53980        0.57688        0.49405        0.34083        0.28077        0.32766        0.43449        0.46855        0.42389        0.41519        0.49073        0.56075        0.53038        0.39631        0.29807        0.30430        0.40534        0.49495        0.50817        0.51005        0.56804        0.65685        0.61041        0.44479        0.38611        0.52816        0.71743        0.69830        0.52546        0.40909        0.42346        0.45377        0.42078        0.42003        0.45244        0.47399        0.41436        0.38373        0.44584        0.57154        0.63091        0.55416        0.44130        0.39574        0.45998        0.53281        0.57572        0.59184        0.57334        0.49432        0.41675        0.39335        0.42965        0.45281        0.47965        0.54109        0.61027        0.60495        0.53861        0.45074        0.36968        0.30463        0.34911        0.51449        0.62602        0.57474        0.44901        0.44484        0.53119        0.56331        0.46026        0.37844        0.42864        0.57056        0.63488        0.58017        0.47294        0.44546        0.43848        0.45495        0.47402        0.48686        0.46231        0.39564        0.35426        0.40515        0.50579        0.54318        0.49900        0.45269        0.46581        0.49563        0.50962        0.51907        0.52936        0.54539        0.53627        0.54195        0.58424        0.62177        0.56744        0.43350        0.35706        0.39015        0.45911        0.46054        0.38112        0.32904        0.34855        0.44102        0.54794        0.62913        0.62590        0.55563        0.49246        0.51058        0.54896        0.54684        0.52287        0.52982        0.55077        0.55489        0.50975        0.44582        0.39452        0.36992        0.42030        0.50415        0.56686        0.54742        0.48432        0.44087        0.44635        0.44162        0.43578        0.47496        0.55787        0.59354        0.55569        0.47963        0.44039        0.44058        0.45641        0.48411        0.52437        0.57103        0.57433        0.52045        0.45471        0.42445        0.45820        0.49435        0.47267        0.42929        0.44545        0.50941        0.54548        0.50049        0.45039        0.46846        0.51034        0.53995        0.52048        0.48019        0.44242        0.44872        0.48022        0.49081        0.47538        0.50119        0.56688        0.57582        0.50533        0.46611        0.50631        0.53591        0.50493        0.45368        0.46273        0.49028        0.47767        0.47234        0.50046        0.55012        0.55377        0.49943        0.42894        0.41711        0.46703        0.50846        0.49602        0.47659        0.49951        0.53417        0.54441        0.53496        0.51792        0.46944        0.40553        0.38091        0.41784        0.47149        0.47205        0.44573        0.43603        0.45475        0.47651        0.47973        0.47500        0.48723        0.52233        0.56501        0.60252        0.62713        0.61150        0.54606        0.48298        0.49048        0.53708        0.53018        0.45394        0.37068        0.36473        0.43737        0.47211        0.45245        0.43994        0.45461        0.47933        0.50744        0.53757        0.54908        0.55054        0.52413        0.47888        0.43764        0.43756        0.46925        0.50000        0.51080        0.50132        0.47437        0.44774        0.44014        0.46246        0.49203        0.49506        0.48867        0.51192        0.55431        0.55024        0.47685        0.40903        0.42230        0.45613        0.47100        0.50404        0.54387        0.51185        0.40544        0.33579        0.39411        0.46461        0.51679        0.55171        0.59896        0.58853        0.53804        0.52534        0.56243        0.55275        0.49585        0.44687        0.44989        0.48211        0.50961        0.49209        0.45554        0.45415        0.48933        0.50620        0.49735        0.47855        0.46600        0.45767        0.45610        0.44287        0.42859        0.44098        0.44380        0.47573        0.48744        0.54308        0.58082        0.53275        0.41287        0.37946        0.45300        0.49491        0.43379        0.43125        0.52636        0.58101        0.47546        0.38704        0.43188        0.52438        0.53286        0.47964        0.44121        0.47996        0.53027        0.53509        0.48559        0.46357        0.42466        0.37120        0.36742        0.48039        0.55063        0.51753        0.49094        0.57045        0.62215        0.48549        0.22904        0.00212       -0.14709       -0.20675       -0.22777
0.490053 0.490053 0.490053 0.490053 0.490053 0.490053 0.490053 0.490053 0.490053 0.490053 0.490053 0.490053 0.490053 0.490053 0.490053 0.490053 0.490053 0.490053 0.490053 0.626947 0.369793 0.021888 0.142372 0.487691 0.723460 0.708975 0.492387 0.513052 0.682102 0.673907 0.552663 0.363562 0.373334 0.588931 0.556232 0.496996 0.389307 0.255174 0.284749 0.428201 0.458469 0.453739 0.398831 0.502860 0.519946 0.539899 0.404159 0.321624 0.285621 0.406483 0.500224 0.532536 0.499303 0.567420 0.643024 0.642234 0.478282 0.355269 0.521573 0.700075 0.710698 0.563269 0.406428 0.396584 0.439632 0.464322 0.410169 0.453559 0.476221 0.412641 0.394276 0.436330 0.545227 0.607900 0.579437 0.426008 0.372495 0.467377 0.519869 0.579501 0.544485 0.603855 0.504714 0.426703 0.414299 0.419342 0.434670 0.472998 0.503921 0.572727 0.621009 0.573725 0.441501 0.409315 0.298673 0.311756 0.450858 0.560848 0.604934 0.495763 0.418566 0.482729 0.562435 0.545594 0.370866 0.359636 0.580097 0.634549 0.591152 0.470467 0.467055 0.414170 0.479006 0.443643 0.484753 0.469707 0.427945 0.338857 0.387675 0.490170 0.554876 0.520611 0.451984 0.438984 0.453512 0.520752 0.528691 0.496292 0.536954 0.553023 0.524263 0.584014 0.619331 0.592681 0.485183 0.367519 0.389635 0.428166 0.451953 0.459392 0.344149 0.336563 0.427259 0.505479 0.595043 0.659106 0.611513 0.498173 0.510222 0.549170 0.557366 0.511023 0.537420 0.552580 0.549898 0.519239 0.493296 0.437675 0.380555 0.356437 0.457141 0.548550 0.567892 0.536189 0.435049 0.433802 0.436429 0.451688 0.450542 0.510377 0.594576 0.569889 0.525961 0.464656 0.430587 0.431031 0.484391 0.502901 0.554436 0.601833 0.540236 0.483156 0.420424 0.439747 0.501602 0.482054 0.445520 0.447508 0.465333 0.530445 0.545890 0.453971 0.471141 0.485556 0.539020 0.513837 0.497780 0.470724 0.425299 0.461515 0.483168 0.485016 0.468422 0.524632 0.575789 0.559526 0.472305 0.470017 0.558231 0.513188 0.491674 0.447423 0.498298 0.474321 0.462010 0.483677 0.544967 0.576791 0.525340 0.472682 0.410877 0.437784 0.490642 0.506281 0.516111 0.479697 0.508269 0.541364 0.548848 0.532201 0.512886 0.436405 0.378745 0.398838 0.454832 0.477346 0.451786 0.435375 0.424785 0.476554 0.483964 0.474871 0.487826 0.461355 0.553315 0.562972 0.608418 0.620725 0.581814 0.524583 0.498588 0.496675 0.511278 0.531758 0.431192 0.355079 0.401986 0.466319 0.459514 0.443805 0.457332 0.434961 0.494643 0.520240 0.547174 0.529649 0.568950 0.506553 0.467411 0.436882 0.443054 0.487588 0.488318 0.509622 0.480847 0.470804 0.438516 0.444322 0.476364 0.493863 0.528203 0.481201 0.495542 0.569390 0.521825 0.455225 0.401800 0.470155 0.440387 0.489295 0.465985 0.540886 0.456968 0.398664 0.350921 0.292110 0.460210 0.564133 0.564087 0.592998 0.566359 0.523513 0.502408 0.560090 0.537562 0.605306 0.464251 0.474192 0.467607 0.522575 0.488582 0.450430 0.451821 0.430675 0.495460 0.460700 0.479324 0.462957 0.436605 0.442901 0.429582 0.440339 0.418663 0.498326 0.553877 0.515099 0.517176 0.514110 0.525265 0.443226 0.464712 0.511170 0.512735 0.459161 0.411201 0.549765 0.523392 0.442265 0.388258 0.486912 0.519501 0.550774 0.535696 0.447181 0.437393 0.475686 0.556241 0.498791 0.474103 0.405267 0.354227 0.350357 0.501843 0.568589 0.547414 0.540040 0.540710 0.624862 0.345737 0.080200 -0.011790 -0.123706 -0.227773
0.072396 0.075547 0.084994 0.100722 0.122699 0.150864 0.185121 0.225315 0.271216 0.322495 0.378700 0.439226 0.503290 0.569901 0.637837 0.705626 0.771532 0.833550 0.889422 0.936662 0.972605 0.994485 0.999527 0.985082 0.948784 0.888725 0.803667 0.693249 0.558209 0.400575 0.223831 0.033019 0.165250 0.362890 0.550566 0.718077 0.854895 0.950853 0.996970 0.986353 0.915123 0.783269 0.595335 0.360814 0.094140 0.185814 0.456803 0.694853 0.876407 0.980855 0.993189 0.906502 0.723951 0.459813 0.139283 0.203204 0.527209 0.790923 0.956756 0.997227 0.900255 0.672866 0.342409 0.045420 0.431964 0.754060 0.954534 0.993106 0.855648 0.559659 0.154211 0.286561 0.676072 0.932227 0.995572 0.844651 0.504546 0.045465 0.429750 0.807692 0.991789 0.928510 0.625219 0.153514 0.364861 0.787910 0.992427 0.911690 0.560092 0.035289 0.505724 0.892139 0.994020 0.768762 0.282222 0.306012 0.792215 0.998914 0.842197 0.369953 0.247159 0.773770 0.999002 0.823652 0.308713 0.339568 0.848464 0.993370 0.700665 0.090631 0.565579 0.963383 0.907678 0.414025 0.286236 0.848836 0.985109 0.614605 0.080467 0.737468 0.999908 0.714428 0.028088 0.678663 0.999010 0.737004 0.035628 0.691579 0.999999 0.689173 0.057885 0.772328 0.989849 0.557169 0.249891 0.892305 0.925742 0.315039 0.521250 0.989164 0.742432 0.051052 0.810592 0.962487 0.379542 0.500128 0.991859 0.698147 0.158529 0.890078 0.890954 0.147939 0.723453 0.979750 0.388773 0.545458 0.999936 0.559054 0.391205 0.986029 0.667109 0.280021 0.964694 0.724656 0.220736 0.952695 0.740539 0.216449 0.957023 0.717598 0.267367 0.975281 0.651798 0.370932 0.995538 0.533469 0.519468 0.995892 0.350929 0.695642 0.945161 0.097414 0.867058 0.807075 0.218519 0.982989 0.550863 0.560528 0.978245 0.169925 0.855558 0.790282 0.294329 0.998449 0.392956 0.734641 0.882506 0.159763 0.986840 0.460857 0.704421 0.888054 0.179142 0.993828 0.385833 0.780865 0.811705 0.350162 0.995196 0.154670 0.920146 0.599649 0.639104 0.893710 0.241084 0.999607 0.180112 0.927211 0.548357 0.717518 0.815983 0.424887 0.964402 0.102545 0.998441 0.206619 0.937971 0.473881 0.809798 0.684548 0.641269 0.835472 0.456238 0.931583 0.273143 0.982455 0.104647 0.999597 0.041716 0.994438 0.162276 0.977153 0.256125 0.956062 0.323799 0.937427 0.366463 0.925499 0.385161 0.922610 0.380459 0.929307 0.352198 0.944321 0.299617 0.964572 0.221513 0.984998 0.116918 0.998510 0.014277 0.995998 0.170192 0.966679 0.345752 0.898909 0.531461 0.781679 0.712387 0.606898 0.867786 0.372480 0.972056 0.085820 0.997450 0.232938 0.919069 0.549186 0.722056 0.815137 0.410096 0.975682 0.013081 0.979839 0.409295 0.796977 0.771829 0.434585 0.979308 0.048337 0.953301 0.540969 0.665464 0.900126 0.166235 0.992441 0.407207 0.750418 0.857863 0.222509 0.995276 0.412520 0.725193 0.891236 0.123489 0.973801 0.555507 0.577755 0.970433 0.134329 0.868034 0.789924 0.259637 0.990057 0.523741 0.567234 0.983770 0.246087 0.775045 0.902580 0.002932 0.897269 0.794320 0.184854 0.958999 0.693954 0.312596 0.984843 0.623255 0.383000 0.993027 0.593728 0.399777 0.992945 0.609417 0.364114 0.984477 0.668270 0.273638 0.957990 0.761264 0.124519 0.895075 0.870159 0.084303 0.771014 0.964270 0.343343 0.560823 0.999357 0.623670 0.250767 0.922326 0.869045 0.144807 0.686268 0.996735 0.565437 0.278007 0.916036 0.897233 0.247145 0.570939
1.000000 1.000000 1.000000 1.000000 1.000000 1.000000 1.000000 1.000000 1.000000 1.000000 1.000000 1.000000 1.000000 1.000000 1.000000 1.000000 1.000000 1.000000 1.000000 1.000000 -0.119654 -0.119654 -0.253294 -0.253294 -0.253294 -0.253294 -0.253294 -0.253294 -0.253294 -0.253294 -0.253294 -0.253294 -0.253294 -0.253294 -0.253294 -0.253294 -0.253294 -0.253294 -0.253294 -0.376526 -0.451816 -0.503004 -0.511741 -0.510966 -0.452677 -0.394260 -0.380732 -0.438858 -0.307134 -0.271102 -0.271027 -0.261113 -0.248551 -0.142733 -0.094816 -0.119038 -0.006389 0.008408 0.041004 0.179814 0.229558 0.253156 0.249686 0.368353 0.404132 0.391000 0.425207 0.557436 0.643712 0.665666 0.686232 0.733623 0.724728 0.643272 0.490900 0.494958 0.405953 0.312852 0.337630 0.322487 0.337714 0.281793 0.329779 0.309140 0.322377 0.349592 0.335673 0.324252 0.316055 0.373870 0.384840 0.416252 0.481258 0.524421 0.517468 0.541474 0.514365 0.452096 0.507559 0.514473 0.573418 0.571821 0.577802 0.608970 0.635787 0.645235 0.604332 0.625974 0.604800 0.606102 0.581274 0.488205 0.477800 0.446521 0.322983 0.284781 0.252436 0.219573 0.254062 0.253806 0.304212 0.255042 0.226897 0.172753 0.205558 0.165193 0.179776 0.151363 0.274332 0.175444 0.238960 0.203954 0.189899 0.164534 0.205923 0.184791 0.255426 0.252749 0.245105 0.226546 0.398963 0.447896 0.409390 0.374259 0.373890 0.330436 0.355701 0.318161 0.205744 0.288494 0.323896 0.392688 0.357330 0.103721 0.154851 0.172190 0.215354 0.130459 0.153021 0.203008 0.169903 0.108978 0.133283 0.065368 0.020402 -0.001949 0.037724 -0.054995 -0.065520 -0.072538 -0.103486 -0.066418 -0.097325 -0.204188 -0.170178 -0.142779 -0.171372 -0.211514 -0.196698 -0.153279 -0.137790 -0.173728 -0.240198 -0.199944 -0.118337 -0.143018 -0.145628 -0.176224 -0.097150 -0.028984 -0.026772 0.001527 0.004999 -0.020540 0.026138 0.022506 -0.022123 -0.006643 0.016077 0.052301 0.086621 0.046008 0.018475 -0.011306 0.045620 0.081087 0.122433 0.033849 0.039692 0.016634 0.024937 0.125308 0.132574 0.123647 0.096421 0.137425 0.095043 0.087696 0.214790 0.131377 0.165314 0.095815 -0.073993 -0.030716 -0.002567 0.014408 -0.035460 -0.094607 -0.118274 -0.068048 -0.067831 -0.049361 -0.073356 -0.075099 -0.082807 -0.077570 -0.093292 -0.051175 -0.083094 -0.089257 -0.098966 -0.110515 -0.051069 -0.081454 -0.112925 -0.086268 -0.125451 -0.149223 -0.127365 -0.132820 -0.167770 -0.213950 -0.230586 -0.255099 -0.259184 -0.265368 -0.263312 -0.299037 -0.340994 -0.324434 -0.259662 -0.284781 -0.290930 -0.344355 -0.343824 -0.347472 -0.346613 -0.331966 -0.318132 -0.348419 -0.348728 -0.321220 -0.297112 -0.408968 -0.362316 -0.387875 -0.416815 -0.442780 -0.395669 -0.353292 -0.346013 -0.384532 -0.592507 -0.422787 -0.411314 -0.459327 -0.507172 -0.501074 -0.500841 -0.489851 -0.490433 -0.534568 -0.455288 -0.490452 -0.487858 -0.410459 -0.409036 -0.430010 -0.423987 -0.521791 -0.389757 -0.379872 -0.378523 -0.378942 -0.417642 -0.373448 -0.363939 -0.325198 -0.288704 -0.344322 -0.327227 -0.342978 -0.304683 -0.303363 -0.280141 -0.272214 -0.315373 -0.216650 -0.313681 -0.284593 -0.288249 -0.309809 -0.310211 -0.212262 -0.320714 -0.301217 -0.178188 -0.261879 -0.263889 -0.152795 -0.297174 -0.297174 -0.244956 -0.297174 -0.297174 -0.219648 -0.311495 -0.311495 -0.190785 -0.317413 -0.317413 -0.190785 -0.317413 -0.317413 -0.234682 -0.299772 -0.299772 -0.234682 -0.234682 -0.279954 -0.279954 -0.244592 -0.279954 -0.279954 -0.244592 -0.291531 -0.291531 -0.244592 -0.205557 -0.280270 -0.280270 -0.205557 -0.205557
0.000000 0.000000 0.000000 0.000000 611953682563417600.000000 682276797044994560.000000 330315905544664448.000000 1485235990181856768.000000 446708557236486080.000000 500420250007004928.000000 505035999756060480.000000 365971968210608512.000000 1121265610670227712.000000 1170880118653961984.000000 285042515944496448.000000 1078632596963072384.000000 317492026586583744.000000 515227373102654336.000000 564377466947457856.000000 598661686501544704.000000 0.280056 0.280056 0.304997 0.304997 0.304997 0.304997 0.304997 0.304997 0.304997 0.304997 0.304997 0.304997 0.304997 0.304997 0.304997 0.304997 0.304997 0.304997 0.304997 0.359211 0.359211 0.359211 0.359211 0.359211 0.359211 0.359211 0.359211 0.359211 0.359211 0.359211 0.371391 0.371391 0.371391 0.371391 0.371391 0.371391 0.371391 0.371391 0.371391 0.384900 0.384900 0.384900 0.384900 0.384900 0.384900 0.384900 0.384900 0.400000 0.400000 0.400000 0.400000 0.400000 0.400000 0.400000 0.384900 0.384900 0.384900 0.384900 0.384900 0.384900 0.384900 0.400000 0.400000 0.400000 0.400000 0.400000 0.400000 0.417029 0.417029 0.417029 0.417029 0.417029 0.371391 0.371391 0.371391 0.371391 0.371391 0.371391 0.400000 0.400000 0.400000 0.400000 0.400000 0.417029 0.417029 0.417029 0.417029 0.384900 0.384900 0.384900 0.384900 0.384900 0.400000 0.400000 0.400000 0.400000 0.400000 0.400000 0.400000 0.400000 0.359211 0.359211 0.359211 0.359211 0.359211 0.384900 0.384900 0.384900 0.384900 0.417029 0.417029 0.417029 0.371391 0.371391 0.371391 0.371391 0.359211 0.359211 0.359211 0.359211 0.400000 0.400000 0.400000 0.348155 0.348155 0.348155 0.348155 0.384900 0.384900 0.384900 0.384900 0.384900 0.384900 0.338062 0.338062 0.338062 0.338062 0.371391 0.371391 0.371391 0.371391 0.371391 0.371391 0.359211 0.359211 0.359211 0.359211 0.359211 0.359211 0.348155 0.348155 0.348155 0.348155 0.348155 0.348155 0.400000 0.400000 0.338062 0.338062 0.338062 0.338062 0.338062 0.338062 0.328798 0.328798 0.328798 0.384900 0.384900 0.328798 0.328798 0.328798 0.320256 0.320256 0.320256 0.371391 0.371391 0.312348 0.312348 0.312348 0.359211 0.359211 0.312348 0.312348 0.312348 0.359211 0.359211 0.348155 0.348155 0.298142 0.298142 0.298142 0.348155 0.348155 0.338062 0.338062 0.291730 0.291730 0.291730 0.338062 0.338062 0.328798 0.328798 0.285714 0.285714 0.285714 0.328798 0.328798 0.328798 0.328798 0.320256 0.320256 0.320256 0.320256 0.320256 0.320256 0.312348 0.312348 0.269680 0.269680 0.269680 0.312348 0.312348 0.304997 0.304997 0.304997 0.304997 0.304997 0.304997 0.304997 0.304997 0.298142 0.298142 0.298142 0.298142 0.298142 0.298142 0.291730 0.291730 0.291730 0.291730 0.359211 0.285714 0.285714 0.285714 0.285714 0.285714 0.285714 0.285714 0.285714 0.280056 0.280056 0.280056 0.280056 0.338062 0.274721 0.274721 0.274721 0.274721 0.274721 0.274721 0.269680 0.269680 0.328798 0.269680 0.269680 0.269680 0.269680 0.264906 0.264906 0.320256 0.264906 0.264906 0.260378 0.260378 0.320256 0.260378 0.260378 0.256074 0.256074 0.312348 0.256074 0.256074 0.256074 0.256074 0.312348 0.251976 0.251976 0.251976 0.251976 0.304997 0.248069 0.248069 0.304997 0.244339 0.244339 0.244339 0.244339 0.298142 0.244339 0.244339 0.298142 0.240772 0.240772 0.291730 0.237356 0.237356 0.291730 0.237356 0.237356 0.285714 0.234082 0.234082 0.285714 0.234082 0.234082 0.285714 0.230940 0.230940 0.280056 0.227921 0.227921 0.280056 0.227921 0.227921 0.274721 0.225018 0.225018 0.274721 0.274721 0.222222 0.222222 0.269680 0.222222 0.222222 0.269680 0.219529 0.219529 0.269680 0.264906 0.216930 0.216930 0.264906 0.264906
