# Output from CTFFind version 4.1.9, run on 2019-11-24 11:56:24
# Input file: stack1_bm3d_averaged_1_0.0_0_500_half.mrc ; Number of micrographs: 1
# Pixel size: 1.500 Angstroms ; acceleration voltage: 300.0 keV ; spherical aberration: 0.00 mm ; amplitude contrast: 0.07
# Box size: 512 pixels ; min. res.: 40.0 Angstroms ; max. res.: 6.0 Angstroms ; min. def.: 5000.0 um; max. def. 50000.0 um; num. frames averaged: 1
# 6 lines per micrograph: #1 - spatial frequency (1/Angstroms); #2 - 1D rotational average of spectrum (assuming no astigmatism); #3 - 1D rotational average of spectrum; #4 - CTF fit; #5 - cross-correlation between spectrum and CTF fit; #6 - 2sigma of expected cross correlation of noise
0.000000 0.001302 0.002604 0.003906 0.005208 0.006510 0.007812 0.009115 0.010417 0.011719 0.013021 0.014323 0.015625 0.016927 0.018229 0.019531 0.020833 0.022135 0.023438 0.024740 0.026042 0.027344 0.028646 0.029948 0.031250 0.032552 0.033854 0.035156 0.036458 0.037760 0.039062 0.040365 0.041667 0.042969 0.044271 0.045573 0.046875 0.048177 0.049479 0.050781 0.052083 0.053385 0.054688 0.055990 0.057292 0.058594 0.059896 0.061198 0.062500 0.063802 0.065104 0.066406 0.067708 0.069010 0.070312 0.071615 0.072917 0.074219 0.075521 0.076823 0.078125 0.079427 0.080729 0.082031 0.083333 0.084635 0.085938 0.087240 0.088542 0.089844 0.091146 0.092448 0.093750 0.095052 0.096354 0.097656 0.098958 0.100260 0.101562 0.102865 0.104167 0.105469 0.106771 0.108073 0.109375 0.110677 0.111979 0.113281 0.114583 0.115885 0.117188 0.118490 0.119792 0.121094 0.122396 0.123698 0.125000 0.126302 0.127604 0.128906 0.130208 0.131510 0.132812 0.134115 0.135417 0.136719 0.138021 0.139323 0.140625 0.141927 0.143229 0.144531 0.145833 0.147135 0.148438 0.149740 0.151042 0.152344 0.153646 0.154948 0.156250 0.157552 0.158854 0.160156 0.161458 0.162760 0.164062 0.165365 0.166667 0.167969 0.169271 0.170573 0.171875 0.173177 0.174479 0.175781 0.177083 0.178385 0.179688 0.180990 0.182292 0.183594 0.184896 0.186198 0.187500 0.188802 0.190104 0.191406 0.192708 0.194010 0.195312 0.196615 0.197917 0.199219 0.200521 0.201823 0.203125 0.204427 0.205729 0.207031 0.208333 0.209635 0.210938 0.212240 0.213542 0.214844 0.216146 0.217448 0.218750 0.220052 0.221354 0.222656 0.223958 0.225260 0.226562 0.227865 0.229167 0.230469 0.231771 0.233073 0.234375 0.235677 0.236979 0.238281 0.239583 0.240885 0.242188 0.243490 0.244792 0.246094 0.247396 0.248698 0.250000 0.251302 0.252604 0.253906 0.255208 0.256510 0.257812 0.259115 0.260417 0.261719 0.263021 0.264323 0.265625 0.266927 0.268229 0.269531 0.270833 0.272135 0.273438 0.274740 0.276042 0.277344 0.278646 0.279948 0.281250 0.282552 0.283854 0.285156 0.286458 0.287760 0.289062 0.290365 0.291667 0.292969 0.294271 0.295573 0.296875 0.298177 0.299479 0.300781 0.302083 0.303385 0.304688 0.305990 0.307292 0.308594 0.309896 0.311198 0.312500 0.313802 0.315104 0.316406 0.317708 0.319010 0.320312 0.321615 0.322917 0.324219 0.325521 0.326823 0.328125 0.329427 0.330729 0.332031 0.333333 0.334635 0.335938 0.337240 0.338542 0.339844 0.341146 0.342448 0.343750 0.345052 0.346354 0.347656 0.348958 0.350260 0.351562 0.352865 0.354167 0.355469 0.356771 0.358073 0.359375 0.360677 0.361979 0.363281 0.364583 0.365885 0.367188 0.368490 0.369792 0.371094 0.372396 0.373698 0.375000 0.376302 0.377604 0.378906 0.380208 0.381510 0.382812 0.384115 0.385417 0.386719 0.388021 0.389323 0.390625 0.391927 0.393229 0.394531 0.395833 0.397135 0.398438 0.399740 0.401042 0.402344 0.403646 0.404948 0.406250 0.407552 0.408854 0.410156 0.411458 0.412760 0.414062 0.415365 0.416667 0.417969 0.419271 0.420573 0.421875 0.423177 0.424479 0.425781 0.427083 0.428385 0.429688 0.430990 0.432292 0.433594 0.434896 0.436198 0.437500 0.438802 0.440104 0.441406 0.442708 0.444010 0.445312 0.446615 0.447917 0.449219 0.450521 0.451823 0.453125 0.454427 0.455729 0.457031 0.458333 0.459635 0.460938 0.462240 0.463542 0.464844 0.466146 0.467448 0.468750 0.470052 0.471354
       0.69956        0.69956        0.69956        0.69956        0.69956        0.69956        0.69956        0.69956        0.69956        0.69956        0.69956        0.69956        0.69956        0.69956        0.69956        0.69956        0.69956        0.69956        0.69956        1.55162        2.27773        1.13399        0.35333        0.21064        0.73425        1.30377        1.20176        0.70054        0.43830        0.42159        0.41305        0.36449        0.41488        0.49814        0.43199        0.32995        0.20121        0.10513        0.06237        0.10114        0.15367        0.21795        0.39404        0.64569        0.83617        0.90337        0.90331        0.93452        1.04866        1.14524        1.05973        0.74594        0.47918        0.47267        0.62364        0.63675        0.50516        0.42771        0.48377        0.54612        0.58962        0.64959        0.83281        0.99739        1.01309        0.87074        0.69216        0.61938        0.59989        0.60157        0.65110        0.78061        0.87857        0.81777        0.69514        0.65638        0.69784        0.71798        0.66916        0.64888        0.72059        0.76638        0.72080        0.58170        0.52657        0.60385        0.72091        0.74321        0.69574        0.62200        0.58728        0.60477        0.64287        0.67512        0.63770        0.60519        0.66298        0.79177        0.86875        0.84650        0.82745        0.84426        0.84592        0.76340        0.66055        0.62799        0.63492        0.62568        0.57881        0.56635        0.61077        0.67944        0.69512        0.69070        0.72902        0.80208        0.83064        0.77326        0.67954        0.61594        0.62002        0.66352        0.73139        0.76361        0.73220        0.67934        0.66103        0.68904        0.72718        0.73560        0.72326        0.69025        0.64161        0.59498        0.59395        0.67846        0.76799        0.75758        0.67914        0.64756        0.70003        0.77241        0.78293        0.73756        0.69684        0.69028        0.74184        0.78028        0.78536        0.73324        0.70855        0.72158        0.70802        0.61733        0.52640        0.54559        0.64637        0.72859        0.71336        0.65456        0.63041        0.66465        0.69151        0.66061        0.62305        0.67158        0.76752        0.81749        0.76539        0.69427        0.66410        0.67660        0.69333        0.69599        0.71435        0.73926        0.75169        0.70980        0.64312        0.61890        0.69085        0.80501        0.86911        0.82567        0.72780        0.67641        0.69584        0.73872        0.72644        0.66053        0.60572        0.62731        0.66406        0.64809        0.61011        0.63841        0.71140        0.74901        0.72647        0.69768        0.68592        0.67341        0.67845        0.71547        0.75082        0.73467        0.71518        0.72293        0.75314        0.75440        0.72095        0.67342        0.65887        0.68092        0.73498        0.75402        0.74303        0.70072        0.66748        0.62718        0.62700        0.68022        0.74090        0.74287        0.67858        0.64486        0.68009        0.75542        0.77082        0.74390        0.70438        0.67028        0.64457        0.63151        0.66129        0.72601        0.76999        0.76653        0.72556        0.69124        0.67218        0.66256        0.67390        0.70377        0.72781        0.72625        0.71321        0.71962        0.73454        0.74125        0.72746        0.71035        0.69951        0.70043        0.70140        0.71269        0.71553        0.68415        0.64679        0.69412        0.76599        0.75876        0.65348        0.57376        0.59282        0.64787        0.64287        0.64680        0.69713        0.75120        0.72932        0.69747        0.72260        0.77058        0.78710        0.77413        0.76038        0.70605        0.61686        0.57603        0.63413        0.71933        0.76431        0.73286        0.66504        0.59391        0.60302        0.66706        0.73584        0.75219        0.73558        0.71094        0.71560        0.77295        0.76804        0.68110        0.60795        0.59518        0.61728        0.61463        0.60266        0.67554        0.79272        0.87472        0.82053        0.73671        0.66702        0.64699        0.66757        0.66993        0.62703        0.60319        0.63317        0.66262        0.78580        0.95663        0.95316        0.80080        0.72186        0.80284        0.77399        0.62128        0.51325        0.56142        0.58826        0.55902        0.55839        0.61123        0.64619        0.64487        0.62599        0.62378        0.61630        0.75992        0.90954        0.89719        0.80442        0.74955        0.73890        0.70864        0.70485        0.65994        0.60404        0.59169        0.73680        0.78739        0.75454        0.81447        0.80143        0.63074        0.35612        0.41833        0.69252        0.88019        0.91113        0.90620        0.76080        0.35376       -0.13156       -0.47283       -0.64259       -0.69207       -0.70726
0.699562 0.699562 0.699562 0.699562 0.699562 0.699562 0.699562 0.699562 0.699562 0.699562 0.699562 0.699562 0.699562 0.699562 0.699562 0.699562 0.699562 0.699562 0.699562 1.590991 2.329992 1.305750 0.326225 0.100800 0.629434 1.432863 1.190401 0.687093 0.470191 0.464691 0.303933 0.367788 0.464701 0.484826 0.460908 0.328787 0.215969 0.115259 0.042895 0.152810 0.156839 0.181114 0.354234 0.682200 0.823082 0.876530 0.922421 0.910187 1.019896 1.138940 1.141907 0.755602 0.499579 0.455750 0.687025 0.589610 0.526697 0.350468 0.478553 0.607938 0.581620 0.627728 0.785625 0.975839 1.049164 0.849921 0.693147 0.610752 0.598753 0.606551 0.615535 0.801345 0.842755 0.854494 0.721564 0.664255 0.703724 0.682922 0.653738 0.664929 0.692071 0.762288 0.775918 0.630579 0.502899 0.544662 0.694529 0.758635 0.702663 0.627316 0.585145 0.612615 0.635318 0.681477 0.631693 0.608822 0.618096 0.757742 0.874817 0.875475 0.811725 0.772721 0.894814 0.758400 0.681464 0.616860 0.644156 0.646937 0.595285 0.564097 0.588849 0.659715 0.695028 0.670486 0.714729 0.794509 0.822404 0.805286 0.716647 0.621477 0.618826 0.639415 0.713621 0.755568 0.772803 0.683409 0.650191 0.714295 0.738844 0.718773 0.724451 0.692936 0.672986 0.612875 0.573807 0.642282 0.736210 0.765486 0.725209 0.613059 0.652453 0.763762 0.806076 0.763982 0.709374 0.673219 0.735318 0.761189 0.757157 0.772681 0.710006 0.707201 0.734164 0.660548 0.538445 0.514188 0.582663 0.729696 0.712670 0.687963 0.630570 0.643247 0.689301 0.676365 0.636345 0.623900 0.734621 0.822516 0.787650 0.723459 0.671961 0.659308 0.692620 0.713980 0.698638 0.730774 0.738614 0.737057 0.677656 0.611454 0.637593 0.761913 0.843522 0.867243 0.744354 0.680920 0.665520 0.730347 0.762557 0.684773 0.649389 0.594499 0.640836 0.670103 0.644772 0.596550 0.668992 0.721094 0.759233 0.729271 0.700306 0.695708 0.663546 0.676812 0.716561 0.781830 0.726311 0.723720 0.727845 0.751578 0.731876 0.704621 0.664746 0.672126 0.681375 0.757298 0.761887 0.736695 0.684887 0.650781 0.637452 0.626055 0.718643 0.753845 0.735960 0.643508 0.637739 0.739353 0.780704 0.752942 0.727894 0.707123 0.654741 0.642557 0.634897 0.672980 0.755570 0.758865 0.775723 0.727195 0.682407 0.685202 0.656212 0.681293 0.711811 0.719188 0.727356 0.700347 0.726988 0.736265 0.745359 0.725606 0.707008 0.679473 0.707542 0.701774 0.730563 0.708569 0.674569 0.651942 0.726305 0.784880 0.735907 0.587339 0.567464 0.612600 0.648755 0.634943 0.642984 0.713332 0.774048 0.707983 0.699857 0.729566 0.787784 0.779994 0.751524 0.789891 0.651243 0.601858 0.566305 0.659191 0.741537 0.769110 0.721874 0.667420 0.574224 0.622110 0.665956 0.731670 0.752621 0.732649 0.710436 0.719006 0.752406 0.790901 0.649787 0.572601 0.611505 0.640392 0.609177 0.584313 0.697169 0.830215 0.890539 0.814799 0.689927 0.689209 0.639486 0.654624 0.661185 0.647291 0.590797 0.636957 0.672125 0.807744 0.998825 0.985827 0.789233 0.733688 0.790852 0.791576 0.553738 0.513002 0.604040 0.626125 0.484330 0.565646 0.610537 0.663904 0.651625 0.624419 0.629121 0.634230 0.747227 0.914298 0.842540 0.832838 0.768691 0.686664 0.771139 0.682337 0.625667 0.575423 0.627473 0.787630 0.779540 0.778835 0.754479 0.850552 0.698347 0.373736 0.400969 0.693386 0.878595 0.905903 1.040018 0.599572 0.271605 -0.269716 -0.497259 -0.641947 -0.707261
0.072396 0.073462 0.076660 0.081988 0.089444 0.099022 0.110716 0.124517 0.140411 0.158379 0.178400 0.200442 0.224468 0.250428 0.278263 0.307901 0.339256 0.372223 0.406681 0.442488 0.479480 0.517470 0.556244 0.595562 0.635154 0.674723 0.713940 0.752445 0.789848 0.825730 0.859641 0.891106 0.919625 0.944677 0.965728 0.982230 0.993633 0.999392 0.998974 0.991867 0.977596 0.955730 0.925897 0.887798 0.841219 0.786050 0.722293 0.650084 0.569699 0.481570 0.386297 0.284653 0.177589 0.066242 0.048075 0.163873 0.279502 0.393166 0.502950 0.606843 0.702778 0.788671 0.862471 0.922210 0.966062 0.992399 0.999861 0.987410 0.954397 0.900614 0.826346 0.732412 0.620194 0.491650 0.349315 0.196275 0.036130 0.127076 0.288937 0.444800 0.589891 0.719466 0.828980 0.914256 0.971669 0.998322 0.992215 0.952396 0.879077 0.773730 0.639122 0.479308 0.299566 0.106270 0.093298 0.291195 0.479124 0.648776 0.792216 0.902279 0.972969 0.999835 0.980296 0.913908 0.802530 0.650393 0.464031 0.252093 0.025003 0.205494 0.426918 0.626716 0.793002 0.915298 0.985264 0.997343 0.949280 0.842473 0.682108 0.477042 0.239444 0.015837 0.272131 0.512001 0.718441 0.876114 0.972576 0.999362 0.952844 0.834784 0.652491 0.418557 0.150137 0.132192 0.405938 0.648467 0.838906 0.960030 0.999947 0.953424 0.822697 0.617647 0.355285 0.058517 0.245712 0.528809 0.763217 0.925175 0.997268 0.970487 0.845558 0.633322 0.354078 0.035873 0.288159 0.583172 0.816365 0.960749 0.998453 0.923187 0.741483 0.472501 0.146310 0.199248 0.522820 0.784481 0.950767 0.999164 0.921449 0.725348 0.434195 0.084513 0.278331 0.605875 0.853054 0.984569 0.980201 0.838279 0.576649 0.230882 0.150219 0.511303 0.798470 0.967447 0.990703 0.862335 0.599808 0.242093 0.155717 0.530654 0.821777 0.980268 0.977937 0.812705 0.509902 0.118945 0.294329 0.658537 0.909106 0.999986 0.912572 0.660029 0.285998 0.142415 0.546339 0.849592 0.993254 0.947563 0.718667 0.348627 0.091680 0.515729 0.838241 0.992516 0.944722 0.701958 0.312098 0.144966 0.573276 0.880849 0.999716 0.901495 0.604900 0.173057 0.299255 0.706044 0.953914 0.983936 0.786372 0.404450 0.074231 0.537198 0.873361 0.999932 0.883469 0.549571 0.078269 0.414405 0.804641 0.992096 0.926331 0.621266 0.153419 0.356426 0.773945 0.986744 0.935234 0.630266 0.152143 0.369582 0.790724 0.992417 0.915325 0.578155 0.074412 0.452572 0.849958 0.999979 0.855617 0.456510 0.080661 0.595351 0.930872 0.982525 0.731286 0.251955 0.307860 0.772470 0.993262 0.896980 0.511299 0.041623 0.582751 0.933737 0.976188 0.692711 0.175310 0.403137 0.845896 0.999459 0.807760 0.334077 0.258266 0.761235 0.995058 0.873323 0.436393 0.160261 0.700173 0.984139 0.904490 0.487381 0.113895 0.673931 0.979309 0.910680 0.490920 0.120488 0.686625 0.984594 0.894013 0.447306 0.179879 0.736320 0.995558 0.848987 0.353122 0.290164 0.814484 0.999175 0.763333 0.203184 0.445188 0.904204 0.973896 0.620520 0.005140 0.630208 0.977998 0.891204 0.404922 0.265131 0.816724 0.997232 0.720640 0.110711 0.552186 0.958884 0.916142 0.440367 0.245919 0.816360 0.995675 0.693882 0.053812 0.614164 0.981592 0.864182 0.316408 0.391053 0.903401 0.959710 0.527652 0.175521 0.790024 0.997068 0.685660 0.014695 0.665580 0.995257 0.796205 0.170782 0.547930 0.971989 0.868545 0.290094 0.449075 0.941797 0.912483 0.373549 0.376285 0.915414 0.936380
1.000000 1.000000 1.000000 1.000000 1.000000 1.000000 1.000000 1.000000 1.000000 1.000000 1.000000 1.000000 1.000000 1.000000 1.000000 1.000000 1.000000 1.000000 1.000000 1.000000 -0.146078 -0.146078 -0.146078 -0.146078 -0.146078 -0.146078 -0.146078 -0.146078 -0.146078 -0.146078 -0.146078 -0.146078 -0.146078 -0.146078 -0.146078 -0.146078 -0.146078 -0.146078 -0.247664 -0.247664 -0.247664 -0.247664 -0.247664 -0.247664 -0.247664 -0.247664 -0.247664 -0.247664 -0.247664 -0.247664 -0.247664 -0.247664 -0.247664 -0.247664 -0.247593 -0.236061 -0.217347 -0.214044 -0.232291 -0.246367 -0.252709 -0.234459 -0.230013 -0.228238 -0.217848 -0.194309 -0.139492 -0.104679 -0.048303 -0.021935 -0.007989 0.001131 0.011117 0.010840 0.027704 0.048926 0.064726 0.078050 0.091157 0.108541 0.106995 0.163332 0.205614 0.216538 0.205005 0.193166 0.161390 0.150157 0.127438 0.112061 0.125097 0.154700 0.232336 0.295812 0.322421 0.319978 0.330168 0.379009 0.405528 0.403217 0.428333 0.457394 0.461650 0.461401 0.429053 0.435381 0.497042 0.601809 0.596201 0.580535 0.564333 0.564208 0.607920 0.601753 0.612065 0.691915 0.684292 0.682045 0.664454 0.576080 0.538005 0.529890 0.471069 0.407853 0.397022 0.392210 0.404308 0.407391 0.433195 0.393586 0.367567 0.359879 0.337483 0.329471 0.349900 0.345451 0.304779 0.305601 0.315892 0.279726 0.287382 0.267932 0.233818 0.227083 0.202168 0.201275 0.226530 0.252674 0.260535 0.210632 0.207610 0.236597 0.305998 0.303672 0.285218 0.267162 0.248994 0.232112 0.235867 0.268811 0.348456 0.362757 0.376427 0.448110 0.502067 0.488554 0.483217 0.460805 0.460810 0.418445 0.345179 0.299709 0.288793 0.295123 0.369575 0.405178 0.413653 0.370618 0.333269 0.348380 0.374255 0.358272 0.406171 0.458419 0.470073 0.474413 0.513342 0.525367 0.501089 0.413696 0.345228 0.334375 0.276394 0.220500 0.203414 0.146277 0.115171 0.114360 0.078680 0.042722 0.000393 -0.066528 -0.062959 -0.141477 -0.219367 -0.226245 -0.239565 -0.217776 -0.205299 -0.221736 -0.242034 -0.228039 -0.213333 -0.229883 -0.244143 -0.276059 -0.293075 -0.336974 -0.301239 -0.308599 -0.343027 -0.346198 -0.404093 -0.388916 -0.374485 -0.396807 -0.422005 -0.329011 -0.298894 -0.321351 -0.323929 -0.329404 -0.331097 -0.284921 -0.285176 -0.237735 -0.228991 -0.251962 -0.199979 -0.178142 -0.181667 -0.125701 -0.122513 -0.104527 -0.081621 -0.034572 -0.072399 -0.043587 -0.053938 -0.019585 -0.034484 -0.083545 -0.042742 -0.016615 -0.024703 -0.028144 -0.033481 -0.018567 0.114547 0.068984 0.009240 0.017633 -0.015164 0.103350 0.073051 0.080744 0.103852 0.057942 0.099110 0.046544 0.054606 0.126948 0.110377 0.104018 0.133508 0.175996 0.169694 0.160776 0.137596 0.178915 0.195983 0.231879 0.236547 0.243748 0.255801 0.260941 0.262151 0.298360 0.279428 0.279448 0.217766 0.220874 0.152031 0.186487 0.208825 0.195233 0.177555 0.140101 0.169662 0.123824 0.080662 0.082851 0.044078 0.062785 0.047685 0.159533 0.094329 0.086006 0.048005 0.033561 0.049788 0.038243 0.032339 0.035761 0.056150 0.048043 0.079833 0.067955 0.074387 -0.053967 -0.017916 -0.074598 -0.041252 0.048862 0.035528 0.008868 -0.026328 -0.029030 0.004653 -0.050028 -0.052980 -0.081619 -0.016524 -0.063649 -0.056961 -0.056961 -0.056961 -0.157871 -0.172005 -0.172005 -0.172005 -0.172005 -0.172005 -0.172005 -0.172005 -0.061976 -0.061976 -0.061976 -0.061976 -0.061976 -0.139083 -0.139083 -0.139083 -0.139083 -0.109267 -0.109267 -0.109267 -0.109267 -0.109267 -0.109267 -0.109267 -0.109267 -0.109267
0.000000 0.000000 0.000000 0.000000 263282493625257920.000000 620677208022829440.000000 988007000274415360.000000 377168844785750720.000000 821649241773552128.000000 394171417809608192.000000 2049863798628768768.000000 423399185617833152.000000 988225253207052032.000000 731748223082903552.000000 661367384517214976.000000 608681536036121088.000000 667984245399026176.000000 258771334847820192.000000 714622779974610816.000000 1007048892595264256.000000 0.216930 0.216930 0.216930 0.216930 0.216930 0.216930 0.216930 0.216930 0.216930 0.216930 0.216930 0.216930 0.216930 0.216930 0.216930 0.216930 0.216930 0.216930 0.240772 0.240772 0.240772 0.240772 0.240772 0.240772 0.240772 0.240772 0.240772 0.240772 0.240772 0.240772 0.240772 0.240772 0.240772 0.240772 0.240772 0.240772 0.240772 0.240772 0.240772 0.240772 0.240772 0.240772 0.240772 0.240772 0.240772 0.240772 0.269680 0.269680 0.269680 0.269680 0.269680 0.269680 0.269680 0.269680 0.269680 0.269680 0.269680 0.269680 0.269680 0.269680 0.269680 0.269680 0.269680 0.269680 0.269680 0.269680 0.291730 0.291730 0.291730 0.291730 0.291730 0.291730 0.291730 0.291730 0.291730 0.291730 0.291730 0.291730 0.291730 0.291730 0.291730 0.291730 0.304997 0.304997 0.304997 0.304997 0.304997 0.304997 0.304997 0.304997 0.304997 0.304997 0.304997 0.304997 0.304997 0.312348 0.312348 0.312348 0.312348 0.312348 0.312348 0.312348 0.312348 0.312348 0.312348 0.312348 0.312348 0.312348 0.312348 0.312348 0.312348 0.312348 0.312348 0.312348 0.312348 0.312348 0.312348 0.312348 0.304997 0.304997 0.304997 0.304997 0.304997 0.304997 0.304997 0.304997 0.304997 0.304997 0.304997 0.320256 0.320256 0.320256 0.320256 0.320256 0.320256 0.320256 0.320256 0.320256 0.312348 0.312348 0.312348 0.312348 0.312348 0.312348 0.312348 0.312348 0.312348 0.304997 0.304997 0.304997 0.304997 0.304997 0.304997 0.304997 0.304997 0.304997 0.320256 0.320256 0.320256 0.320256 0.320256 0.320256 0.320256 0.320256 0.312348 0.312348 0.312348 0.312348 0.312348 0.312348 0.312348 0.312348 0.304997 0.304997 0.304997 0.304997 0.304997 0.304997 0.304997 0.304997 0.312348 0.312348 0.312348 0.312348 0.312348 0.312348 0.312348 0.312348 0.312348 0.312348 0.312348 0.312348 0.312348 0.312348 0.304997 0.304997 0.304997 0.304997 0.304997 0.304997 0.304997 0.320256 0.320256 0.320256 0.320256 0.320256 0.320256 0.291730 0.291730 0.291730 0.291730 0.291730 0.291730 0.291730 0.304997 0.304997 0.304997 0.304997 0.304997 0.304997 0.304997 0.304997 0.304997 0.304997 0.304997 0.304997 0.298142 0.298142 0.298142 0.298142 0.298142 0.298142 0.291730 0.291730 0.291730 0.291730 0.291730 0.291730 0.312348 0.312348 0.312348 0.312348 0.312348 0.285714 0.285714 0.285714 0.285714 0.285714 0.285714 0.304997 0.304997 0.304997 0.304997 0.304997 0.298142 0.298142 0.298142 0.298142 0.298142 0.274721 0.274721 0.274721 0.274721 0.274721 0.274721 0.291730 0.291730 0.291730 0.291730 0.291730 0.285714 0.285714 0.285714 0.285714 0.285714 0.285714 0.285714 0.285714 0.285714 0.285714 0.280056 0.280056 0.280056 0.280056 0.280056 0.304997 0.304997 0.304997 0.304997 0.274721 0.274721 0.274721 0.274721 0.274721 0.269680 0.269680 0.269680 0.269680 0.269680 0.291730 0.291730 0.291730 0.291730 0.264906 0.264906 0.264906 0.264906 0.264906 0.285714 0.285714 0.285714 0.285714 0.260378 0.260378 0.260378 0.260378 0.260378 0.280056 0.280056 0.280056 0.280056 0.280056 0.280056 0.280056 0.280056 0.251976 0.251976 0.251976 0.251976 0.251976 0.274721 0.274721 0.274721 0.274721 0.269680 0.269680 0.269680 0.269680 0.269680 0.269680 0.269680 0.269680 0.269680
