# Output from CTFFind version 4.1.9, run on 2019-11-24 11:56:22
# Input file: stack1_bm3d_averaged_1_0.0_0_0_half.mrc ; Number of micrographs: 1
# Pixel size: 1.500 Angstroms ; acceleration voltage: 300.0 keV ; spherical aberration: 0.00 mm ; amplitude contrast: 0.07
# Box size: 512 pixels ; min. res.: 40.0 Angstroms ; max. res.: 6.0 Angstroms ; min. def.: 5000.0 um; max. def. 50000.0 um; num. frames averaged: 1
# 6 lines per micrograph: #1 - spatial frequency (1/Angstroms); #2 - 1D rotational average of spectrum (assuming no astigmatism); #3 - 1D rotational average of spectrum; #4 - CTF fit; #5 - cross-correlation between spectrum and CTF fit; #6 - 2sigma of expected cross correlation of noise
0.000000 0.001302 0.002604 0.003906 0.005208 0.006510 0.007812 0.009115 0.010417 0.011719 0.013021 0.014323 0.015625 0.016927 0.018229 0.019531 0.020833 0.022135 0.023438 0.024740 0.026042 0.027344 0.028646 0.029948 0.031250 0.032552 0.033854 0.035156 0.036458 0.037760 0.039062 0.040365 0.041667 0.042969 0.044271 0.045573 0.046875 0.048177 0.049479 0.050781 0.052083 0.053385 0.054688 0.055990 0.057292 0.058594 0.059896 0.061198 0.062500 0.063802 0.065104 0.066406 0.067708 0.069010 0.070312 0.071615 0.072917 0.074219 0.075521 0.076823 0.078125 0.079427 0.080729 0.082031 0.083333 0.084635 0.085938 0.087240 0.088542 0.089844 0.091146 0.092448 0.093750 0.095052 0.096354 0.097656 0.098958 0.100260 0.101562 0.102865 0.104167 0.105469 0.106771 0.108073 0.109375 0.110677 0.111979 0.113281 0.114583 0.115885 0.117188 0.118490 0.119792 0.121094 0.122396 0.123698 0.125000 0.126302 0.127604 0.128906 0.130208 0.131510 0.132812 0.134115 0.135417 0.136719 0.138021 0.139323 0.140625 0.141927 0.143229 0.144531 0.145833 0.147135 0.148438 0.149740 0.151042 0.152344 0.153646 0.154948 0.156250 0.157552 0.158854 0.160156 0.161458 0.162760 0.164062 0.165365 0.166667 0.167969 0.169271 0.170573 0.171875 0.173177 0.174479 0.175781 0.177083 0.178385 0.179688 0.180990 0.182292 0.183594 0.184896 0.186198 0.187500 0.188802 0.190104 0.191406 0.192708 0.194010 0.195312 0.196615 0.197917 0.199219 0.200521 0.201823 0.203125 0.204427 0.205729 0.207031 0.208333 0.209635 0.210938 0.212240 0.213542 0.214844 0.216146 0.217448 0.218750 0.220052 0.221354 0.222656 0.223958 0.225260 0.226562 0.227865 0.229167 0.230469 0.231771 0.233073 0.234375 0.235677 0.236979 0.238281 0.239583 0.240885 0.242188 0.243490 0.244792 0.246094 0.247396 0.248698 0.250000 0.251302 0.252604 0.253906 0.255208 0.256510 0.257812 0.259115 0.260417 0.261719 0.263021 0.264323 0.265625 0.266927 0.268229 0.269531 0.270833 0.272135 0.273438 0.274740 0.276042 0.277344 0.278646 0.279948 0.281250 0.282552 0.283854 0.285156 0.286458 0.287760 0.289062 0.290365 0.291667 0.292969 0.294271 0.295573 0.296875 0.298177 0.299479 0.300781 0.302083 0.303385 0.304688 0.305990 0.307292 0.308594 0.309896 0.311198 0.312500 0.313802 0.315104 0.316406 0.317708 0.319010 0.320312 0.321615 0.322917 0.324219 0.325521 0.326823 0.328125 0.329427 0.330729 0.332031 0.333333 0.334635 0.335938 0.337240 0.338542 0.339844 0.341146 0.342448 0.343750 0.345052 0.346354 0.347656 0.348958 0.350260 0.351562 0.352865 0.354167 0.355469 0.356771 0.358073 0.359375 0.360677 0.361979 0.363281 0.364583 0.365885 0.367188 0.368490 0.369792 0.371094 0.372396 0.373698 0.375000 0.376302 0.377604 0.378906 0.380208 0.381510 0.382812 0.384115 0.385417 0.386719 0.388021 0.389323 0.390625 0.391927 0.393229 0.394531 0.395833 0.397135 0.398438 0.399740 0.401042 0.402344 0.403646 0.404948 0.406250 0.407552 0.408854 0.410156 0.411458 0.412760 0.414062 0.415365 0.416667 0.417969 0.419271 0.420573 0.421875 0.423177 0.424479 0.425781 0.427083 0.428385 0.429688 0.430990 0.432292 0.433594 0.434896 0.436198 0.437500 0.438802 0.440104 0.441406 0.442708 0.444010 0.445312 0.446615 0.447917 0.449219 0.450521 0.451823 0.453125 0.454427 0.455729 0.457031 0.458333 0.459635 0.460938 0.462240 0.463542 0.464844 0.466146 0.467448 0.468750 0.470052 0.471354
       0.71081        0.71081        0.71081        0.71081        0.71081        0.71081        0.71081        0.71081        0.71081        0.71081        0.71081        0.71081        0.71081        0.71081        0.71081        0.71081        0.71081        0.71081        0.71081        0.87347        0.63949        0.33773        0.54156        0.85178        0.94239        0.88712        0.78292        0.64513        0.56684        0.57762        0.66243        0.65005        0.61793        0.54551        0.47206        0.43252        0.53320        0.64107        0.71249        0.75001        0.85019        0.89698        0.75998        0.53952        0.51129        0.66863        0.86316        0.94465        0.87866        0.77195        0.69183        0.69161        0.75035        0.78408        0.73338        0.65153        0.63989        0.71255        0.77715        0.76593        0.70884        0.70142        0.70728        0.65674        0.60165        0.60251        0.65248        0.68918        0.72387        0.77221        0.82214        0.81561        0.78595        0.80433        0.82103        0.74566        0.57124        0.43313        0.46058        0.63378        0.80080        0.86210        0.82891        0.71717        0.56807        0.48247        0.51574        0.63881        0.74428        0.76990        0.76033        0.79704        0.82478        0.79587        0.73146        0.70966        0.73997        0.82074        0.85672        0.84589        0.73685        0.59502        0.50502        0.55047        0.67021        0.79096        0.82799        0.77742        0.67836        0.60928        0.59250        0.59779        0.59978        0.63832        0.77197        0.91633        0.90786        0.79263        0.69359        0.72130        0.77084        0.75409        0.71612        0.70745        0.69594        0.63810        0.59453        0.61584        0.69179        0.74873        0.73289        0.69141        0.65728        0.64050        0.63772        0.67655        0.69970        0.69995        0.68282        0.69229        0.74067        0.75045        0.73817        0.74663        0.77554        0.75532        0.71324        0.74113        0.81375        0.81390        0.72139        0.66219        0.68403        0.71774        0.71630        0.72944        0.76166        0.72004        0.60097        0.52182        0.56708        0.67879        0.74882        0.73662        0.72467        0.77096        0.80336        0.74252        0.61927        0.57453        0.65911        0.77201        0.77686        0.71188        0.68336        0.71877        0.72874        0.68930        0.66769        0.70259        0.77293        0.83336        0.86308        0.84356        0.74840        0.66263        0.65918        0.72440        0.74052        0.68177        0.61889        0.58195        0.57099        0.58714        0.65424        0.73617        0.76447        0.76843        0.76088        0.74569        0.71114        0.69318        0.71027        0.71483        0.68105        0.66191        0.70591        0.76535        0.77270        0.71223        0.63652        0.64999        0.75764        0.84795        0.82465        0.70682        0.63686        0.66557        0.71802        0.74009        0.75164        0.73305        0.68893        0.65255        0.64869        0.67212        0.65400        0.62505        0.62698        0.66086        0.70520        0.75036        0.79157        0.79944        0.76657        0.73297        0.75261        0.78706        0.78631        0.73120        0.68737        0.67954        0.68969        0.69690        0.69963        0.72057        0.74404        0.76317        0.77383        0.77339        0.75044        0.73197        0.73835        0.73382        0.66847        0.60615        0.62353        0.68155        0.68559        0.66655        0.66134        0.67489        0.69018        0.69827        0.70942        0.69762        0.64806        0.64257        0.72701        0.80198        0.76517        0.67316        0.63518        0.66905        0.71524        0.74712        0.75567        0.74830        0.74148        0.73930        0.73962        0.73104        0.72912        0.73103        0.68613        0.65074        0.69394        0.80948        0.84426        0.75333        0.64450        0.67877        0.77178        0.74584        0.60298        0.54886        0.66069        0.73642        0.69252        0.58219        0.56999        0.66842        0.68772        0.66065        0.67450        0.74830        0.75833        0.74307        0.75370        0.78108        0.72179        0.69017        0.78737        0.83190        0.71279        0.65317        0.78146        0.82388        0.74149        0.67434        0.73060        0.75318        0.66331        0.65120        0.77625        0.74927        0.60124        0.57703        0.79858        0.85460        0.70597        0.58928        0.62337        0.64789        0.56432        0.59478        0.71278        0.76604        0.65988        0.65409        0.69712        0.73811        0.73078        0.84056        0.67150        0.50930        0.59177        0.95151        0.96665        0.75817        0.68937        0.96652        0.98260        0.70711        0.48678        0.53866        0.56538        0.35819        0.04099       -0.27584       -0.58757       -0.77366       -0.84975
0.710812 0.710812 0.710812 0.710812 0.710812 0.710812 0.710812 0.710812 0.710812 0.710812 0.710812 0.710812 0.710812 0.710812 0.710812 0.710812 0.710812 0.710812 0.710812 0.949566 0.709868 0.219081 0.570222 0.814554 0.950840 0.896760 0.809804 0.654816 0.558588 0.535007 0.637956 0.717258 0.600594 0.617033 0.430102 0.445237 0.468719 0.661442 0.698070 0.735635 0.853431 0.939433 0.742121 0.595955 0.494207 0.619721 0.838091 0.925671 0.906994 0.826103 0.720799 0.671533 0.717081 0.774360 0.748865 0.679293 0.624164 0.692738 0.762781 0.747992 0.730707 0.729955 0.719052 0.656349 0.613290 0.596851 0.637829 0.664816 0.719079 0.762064 0.819607 0.831136 0.791341 0.794066 0.816936 0.787812 0.626820 0.445962 0.419597 0.654743 0.734956 0.864314 0.836724 0.756738 0.597313 0.515756 0.486447 0.573489 0.705876 0.776968 0.758156 0.820330 0.815213 0.824514 0.757607 0.715827 0.680550 0.808433 0.841985 0.848977 0.768692 0.645630 0.508896 0.523179 0.613883 0.792368 0.814848 0.831333 0.728063 0.604445 0.578486 0.583923 0.614410 0.611027 0.679625 0.841900 0.964811 0.812434 0.679677 0.712505 0.771982 0.762815 0.730202 0.693735 0.730988 0.645742 0.615752 0.587699 0.608985 0.763389 0.738921 0.728859 0.661593 0.628820 0.619502 0.655038 0.713054 0.693500 0.686786 0.673319 0.736272 0.755354 0.743723 0.723055 0.780824 0.779164 0.739156 0.705786 0.808783 0.837211 0.748807 0.662285 0.648600 0.695597 0.743126 0.704978 0.771598 0.738079 0.652200 0.528970 0.510880 0.642819 0.735226 0.749103 0.732596 0.746815 0.814862 0.768038 0.661282 0.560900 0.630697 0.765756 0.792205 0.742764 0.683678 0.689875 0.705140 0.736954 0.668767 0.656326 0.727256 0.781513 0.853833 0.869320 0.801640 0.698874 0.638745 0.682558 0.753930 0.721122 0.639239 0.609392 0.560325 0.584015 0.607537 0.664643 0.743402 0.746715 0.792445 0.753718 0.736377 0.694690 0.709607 0.701355 0.683769 0.694967 0.659642 0.732732 0.775913 0.755174 0.679153 0.614146 0.681844 0.819544 0.847900 0.806439 0.658847 0.639535 0.706280 0.712207 0.754067 0.740946 0.716492 0.657769 0.654262 0.655795 0.678968 0.643229 0.615169 0.634143 0.684877 0.720606 0.768686 0.806138 0.780886 0.741418 0.742664 0.775640 0.775559 0.764530 0.679810 0.676388 0.687830 0.688267 0.717206 0.699536 0.718677 0.742989 0.778805 0.764516 0.766485 0.733985 0.738066 0.744618 0.726269 0.635323 0.614343 0.647637 0.699878 0.669083 0.659311 0.680762 0.663808 0.701302 0.706208 0.699983 0.689472 0.629180 0.697154 0.762457 0.818028 0.753149 0.662461 0.623537 0.698697 0.722248 0.735840 0.765980 0.730422 0.750063 0.731731 0.739865 0.758027 0.726529 0.697894 0.691874 0.635605 0.655066 0.829965 0.818058 0.730209 0.647349 0.699608 0.788987 0.741634 0.592208 0.559395 0.646518 0.756015 0.710528 0.555837 0.597548 0.646521 0.699392 0.619181 0.667895 0.750271 0.759665 0.790489 0.736384 0.767522 0.672949 0.731914 0.765147 0.833714 0.706564 0.663277 0.792426 0.861844 0.726094 0.676045 0.725463 0.772419 0.656366 0.675292 0.830547 0.747896 0.593914 0.567838 0.773576 0.919176 0.756783 0.593483 0.646910 0.646711 0.519615 0.615636 0.786062 0.736751 0.662769 0.644657 0.655546 0.694257 0.921848 0.727174 0.645617 0.519457 0.670441 0.828269 0.988301 0.694891 0.649564 0.922306 1.054429 0.724121 0.456977 0.502270 0.581963 0.491254 -0.108760 -0.376566 -0.719524 -0.849753
0.072396 0.074163 0.079462 0.088289 0.100634 0.116484 0.135815 0.158594 0.184772 0.214282 0.247032 0.282903 0.321739 0.363344 0.407474 0.453833 0.502061 0.551735 0.602354 0.653346 0.704051 0.753731 0.801559 0.846629 0.887956 0.924488 0.955112 0.978680 0.994019 0.999964 0.995388 0.979236 0.950564 0.908590 0.852736 0.782682 0.698416 0.600285 0.489041 0.365881 0.232478 0.091002 0.055883 0.205031 0.352856 0.495396 0.628407 0.747479 0.848190 0.926273 0.977820 0.999485 0.988713 0.943948 0.864842 0.752424 0.609231 0.439375 0.248540 0.043885 0.166143 0.372106 0.563965 0.731572 0.865233 0.956321 0.997916 0.985407 0.917039 0.794319 0.622269 0.409446 0.167716 0.088250 0.341757 0.575119 0.770902 0.913296 0.989521 0.991137 0.915150 0.764752 0.549605 0.285552 0.006269 0.300927 0.571721 0.792613 0.940842 0.999484 0.959665 0.822136 0.597962 0.308120 0.018066 0.345614 0.637510 0.858929 0.981593 0.987727 0.873050 0.648289 0.338864 0.017463 0.374797 0.684877 0.903659 0.997874 0.950588 0.764777 0.464192 0.091080 0.299199 0.646095 0.893285 0.998170 0.939809 0.723801 0.382939 0.026882 0.435226 0.768976 0.965597 0.985421 0.820481 0.497862 0.076395 0.363236 0.733521 0.957665 0.986118 0.808499 0.457938 0.006209 0.450029 0.809529 0.989163 0.943987 0.679681 0.253798 0.235431 0.670938 0.944749 0.985427 0.777971 0.370404 0.135662 0.609279 0.923751 0.991152 0.788260 0.366026 0.161341 0.646035 0.947796 0.975268 0.715243 0.240102 0.310362 0.768927 0.991754 0.904681 0.529842 0.017345 0.561874 0.924413 0.981031 0.707374 0.191118 0.393759 0.844311 0.999256 0.798357 0.308267 0.296823 0.795383 0.999570 0.827572 0.339009 0.282680 0.797160 0.999962 0.805430 0.285740 0.352637 0.849004 0.994949 0.723907 0.144603 0.499281 0.929919 0.955819 0.559615 0.088017 0.698809 0.994182 0.833847 0.285773 0.398569 0.897145 0.969080 0.573744 0.102685 0.731389 0.999567 0.767954 0.146995 0.551473 0.968548 0.883610 0.334647 0.393654 0.914379 0.944049 0.460223 0.278043 0.865078 0.970957 0.529971 0.213937 0.837848 0.979307 0.549864 0.204687 0.840409 0.975311 0.521962 0.250669 0.872081 0.955854 0.443407 0.349739 0.923662 0.908754 0.307880 0.495057 0.976227 0.814188 0.109617 0.670737 0.999916 0.648555 0.149421 0.846401 0.954996 0.392505 0.449754 0.973455 0.798499 0.044313 0.744431 0.987788 0.499701 0.362913 0.954973 0.825049 0.064978 0.747167 0.982871 0.452477 0.434876 0.980480 0.746093 0.087782 0.852898 0.925713 0.239859 0.645770 0.996880 0.514511 0.402666 0.980472 0.722067 0.158049 0.903458 0.863025 0.065046 0.792308 0.947010 0.254218 0.669304 0.987806 0.405092 0.551254 0.999846 0.518614 0.449617 0.996011 0.598401 0.371569 0.986521 0.648709 0.321157 0.978552 0.673090 0.300368 0.976176 0.673535 0.309923 0.980449 0.650081 0.349485 0.989430 0.600807 0.417618 0.998135 0.522222 0.511142 0.998475 0.410049 0.624191 0.979377 0.260626 0.747010 0.927347 0.072877 0.864883 0.827857 0.149104 0.957486 0.667913 0.393258 0.999622 0.440033 0.636968 0.963901 0.147455 0.846212 0.826224 0.190369 0.977655 0.574165 0.533705 0.985540 0.217147 0.822783 0.834146 0.204232 0.985700 0.514785 0.614805 0.955990 0.062999 0.912964 0.699023 0.431884 0.995011 0.240779 0.834962 0.794839 0.314172 0.999956 0.328518 0.792092 0.827624 0.277490 0.999549 0.331324 0.801004 0.808982 0.325309 0.999284 0.249441
1.000000 1.000000 1.000000 1.000000 1.000000 1.000000 1.000000 1.000000 1.000000 1.000000 1.000000 1.000000 1.000000 1.000000 1.000000 1.000000 1.000000 1.000000 1.000000 1.000000 -0.297132 -0.297132 -0.297132 -0.297132 -0.297132 -0.297132 -0.297132 -0.297132 -0.297132 -0.297132 -0.366793 -0.366793 -0.366793 -0.366793 -0.366793 -0.366793 -0.366793 -0.366793 -0.366793 -0.366793 -0.366793 -0.366793 -0.366793 -0.366793 -0.366793 -0.366793 -0.366793 -0.367214 -0.369577 -0.370215 -0.379021 -0.407247 -0.438310 -0.447763 -0.458693 -0.441631 -0.434045 -0.450794 -0.482678 -0.484792 -0.466337 -0.428370 -0.403679 -0.388865 -0.345705 -0.385319 -0.380714 -0.435038 -0.439829 -0.437148 -0.371313 -0.383277 -0.447598 -0.449834 -0.445132 -0.493003 -0.346061 -0.325955 -0.309302 -0.251626 -0.193286 -0.150172 -0.141708 -0.129703 -0.037952 0.118389 0.182028 0.206098 0.224277 0.253209 0.338723 0.405021 0.404854 0.377912 0.419306 0.549903 0.586929 0.567302 0.542027 0.548542 0.564575 0.620600 0.636865 0.657304 0.645051 0.654997 0.649441 0.656943 0.683942 0.694016 0.769547 0.760585 0.775643 0.783635 0.788254 0.781672 0.767318 0.769189 0.768285 0.758894 0.742354 0.743755 0.710977 0.716345 0.627305 0.600958 0.621097 0.586061 0.558225 0.477243 0.468083 0.468667 0.484978 0.489602 0.490828 0.490777 0.498254 0.504635 0.476811 0.483287 0.486201 0.480706 0.401044 0.363142 0.279223 0.291465 0.238993 0.113343 0.093470 0.101242 0.070318 0.044193 0.078641 0.120259 0.112545 0.150086 0.145498 0.116151 0.127854 0.127965 0.151259 0.196378 0.204440 0.236220 0.263137 0.239626 0.181733 0.134300 0.126237 0.055188 -0.000999 0.032222 -0.029540 -0.016551 -0.003658 -0.016324 -0.069566 0.018627 0.018277 0.021540 0.023897 0.071821 0.056884 0.014078 0.036083 0.010573 0.076126 0.067196 0.095356 0.110403 0.120297 0.145340 0.153890 0.134087 0.143420 0.123234 0.033496 0.044307 0.070111 0.034080 -0.074874 -0.062075 -0.022751 0.018052 0.044322 0.034867 0.150663 0.145255 0.098956 0.125115 0.086266 0.053785 0.020731 -0.015229 0.022077 0.047251 0.050512 0.026347 0.071952 -0.013404 -0.023496 -0.067202 -0.100708 -0.049691 -0.058102 -0.020580 -0.036998 -0.125693 -0.101767 -0.139939 -0.146797 -0.184981 -0.201841 -0.155481 -0.142787 -0.100622 -0.095435 -0.028249 -0.063300 -0.031402 -0.005370 -0.046272 0.011068 0.000686 0.009547 0.010469 -0.029739 -0.030423 0.006478 0.011546 0.036559 -0.017977 0.006171 -0.026484 -0.007783 0.026207 0.065392 -0.012848 -0.063532 -0.062898 -0.062324 -0.039484 0.012178 -0.028900 0.003870 -0.027112 -0.014766 -0.028444 0.026098 0.024341 0.014135 -0.007904 0.019665 0.055302 0.076932 0.034805 0.005190 -0.015602 0.014867 -0.026808 -0.028416 -0.064453 -0.045072 -0.087956 0.003745 -0.041167 -0.013328 0.006478 -0.030979 -0.045547 -0.087113 -0.063257 0.004590 -0.011410 -0.046679 -0.002464 -0.031363 -0.047718 -0.063930 -0.022053 -0.025001 0.048076 0.040259 0.012335 0.000146 0.027808 0.098975 0.143836 0.048155 0.051260 0.054995 0.011829 0.037867 0.032978 0.063008 0.052768 0.026316 0.040237 0.006704 -0.017698 -0.039325 -0.064783 -0.054641 -0.014346 -0.016112 -0.066124 -0.067395 -0.020501 -0.066531 -0.085909 -0.084740 -0.122554 -0.108619 -0.032226 -0.033560 -0.033560 -0.031436 -0.031436 -0.031436 -0.158694 -0.081137 -0.031436 -0.031436 -0.031436 -0.051773 -0.051773 -0.011474 -0.011474 -0.011474 -0.029903 -0.029903 -0.029903 -0.029487 -0.029487 -0.029903 -0.029903 -0.029903 -0.029487 -0.029487 -0.055072 -0.055072 -0.055072 -0.055072
0.000000 0.000000 0.000000 0.000000 255613812346414784.000000 522865405480029184.000000 595946992431219328.000000 819602500797946752.000000 1121135868273261056.000000 0.000000 0.000000 0.000000 0.000000 0.000000 0.000000 0.000000 0.000000 0.000000 0.000000 1630110941302779904.000000 0.240772 0.240772 0.240772 0.240772 0.240772 0.240772 0.240772 0.240772 0.240772 0.240772 0.269680 0.269680 0.269680 0.269680 0.269680 0.269680 0.269680 0.269680 0.269680 0.269680 0.269680 0.269680 0.269680 0.269680 0.269680 0.269680 0.269680 0.269680 0.269680 0.269680 0.269680 0.269680 0.312348 0.312348 0.312348 0.312348 0.312348 0.312348 0.312348 0.312348 0.312348 0.312348 0.312348 0.312348 0.312348 0.312348 0.312348 0.328798 0.328798 0.328798 0.328798 0.328798 0.328798 0.328798 0.328798 0.328798 0.328798 0.328798 0.328798 0.328798 0.328798 0.328798 0.328798 0.328798 0.328798 0.328798 0.328798 0.328798 0.328798 0.328798 0.348155 0.348155 0.348155 0.348155 0.348155 0.348155 0.348155 0.348155 0.348155 0.338062 0.338062 0.338062 0.338062 0.338062 0.338062 0.338062 0.338062 0.338062 0.348155 0.348155 0.348155 0.348155 0.348155 0.348155 0.348155 0.348155 0.359211 0.359211 0.359211 0.359211 0.359211 0.359211 0.359211 0.348155 0.348155 0.348155 0.348155 0.348155 0.348155 0.348155 0.348155 0.348155 0.348155 0.348155 0.348155 0.348155 0.348155 0.359211 0.359211 0.359211 0.359211 0.359211 0.359211 0.348155 0.348155 0.348155 0.348155 0.348155 0.348155 0.348155 0.348155 0.348155 0.348155 0.348155 0.348155 0.338062 0.338062 0.338062 0.338062 0.338062 0.338062 0.359211 0.359211 0.359211 0.359211 0.359211 0.348155 0.348155 0.348155 0.348155 0.348155 0.320256 0.320256 0.320256 0.320256 0.320256 0.320256 0.338062 0.338062 0.338062 0.338062 0.338062 0.359211 0.359211 0.359211 0.359211 0.328798 0.328798 0.328798 0.328798 0.328798 0.320256 0.320256 0.320256 0.320256 0.320256 0.348155 0.348155 0.348155 0.348155 0.312348 0.312348 0.312348 0.312348 0.312348 0.338062 0.338062 0.338062 0.338062 0.328798 0.328798 0.328798 0.328798 0.328798 0.328798 0.328798 0.328798 0.320256 0.320256 0.320256 0.320256 0.320256 0.320256 0.320256 0.320256 0.312348 0.312348 0.312348 0.312348 0.312348 0.312348 0.312348 0.312348 0.304997 0.304997 0.304997 0.304997 0.338062 0.338062 0.338062 0.298142 0.298142 0.298142 0.298142 0.298142 0.298142 0.298142 0.298142 0.328798 0.328798 0.328798 0.291730 0.291730 0.291730 0.291730 0.320256 0.320256 0.320256 0.285714 0.285714 0.285714 0.285714 0.312348 0.312348 0.312348 0.312348 0.312348 0.312348 0.274721 0.274721 0.274721 0.274721 0.304997 0.304997 0.304997 0.304997 0.304997 0.304997 0.298142 0.298142 0.298142 0.298142 0.298142 0.298142 0.264906 0.264906 0.264906 0.264906 0.291730 0.291730 0.291730 0.291730 0.291730 0.291730 0.285714 0.285714 0.285714 0.285714 0.285714 0.285714 0.285714 0.285714 0.285714 0.280056 0.280056 0.280056 0.320256 0.320256 0.274721 0.274721 0.274721 0.274721 0.274721 0.274721 0.274721 0.274721 0.274721 0.269680 0.269680 0.269680 0.269680 0.269680 0.269680 0.304997 0.304997 0.264906 0.264906 0.264906 0.264906 0.264906 0.264906 0.304997 0.304997 0.260378 0.260378 0.260378 0.256074 0.256074 0.256074 0.298142 0.298142 0.256074 0.256074 0.256074 0.291730 0.291730 0.251976 0.251976 0.251976 0.248069 0.248069 0.248069 0.285714 0.285714 0.248069 0.248069 0.248069 0.285714 0.285714 0.280056 0.280056 0.280056 0.280056
