# Output from CTFFind version 4.1.9, run on 2019-11-24 12:06:12
# Input file: stack1_ubbm3d_averaged_1_4.0_0_1500_half.mrc ; Number of micrographs: 1
# Pixel size: 1.500 Angstroms ; acceleration voltage: 300.0 keV ; spherical aberration: 0.00 mm ; amplitude contrast: 0.07
# Box size: 512 pixels ; min. res.: 40.0 Angstroms ; max. res.: 6.0 Angstroms ; min. def.: 5000.0 um; max. def. 50000.0 um; num. frames averaged: 1
# 6 lines per micrograph: #1 - spatial frequency (1/Angstroms); #2 - 1D rotational average of spectrum (assuming no astigmatism); #3 - 1D rotational average of spectrum; #4 - CTF fit; #5 - cross-correlation between spectrum and CTF fit; #6 - 2sigma of expected cross correlation of noise
0.000000 0.001302 0.002604 0.003906 0.005208 0.006510 0.007812 0.009115 0.010417 0.011719 0.013021 0.014323 0.015625 0.016927 0.018229 0.019531 0.020833 0.022135 0.023438 0.024740 0.026042 0.027344 0.028646 0.029948 0.031250 0.032552 0.033854 0.035156 0.036458 0.037760 0.039062 0.040365 0.041667 0.042969 0.044271 0.045573 0.046875 0.048177 0.049479 0.050781 0.052083 0.053385 0.054688 0.055990 0.057292 0.058594 0.059896 0.061198 0.062500 0.063802 0.065104 0.066406 0.067708 0.069010 0.070312 0.071615 0.072917 0.074219 0.075521 0.076823 0.078125 0.079427 0.080729 0.082031 0.083333 0.084635 0.085938 0.087240 0.088542 0.089844 0.091146 0.092448 0.093750 0.095052 0.096354 0.097656 0.098958 0.100260 0.101562 0.102865 0.104167 0.105469 0.106771 0.108073 0.109375 0.110677 0.111979 0.113281 0.114583 0.115885 0.117188 0.118490 0.119792 0.121094 0.122396 0.123698 0.125000 0.126302 0.127604 0.128906 0.130208 0.131510 0.132812 0.134115 0.135417 0.136719 0.138021 0.139323 0.140625 0.141927 0.143229 0.144531 0.145833 0.147135 0.148438 0.149740 0.151042 0.152344 0.153646 0.154948 0.156250 0.157552 0.158854 0.160156 0.161458 0.162760 0.164062 0.165365 0.166667 0.167969 0.169271 0.170573 0.171875 0.173177 0.174479 0.175781 0.177083 0.178385 0.179688 0.180990 0.182292 0.183594 0.184896 0.186198 0.187500 0.188802 0.190104 0.191406 0.192708 0.194010 0.195312 0.196615 0.197917 0.199219 0.200521 0.201823 0.203125 0.204427 0.205729 0.207031 0.208333 0.209635 0.210938 0.212240 0.213542 0.214844 0.216146 0.217448 0.218750 0.220052 0.221354 0.222656 0.223958 0.225260 0.226562 0.227865 0.229167 0.230469 0.231771 0.233073 0.234375 0.235677 0.236979 0.238281 0.239583 0.240885 0.242188 0.243490 0.244792 0.246094 0.247396 0.248698 0.250000 0.251302 0.252604 0.253906 0.255208 0.256510 0.257812 0.259115 0.260417 0.261719 0.263021 0.264323 0.265625 0.266927 0.268229 0.269531 0.270833 0.272135 0.273438 0.274740 0.276042 0.277344 0.278646 0.279948 0.281250 0.282552 0.283854 0.285156 0.286458 0.287760 0.289062 0.290365 0.291667 0.292969 0.294271 0.295573 0.296875 0.298177 0.299479 0.300781 0.302083 0.303385 0.304688 0.305990 0.307292 0.308594 0.309896 0.311198 0.312500 0.313802 0.315104 0.316406 0.317708 0.319010 0.320312 0.321615 0.322917 0.324219 0.325521 0.326823 0.328125 0.329427 0.330729 0.332031 0.333333 0.334635 0.335938 0.337240 0.338542 0.339844 0.341146 0.342448 0.343750 0.345052 0.346354 0.347656 0.348958 0.350260 0.351562 0.352865 0.354167 0.355469 0.356771 0.358073 0.359375 0.360677 0.361979 0.363281 0.364583 0.365885 0.367188 0.368490 0.369792 0.371094 0.372396 0.373698 0.375000 0.376302 0.377604 0.378906 0.380208 0.381510 0.382812 0.384115 0.385417 0.386719 0.388021 0.389323 0.390625 0.391927 0.393229 0.394531 0.395833 0.397135 0.398438 0.399740 0.401042 0.402344 0.403646 0.404948 0.406250 0.407552 0.408854 0.410156 0.411458 0.412760 0.414062 0.415365 0.416667 0.417969 0.419271 0.420573 0.421875 0.423177 0.424479 0.425781 0.427083 0.428385 0.429688 0.430990 0.432292 0.433594 0.434896 0.436198 0.437500 0.438802 0.440104 0.441406 0.442708 0.444010 0.445312 0.446615 0.447917 0.449219 0.450521 0.451823 0.453125 0.454427 0.455729 0.457031 0.458333 0.459635 0.460938 0.462240 0.463542 0.464844 0.466146 0.467448 0.468750 0.470052 0.471354
       0.50181        0.50181        0.50181        0.50181        0.50181        0.50181        0.50181        0.50181        0.50181        0.50181        0.50181        0.50181        0.50181        0.50181        0.50181        0.50181        0.50181        0.50181        0.50181        1.35144        2.04906        0.88518        0.09830       -0.04164        0.53423        1.16388        1.10056        0.58896        0.24609        0.18542        0.19702        0.20048        0.24121        0.27131        0.20432        0.17742        0.11883       -0.00268       -0.12081       -0.11564       -0.03689        0.07018        0.25611        0.45701        0.57459        0.60420        0.65025        0.76380        0.90837        0.96058        0.82163        0.51471        0.27515        0.26718        0.39605        0.42253        0.31922        0.22520        0.25883        0.36384        0.49773        0.59060        0.68263        0.75374        0.76485        0.67610        0.52640        0.43964        0.39177        0.36864        0.39330        0.51229        0.64661        0.62733        0.52426        0.45419        0.44568        0.45432        0.45579        0.48587        0.54287        0.55167        0.54151        0.47736        0.43654        0.42496        0.46824        0.48485        0.45218        0.40783        0.41262        0.46973        0.50535        0.50941        0.45359        0.43337        0.48293        0.57655        0.60623        0.54746        0.51086        0.54102        0.60461        0.61657        0.58453        0.55086        0.49213        0.44572        0.42645        0.43223        0.41316        0.38814        0.38171        0.44250        0.53982        0.60926        0.60559        0.54300        0.47599        0.44674        0.45379        0.47379        0.50145        0.51323        0.49271        0.47402        0.49124        0.52154        0.54079        0.53745        0.53881        0.54087        0.50651        0.45364        0.42100        0.46293        0.52193        0.53994        0.50314        0.48181        0.50214        0.55553        0.58648        0.55018        0.47983        0.43726        0.48972        0.56584        0.60303        0.54616        0.47554        0.46278        0.48383        0.47537        0.42680        0.40720        0.42774        0.48368        0.52191        0.53399        0.51860        0.48654        0.44702        0.44028        0.49069        0.54687        0.55478        0.53623        0.53647        0.53894        0.49268        0.45941        0.50604        0.59654        0.61149        0.52059        0.43732        0.42879        0.43767        0.44135        0.46351        0.52550        0.59916        0.62156        0.58300        0.52083        0.48750        0.49800        0.50981        0.48365        0.47414        0.51260        0.54003        0.47866        0.39900        0.43685        0.55291        0.60304        0.54082        0.46194        0.44565        0.46816        0.49551        0.49812        0.48490        0.46927        0.48508        0.51061        0.50225        0.48978        0.50912        0.55382        0.55702        0.51634        0.50646        0.53682        0.56547        0.54631        0.50535        0.48426        0.50136        0.53793        0.54688        0.51342        0.45387        0.43102        0.44518        0.47035        0.46143        0.46479        0.47944        0.47720        0.45090        0.45012        0.49633        0.55108        0.56359        0.55352        0.55175        0.55686        0.55553        0.53841        0.52597        0.51555        0.49037        0.46727        0.47747        0.51070        0.52820        0.50953        0.49356        0.50461        0.51861        0.51313        0.48162        0.46161        0.46473        0.46793        0.47788        0.52262        0.54705        0.51824        0.46030        0.43712        0.46947        0.51655        0.51056        0.46313        0.45147        0.48382        0.52905        0.53505        0.50801        0.50160        0.51405        0.50848        0.48557        0.47641        0.50386        0.52191        0.50380        0.48299        0.50264        0.52415        0.49439        0.46241        0.46940        0.49750        0.49075        0.46073        0.47947        0.55859        0.61324        0.55123        0.46729        0.46128        0.48437        0.46793        0.45081        0.46532        0.53192        0.57558        0.56303        0.51371        0.45512        0.42044        0.43001        0.47588        0.51428        0.53508        0.55088        0.50889        0.43792        0.37641        0.40823        0.51216        0.57663        0.58027        0.53100        0.52533        0.52394        0.51123        0.50582        0.54612        0.57933        0.51894        0.42381        0.34427        0.35960        0.43100        0.47933        0.47900        0.49321        0.52460        0.48358        0.43006        0.44958        0.53539        0.54797        0.51456        0.50880        0.57017        0.63885        0.65509        0.57692        0.47044        0.34607        0.30864        0.38204        0.50006        0.44637        0.32773        0.36478        0.62181        0.78752        0.65418        0.41902        0.30102        0.28055        0.19420        0.02963       -0.08085       -0.12538
0.501809 0.501809 0.501809 0.501809 0.501809 0.501809 0.501809 0.501809 0.501809 0.501809 0.501809 0.501809 0.501809 0.501809 0.501809 0.501809 0.501809 0.501809 0.501809 1.378800 2.110379 1.063758 0.072223 -0.156528 0.436954 1.269219 1.108953 0.566064 0.295504 0.209019 0.103008 0.200843 0.287438 0.265717 0.221595 0.177733 0.094150 -0.000598 -0.162063 -0.064372 -0.035786 0.049269 0.201409 0.495824 0.568214 0.586101 0.643790 0.737390 0.876977 0.962048 0.899010 0.512361 0.308834 0.255071 0.453091 0.379569 0.351394 0.148937 0.257298 0.394388 0.494128 0.579392 0.659744 0.733731 0.784279 0.703322 0.546554 0.415288 0.364363 0.394854 0.354934 0.540059 0.595899 0.668626 0.545183 0.450262 0.484602 0.402165 0.434919 0.502565 0.522714 0.544997 0.566443 0.468708 0.469540 0.401274 0.464382 0.459796 0.476501 0.417733 0.402620 0.460532 0.502159 0.537573 0.442850 0.421114 0.453975 0.554769 0.644144 0.573048 0.522569 0.484422 0.616113 0.583741 0.588053 0.564307 0.514739 0.459976 0.441971 0.430605 0.402648 0.402669 0.375314 0.401178 0.513623 0.587045 0.627166 0.549495 0.500786 0.449261 0.458499 0.445211 0.508129 0.511363 0.493041 0.472231 0.494203 0.498774 0.560688 0.518043 0.548350 0.533124 0.531713 0.480780 0.404683 0.453813 0.487288 0.554888 0.512412 0.491685 0.481602 0.541241 0.603522 0.578507 0.495781 0.428766 0.461315 0.507211 0.605656 0.606782 0.527565 0.452649 0.475132 0.489653 0.432494 0.410236 0.413214 0.446799 0.524482 0.536918 0.524705 0.509280 0.471134 0.413981 0.461670 0.542991 0.572278 0.532256 0.530333 0.515425 0.534392 0.463301 0.447440 0.578775 0.621788 0.588010 0.464132 0.417369 0.437996 0.427178 0.458741 0.489926 0.572375 0.614729 0.613167 0.559437 0.511133 0.481025 0.529695 0.493749 0.477658 0.475004 0.525992 0.534170 0.466301 0.388121 0.501048 0.594617 0.604888 0.496194 0.453970 0.456887 0.491073 0.478922 0.473940 0.493354 0.484391 0.502793 0.508080 0.506374 0.483778 0.523600 0.565345 0.553257 0.489246 0.514190 0.560997 0.558988 0.529460 0.500270 0.480920 0.501825 0.563526 0.553079 0.491817 0.432312 0.434458 0.447668 0.478236 0.470344 0.453303 0.486046 0.474280 0.447419 0.447229 0.515188 0.547967 0.571553 0.557855 0.549881 0.549796 0.555516 0.538235 0.520551 0.507096 0.489180 0.452495 0.490276 0.518930 0.533882 0.498366 0.487315 0.513522 0.514335 0.496020 0.474886 0.461366 0.470715 0.461439 0.487918 0.536769 0.534083 0.507287 0.450458 0.426616 0.496657 0.509575 0.510032 0.435773 0.456117 0.506450 0.537098 0.507809 0.498720 0.505456 0.527550 0.504469 0.482582 0.460458 0.527647 0.529501 0.493410 0.483223 0.530369 0.516064 0.476009 0.450053 0.497234 0.485111 0.490853 0.445016 0.493117 0.579190 0.609677 0.545472 0.455570 0.445078 0.487079 0.478260 0.446117 0.479840 0.539466 0.595899 0.541397 0.515941 0.446963 0.408421 0.429372 0.478431 0.519299 0.530275 0.568526 0.519721 0.422388 0.367262 0.437748 0.500387 0.614180 0.594253 0.537422 0.499259 0.541249 0.515892 0.500681 0.583922 0.551089 0.532458 0.407054 0.335062 0.370296 0.458728 0.463349 0.481968 0.524282 0.505745 0.491785 0.420237 0.464344 0.519053 0.583213 0.502392 0.533311 0.599021 0.616450 0.653213 0.613833 0.445181 0.337140 0.271984 0.389992 0.515387 0.473161 0.259177 0.330793 0.514217 0.771514 0.645783 0.372536 0.296652 0.285444 0.200092 0.030845 -0.125382
0.072396 0.073433 0.076543 0.081725 0.088976 0.098292 0.109667 0.123090 0.138551 0.156033 0.175513 0.196964 0.220349 0.245625 0.272736 0.301615 0.332182 0.364341 0.397979 0.432966 0.469150 0.506357 0.544389 0.583024 0.622013 0.661078 0.699914 0.738188 0.775535 0.811564 0.845854 0.877960 0.907412 0.933718 0.956372 0.974852 0.988633 0.997187 0.999996 0.996557 0.986396 0.969073 0.944198 0.911444 0.870555 0.821364 0.763805 0.697926 0.623905 0.542055 0.452845 0.356900 0.255012 0.148148 0.037441 0.075801 0.190113 0.303878 0.415346 0.522657 0.623870 0.716998 0.800042 0.871044 0.928132 0.969573 0.993833 0.999631 0.986003 0.952349 0.898497 0.824739 0.731873 0.621233 0.494694 0.354680 0.204136 0.046495 0.114387 0.274304 0.428809 0.573327 0.703299 0.814330 0.902353 0.963799 0.995761 0.996152 0.963852 0.898823 0.802204 0.676350 0.524848 0.352459 0.165020 0.030715 0.227293 0.416829 0.591316 0.742976 0.864623 0.950043 0.994348 0.994306 0.948612 0.858085 0.725774 0.556949 0.358983 0.141098 0.086012 0.310658 0.520752 0.704458 0.850883 0.950782 0.997198 0.986028 0.916449 0.791165 0.616453 0.401971 0.160333 0.093555 0.343357 0.572349 0.764539 0.905842 0.985190 0.995502 0.934425 0.804770 0.614580 0.376802 0.108535 0.170092 0.437371 0.671702 0.853369 0.966289 0.999560 0.948661 0.816167 0.611884 0.352325 0.059555 0.240572 0.520623 0.754099 0.918023 0.995312 0.976747 0.862255 0.661340 0.392570 0.082074 0.238840 0.536756 0.779637 0.940352 0.999880 0.949783 0.793615 0.547049 0.236596 0.103008 0.432553 0.712836 0.909393 0.996912 0.962738 0.808985 0.552880 0.225182 0.133240 0.476335 0.758759 0.941956 0.999644 0.921892 0.717141 0.411748 0.046954 0.326417 0.654914 0.890166 0.996186 0.955211 0.771053 0.469334 0.094361 0.297064 0.644072 0.891245 0.997664 0.944057 0.736723 0.407416 0.008952 0.392914 0.730209 0.944325 0.996497 0.875274 0.599482 0.215916 0.208141 0.596441 0.877452 0.997774 0.932727 0.691961 0.318760 0.117170 0.532354 0.845446 0.993361 0.944450 0.705876 0.323401 0.126750 0.552689 0.865508 0.998080 0.919985 0.645158 0.230254 0.236376 0.653110 0.927179 0.995658 0.840540 0.494200 0.033460 0.436820 0.807362 0.990013 0.939262 0.664354 0.228666 0.264126 0.694250 0.954965 0.979470 0.758816 0.345802 0.156737 0.620942 0.926341 0.991497 0.796508 0.389992 0.122029 0.603087 0.922489 0.991185 0.787443 0.364684 0.161428 0.643945 0.945534 0.978008 0.729056 0.267803 0.273272 0.735755 0.981634 0.935122 0.607075 0.093932 0.449592 0.856665 0.999746 0.831419 0.401317 0.157169 0.667379 0.965046 0.951770 0.628678 0.098516 0.465833 0.877158 0.996258 0.780066 0.298572 0.286388 0.774667 0.996235 0.871230 0.440124 0.147770 0.684885 0.978416 0.920226 0.528040 0.058125 0.624649 0.961741 0.941692 0.568645 0.019988 0.602725 0.956835 0.944017 0.565829 0.033793 0.621858 0.966318 0.928221 0.519308 0.099425 0.679668 0.984954 0.887834 0.424730 0.215665 0.767854 0.999383 0.809702 0.275682 0.377538 0.870215 0.987944 0.676273 0.067896 0.571948 0.960220 0.921847 0.470415 0.194141 0.772397 0.999999 0.769656 0.183793 0.488786 0.935022 0.943676 0.507083 0.171213 0.769464 0.999884 0.748288 0.132910 0.548820 0.962828 0.902653 0.394391 0.311876 0.863325 0.980510 0.600581 0.086545 0.730890 0.999870 0.751138 0.110362 0.589710 0.980710 0.853194 0.271114 0.457386 0.941391
1.000000 1.000000 1.000000 1.000000 1.000000 1.000000 1.000000 1.000000 1.000000 1.000000 1.000000 1.000000 1.000000 1.000000 1.000000 1.000000 1.000000 1.000000 1.000000 1.000000 -0.105932 -0.105932 -0.105932 -0.105932 -0.105932 -0.105932 -0.105932 -0.105932 -0.105932 -0.105932 -0.105932 -0.105932 -0.105932 -0.105932 -0.105932 -0.105932 -0.105932 -0.105932 -0.204403 -0.204403 -0.204403 -0.204403 -0.204403 -0.204403 -0.204403 -0.204403 -0.204403 -0.204403 -0.204403 -0.204403 -0.204403 -0.204403 -0.204403 -0.204403 -0.204403 -0.204403 -0.191976 -0.184641 -0.165240 -0.150199 -0.138880 -0.145789 -0.151974 -0.152621 -0.151001 -0.152566 -0.126139 0.008715 0.082418 0.136985 0.149843 0.145757 0.143392 0.130576 0.103565 0.122175 0.139316 0.163214 0.182689 0.192163 0.191741 0.195879 0.241186 0.284746 0.262472 0.242969 0.227513 0.212053 0.188154 0.177109 0.151918 0.171785 0.240331 0.297231 0.376962 0.364882 0.335432 0.339291 0.364842 0.344247 0.318872 0.304458 0.282936 0.314987 0.327735 0.341482 0.366298 0.370282 0.427992 0.422357 0.426461 0.418729 0.505963 0.577583 0.578496 0.590961 0.625480 0.600559 0.612823 0.588460 0.541846 0.539662 0.565989 0.545441 0.541555 0.568050 0.577495 0.576642 0.578606 0.585898 0.578029 0.500785 0.509105 0.504429 0.521149 0.556292 0.566564 0.550159 0.537346 0.554888 0.550821 0.560579 0.552453 0.554725 0.543242 0.577232 0.585438 0.588658 0.560627 0.539583 0.492311 0.472133 0.461670 0.431076 0.355201 0.299103 0.263169 0.216880 0.179880 0.141048 0.147499 0.170828 0.115007 0.059310 0.063444 0.069734 0.014902 -0.045427 -0.037566 -0.038986 -0.108675 -0.102464 -0.042647 -0.022030 -0.084800 -0.102306 -0.121099 -0.164971 -0.171183 -0.242887 -0.234548 -0.249941 -0.285592 -0.318820 -0.328226 -0.321739 -0.301264 -0.328793 -0.298187 -0.327637 -0.345426 -0.351036 -0.363893 -0.401436 -0.374936 -0.333135 -0.331385 -0.258170 -0.194588 -0.166693 -0.133966 -0.073416 -0.006770 -0.002241 0.031364 0.092929 0.126068 0.116700 0.075345 0.070401 0.077566 0.030404 -0.006803 0.061206 0.052406 0.081359 0.076237 0.107272 0.135715 0.185640 0.274687 0.306257 0.325677 0.367458 0.361003 0.398902 0.415033 0.456033 0.442246 0.473665 0.444934 0.470210 0.449144 0.447612 0.489819 0.508982 0.558052 0.641093 0.620548 0.620934 0.634182 0.631068 0.618527 0.630630 0.626448 0.625309 0.639463 0.642943 0.624436 0.597001 0.557585 0.529541 0.548636 0.546124 0.538194 0.478722 0.468419 0.366665 0.355518 0.341573 0.407717 0.395781 0.401936 0.402300 0.384570 0.366265 0.337747 0.332042 0.286856 0.301148 0.297401 0.269257 0.364149 0.343284 0.304816 0.283786 0.263342 0.242919 0.286684 0.274224 0.259186 0.249072 0.263154 0.294843 0.286414 0.202916 0.203317 0.164866 0.118209 0.112122 0.064512 0.012896 0.016971 -0.007648 0.040868 0.057258 0.065580 0.079927 0.085770 0.044130 0.075395 0.058788 0.068510 0.104467 0.082149 0.039254 0.081911 0.073960 0.085849 0.030930 0.019786 -0.009956 -0.046012 -0.053954 -0.105016 -0.110569 -0.103060 -0.141611 -0.157208 -0.268665 -0.264832 -0.275296 -0.255260 -0.102809 -0.154386 -0.106955 -0.097643 -0.081816 -0.173267 -0.119995 -0.185178 -0.192976 -0.098453 -0.105653 -0.131674 -0.129105 -0.129105 -0.089284 -0.105432 -0.116104 -0.116104 -0.092658 -0.092658 -0.092658 -0.092658 -0.092658 -0.161726 -0.161726 -0.161726 -0.161726 -0.107824 -0.107824 -0.107824 -0.107824 -0.107824 -0.162323 -0.162323 -0.162323 -0.162323 -0.162323 -0.162323 -0.162323 -0.162323
0.000000 0.000000 0.000000 0.000000 0.000000 0.000000 0.000000 0.000000 0.000000 0.000000 0.000000 0.000000 0.000000 0.000000 0.000000 0.000000 0.000000 0.000000 0.000000 0.000000 0.216930 0.216930 0.216930 0.216930 0.216930 0.216930 0.216930 0.216930 0.216930 0.216930 0.216930 0.216930 0.216930 0.216930 0.216930 0.216930 0.216930 0.216930 0.234082 0.234082 0.234082 0.234082 0.234082 0.234082 0.234082 0.234082 0.234082 0.234082 0.234082 0.234082 0.234082 0.234082 0.234082 0.234082 0.234082 0.234082 0.234082 0.234082 0.234082 0.234082 0.234082 0.234082 0.234082 0.234082 0.234082 0.234082 0.234082 0.269680 0.269680 0.269680 0.269680 0.269680 0.269680 0.269680 0.269680 0.269680 0.269680 0.269680 0.269680 0.269680 0.269680 0.269680 0.269680 0.269680 0.269680 0.269680 0.269680 0.291730 0.291730 0.291730 0.291730 0.291730 0.291730 0.291730 0.291730 0.291730 0.291730 0.291730 0.291730 0.291730 0.291730 0.291730 0.291730 0.298142 0.298142 0.298142 0.298142 0.298142 0.298142 0.298142 0.298142 0.298142 0.298142 0.298142 0.298142 0.298142 0.298142 0.312348 0.312348 0.312348 0.312348 0.312348 0.312348 0.312348 0.312348 0.312348 0.312348 0.312348 0.312348 0.312348 0.312348 0.312348 0.312348 0.312348 0.312348 0.312348 0.312348 0.312348 0.312348 0.312348 0.304997 0.304997 0.304997 0.304997 0.304997 0.304997 0.304997 0.304997 0.304997 0.304997 0.304997 0.312348 0.312348 0.312348 0.312348 0.312348 0.312348 0.312348 0.312348 0.312348 0.312348 0.312348 0.312348 0.312348 0.312348 0.312348 0.312348 0.312348 0.312348 0.312348 0.328798 0.328798 0.328798 0.328798 0.328798 0.328798 0.328798 0.328798 0.298142 0.298142 0.298142 0.298142 0.298142 0.298142 0.298142 0.298142 0.298142 0.312348 0.312348 0.312348 0.312348 0.312348 0.312348 0.312348 0.312348 0.320256 0.320256 0.320256 0.320256 0.320256 0.320256 0.320256 0.298142 0.298142 0.298142 0.298142 0.298142 0.298142 0.298142 0.298142 0.312348 0.312348 0.312348 0.312348 0.312348 0.312348 0.312348 0.304997 0.304997 0.304997 0.304997 0.304997 0.304997 0.304997 0.320256 0.320256 0.320256 0.320256 0.320256 0.320256 0.291730 0.291730 0.291730 0.291730 0.291730 0.291730 0.291730 0.304997 0.304997 0.304997 0.304997 0.304997 0.304997 0.304997 0.304997 0.304997 0.304997 0.304997 0.304997 0.298142 0.298142 0.298142 0.298142 0.298142 0.298142 0.291730 0.291730 0.291730 0.291730 0.291730 0.291730 0.291730 0.291730 0.291730 0.291730 0.291730 0.291730 0.304997 0.304997 0.304997 0.304997 0.304997 0.280056 0.280056 0.280056 0.280056 0.280056 0.280056 0.298142 0.298142 0.298142 0.298142 0.298142 0.274721 0.274721 0.274721 0.274721 0.274721 0.274721 0.291730 0.291730 0.291730 0.291730 0.291730 0.285714 0.285714 0.285714 0.285714 0.285714 0.285714 0.285714 0.285714 0.285714 0.285714 0.280056 0.280056 0.280056 0.280056 0.280056 0.280056 0.280056 0.280056 0.280056 0.280056 0.274721 0.274721 0.274721 0.274721 0.274721 0.298142 0.298142 0.298142 0.298142 0.269680 0.269680 0.269680 0.269680 0.269680 0.291730 0.291730 0.291730 0.291730 0.264906 0.264906 0.264906 0.264906 0.264906 0.285714 0.285714 0.285714 0.285714 0.256074 0.256074 0.256074 0.256074 0.256074 0.280056 0.280056 0.280056 0.280056 0.251976 0.251976 0.251976 0.251976 0.251976 0.274721 0.274721 0.274721 0.274721 0.274721 0.274721 0.274721 0.274721
