# Output from CTFFind version 4.1.9, run on 2019-11-24 12:06:13
# Input file: stack1_ubbm3d_averaged_1_3.0_0_1500_half.mrc ; Number of micrographs: 1
# Pixel size: 1.500 Angstroms ; acceleration voltage: 300.0 keV ; spherical aberration: 0.00 mm ; amplitude contrast: 0.07
# Box size: 512 pixels ; min. res.: 40.0 Angstroms ; max. res.: 6.0 Angstroms ; min. def.: 5000.0 um; max. def. 50000.0 um; num. frames averaged: 1
# 6 lines per micrograph: #1 - spatial frequency (1/Angstroms); #2 - 1D rotational average of spectrum (assuming no astigmatism); #3 - 1D rotational average of spectrum; #4 - CTF fit; #5 - cross-correlation between spectrum and CTF fit; #6 - 2sigma of expected cross correlation of noise
0.000000 0.001302 0.002604 0.003906 0.005208 0.006510 0.007812 0.009115 0.010417 0.011719 0.013021 0.014323 0.015625 0.016927 0.018229 0.019531 0.020833 0.022135 0.023438 0.024740 0.026042 0.027344 0.028646 0.029948 0.031250 0.032552 0.033854 0.035156 0.036458 0.037760 0.039062 0.040365 0.041667 0.042969 0.044271 0.045573 0.046875 0.048177 0.049479 0.050781 0.052083 0.053385 0.054688 0.055990 0.057292 0.058594 0.059896 0.061198 0.062500 0.063802 0.065104 0.066406 0.067708 0.069010 0.070312 0.071615 0.072917 0.074219 0.075521 0.076823 0.078125 0.079427 0.080729 0.082031 0.083333 0.084635 0.085938 0.087240 0.088542 0.089844 0.091146 0.092448 0.093750 0.095052 0.096354 0.097656 0.098958 0.100260 0.101562 0.102865 0.104167 0.105469 0.106771 0.108073 0.109375 0.110677 0.111979 0.113281 0.114583 0.115885 0.117188 0.118490 0.119792 0.121094 0.122396 0.123698 0.125000 0.126302 0.127604 0.128906 0.130208 0.131510 0.132812 0.134115 0.135417 0.136719 0.138021 0.139323 0.140625 0.141927 0.143229 0.144531 0.145833 0.147135 0.148438 0.149740 0.151042 0.152344 0.153646 0.154948 0.156250 0.157552 0.158854 0.160156 0.161458 0.162760 0.164062 0.165365 0.166667 0.167969 0.169271 0.170573 0.171875 0.173177 0.174479 0.175781 0.177083 0.178385 0.179688 0.180990 0.182292 0.183594 0.184896 0.186198 0.187500 0.188802 0.190104 0.191406 0.192708 0.194010 0.195312 0.196615 0.197917 0.199219 0.200521 0.201823 0.203125 0.204427 0.205729 0.207031 0.208333 0.209635 0.210938 0.212240 0.213542 0.214844 0.216146 0.217448 0.218750 0.220052 0.221354 0.222656 0.223958 0.225260 0.226562 0.227865 0.229167 0.230469 0.231771 0.233073 0.234375 0.235677 0.236979 0.238281 0.239583 0.240885 0.242188 0.243490 0.244792 0.246094 0.247396 0.248698 0.250000 0.251302 0.252604 0.253906 0.255208 0.256510 0.257812 0.259115 0.260417 0.261719 0.263021 0.264323 0.265625 0.266927 0.268229 0.269531 0.270833 0.272135 0.273438 0.274740 0.276042 0.277344 0.278646 0.279948 0.281250 0.282552 0.283854 0.285156 0.286458 0.287760 0.289062 0.290365 0.291667 0.292969 0.294271 0.295573 0.296875 0.298177 0.299479 0.300781 0.302083 0.303385 0.304688 0.305990 0.307292 0.308594 0.309896 0.311198 0.312500 0.313802 0.315104 0.316406 0.317708 0.319010 0.320312 0.321615 0.322917 0.324219 0.325521 0.326823 0.328125 0.329427 0.330729 0.332031 0.333333 0.334635 0.335938 0.337240 0.338542 0.339844 0.341146 0.342448 0.343750 0.345052 0.346354 0.347656 0.348958 0.350260 0.351562 0.352865 0.354167 0.355469 0.356771 0.358073 0.359375 0.360677 0.361979 0.363281 0.364583 0.365885 0.367188 0.368490 0.369792 0.371094 0.372396 0.373698 0.375000 0.376302 0.377604 0.378906 0.380208 0.381510 0.382812 0.384115 0.385417 0.386719 0.388021 0.389323 0.390625 0.391927 0.393229 0.394531 0.395833 0.397135 0.398438 0.399740 0.401042 0.402344 0.403646 0.404948 0.406250 0.407552 0.408854 0.410156 0.411458 0.412760 0.414062 0.415365 0.416667 0.417969 0.419271 0.420573 0.421875 0.423177 0.424479 0.425781 0.427083 0.428385 0.429688 0.430990 0.432292 0.433594 0.434896 0.436198 0.437500 0.438802 0.440104 0.441406 0.442708 0.444010 0.445312 0.446615 0.447917 0.449219 0.450521 0.451823 0.453125 0.454427 0.455729 0.457031 0.458333 0.459635 0.460938 0.462240 0.463542 0.464844 0.466146 0.467448 0.468750 0.470052 0.471354
       0.50455        0.50455        0.50455        0.50455        0.50455        0.50455        0.50455        0.50455        0.50455        0.50455        0.50455        0.50455        0.50455        0.50455        0.50455        0.50455        0.50455        0.50455        0.50455        1.37176        2.10728        0.92135        0.11705       -0.02780        0.54482        1.17217        1.10584        0.58903        0.22989        0.16954        0.20594        0.23419        0.27186        0.27202        0.16657        0.12083        0.06991       -0.01488       -0.12628       -0.15193       -0.09443        0.04029        0.28039        0.49945        0.59882        0.60935        0.65931        0.79833        0.96445        1.01475        0.84624        0.50630        0.26200        0.26888        0.40104        0.39559        0.25856        0.15631        0.21540        0.36838        0.53919        0.62915        0.69123        0.74742        0.77573        0.69815        0.53417        0.43331        0.39421        0.38510        0.40995        0.51607        0.64030        0.61402        0.50823        0.44135        0.43745        0.43744        0.43338        0.47662        0.56648        0.59312        0.56987        0.47822        0.43702        0.44739        0.51002        0.53018        0.47062        0.39098        0.36491        0.42799        0.49384        0.52234        0.46839        0.45080        0.50263        0.57856        0.57445        0.50683        0.48257        0.51656        0.55911        0.57037        0.57989        0.58549        0.52614        0.46743        0.43666        0.43584        0.41356        0.40139        0.40995        0.46572        0.54207        0.60920        0.61906        0.57206        0.50511        0.46996        0.45816        0.45211        0.47818        0.51874        0.51904        0.48680        0.48689        0.52696        0.57038        0.54451        0.50342        0.49897        0.49476        0.45907        0.40440        0.41504        0.48955        0.53537        0.52642        0.53251        0.58525        0.62529        0.58732        0.49990        0.44840        0.43916        0.46917        0.50225        0.52875        0.51174        0.46665        0.45644        0.48439        0.49300        0.43745        0.40446        0.43591        0.52200        0.57959        0.58343        0.56228        0.52195        0.45899        0.41984        0.47371        0.57758        0.62769        0.59169        0.53253        0.49561        0.44818        0.44103        0.49546        0.58669        0.59615        0.51007        0.45139        0.47309        0.50166        0.48689        0.47001        0.49212        0.55926        0.60633        0.58107        0.50048        0.43571        0.44528        0.50461        0.52646        0.51863        0.51943        0.52937        0.49560        0.44743        0.46535        0.53870        0.57626        0.54740        0.49991        0.47236        0.44992        0.44338        0.46853        0.51867        0.53535        0.50037        0.45738        0.45921        0.51215        0.56702        0.59274        0.57413        0.53669        0.50013        0.48257        0.48943        0.49050        0.46463        0.45778        0.49910        0.56371        0.56596        0.51935        0.47223        0.46221        0.46517        0.47318        0.47064        0.48917        0.50321        0.49226        0.46703        0.46545        0.51210        0.56188        0.56288        0.53049        0.52353        0.54388        0.54137        0.50514        0.49362        0.51928        0.53175        0.51795        0.50958        0.52605        0.54461        0.53772        0.52202        0.50058        0.47262        0.46054        0.47467        0.49268        0.48775        0.45375        0.43856        0.47695        0.49348        0.47644        0.47538        0.51621        0.53883        0.50126        0.45104        0.45080        0.50890        0.55350        0.55380        0.50893        0.49516        0.51508        0.51638        0.47163        0.44743        0.49319        0.58047        0.59426        0.52604        0.46864        0.47688        0.48409        0.45244        0.45865        0.50490        0.52471        0.46672        0.43469        0.50699        0.60248        0.61303        0.52591        0.44701        0.45375        0.49364        0.47804        0.46560        0.46448        0.47922        0.49837        0.51202        0.52048        0.48483        0.43050        0.41563        0.47027        0.53838        0.55226        0.52082        0.49890        0.51312        0.52181        0.54037        0.54863        0.54089        0.50547        0.43843        0.40568        0.45553        0.58066        0.61463        0.54543        0.47647        0.48467        0.50221        0.40600        0.36813        0.42178        0.52363        0.51166        0.49783        0.54834        0.54360        0.46839        0.42953        0.53709        0.62512        0.58981        0.48640        0.43531        0.51336        0.60947        0.65529        0.58436        0.42728        0.34138        0.35058        0.42592        0.47744        0.47603        0.41763        0.39942        0.45014        0.46648        0.41288        0.38866        0.42762        0.36170        0.13038       -0.06245       -0.14674
-0.034673 7168.718118 7067.752082 6967.622203 6868.328481 6769.871519 6672.250413 6575.465766 6479.517578 6384.405547 6290.129975 6196.690559 6104.087603 6012.320804 5921.390464 5831.296281 5742.038557 5653.616990 5566.031882 23613.899885 38982.199498 17613.575045 -3222.804266 -7891.551092 3785.928188 20560.131094 17265.944527 6245.702410 63.707578 -1602.574047 -3388.280490 -1074.263373 832.794529 -452.111293 -2143.349685 -3449.833222 -5263.678001 -4548.831050 -7038.641610 -10416.687627 -8256.772465 -6027.259987 -2148.656403 4400.215721 5429.207701 5207.781869 6417.674593 8702.671692 12192.335815 13616.977281 11816.114493 3325.393760 -1391.198689 -1838.295535 2023.253263 -88.363321 -1478.749956 -5785.894586 -3399.836356 312.700346 3298.849954 5009.363525 6059.109372 6829.765128 8364.523272 6878.684757 2953.757320 1428.204327 494.712708 -143.510255 -508.040386 2834.738586 4195.591795 5119.340374 2597.811499 394.648415 1207.527830 -519.681715 70.402298 1447.383822 2492.738079 3386.480463 3608.582878 1109.492157 946.899953 -489.701742 1357.666379 2219.490342 1246.935185 -371.075765 -1553.459138 -444.181147 991.624590 1716.632868 846.122608 212.359845 595.197216 2662.590196 3266.505584 2181.266221 1136.752399 154.188951 1501.210391 2525.358178 2500.248998 3425.632872 2333.744910 647.503568 -26.613803 -362.758797 -815.337443 -639.984187 -954.087277 -464.732086 1400.208687 2818.309731 3398.832418 2786.951374 1988.716538 318.713742 176.099446 -587.712050 968.553193 1202.185920 1606.240071 743.080537 637.497170 1095.133150 2537.910703 2937.972401 1513.406395 1636.957396 1221.813382 1254.489838 -209.773529 -688.902142 554.978119 1826.212146 1721.768468 1984.713535 2704.828896 3168.295218 3620.060207 1363.506871 157.301592 -403.777375 131.194462 183.132775 949.066879 1580.148780 703.845896 236.268978 -433.251887 1217.155948 -512.895327 -1404.740249 -1250.918323 156.705795 2055.377510 2235.025630 1689.088979 71.471054 -639.002428 -2713.822389 -2091.589502 171.848503 1546.732721 1563.384278 -661.761559 -646.379566 -1445.283730 -2681.768307 -2477.970839 -235.155602 1087.247338 -327.420472 -2245.509747 -2536.221618 -1735.226153 -1752.775427 -2327.041933 -2101.824910 -1315.321244 407.184414 440.619309 -1151.333104 -2255.333525 -1830.468703 -1480.380750 -139.918605 -252.154617 -526.193364 83.282739 -164.841401 -1033.742932 -1874.024298 -123.957910 735.097477 1233.984370 168.921616 -244.142159 -1066.329336 -1742.400543 -1178.031126 -515.699499 534.603065 591.347472 -364.223451 -1018.642596 -990.208159 945.873633 1691.881691 1794.574080 992.563877 272.840191 -225.525580 -420.265461 -272.022761 -607.398955 -1062.487924 -467.687305 415.860233 1848.510475 713.235067 -339.205725 -969.829527 -1165.923996 -1253.592745 -778.040735 -775.859466 -662.383371 -447.388295 -648.344074 -1385.832695 -1103.029609 218.044347 1030.393643 550.795954 -112.038207 357.263394 512.525842 388.793491 -701.174569 -417.092859 567.204513 758.115148 170.033303 301.335884 690.741313 1074.308992 1269.852169 989.724941 264.800037 -331.808453 -236.792187 235.448102 170.845840 -15.678154 -897.651237 -1121.122253 30.810920 512.291260 -422.813595 -171.822612 585.307429 902.291346 -227.518556 -956.260700 -1053.612116 416.343438 1265.036004 953.065865 10.004728 -20.009543 722.483811 492.557872 -717.560682 -1001.528664 71.175692 1907.779469 1909.772084 -93.696279 -744.524409 -506.345028 -269.506754 -1444.736018 -818.576620 514.231893 -92.956061 -882.838483 -2691.049318 -402.086765 1695.333440 993.290680 -674.029645 -1584.073944 -1448.697155 -149.042612 -673.152621 -1452.769058 -1158.978559 -583.112501 49.947533 -222.328145 820.194601 -645.614016 -1137.286288 -1214.186222 -144.048457 1591.766019 1449.425056 124.410759 -930.136624 477.479584 -232.309752 -270.480713 782.645993 274.401944 -849.345415 -1747.693473 -2863.630111 -2026.514895 1160.910060 2118.487638 -372.073238 -1224.810838 -935.420533 -599.645208 -1512.775201 -3701.562439 -547.309290 879.525047 635.737580 629.510591 680.911450 1148.251651 -880.725256 -1114.001108 751.454933 2866.535839 1267.696739 -1119.296881 -1339.445445 123.860091 2140.338247 2676.576781 2001.775233 -1361.763226 -2621.289243 -2202.168944 -572.924687 977.839322 688.861578 -122.222141 -266.109602 1139.913380 9726.094850 8608.653048 7673.071085 8662.145480 7676.649438 2683.679138 -2973.667896
0.072396 0.073420 0.076490 0.081606 0.088764 0.097961 0.109190 0.122443 0.137707 0.154967 0.174201 0.195383 0.218477 0.243441 0.270222 0.298755 0.328962 0.360752 0.394015 0.428626 0.464437 0.501281 0.538968 0.577283 0.615985 0.654807 0.693453 0.731601 0.768898 0.804966 0.839397 0.871758 0.901594 0.928425 0.951759 0.971085 0.985889 0.995654 0.999867 0.998033 0.989676 0.974356 0.951678 0.921302 0.882957 0.836453 0.781697 0.718700 0.647598 0.568657 0.482287 0.389053 0.289677 0.185050 0.076229 0.035561 0.148937 0.262363 0.374169 0.482567 0.585680 0.681570 0.768278 0.843862 0.906444 0.954263 0.985727 0.999467 0.994398 0.969770 0.925223 0.860835 0.777160 0.675262 0.556732 0.423695 0.278798 0.125182 0.033567 0.193482 0.350307 0.499603 0.636873 0.757701 0.857907 0.933709 0.981880 0.999914 0.986169 0.939996 0.861848 0.753345 0.617305 0.457728 0.279728 0.089411 0.106299 0.299899 0.483566 0.649490 0.790214 0.898988 0.970139 0.999402 0.984224 0.924007 0.820263 0.676690 0.499128 0.295401 0.075035 0.151136 0.371472 0.574114 0.747641 0.881739 0.967871 0.999887 0.974535 0.891839 0.755291 0.571841 0.351662 0.107682 0.145103 0.390502 0.612162 0.794665 0.924672 0.991965 0.990359 0.918372 0.779593 0.582689 0.341018 0.071849 0.204770 0.467466 0.695178 0.868895 0.973328 0.998380 0.940268 0.802162 0.594260 0.333232 0.041052 0.256748 0.533242 0.762555 0.922355 0.996154 0.975183 0.859613 0.658950 0.391517 0.082992 0.235915 0.532422 0.775062 0.937096 0.999632 0.954031 0.803317 0.562353 0.256657 0.080074 0.409526 0.693085 0.896426 0.993821 0.971632 0.830497 0.585835 0.266506 0.088313 0.433773 0.724959 0.922817 0.999578 0.942955 0.758421 0.469143 0.113461 0.259945 0.598549 0.853395 0.986335 0.976034 0.821758 0.544258 0.183423 0.207116 0.567751 0.841992 0.985486 0.973502 0.805620 0.506666 0.123538 0.281788 0.642093 0.896072 0.999020 0.931077 0.701558 0.348296 0.068077 0.474207 0.796844 0.976179 0.977319 0.797574 0.468034 0.048797 0.381564 0.740520 0.957513 0.988178 0.823962 0.494968 0.065134 0.379720 0.748777 0.964882 0.981042 0.791271 0.433118 0.019037 0.468929 0.818718 0.990427 0.943842 0.686616 0.273971 0.202430 0.634413 0.921805 0.996004 0.837013 0.479582 0.006506 0.469938 0.834375 0.996477 0.913936 0.604344 0.142467 0.357032 0.767663 0.983218 0.945804 0.662246 0.204058 0.309677 0.742818 0.978225 0.950034 0.662970 0.192938 0.332093 0.766416 0.987104 0.929382 0.606657 0.108696 0.422389 0.832233 0.999256 0.871487 0.483832 0.050211 0.570846 0.919534 0.987620 0.751163 0.280486 0.279493 0.753186 0.989328 0.910007 0.537540 0.010318 0.556531 0.921585 0.982874 0.716946 0.209746 0.369837 0.825471 0.999985 0.830492 0.372436 0.217037 0.731997 0.989501 0.895367 0.479982 0.109823 0.661470 0.972922 0.927325 0.538211 0.052604 0.625382 0.963736 0.936960 0.551930 0.046509 0.628622 0.967484 0.928048 0.522453 0.091618 0.670782 0.982011 0.897087 0.447038 0.187164 0.746017 0.997344 0.833716 0.320132 0.329832 0.841565 0.995446 0.722332 0.136536 0.510099 0.935478 0.950743 0.545687 0.103081 0.707378 0.994961 0.833056 0.291627 0.384623 0.885508 0.977690 0.614918 0.036654 0.672557 0.991550 0.839186 0.284640 0.408285 0.905192 0.962602 0.548927 0.135913 0.755097 0.999979 0.745105 0.114814 0.575016 0.974018 0.875974 0.327471 0.391513 0.908726 0.952512 0.496300
1.000000 1.000000 1.000000 1.000000 1.000000 1.000000 1.000000 1.000000 1.000000 1.000000 1.000000 1.000000 1.000000 1.000000 1.000000 1.000000 1.000000 1.000000 1.000000 1.000000 -0.102033 -0.102033 -0.102033 -0.102033 -0.102033 -0.102033 -0.102033 -0.102033 -0.102033 -0.102033 -0.102033 -0.102033 -0.102033 -0.102033 -0.102033 -0.102033 -0.102033 -0.102033 -0.102033 -0.163389 -0.163389 -0.163389 -0.163389 -0.163389 -0.163389 -0.163389 -0.163389 -0.163389 -0.163389 -0.163389 -0.163389 -0.163389 -0.163389 -0.163389 -0.163389 -0.163389 -0.154911 -0.136597 -0.130707 -0.137200 -0.132310 -0.148347 -0.159410 -0.164102 -0.164319 -0.171129 -0.159487 -0.131424 0.106335 0.162455 0.169154 0.154365 0.144866 0.131540 0.089130 0.084980 0.105944 0.126152 0.154563 0.163537 0.156731 0.146563 0.178625 0.237991 0.233597 0.221412 0.205590 0.203774 0.153306 0.153341 0.156126 0.151318 0.174493 0.228707 0.311009 0.316635 0.296705 0.279996 0.282115 0.277164 0.261572 0.189898 0.174591 0.178716 0.211673 0.218601 0.239333 0.277793 0.310014 0.302120 0.276474 0.259414 0.306531 0.412424 0.449387 0.444769 0.467080 0.487756 0.520952 0.555377 0.562026 0.575123 0.630456 0.620147 0.596305 0.599384 0.609616 0.617570 0.617379 0.615246 0.581011 0.516793 0.474413 0.462035 0.459105 0.475376 0.498660 0.477320 0.431250 0.412862 0.435136 0.423682 0.400181 0.404783 0.401300 0.377461 0.396630 0.398990 0.397488 0.364974 0.296122 0.242624 0.226680 0.221651 0.166695 0.121671 0.078444 0.058459 0.057668 0.032703 -0.017070 -0.049458 -0.089824 -0.206897 -0.245917 -0.249038 -0.301545 -0.381116 -0.425799 -0.395258 -0.403352 -0.442098 -0.440366 -0.444927 -0.453903 -0.451217 -0.431991 -0.472072 -0.550360 -0.559240 -0.640711 -0.653250 -0.658289 -0.664610 -0.689272 -0.685521 -0.640574 -0.645107 -0.576010 -0.580111 -0.573559 -0.514275 -0.466861 -0.461363 -0.418904 -0.368199 -0.377127 -0.383134 -0.409333 -0.397973 -0.384988 -0.389645 -0.365380 -0.311359 -0.279670 -0.251788 -0.259597 -0.216995 -0.210272 -0.198003 -0.199944 -0.203271 -0.199410 -0.156473 -0.119514 -0.131083 -0.097215 -0.069591 -0.042330 -0.070130 -0.102182 -0.072666 -0.082829 -0.080717 -0.046572 -0.008144 0.020699 0.041617 0.067743 0.114315 0.108394 0.132141 0.081501 0.106263 0.135854 0.118717 0.122859 0.147635 0.176020 0.161256 0.140095 0.095959 0.114567 0.119039 0.101585 0.190708 0.136864 0.105663 0.125765 0.089611 0.071348 0.079386 0.115900 0.110339 0.149635 0.195647 0.210994 0.251678 0.231907 0.294175 0.300883 0.278404 0.236721 0.222059 0.193763 0.237038 0.217528 0.190999 0.194268 0.156590 0.161716 0.120676 0.056906 0.036501 0.019646 -0.019600 -0.064479 -0.085579 -0.072649 -0.109300 -0.198134 -0.177963 -0.223832 -0.221014 -0.257907 -0.130103 -0.159205 -0.176177 -0.190614 -0.178066 -0.151087 -0.132976 -0.100002 -0.079811 -0.077422 -0.026148 -0.064819 -0.073767 -0.102968 -0.164782 -0.152013 -0.183911 -0.221519 -0.231644 -0.259132 -0.311258 -0.297182 -0.330862 -0.388765 -0.371271 -0.349577 -0.298699 -0.269053 -0.245771 -0.203982 -0.199486 -0.147849 -0.147281 -0.136963 -0.143184 -0.129055 -0.048845 -0.035937 -0.037391 -0.026105 -0.084112 -0.083480 -0.040200 -0.015753 0.023646 0.043577 0.045339 0.027945 0.011758 0.032018 0.025943 0.014687 -0.016776 0.033551 0.034029 0.034029 0.034029 0.034029 0.034029 0.014970 0.014970 0.014970 0.014970 0.014970 0.014970 0.014970 0.014970 -0.002765 -0.002765 -0.002765 -0.002765 -0.002765 0.038278 0.038278 0.038278 0.038278 0.038278 0.038278
0.000000 0.000000 0.000000 0.000000 0.000000 0.000000 0.000000 0.000000 0.000000 0.000000 0.000000 0.000000 0.000000 0.000000 0.000000 0.000000 0.000000 0.000000 0.000000 0.000000 0.212000 0.212000 0.212000 0.212000 0.212000 0.212000 0.212000 0.212000 0.212000 0.212000 0.212000 0.212000 0.212000 0.212000 0.212000 0.212000 0.212000 0.212000 0.212000 0.234082 0.234082 0.234082 0.234082 0.234082 0.234082 0.234082 0.234082 0.234082 0.234082 0.234082 0.234082 0.234082 0.234082 0.234082 0.234082 0.234082 0.234082 0.234082 0.234082 0.234082 0.234082 0.234082 0.234082 0.234082 0.234082 0.234082 0.234082 0.234082 0.269680 0.269680 0.269680 0.269680 0.269680 0.269680 0.269680 0.269680 0.269680 0.269680 0.269680 0.269680 0.269680 0.269680 0.269680 0.269680 0.269680 0.269680 0.269680 0.269680 0.291730 0.291730 0.291730 0.291730 0.291730 0.291730 0.291730 0.291730 0.291730 0.291730 0.291730 0.291730 0.291730 0.291730 0.291730 0.291730 0.298142 0.298142 0.298142 0.298142 0.298142 0.298142 0.298142 0.298142 0.298142 0.298142 0.298142 0.298142 0.298142 0.298142 0.312348 0.312348 0.312348 0.312348 0.312348 0.312348 0.312348 0.312348 0.312348 0.312348 0.312348 0.312348 0.312348 0.312348 0.312348 0.312348 0.312348 0.312348 0.312348 0.312348 0.312348 0.312348 0.312348 0.304997 0.304997 0.304997 0.304997 0.304997 0.304997 0.304997 0.304997 0.304997 0.304997 0.304997 0.312348 0.312348 0.312348 0.312348 0.312348 0.312348 0.312348 0.312348 0.312348 0.312348 0.312348 0.312348 0.312348 0.312348 0.312348 0.312348 0.312348 0.312348 0.312348 0.304997 0.304997 0.304997 0.304997 0.304997 0.304997 0.304997 0.304997 0.304997 0.320256 0.320256 0.320256 0.320256 0.320256 0.320256 0.320256 0.320256 0.312348 0.312348 0.312348 0.312348 0.312348 0.312348 0.312348 0.312348 0.304997 0.304997 0.304997 0.304997 0.304997 0.304997 0.304997 0.304997 0.312348 0.312348 0.312348 0.312348 0.312348 0.312348 0.312348 0.312348 0.312348 0.312348 0.312348 0.312348 0.312348 0.312348 0.304997 0.304997 0.304997 0.304997 0.304997 0.304997 0.304997 0.298142 0.298142 0.298142 0.298142 0.298142 0.298142 0.298142 0.312348 0.312348 0.312348 0.312348 0.312348 0.312348 0.285714 0.285714 0.285714 0.285714 0.285714 0.285714 0.285714 0.304997 0.304997 0.304997 0.304997 0.304997 0.304997 0.298142 0.298142 0.298142 0.298142 0.298142 0.298142 0.291730 0.291730 0.291730 0.291730 0.291730 0.291730 0.291730 0.291730 0.291730 0.291730 0.291730 0.291730 0.304997 0.304997 0.304997 0.304997 0.304997 0.280056 0.280056 0.280056 0.280056 0.280056 0.280056 0.298142 0.298142 0.298142 0.298142 0.298142 0.274721 0.274721 0.274721 0.274721 0.274721 0.274721 0.291730 0.291730 0.291730 0.291730 0.291730 0.285714 0.285714 0.285714 0.285714 0.285714 0.285714 0.285714 0.285714 0.285714 0.285714 0.280056 0.280056 0.280056 0.280056 0.280056 0.280056 0.280056 0.280056 0.280056 0.280056 0.274721 0.274721 0.274721 0.274721 0.274721 0.298142 0.298142 0.298142 0.298142 0.269680 0.269680 0.269680 0.269680 0.269680 0.264906 0.264906 0.264906 0.264906 0.264906 0.285714 0.285714 0.285714 0.285714 0.260378 0.260378 0.260378 0.260378 0.260378 0.280056 0.280056 0.280056 0.280056 0.280056 0.280056 0.280056 0.280056 0.251976 0.251976 0.251976 0.251976 0.251976 0.274721 0.274721 0.274721 0.274721 0.274721 0.274721
