# Output from CTFFind version 4.1.9, run on 2019-10-31 21:27:21
# Input file: af_stacked.mrc ; Number of micrographs: 1
# Pixel size: 1.500 Angstroms ; acceleration voltage: 300.0 keV ; spherical aberration: 0.00 mm ; amplitude contrast: 0.07
# Box size: 512 pixels ; min. res.: 30.0 Angstroms ; max. res.: 5.0 Angstroms ; min. def.: 5000.0 um; max. def. 50000.0 um; num. frames averaged: 50
# 6 lines per micrograph: #1 - spatial frequency (1/Angstroms); #2 - 1D rotational average of spectrum (assuming no astigmatism); #3 - 1D rotational average of spectrum; #4 - CTF fit; #5 - cross-correlation between spectrum and CTF fit; #6 - 2sigma of expected cross correlation of noise
0.000000 0.001302 0.002604 0.003906 0.005208 0.006510 0.007812 0.009115 0.010417 0.011719 0.013021 0.014323 0.015625 0.016927 0.018229 0.019531 0.020833 0.022135 0.023438 0.024740 0.026042 0.027344 0.028646 0.029948 0.031250 0.032552 0.033854 0.035156 0.036458 0.037760 0.039062 0.040365 0.041667 0.042969 0.044271 0.045573 0.046875 0.048177 0.049479 0.050781 0.052083 0.053385 0.054688 0.055990 0.057292 0.058594 0.059896 0.061198 0.062500 0.063802 0.065104 0.066406 0.067708 0.069010 0.070312 0.071615 0.072917 0.074219 0.075521 0.076823 0.078125 0.079427 0.080729 0.082031 0.083333 0.084635 0.085938 0.087240 0.088542 0.089844 0.091146 0.092448 0.093750 0.095052 0.096354 0.097656 0.098958 0.100260 0.101562 0.102865 0.104167 0.105469 0.106771 0.108073 0.109375 0.110677 0.111979 0.113281 0.114583 0.115885 0.117188 0.118490 0.119792 0.121094 0.122396 0.123698 0.125000 0.126302 0.127604 0.128906 0.130208 0.131510 0.132812 0.134115 0.135417 0.136719 0.138021 0.139323 0.140625 0.141927 0.143229 0.144531 0.145833 0.147135 0.148438 0.149740 0.151042 0.152344 0.153646 0.154948 0.156250 0.157552 0.158854 0.160156 0.161458 0.162760 0.164062 0.165365 0.166667 0.167969 0.169271 0.170573 0.171875 0.173177 0.174479 0.175781 0.177083 0.178385 0.179688 0.180990 0.182292 0.183594 0.184896 0.186198 0.187500 0.188802 0.190104 0.191406 0.192708 0.194010 0.195312 0.196615 0.197917 0.199219 0.200521 0.201823 0.203125 0.204427 0.205729 0.207031 0.208333 0.209635 0.210938 0.212240 0.213542 0.214844 0.216146 0.217448 0.218750 0.220052 0.221354 0.222656 0.223958 0.225260 0.226562 0.227865 0.229167 0.230469 0.231771 0.233073 0.234375 0.235677 0.236979 0.238281 0.239583 0.240885 0.242188 0.243490 0.244792 0.246094 0.247396 0.248698 0.250000 0.251302 0.252604 0.253906 0.255208 0.256510 0.257812 0.259115 0.260417 0.261719 0.263021 0.264323 0.265625 0.266927 0.268229 0.269531 0.270833 0.272135 0.273438 0.274740 0.276042 0.277344 0.278646 0.279948 0.281250 0.282552 0.283854 0.285156 0.286458 0.287760 0.289062 0.290365 0.291667 0.292969 0.294271 0.295573 0.296875 0.298177 0.299479 0.300781 0.302083 0.303385 0.304688 0.305990 0.307292 0.308594 0.309896 0.311198 0.312500 0.313802 0.315104 0.316406 0.317708 0.319010 0.320312 0.321615 0.322917 0.324219 0.325521 0.326823 0.328125 0.329427 0.330729 0.332031 0.333333 0.334635 0.335938 0.337240 0.338542 0.339844 0.341146 0.342448 0.343750 0.345052 0.346354 0.347656 0.348958 0.350260 0.351562 0.352865 0.354167 0.355469 0.356771 0.358073 0.359375 0.360677 0.361979 0.363281 0.364583 0.365885 0.367188 0.368490 0.369792 0.371094 0.372396 0.373698 0.375000 0.376302 0.377604 0.378906 0.380208 0.381510 0.382812 0.384115 0.385417 0.386719 0.388021 0.389323 0.390625 0.391927 0.393229 0.394531 0.395833 0.397135 0.398438 0.399740 0.401042 0.402344 0.403646 0.404948 0.406250 0.407552 0.408854 0.410156 0.411458 0.412760 0.414062 0.415365 0.416667 0.417969 0.419271 0.420573 0.421875 0.423177 0.424479 0.425781 0.427083 0.428385 0.429688 0.430990 0.432292 0.433594 0.434896 0.436198 0.437500 0.438802 0.440104 0.441406 0.442708 0.444010 0.445312 0.446615 0.447917 0.449219 0.450521 0.451823 0.453125 0.454427 0.455729 0.457031 0.458333 0.459635 0.460938 0.462240 0.463542 0.464844 0.466146 0.467448 0.468750 0.470052 0.471354
       0.01774        0.01774        0.01774        0.01774        0.01774        0.01774        0.01774        0.01774        0.01774        0.01774        0.01774        0.01774        0.01774        0.01774        0.01774        0.01774        0.01774        0.01774        0.01774        0.01774        0.01774        0.01774        0.01774        0.01774        0.01774        0.14181        0.71065        0.16280       -1.08834       -1.97984       -2.26915       -1.65748       -1.13651       -0.13878        0.25552        1.02641        1.65078        1.63364        1.81050        1.51120        0.93788        0.03428       -0.42092       -0.75128       -0.88297       -0.78203       -0.35349        0.05481        0.16273        0.29738        0.47866        0.59101        0.25063        0.02611       -0.15269       -0.33987       -0.43644       -0.19269       -0.20207       -0.10190       -0.02723       -0.12003       -0.02726        0.01041        0.09468       -0.03278       -0.06952       -0.16746       -0.27822       -0.36330       -0.32001       -0.24209       -0.20318       -0.36541       -0.27692       -0.47910       -0.39938       -0.38871       -0.33003       -0.34798       -0.33672       -0.28450       -0.20312       -0.20922       -0.04787       -0.12962       -0.02146        0.01711        0.13475        0.20849        0.24374        0.26501        0.28790        0.29500        0.39364        0.35419        0.37325        0.28897        0.24901        0.31133        0.19014        0.07007        0.03603       -0.02251       -0.11160       -0.08088       -0.08456       -0.24254       -0.27513       -0.34400       -0.35298       -0.29250       -0.33604       -0.22851       -0.20093       -0.07821       -0.02712        0.01520        0.07594        0.23763        0.21565        0.26199        0.35223        0.37728        0.31269        0.32486        0.29494        0.23371        0.24669        0.05961        0.01833       -0.09008       -0.18511       -0.25094       -0.19176       -0.21504       -0.25128       -0.25234       -0.12946       -0.11778       -0.03090        0.02194        0.08531        0.16395        0.23809        0.19965        0.21382        0.25750        0.22002        0.14420        0.15038        0.01528       -0.04121       -0.05169       -0.06515       -0.15139       -0.16026       -0.14584       -0.10005       -0.08605        0.01565        0.04300        0.05457        0.12496        0.10251        0.13450        0.12212        0.12818        0.10742        0.08141        0.06354        0.03368       -0.01255       -0.01772       -0.08681       -0.10344       -0.08265       -0.05209       -0.02038        0.04290        0.04558        0.02648        0.04569        0.11722        0.11428        0.09172        0.09548        0.05384        0.02582       -0.01328       -0.04314       -0.02257       -0.04197       -0.01770       -0.01618       -0.00087       -0.00035        0.06426        0.06178        0.07998        0.05950        0.07472        0.04582        0.02463       -0.01391       -0.01019       -0.01009       -0.03167       -0.04991        0.00542        0.03780        0.02117        0.04124        0.04239        0.01894        0.06563        0.06704        0.04258        0.02763        0.00195       -0.00061        0.01191        0.00507       -0.00199       -0.02083        0.00968        0.03161        0.03761        0.02026       -0.00805        0.01085        0.01801        0.00553       -0.01510       -0.00619        0.02975        0.02990        0.00816        0.01888        0.02351        0.02409        0.00629        0.00876        0.00020       -0.00418       -0.00749       -0.01730       -0.01458        0.01029        0.04097        0.01953        0.01045        0.01487        0.00836        0.02349        0.00560        0.02021        0.00645       -0.00540        0.01552        0.00336        0.00116        0.01536        0.01449        0.01206        0.00648        0.00479       -0.01030       -0.01882       -0.01767        0.01065        0.03108       -0.00379        0.01586        0.03135        0.02762        0.01204        0.02588        0.02958        0.01270       -0.01002       -0.00731        0.01435        0.00889        0.02795        0.01264        0.02792        0.02210        0.00877       -0.01455        0.02161        0.01125       -0.01501       -0.01382        0.00025       -0.00311        0.01078        0.00508        0.01595       -0.00214       -0.01663        0.01769        0.04008        0.00081        0.01693        0.01082       -0.01364        0.00985        0.01065        0.01826        0.00945        0.00591        0.01608        0.00399        0.00263        0.00334        0.00312        0.00771       -0.01285       -0.02969        0.00637        0.01127        0.03108        0.01545       -0.01878        0.00028       -0.01363       -0.01280        0.01667        0.00192        0.01046       -0.00205        0.02035        0.00664        0.00366        0.03219        0.00288       -0.02473        0.02944        0.00325       -0.02849        0.01475        0.01115       -0.02022        0.02311       -0.01270        0.02619        0.02717        0.04521        0.01524       -0.04298        0.01240        0.01585        0.00138       -0.03756       -0.05386       -0.04062       -0.02078        0.11072        0.13132       -0.11390       -0.09201        0.02185
-0.059975 0.615960 0.616836 0.617677 0.618485 0.619258 0.619998 0.620703 0.621374 0.622011 0.622613 0.623182 0.623716 0.624217 0.624683 0.625115 0.625512 0.625876 0.626206 0.626501 0.626762 0.626989 0.627182 0.627341 0.627465 0.627556 2.186035 0.809898 -0.966895 -2.974139 -3.490239 -2.204662 -1.688793 0.351212 0.914311 2.124306 3.710625 3.515830 3.574468 3.492472 2.316956 0.681775 -0.043730 -0.634208 -1.036978 -0.851387 -0.134270 0.736853 0.837267 0.870585 1.380277 1.806807 0.999721 0.878097 0.317657 0.076724 -0.335461 0.340271 0.056053 0.470119 0.603438 0.243780 0.530700 0.607554 0.783260 0.563114 0.509645 0.291058 -0.007238 -0.018030 -0.042054 0.070074 0.358503 -0.102305 0.079419 -0.266161 -0.125847 -0.145083 -0.027881 -0.055799 -0.043310 0.029046 0.199098 0.125893 0.447864 0.308030 0.505574 0.466786 0.806468 0.826473 0.917388 1.002973 1.018659 1.009167 1.205547 1.095682 1.231375 1.020423 0.912600 1.090719 0.849166 0.717397 0.517009 0.526218 0.347622 0.304574 0.430146 0.107386 -0.007300 -0.030871 -0.239769 0.091968 -0.211896 0.029679 0.155597 0.249981 0.377628 0.467515 0.568532 0.710509 0.911889 0.748173 1.114691 1.087032 0.955645 1.032797 0.921102 0.884043 0.824786 0.662520 0.461241 0.320604 0.136826 -0.049196 0.030098 0.120195 -0.078675 -0.062931 0.104311 0.189042 0.233200 0.417868 0.445824 0.599911 0.731822 0.786789 0.709849 0.733475 0.762096 0.628815 0.585905 0.479452 0.258334 0.258733 0.200985 0.087373 0.044703 0.001664 0.184672 0.035711 0.246555 0.376488 0.310729 0.476586 0.450596 0.448761 0.547248 0.463442 0.460450 0.435736 0.385905 0.313127 0.287161 0.183025 0.176206 0.008776 0.096519 0.138500 0.142908 0.236970 0.261159 0.267661 0.282420 0.330799 0.357922 0.391715 0.278220 0.211350 0.267367 0.151058 0.025871 0.109294 0.032494 0.069772 0.069521 0.073888 0.079077 0.130705 0.222457 0.177909 0.254244 0.150899 0.204320 0.118154 0.066086 -0.006048 0.046725 0.019119 -0.021727 -0.055991 0.094753 0.113940 0.044639 0.114504 0.067966 0.094376 0.162118 0.079805 0.072058 0.071786 -0.026782 0.019601 -0.010266 0.020796 -0.032733 -0.024960 0.019781 0.039250 0.045419 -0.007295 -0.028408 0.014052 0.032319 -0.001297 -0.064248 -0.006455 0.051669 0.022498 -0.011703 0.028275 0.037903 -0.005074 -0.002330 -0.020225 -0.038994 -0.046533 -0.023728 -0.087531 -0.046723 -0.017675 0.071579 -0.030811 0.003899 -0.043326 -0.017383 0.004837 -0.015229 -0.006414 -0.034153 -0.050196 -0.003278 -0.030449 -0.059132 0.032358 -0.041508 0.020721 -0.026124 -0.019318 -0.052455 -0.056643 -0.065846 0.031441 0.020964 -0.037629 0.025255 0.034865 0.028042 0.015745 0.037843 0.012481 -0.014244 -0.063326 -0.020719 0.010125 -0.012447 0.027286 0.017655 0.017140 0.026416 0.004012 -0.056204 0.087162 -0.020344 0.003416 -0.024786 0.003255 0.009403 0.022882 0.035735 0.022207 0.026731 -0.020475 0.078454 0.082772 0.012020 0.067497 0.014911 0.006707 0.023264 0.044810 0.031910 0.046750 0.007003 0.053488 -0.018718 0.025449 0.007831 0.010935 0.005576 -0.048575 -0.070542 -0.013966 -0.019083 0.013459 -0.010098 -0.072927 -0.002274 -0.077237 -0.074989 0.062935 -0.029187 0.057494 -0.008496 0.067933 -0.018567 -0.020874 0.077025 -0.027450 -0.069453 0.058280 -0.022186 -0.122135 0.015091 -0.003274 -0.098581 -0.030655 -0.061703 -0.025808 -0.050539 0.003204 -0.078208 -0.188013 -0.097143 -0.064203 -0.140008 -0.264951 -0.039515 -0.088456 -0.000732 0.243436 0.320286 -0.196263 0.037947
0.072396 0.072903 0.074424 0.076959 0.080507 0.085067 0.090638 0.097218 0.104805 0.113396 0.122988 0.133576 0.145155 0.157718 0.171258 0.185765 0.201228 0.217633 0.234965 0.253206 0.272337 0.292333 0.313168 0.334811 0.357230 0.380384 0.404233 0.428729 0.453820 0.479449 0.505553 0.532063 0.558905 0.585998 0.613254 0.640581 0.667876 0.695032 0.721935 0.748463 0.774488 0.799875 0.824481 0.848158 0.870752 0.892102 0.912044 0.930408 0.947018 0.961700 0.974272 0.984556 0.992370 0.997535 0.999875 0.999217 0.995394 0.988247 0.977626 0.963392 0.945419 0.923598 0.897836 0.868059 0.834217 0.796284 0.754260 0.708174 0.658086 0.604090 0.546312 0.484918 0.420111 0.352133 0.281267 0.207836 0.132205 0.054780 0.023993 0.103628 0.183603 0.263360 0.342309 0.419832 0.495286 0.568008 0.637324 0.702550 0.763003 0.818004 0.866894 0.909033 0.943817 0.970682 0.989116 0.998670 0.998964 0.989701 0.970673 0.941772 0.902994 0.854454 0.796384 0.729144 0.653221 0.569234 0.477934 0.380199 0.277032 0.169558 0.059006 0.053292 0.165920 0.277395 0.386182 0.490718 0.589432 0.680770 0.763224 0.835356 0.895827 0.943425 0.977096 0.995963 0.999363 0.986860 0.958274 0.913691 0.853482 0.778311 0.689135 0.587205 0.474056 0.351492 0.221567 0.086552 0.051095 0.188772 0.323780 0.453377 0.574829 0.685476 0.782789 0.864437 0.928347 0.972764 0.996306 0.998017 0.977409 0.934496 0.869815 0.784443 0.679991 0.558592 0.422868 0.275886 0.121100 0.037724 0.196591 0.351380 0.497943 0.632226 0.750380 0.848883 0.924650 0.975146 0.998480 0.993490 0.959808 0.897904 0.809110 0.695610 0.560415 0.407293 0.240685 0.065592 0.112572 0.288133 0.455345 0.608573 0.742488 0.852271 0.933790 0.983778 0.999981 0.981276 0.927758 0.840782 0.722959 0.578106 0.411155 0.227996 0.035294 0.159747 0.349640 0.526906 0.684372 0.815472 0.914538 0.977063 0.999931 0.981600 0.922220 0.823685 0.689616 0.525260 0.337319 0.133695 0.076815 0.284894 0.481106 0.656338 0.802223 0.911568 0.978729 0.999934 0.973529 0.900125 0.782644 0.626246 0.438150 0.227328 0.004112 0.220306 0.434412 0.626971 0.787627 0.907484 0.979624 0.999546 0.965489 0.878610 0.743006 0.565585 0.355751 0.124949 0.113934 0.347268 0.561459 0.743745 0.882984 0.970362 0.999999 0.969390 0.879657 0.735586 0.545432 0.320505 0.074533 0.177134 0.418477 0.633818 0.808857 0.931658 0.993499 0.989551 0.919305 0.786734 0.600138 0.371688 0.116701 0.147375 0.402097 0.629353 0.812629 0.938269 0.996537 0.982429 0.896170 0.743338 0.534586 0.284966 0.012908 0.261110 0.516079 0.732087 0.891893 0.982355 0.995583 0.929696 0.789130 0.584428 0.331550 0.050674 0.235341 0.502812 0.729197 0.895015 0.985585 0.992402 0.914018 0.756341 0.532287 0.260831 0.034542 0.327823 0.592748 0.805163 0.945279 0.999584 0.962234 0.835776 0.631104 0.366634 0.066738 0.240449 0.525636 0.761171 0.923760 0.996855 0.972427 0.851954 0.646484 0.375758 0.066398 0.250638 0.543116 0.780811 0.938685 0.999604 0.956299 0.812359 0.582078 0.289169 0.035567 0.357445 0.641538 0.856521 0.978176 0.992233 0.896160 0.699706 0.424049 0.099657 0.237004 0.547525 0.795929 0.952911 0.999385 0.928938 0.748851 0.479518 0.152270 0.194149 0.518131 0.780182 0.947800 0.999614 0.928244 0.741504 0.461722 0.123230 0.231741 0.558261 0.814421 0.966747 0.994714 0.893659 0.675713 0.368504 0.011859 0.347311 0.661090
1.000000 1.000000 1.000000 1.000000 1.000000 1.000000 1.000000 1.000000 1.000000 1.000000 1.000000 1.000000 1.000000 1.000000 1.000000 1.000000 1.000000 1.000000 1.000000 1.000000 1.000000 1.000000 1.000000 1.000000 1.000000 1.000000 0.350035 0.350035 0.350035 0.350035 0.350035 0.350035 0.350035 0.350035 0.350035 0.350035 0.350035 0.350035 0.350035 0.350035 0.350035 0.350035 0.350035 0.350035 0.350035 0.350035 0.350035 0.350035 0.350035 0.350035 0.350035 0.350035 0.350035 0.350035 0.350035 0.308497 0.308497 0.308497 0.308497 0.308497 0.308497 0.308497 0.308497 0.308497 0.308497 0.308497 0.308497 0.308497 0.308497 0.308497 0.308497 0.308497 0.308497 0.308497 0.308497 0.308497 0.305210 0.316817 0.315786 0.306906 0.300988 0.304048 0.306403 0.318750 0.323944 0.326101 0.343949 0.365162 0.377994 0.387405 0.393731 0.392394 0.401861 0.427109 0.474017 0.548894 0.914549 0.915824 0.912054 0.918132 0.919103 0.919429 0.919822 0.920662 0.922166 0.922699 0.925592 0.930518 0.935626 0.938169 0.953063 0.954099 0.965427 0.966155 0.965195 0.962328 0.973239 0.972162 0.971797 0.972321 0.974435 0.973410 0.972608 0.972760 0.976019 0.974677 0.972728 0.972337 0.970364 0.968932 0.967211 0.966767 0.966878 0.967209 0.967256 0.967626 0.968394 0.968468 0.968964 0.969387 0.971345 0.971616 0.972601 0.972181 0.970566 0.973376 0.971612 0.971412 0.970592 0.970081 0.969958 0.970143 0.963195 0.962281 0.962291 0.957063 0.947257 0.946157 0.941754 0.930316 0.931001 0.934075 0.935770 0.935432 0.929902 0.918972 0.907176 0.929016 0.915206 0.904026 0.902025 0.891682 0.893478 0.886139 0.885412 0.879343 0.871660 0.862366 0.860876 0.859742 0.863715 0.864677 0.865360 0.865283 0.838991 0.834070 0.835675 0.827193 0.815466 0.817451 0.810647 0.813293 0.822752 0.822357 0.821252 0.806049 0.793971 0.781861 0.781406 0.763715 0.736548 0.773217 0.755577 0.717495 0.715178 0.715917 0.721554 0.735512 0.715431 0.617625 0.580692 0.573303 0.558602 0.551254 0.538151 0.524424 0.511398 0.503710 0.503675 0.509552 0.508458 0.475764 0.419612 0.409786 0.409850 0.399824 0.399351 0.402622 0.399077 0.379545 0.371810 0.368887 0.335741 0.341920 0.350276 0.336445 0.310404 0.301003 0.271107 0.274938 0.256420 0.249263 0.204414 0.136381 0.151834 0.132305 0.109728 0.125981 0.137122 0.165945 0.165036 0.151370 0.117130 0.108351 0.065900 0.070410 0.076388 0.042312 0.054884 0.084457 0.092594 0.079195 0.049450 0.033142 0.036323 0.095687 0.143018 0.138213 0.126543 0.131278 0.133932 0.148796 0.153168 0.155244 0.129641 0.099959 0.045788 0.060621 0.037902 0.052781 0.049032 0.066277 0.086132 0.102539 0.091502 0.069533 0.116553 0.108339 0.093724 0.084204 0.040707 0.054840 0.036438 -0.016356 -0.035249 -0.000927 -0.016987 -0.031465 -0.059920 -0.033187 -0.018664 0.031114 -0.011344 -0.000174 0.005920 -0.044707 -0.034131 -0.066081 -0.063307 -0.061317 -0.050937 -0.055505 -0.045909 -0.055494 -0.078896 -0.065851 -0.064656 -0.076724 -0.075657 -0.064403 -0.053139 -0.047663 -0.058275 -0.043919 -0.055772 -0.060667 -0.062853 -0.099903 -0.124611 -0.144164 -0.126760 -0.078738 -0.053408 -0.035227 -0.054947 -0.054947 -0.054947 -0.054947 -0.067101 -0.067101 -0.067101 -0.067101 -0.067101 -0.067101 -0.067101 -0.067101 -0.067101 -0.068033 -0.068033 -0.068033 -0.068033 -0.068033 -0.068033 -0.068033 -0.068033 -0.068033 -0.068033 -0.068033 -0.068033 -0.068033 -0.068033 -0.068033 -0.068033
0.000000 0.000000 0.000000 0.000000 0.000000 0.000000 0.000000 0.000000 0.000000 0.000000 0.000000 0.000000 0.000000 0.000000 0.000000 0.000000 0.000000 0.000000 0.000000 0.000000 0.000000 0.000000 0.000000 0.000000 0.000000 0.000000 0.180334 0.180334 0.180334 0.180334 0.180334 0.180334 0.180334 0.180334 0.180334 0.180334 0.180334 0.180334 0.180334 0.180334 0.180334 0.180334 0.180334 0.180334 0.180334 0.180334 0.180334 0.180334 0.180334 0.180334 0.180334 0.180334 0.180334 0.180334 0.180334 0.199007 0.199007 0.199007 0.199007 0.199007 0.199007 0.199007 0.199007 0.199007 0.199007 0.199007 0.199007 0.199007 0.199007 0.199007 0.199007 0.199007 0.199007 0.199007 0.199007 0.199007 0.199007 0.199007 0.199007 0.199007 0.199007 0.199007 0.199007 0.199007 0.199007 0.199007 0.199007 0.199007 0.199007 0.199007 0.199007 0.199007 0.199007 0.199007 0.199007 0.199007 0.230940 0.230940 0.230940 0.230940 0.230940 0.230940 0.230940 0.230940 0.230940 0.230940 0.230940 0.230940 0.230940 0.230940 0.230940 0.230940 0.230940 0.230940 0.230940 0.230940 0.230940 0.230940 0.230940 0.230940 0.230940 0.230940 0.230940 0.230940 0.244339 0.244339 0.244339 0.244339 0.244339 0.244339 0.244339 0.244339 0.244339 0.244339 0.244339 0.244339 0.244339 0.244339 0.244339 0.244339 0.244339 0.244339 0.244339 0.244339 0.244339 0.244339 0.244339 0.251976 0.251976 0.251976 0.251976 0.251976 0.251976 0.251976 0.251976 0.251976 0.251976 0.251976 0.251976 0.251976 0.251976 0.251976 0.251976 0.251976 0.251976 0.251976 0.251976 0.264906 0.264906 0.264906 0.264906 0.264906 0.264906 0.264906 0.264906 0.264906 0.264906 0.264906 0.264906 0.264906 0.264906 0.264906 0.264906 0.264906 0.256074 0.256074 0.256074 0.256074 0.256074 0.256074 0.256074 0.256074 0.256074 0.256074 0.256074 0.256074 0.256074 0.256074 0.256074 0.256074 0.256074 0.269680 0.269680 0.269680 0.269680 0.269680 0.269680 0.269680 0.269680 0.269680 0.269680 0.269680 0.269680 0.269680 0.269680 0.264906 0.264906 0.264906 0.264906 0.264906 0.264906 0.264906 0.264906 0.264906 0.264906 0.264906 0.264906 0.264906 0.264906 0.264906 0.264906 0.264906 0.264906 0.264906 0.264906 0.264906 0.264906 0.264906 0.264906 0.264906 0.264906 0.264906 0.260378 0.260378 0.260378 0.260378 0.260378 0.260378 0.260378 0.260378 0.260378 0.260378 0.260378 0.260378 0.260378 0.264906 0.264906 0.264906 0.264906 0.264906 0.264906 0.264906 0.264906 0.264906 0.264906 0.264906 0.264906 0.269680 0.269680 0.269680 0.269680 0.269680 0.269680 0.269680 0.269680 0.269680 0.269680 0.269680 0.264906 0.264906 0.264906 0.264906 0.264906 0.264906 0.264906 0.264906 0.264906 0.264906 0.264906 0.256074 0.256074 0.256074 0.256074 0.256074 0.256074 0.256074 0.256074 0.256074 0.256074 0.256074 0.264906 0.264906 0.264906 0.264906 0.264906 0.264906 0.264906 0.264906 0.264906 0.264906 0.260378 0.260378 0.260378 0.260378 0.260378 0.260378 0.260378 0.260378 0.260378 0.260378 0.264906 0.264906 0.264906 0.264906 0.264906 0.264906 0.264906 0.264906 0.264906 0.260378 0.260378 0.260378 0.260378 0.260378 0.260378 0.260378 0.260378 0.260378 0.256074 0.256074 0.256074 0.256074 0.256074 0.256074 0.256074 0.256074 0.256074 0.251976 0.251976 0.251976 0.251976 0.251976 0.251976 0.251976 0.251976 0.251976 0.251976 0.251976 0.251976 0.251976 0.251976 0.251976 0.251976
