# Output from CTFFind version 4.1.9, run on 2019-11-01 14:01:07
# Input file: af_stacked.mrc ; Number of micrographs: 50
# Pixel size: 3.000 Angstroms ; acceleration voltage: 300.0 keV ; spherical aberration: 0.00 mm ; amplitude contrast: 0.07
# Box size: 512 pixels ; min. res.: 30.0 Angstroms ; max. res.: 5.0 Angstroms ; min. def.: 5000.0 um; max. def. 50000.0 um; num. frames averaged: 1
# 6 lines per micrograph: #1 - spatial frequency (1/Angstroms); #2 - 1D rotational average of spectrum (assuming no astigmatism); #3 - 1D rotational average of spectrum; #4 - CTF fit; #5 - cross-correlation between spectrum and CTF fit; #6 - 2sigma of expected cross correlation of noise
0.000000 0.000651 0.001302 0.001953 0.002604 0.003255 0.003906 0.004557 0.005208 0.005859 0.006510 0.007161 0.007812 0.008464 0.009115 0.009766 0.010417 0.011068 0.011719 0.012370 0.013021 0.013672 0.014323 0.014974 0.015625 0.016276 0.016927 0.017578 0.018229 0.018880 0.019531 0.020182 0.020833 0.021484 0.022135 0.022786 0.023438 0.024089 0.024740 0.025391 0.026042 0.026693 0.027344 0.027995 0.028646 0.029297 0.029948 0.030599 0.031250 0.031901 0.032552 0.033203 0.033854 0.034505 0.035156 0.035807 0.036458 0.037109 0.037760 0.038411 0.039062 0.039714 0.040365 0.041016 0.041667 0.042318 0.042969 0.043620 0.044271 0.044922 0.045573 0.046224 0.046875 0.047526 0.048177 0.048828 0.049479 0.050130 0.050781 0.051432 0.052083 0.052734 0.053385 0.054036 0.054688 0.055339 0.055990 0.056641 0.057292 0.057943 0.058594 0.059245 0.059896 0.060547 0.061198 0.061849 0.062500 0.063151 0.063802 0.064453 0.065104 0.065755 0.066406 0.067057 0.067708 0.068359 0.069010 0.069661 0.070312 0.070964 0.071615 0.072266 0.072917 0.073568 0.074219 0.074870 0.075521 0.076172 0.076823 0.077474 0.078125 0.078776 0.079427 0.080078 0.080729 0.081380 0.082031 0.082682 0.083333 0.083984 0.084635 0.085286 0.085938 0.086589 0.087240 0.087891 0.088542 0.089193 0.089844 0.090495 0.091146 0.091797 0.092448 0.093099 0.093750 0.094401 0.095052 0.095703 0.096354 0.097005 0.097656 0.098307 0.098958 0.099609 0.100260 0.100911 0.101562 0.102214 0.102865 0.103516 0.104167 0.104818 0.105469 0.106120 0.106771 0.107422 0.108073 0.108724 0.109375 0.110026 0.110677 0.111328 0.111979 0.112630 0.113281 0.113932 0.114583 0.115234 0.115885 0.116536 0.117188 0.117839 0.118490 0.119141 0.119792 0.120443 0.121094 0.121745 0.122396 0.123047 0.123698 0.124349 0.125000 0.125651 0.126302 0.126953 0.127604 0.128255 0.128906 0.129557 0.130208 0.130859 0.131510 0.132161 0.132812 0.133464 0.134115 0.134766 0.135417 0.136068 0.136719 0.137370 0.138021 0.138672 0.139323 0.139974 0.140625 0.141276 0.141927 0.142578 0.143229 0.143880 0.144531 0.145182 0.145833 0.146484 0.147135 0.147786 0.148438 0.149089 0.149740 0.150391 0.151042 0.151693 0.152344 0.152995 0.153646 0.154297 0.154948 0.155599 0.156250 0.156901 0.157552 0.158203 0.158854 0.159505 0.160156 0.160807 0.161458 0.162109 0.162760 0.163411 0.164062 0.164714 0.165365 0.166016 0.166667 0.167318 0.167969 0.168620 0.169271 0.169922 0.170573 0.171224 0.171875 0.172526 0.173177 0.173828 0.174479 0.175130 0.175781 0.176432 0.177083 0.177734 0.178385 0.179036 0.179688 0.180339 0.180990 0.181641 0.182292 0.182943 0.183594 0.184245 0.184896 0.185547 0.186198 0.186849 0.187500 0.188151 0.188802 0.189453 0.190104 0.190755 0.191406 0.192057 0.192708 0.193359 0.194010 0.194661 0.195312 0.195964 0.196615 0.197266 0.197917 0.198568 0.199219 0.199870 0.200521 0.201172 0.201823 0.202474 0.203125 0.203776 0.204427 0.205078 0.205729 0.206380 0.207031 0.207682 0.208333 0.208984 0.209635 0.210286 0.210938 0.211589 0.212240 0.212891 0.213542 0.214193 0.214844 0.215495 0.216146 0.216797 0.217448 0.218099 0.218750 0.219401 0.220052 0.220703 0.221354 0.222005 0.222656 0.223307 0.223958 0.224609 0.225260 0.225911 0.226562 0.227214 0.227865 0.228516 0.229167 0.229818 0.230469 0.231120 0.231771 0.232422 0.233073 0.233724 0.234375 0.235026 0.235677
       0.09469        0.12742        0.15477        0.16454        0.16866        0.17221        0.17352        0.17506        0.17609        0.17676        0.17754        0.17785        0.17845        0.17876        0.17903        0.17934        0.17951        0.17981        0.17993        0.18011        0.18025        0.18038        0.18053        0.18060        0.18074        0.18082        0.18090        0.18098        0.18104        0.18115        0.18118        0.18126        0.18130        0.18136        0.18142        0.18144        0.18151        0.18154        0.18159        0.18163        0.18164        0.18171        0.18172        0.18176        0.18178        0.18181        0.18185        0.18186        0.18190        0.18191        0.18194        0.17143        0.18315        0.07205        0.15448       -0.06405        0.26336       -0.02876        0.09996       -0.07306        0.09169        0.10321        0.15186       -0.07608        0.09058        0.25440        0.07595        0.14803        0.21400        0.09232       -0.02020        0.33760        0.05293        0.15621        0.10672       -0.05310        0.07494        0.09791        0.14994        0.19184        0.36597        0.36108        0.28435        0.10386        0.03024        0.01903       -0.02573        0.06292        0.01604        0.33108        0.14576        0.04977        0.12898        0.13444        0.06492        0.21705        0.21273        0.19471        0.21406        0.15967        0.30351        0.09835        0.23521        0.23345        0.15769        0.27284        0.29948        0.21341        0.16100        0.08915        0.08258        0.04287        0.14705        0.19479        0.29312        0.14543        0.14161        0.15885        0.31172        0.16505        0.10644        0.12236        0.21364        0.34796        0.14217        0.31973        0.20085        0.08481        0.22997        0.23205        0.16276        0.10699        0.16022        0.36451        0.33235        0.14955        0.23000        0.29895        0.27409        0.20788        0.31867        0.25602        0.24695        0.26053        0.21555        0.06691        0.23815        0.24567        0.27840        0.30863        0.29626        0.30299        0.24560        0.27773        0.27629        0.13342        0.14532        0.23568        0.16305        0.28498        0.22886        0.13671        0.29566        0.27619        0.22769        0.23613        0.24501        0.18239        0.29458        0.28647        0.26708        0.18206        0.29333        0.29730        0.31485        0.32145        0.20731        0.29888        0.32394        0.28780        0.25660        0.20129        0.21919        0.16116        0.22727        0.26948        0.32543        0.33658        0.23746        0.32284        0.27639        0.23115        0.23568        0.22657        0.16347        0.18862        0.20357        0.29548        0.31064        0.29274        0.21754        0.29811        0.24817        0.30851        0.24922        0.26468        0.19933        0.17637        0.21906        0.23811        0.21480        0.20553        0.17243        0.20132        0.19121        0.20829        0.17958        0.19710        0.20368        0.19186        0.18973        0.20639        0.19424        0.18363        0.26841        0.21939        0.25132        0.24421        0.17269        0.15429        0.15851        0.15939        0.18119        0.19736        0.12758        0.23023        0.17057        0.17945        0.13578        0.15041        0.16158        0.15594        0.12160        0.12523        0.07825        0.14270        0.09437        0.03844        0.12232        0.09766        0.07222        0.07340        0.05142        0.01647        0.08659        0.06316        0.07444        0.07502        0.08356        0.09374        0.06992        0.11213        0.13435        0.10053        0.07131        0.09499        0.16906        0.12530        0.12736        0.15137        0.10706        0.11544        0.07383        0.12553        0.04137        0.13990        0.14440        0.13900        0.04905        0.03471        0.05966        0.05575        0.05849        0.12729        0.14275        0.07529        0.02314        0.05935        0.07202        0.07237        0.09261        0.08596        0.06097        0.12536        0.04992        0.12712        0.03782        0.05426        0.05724        0.07522        0.08772        0.10631        0.09029        0.06418        0.04664        0.06756        0.04337        0.02386        0.04276        0.05645        0.04499        0.03026        0.05881        0.04358       -0.01734        0.05643        0.00303       -0.00229        0.01029        0.02794        0.01434        0.03225        0.05489        0.06627        0.05640        0.00880        0.01547        0.04333        0.01083       -0.03602       -0.05796       -0.01480       -0.03087        0.00808       -0.03075       -0.00712       -0.00847        0.02386       -0.02295       -0.03523       -0.03748       -0.03508       -0.10126       -0.07643       -0.07216       -0.06493       -0.11210       -0.09391       -0.10472       -0.11539       -0.10144       -0.13346       -0.11729       -0.14229       -0.15283       -0.18304       -0.15934       -0.20507       -0.22060       -0.22304       -0.15160       -0.20453       -0.32335
0.749978 0.341767 0.450240 0.500390 0.579702 0.559030 0.580852 0.572678 0.576169 0.585150 0.568154 0.571090 0.560629 0.561812 0.553638 0.543950 0.544108 0.535935 0.527761 0.520449 0.511414 0.508795 0.500066 0.492448 0.484274 0.478878 0.470298 0.461697 0.455806 0.446571 0.440676 0.431919 0.423435 0.416693 0.409481 0.401308 0.393353 0.384960 0.377996 0.369249 0.362333 0.353475 0.345986 0.338274 0.329639 0.322349 0.313753 0.306513 0.298340 0.290402 0.282342 0.140755 0.693385 -1.319490 0.744274 -2.357505 1.402017 -1.648080 -0.224610 -2.132185 -0.275597 0.060973 0.009877 -2.720885 -0.005678 0.657206 -0.186216 -1.281396 1.085562 -0.853852 -1.543520 1.552153 -0.815393 -0.200630 -0.840141 -1.412887 -0.535346 -1.132122 0.093197 0.001726 1.125743 1.261123 0.934653 0.287737 -1.217738 -1.683276 -1.537120 -1.291374 -1.408371 0.874889 0.689155 -1.340688 -1.125963 -0.058381 -1.327628 0.207268 0.810865 -1.111379 0.621682 -0.508818 0.693159 0.321786 -1.518775 0.701631 -0.831955 0.385385 1.335957 -0.152855 -0.473442 -0.490483 -1.284284 -1.030323 -0.888725 -0.218084 0.780914 -0.622740 -0.045564 -1.094038 0.718600 -0.061005 -1.062432 -0.254006 -0.985464 1.343587 -0.969079 0.840015 0.214218 -0.861256 -0.569299 0.186751 0.006231 -1.370552 -0.858086 0.636491 1.529127 -0.627878 -0.593873 0.606942 0.968773 -0.638108 0.721379 0.103144 -0.386955 0.240449 0.158428 -1.253865 0.000000 0.207492 -0.218216 0.589847 0.095198 0.567626 0.960292 -0.325940 0.463683 -0.242556 -0.806107 0.042626 -0.820054 0.311733 0.738828 -1.255780 0.130453 0.889333 0.164161 -0.197578 0.579518 -0.097697 0.142736 0.456422 0.866223 -0.147665 0.387313 0.662942 0.499138 1.521115 0.723230 -0.414001 1.300343 0.681195 0.950000 0.036484 0.370798 -0.528268 0.285486 0.352999 0.762066 2.044132 0.093662 0.810960 0.992112 0.624688 0.299106 0.727113 0.274707 -0.185568 0.010798 0.690478 1.156287 1.068575 0.790068 0.805296 0.796114 0.754706 1.252562 0.392811 1.142652 0.011170 0.000000 0.959735 0.478685 0.689384 0.156022 0.121779 0.456756 0.418602 0.483984 -0.040836 0.615353 0.429868 0.544634 0.353229 0.461653 0.116236 0.752776 0.892138 0.695947 1.076912 0.480540 0.096659 0.252177 0.240557 0.109234 0.736543 -0.056834 0.295969 0.571625 0.508463 0.198816 -0.156318 0.190941 0.632173 -0.287126 -0.024701 -0.259831 -0.124304 0.136492 -0.549692 -0.559837 0.351906 -0.702889 -0.301371 -0.476445 -0.553731 -1.059142 0.000000 -0.345217 -0.544165 -0.267339 -0.025865 -0.400508 -0.091941 -0.000730 0.115559 0.118383 -0.215179 0.026824 0.668722 0.168409 0.281468 0.598862 0.054417 0.336777 -0.169814 0.379780 0.067024 0.273569 0.491156 0.466098 -0.137009 -0.375852 0.125118 -0.080150 0.025707 0.890176 0.428229 0.236736 -0.239232 -0.001965 0.208892 0.221014 0.543840 0.255257 0.352402 0.660485 -0.000000 0.951938 -0.142971 0.360008 0.092652 0.369035 0.620013 0.811487 0.283991 0.649007 0.186938 0.508383 0.001870 0.049294 0.302019 0.449960 0.303534 0.265120 0.321506 0.408633 -0.052363 0.356409 0.058253 0.019913 0.158539 0.422272 -0.085496 0.317590 0.778091 0.534170 0.513649 0.256091 0.157693 0.595883 0.195012 0.000000 -0.309135 0.083808 -0.017701 0.364619 0.207056 0.422959 0.249216 0.788672 0.204583 0.202109 0.334452 0.242398 -0.154064 -0.061229 0.212050 0.077579 -0.243323 0.013997 -0.016913 -0.084689 0.069192 -0.249254 0.173905 -0.144647 -0.240762 -0.425021 0.113481 -0.548586 -0.730165 -0.599563 0.000000 -2.560956
0.072396 0.072540 0.072970 0.073687 0.074691 0.075981 0.077558 0.079422 0.081572 0.084008 0.086730 0.089738 0.093032 0.096611 0.100475 0.104623 0.109055 0.113771 0.118770 0.124051 0.129614 0.135458 0.141582 0.147984 0.154665 0.161623 0.168856 0.176363 0.184142 0.192192 0.200511 0.209097 0.217948 0.227060 0.236433 0.246062 0.255945 0.266078 0.276459 0.287083 0.297946 0.309044 0.320373 0.331928 0.343703 0.355693 0.367892 0.380294 0.392893 0.405681 0.418652 0.431797 0.445109 0.458578 0.472197 0.485955 0.499843 0.513850 0.527966 0.542179 0.556478 0.570850 0.585282 0.599761 0.614274 0.628805 0.643340 0.657864 0.672360 0.686811 0.701201 0.715512 0.729725 0.743822 0.757784 0.771589 0.785219 0.798652 0.811866 0.824839 0.837549 0.849972 0.862086 0.873867 0.885289 0.896328 0.906958 0.917156 0.926893 0.936145 0.944884 0.953085 0.960720 0.967762 0.974184 0.979959 0.985060 0.989460 0.993131 0.996047 0.998180 0.999506 0.999997 0.999629 0.998376 0.996213 0.993116 0.989063 0.984031 0.977999 0.970945 0.962851 0.953699 0.943470 0.932150 0.919723 0.906178 0.891503 0.875688 0.858726 0.840611 0.821339 0.800908 0.779319 0.756576 0.732682 0.707645 0.681477 0.654189 0.625797 0.596320 0.565778 0.534197 0.501603 0.468026 0.433500 0.398062 0.361752 0.324612 0.286688 0.248032 0.208695 0.168734 0.128208 0.087180 0.045717 0.003887 0.038237 0.080580 0.123064 0.165606 0.208124 0.250530 0.292736 0.334650 0.376178 0.417225 0.457694 0.497484 0.536497 0.574631 0.611784 0.647852 0.682733 0.716323 0.748521 0.779224 0.808331 0.835743 0.861363 0.885093 0.906842 0.926519 0.944038 0.959314 0.972270 0.982831 0.990927 0.996494 0.999474 0.999816 0.997473 0.992407 0.984587 0.973991 0.960603 0.944415 0.925432 0.903664 0.879132 0.851865 0.821906 0.789303 0.754118 0.716421 0.676295 0.633830 0.589130 0.542307 0.493485 0.442797 0.390386 0.336408 0.281024 0.224407 0.166737 0.108206 0.049009 0.010648 0.070554 0.130493 0.190239 0.249567 0.308245 0.366041 0.422717 0.478037 0.531766 0.583667 0.633508 0.681058 0.726093 0.768393 0.807745 0.843945 0.876798 0.906118 0.931734 0.953483 0.971221 0.984815 0.994152 0.999134 0.999681 0.995734 0.987252 0.974216 0.956629 0.934516 0.907924 0.876924 0.841609 0.802098 0.758532 0.711075 0.659917 0.605267 0.547362 0.486454 0.422823 0.356765 0.288594 0.218646 0.147270 0.074831 0.001707 0.071714 0.145032 0.217841 0.289732 0.360290 0.429102 0.495757 0.559847 0.620973 0.678747 0.732790 0.782741 0.828258 0.869017 0.904719 0.935091 0.959887 0.978893 0.991925 0.998838 0.999519 0.993897 0.981939 0.963653 0.939089 0.908341 0.871543 0.828874 0.780557 0.726858 0.668080 0.604571 0.536718 0.464943 0.389703 0.311491 0.230826 0.148254 0.064347 0.020305 0.105098 0.189414 0.272632 0.354123 0.433265 0.509442 0.582050 0.650503 0.714237 0.772715 0.825433 0.871925 0.911763 0.944570 0.970015 0.987825 0.997782 0.999730 0.993575 0.979290 0.956915 0.926559 0.888399 0.842682 0.789723 0.729904 0.663673 0.591539 0.514074 0.431903 0.345703 0.256197 0.164151 0.070362 0.024342 0.119112 0.213089 0.305404 0.395192 0.481601 0.563791 0.640960 0.712330 0.777176 0.834820 0.884646 0.926103 0.958716 0.982089 0.995910 0.999960 0.994115 0.978345 0.952725 0.917427 0.872727 0.819002 0.756726 0.686471 0.608896 0.524755 0.434873 0.340154 0.241561 0.140120 0.036895 0.067014
1.000000 1.000000 1.000000 1.000000 1.000000 1.000000 1.000000 1.000000 1.000000 1.000000 1.000000 1.000000 1.000000 1.000000 1.000000 1.000000 1.000000 1.000000 1.000000 1.000000 1.000000 1.000000 1.000000 1.000000 1.000000 1.000000 1.000000 1.000000 1.000000 1.000000 1.000000 1.000000 1.000000 1.000000 1.000000 1.000000 1.000000 1.000000 1.000000 1.000000 1.000000 1.000000 1.000000 1.000000 1.000000 1.000000 1.000000 1.000000 1.000000 1.000000 1.000000 1.000000 -0.028546 -0.028546 -0.028546 -0.028546 -0.028546 -0.028546 -0.028546 -0.028546 -0.028546 -0.028546 -0.028546 -0.028546 -0.028546 -0.028546 -0.028546 -0.028546 -0.028546 -0.028546 -0.028546 -0.028546 -0.028546 -0.028546 -0.028546 -0.028546 -0.028546 -0.028546 -0.028546 -0.028546 -0.028546 -0.028546 -0.028546 -0.028546 -0.028546 -0.028546 -0.028546 -0.028546 -0.028546 -0.028546 -0.028546 -0.028546 -0.028546 -0.028546 -0.028546 -0.028546 -0.028546 -0.028546 -0.028546 -0.028546 -0.028546 -0.028546 -0.028546 -0.131961 -0.131961 -0.131961 -0.131961 -0.131961 -0.131961 -0.131961 -0.131961 -0.131961 -0.131961 -0.131961 -0.131961 -0.131961 -0.131961 -0.131961 -0.131961 -0.131961 -0.131961 -0.131961 -0.131961 -0.131961 -0.131961 -0.131961 -0.131961 -0.131961 -0.131961 -0.131961 -0.131961 -0.131961 -0.131961 -0.131961 -0.131961 -0.131961 -0.131961 -0.131961 -0.131961 -0.131961 -0.131961 -0.131961 -0.131961 -0.131961 -0.131961 -0.133053 -0.136133 -0.139573 -0.138746 -0.148095 -0.149668 -0.156768 -0.161428 -0.169790 -0.171187 -0.169840 -0.177847 -0.173437 -0.171470 -0.166013 -0.153462 -0.134676 -0.137911 -0.131621 -0.117111 -0.113798 -0.116548 -0.109722 -0.108331 -0.107313 -0.106575 -0.104073 -0.101552 -0.098344 -0.093120 -0.088773 -0.081996 -0.072711 -0.067578 -0.054576 -0.016214 0.006796 0.030673 0.058475 0.084221 0.074389 0.089075 0.104335 0.122200 0.113311 0.116927 0.127508 0.126100 0.132969 0.128836 0.130256 0.126904 0.129646 0.134758 0.140481 0.147148 0.143113 0.151244 0.134001 0.144926 0.153994 0.159517 0.167496 0.181787 0.180001 0.161234 0.172829 0.176567 0.177955 0.193502 0.208345 0.193242 0.205103 0.219140 0.213910 0.230654 0.223080 0.238220 0.244669 0.217646 0.243405 0.219913 0.228301 0.219535 0.220604 0.218286 0.216562 0.214909 0.225496 0.245194 0.220924 0.234764 0.219165 0.217958 0.231084 0.218305 0.209512 0.200464 0.214612 0.213854 0.243519 0.235791 0.227691 0.220119 0.214203 0.220612 0.218036 0.218393 0.225661 0.211025 0.213006 0.210746 0.206088 0.206458 0.209496 0.205314 0.210312 0.211032 0.211126 0.208901 0.209423 0.231866 0.206615 0.230594 0.237766 0.227175 0.240410 0.252238 0.259413 0.248430 0.237022 0.263500 0.253293 0.247828 0.245616 0.244459 0.254484 0.250553 0.242043 0.238349 0.223520 0.206041 0.208557 0.188321 0.172198 0.138841 0.104900 0.079601 0.051858 0.027233 0.006053 -0.008720 -0.011783 -0.016684 -0.017946 -0.006946 0.007002 0.028048 0.052269 0.077745 0.104835 0.105728 0.105728 0.105728 0.105728 0.105728 0.105728 0.105728 0.097173 0.097173 0.097173 0.097173 0.097173 0.097173 0.097173 0.097173 0.097173 0.097173 0.097173 0.097173 0.097173 0.097173 0.097173 0.097173 0.097173 0.097173 0.097173 0.097173 0.097173 0.097173 0.097173 0.097173 0.097173 0.097173 0.097173 0.097173 0.097173 0.097173 0.097173 0.097173 0.097173 0.097173 0.097173 0.097173 0.097173 0.097173 0.097173 0.097173 0.097173 0.097173 0.097173 0.097173 0.097173 0.097173 0.097173 0.097173 0.097173 0.097173
0.000000 0.000000 0.000000 0.000000 0.000000 0.000000 0.000000 0.000000 0.000000 0.000000 0.000000 0.000000 0.000000 0.000000 0.000000 0.000000 0.000000 0.000000 0.000000 0.000000 0.000000 0.000000 0.000000 0.000000 0.000000 0.000000 0.000000 0.000000 0.000000 0.000000 0.000000 0.000000 0.000000 0.000000 0.000000 0.000000 0.000000 0.000000 0.000000 0.000000 0.000000 0.000000 0.000000 0.000000 0.000000 0.000000 0.000000 0.000000 0.000000 0.000000 0.000000 0.000000 0.132164 0.132164 0.132164 0.132164 0.132164 0.132164 0.132164 0.132164 0.132164 0.132164 0.132164 0.132164 0.132164 0.132164 0.132164 0.132164 0.132164 0.132164 0.132164 0.132164 0.132164 0.132164 0.132164 0.132164 0.132164 0.132164 0.132164 0.132164 0.132164 0.132164 0.132164 0.132164 0.132164 0.132164 0.132164 0.132164 0.132164 0.132164 0.132164 0.132164 0.132164 0.132164 0.132164 0.132164 0.132164 0.132164 0.132164 0.132164 0.132164 0.132164 0.132164 0.146254 0.146254 0.146254 0.146254 0.146254 0.146254 0.146254 0.146254 0.146254 0.146254 0.146254 0.146254 0.146254 0.146254 0.146254 0.146254 0.146254 0.146254 0.146254 0.146254 0.146254 0.146254 0.146254 0.146254 0.146254 0.146254 0.146254 0.146254 0.146254 0.146254 0.146254 0.146254 0.146254 0.146254 0.146254 0.146254 0.146254 0.146254 0.146254 0.146254 0.146254 0.146254 0.146254 0.146254 0.146254 0.146254 0.146254 0.146254 0.146254 0.146254 0.146254 0.146254 0.146254 0.146254 0.146254 0.146254 0.146254 0.146254 0.146254 0.146254 0.146254 0.146254 0.146254 0.146254 0.146254 0.146254 0.146254 0.146254 0.146254 0.146254 0.146254 0.146254 0.146254 0.146254 0.146254 0.146254 0.146254 0.168430 0.168430 0.168430 0.168430 0.168430 0.168430 0.168430 0.168430 0.168430 0.168430 0.168430 0.168430 0.168430 0.168430 0.168430 0.168430 0.168430 0.168430 0.168430 0.168430 0.168430 0.168430 0.168430 0.168430 0.168430 0.168430 0.168430 0.168430 0.168430 0.168430 0.168430 0.168430 0.168430 0.168430 0.168430 0.168430 0.168430 0.168430 0.168430 0.168430 0.168430 0.168430 0.168430 0.168430 0.168430 0.168430 0.168430 0.168430 0.168430 0.168430 0.168430 0.168430 0.168430 0.180334 0.180334 0.180334 0.180334 0.180334 0.180334 0.180334 0.180334 0.180334 0.180334 0.180334 0.180334 0.180334 0.180334 0.180334 0.180334 0.180334 0.180334 0.180334 0.180334 0.180334 0.180334 0.180334 0.180334 0.180334 0.180334 0.180334 0.180334 0.180334 0.180334 0.180334 0.180334 0.180334 0.180334 0.180334 0.180334 0.180334 0.180334 0.180334 0.180334 0.180334 0.180334 0.180334 0.186501 0.186501 0.186501 0.186501 0.186501 0.186501 0.186501 0.186501 0.186501 0.186501 0.186501 0.186501 0.186501 0.186501 0.186501 0.186501 0.186501 0.186501 0.186501 0.186501 0.186501 0.186501 0.186501 0.186501 0.186501 0.186501 0.186501 0.186501 0.186501 0.186501 0.186501 0.186501 0.186501 0.186501 0.186501 0.186501 0.186501 0.191565 0.191565 0.191565 0.191565 0.191565 0.191565 0.191565 0.191565 0.191565 0.191565 0.191565 0.191565 0.191565 0.191565 0.191565 0.191565 0.191565 0.191565 0.191565 0.191565 0.191565 0.191565 0.191565 0.191565 0.191565 0.191565 0.191565 0.191565 0.191565 0.191565 0.191565 0.191565 0.191565 0.191565 0.191565 0.191565 0.191565 0.191565 0.191565 0.191565 0.191565 0.191565 0.191565 0.191565 0.191565 0.191565 0.191565 0.191565 0.191565 0.191565
0.000000 0.000651 0.001302 0.001953 0.002604 0.003255 0.003906 0.004557 0.005208 0.005859 0.006510 0.007161 0.007812 0.008464 0.009115 0.009766 0.010417 0.011068 0.011719 0.012370 0.013021 0.013672 0.014323 0.014974 0.015625 0.016276 0.016927 0.017578 0.018229 0.018880 0.019531 0.020182 0.020833 0.021484 0.022135 0.022786 0.023438 0.024089 0.024740 0.025391 0.026042 0.026693 0.027344 0.027995 0.028646 0.029297 0.029948 0.030599 0.031250 0.031901 0.032552 0.033203 0.033854 0.034505 0.035156 0.035807 0.036458 0.037109 0.037760 0.038411 0.039062 0.039714 0.040365 0.041016 0.041667 0.042318 0.042969 0.043620 0.044271 0.044922 0.045573 0.046224 0.046875 0.047526 0.048177 0.048828 0.049479 0.050130 0.050781 0.051432 0.052083 0.052734 0.053385 0.054036 0.054688 0.055339 0.055990 0.056641 0.057292 0.057943 0.058594 0.059245 0.059896 0.060547 0.061198 0.061849 0.062500 0.063151 0.063802 0.064453 0.065104 0.065755 0.066406 0.067057 0.067708 0.068359 0.069010 0.069661 0.070312 0.070964 0.071615 0.072266 0.072917 0.073568 0.074219 0.074870 0.075521 0.076172 0.076823 0.077474 0.078125 0.078776 0.079427 0.080078 0.080729 0.081380 0.082031 0.082682 0.083333 0.083984 0.084635 0.085286 0.085938 0.086589 0.087240 0.087891 0.088542 0.089193 0.089844 0.090495 0.091146 0.091797 0.092448 0.093099 0.093750 0.094401 0.095052 0.095703 0.096354 0.097005 0.097656 0.098307 0.098958 0.099609 0.100260 0.100911 0.101562 0.102214 0.102865 0.103516 0.104167 0.104818 0.105469 0.106120 0.106771 0.107422 0.108073 0.108724 0.109375 0.110026 0.110677 0.111328 0.111979 0.112630 0.113281 0.113932 0.114583 0.115234 0.115885 0.116536 0.117188 0.117839 0.118490 0.119141 0.119792 0.120443 0.121094 0.121745 0.122396 0.123047 0.123698 0.124349 0.125000 0.125651 0.126302 0.126953 0.127604 0.128255 0.128906 0.129557 0.130208 0.130859 0.131510 0.132161 0.132812 0.133464 0.134115 0.134766 0.135417 0.136068 0.136719 0.137370 0.138021 0.138672 0.139323 0.139974 0.140625 0.141276 0.141927 0.142578 0.143229 0.143880 0.144531 0.145182 0.145833 0.146484 0.147135 0.147786 0.148438 0.149089 0.149740 0.150391 0.151042 0.151693 0.152344 0.152995 0.153646 0.154297 0.154948 0.155599 0.156250 0.156901 0.157552 0.158203 0.158854 0.159505 0.160156 0.160807 0.161458 0.162109 0.162760 0.163411 0.164062 0.164714 0.165365 0.166016 0.166667 0.167318 0.167969 0.168620 0.169271 0.169922 0.170573 0.171224 0.171875 0.172526 0.173177 0.173828 0.174479 0.175130 0.175781 0.176432 0.177083 0.177734 0.178385 0.179036 0.179688 0.180339 0.180990 0.181641 0.182292 0.182943 0.183594 0.184245 0.184896 0.185547 0.186198 0.186849 0.187500 0.188151 0.188802 0.189453 0.190104 0.190755 0.191406 0.192057 0.192708 0.193359 0.194010 0.194661 0.195312 0.195964 0.196615 0.197266 0.197917 0.198568 0.199219 0.199870 0.200521 0.201172 0.201823 0.202474 0.203125 0.203776 0.204427 0.205078 0.205729 0.206380 0.207031 0.207682 0.208333 0.208984 0.209635 0.210286 0.210938 0.211589 0.212240 0.212891 0.213542 0.214193 0.214844 0.215495 0.216146 0.216797 0.217448 0.218099 0.218750 0.219401 0.220052 0.220703 0.221354 0.222005 0.222656 0.223307 0.223958 0.224609 0.225260 0.225911 0.226562 0.227214 0.227865 0.228516 0.229167 0.229818 0.230469 0.231120 0.231771 0.232422 0.233073 0.233724 0.234375 0.235026 0.235677
