# Output from CTFFind version 4.1.9, run on 2019-11-01 21:24:09
# Input file: bm3d_averaged_1_1.7_0.33_1500_full.mrc ; Number of micrographs: 1
# Pixel size: 3.000 Angstroms ; acceleration voltage: 300.0 keV ; spherical aberration: 0.00 mm ; amplitude contrast: 0.07
# Box size: 512 pixels ; min. res.: 30.0 Angstroms ; max. res.: 5.0 Angstroms ; min. def.: 5000.0 um; max. def. 50000.0 um; num. frames averaged: 1
# 6 lines per micrograph: #1 - spatial frequency (1/Angstroms); #2 - 1D rotational average of spectrum (assuming no astigmatism); #3 - 1D rotational average of spectrum; #4 - CTF fit; #5 - cross-correlation between spectrum and CTF fit; #6 - 2sigma of expected cross correlation of noise
0.000000 0.000651 0.001302 0.001953 0.002604 0.003255 0.003906 0.004557 0.005208 0.005859 0.006510 0.007161 0.007812 0.008464 0.009115 0.009766 0.010417 0.011068 0.011719 0.012370 0.013021 0.013672 0.014323 0.014974 0.015625 0.016276 0.016927 0.017578 0.018229 0.018880 0.019531 0.020182 0.020833 0.021484 0.022135 0.022786 0.023438 0.024089 0.024740 0.025391 0.026042 0.026693 0.027344 0.027995 0.028646 0.029297 0.029948 0.030599 0.031250 0.031901 0.032552 0.033203 0.033854 0.034505 0.035156 0.035807 0.036458 0.037109 0.037760 0.038411 0.039062 0.039714 0.040365 0.041016 0.041667 0.042318 0.042969 0.043620 0.044271 0.044922 0.045573 0.046224 0.046875 0.047526 0.048177 0.048828 0.049479 0.050130 0.050781 0.051432 0.052083 0.052734 0.053385 0.054036 0.054688 0.055339 0.055990 0.056641 0.057292 0.057943 0.058594 0.059245 0.059896 0.060547 0.061198 0.061849 0.062500 0.063151 0.063802 0.064453 0.065104 0.065755 0.066406 0.067057 0.067708 0.068359 0.069010 0.069661 0.070312 0.070964 0.071615 0.072266 0.072917 0.073568 0.074219 0.074870 0.075521 0.076172 0.076823 0.077474 0.078125 0.078776 0.079427 0.080078 0.080729 0.081380 0.082031 0.082682 0.083333 0.083984 0.084635 0.085286 0.085938 0.086589 0.087240 0.087891 0.088542 0.089193 0.089844 0.090495 0.091146 0.091797 0.092448 0.093099 0.093750 0.094401 0.095052 0.095703 0.096354 0.097005 0.097656 0.098307 0.098958 0.099609 0.100260 0.100911 0.101562 0.102214 0.102865 0.103516 0.104167 0.104818 0.105469 0.106120 0.106771 0.107422 0.108073 0.108724 0.109375 0.110026 0.110677 0.111328 0.111979 0.112630 0.113281 0.113932 0.114583 0.115234 0.115885 0.116536 0.117188 0.117839 0.118490 0.119141 0.119792 0.120443 0.121094 0.121745 0.122396 0.123047 0.123698 0.124349 0.125000 0.125651 0.126302 0.126953 0.127604 0.128255 0.128906 0.129557 0.130208 0.130859 0.131510 0.132161 0.132812 0.133464 0.134115 0.134766 0.135417 0.136068 0.136719 0.137370 0.138021 0.138672 0.139323 0.139974 0.140625 0.141276 0.141927 0.142578 0.143229 0.143880 0.144531 0.145182 0.145833 0.146484 0.147135 0.147786 0.148438 0.149089 0.149740 0.150391 0.151042 0.151693 0.152344 0.152995 0.153646 0.154297 0.154948 0.155599 0.156250 0.156901 0.157552 0.158203 0.158854 0.159505 0.160156 0.160807 0.161458 0.162109 0.162760 0.163411 0.164062 0.164714 0.165365 0.166016 0.166667 0.167318 0.167969 0.168620 0.169271 0.169922 0.170573 0.171224 0.171875 0.172526 0.173177 0.173828 0.174479 0.175130 0.175781 0.176432 0.177083 0.177734 0.178385 0.179036 0.179688 0.180339 0.180990 0.181641 0.182292 0.182943 0.183594 0.184245 0.184896 0.185547 0.186198 0.186849 0.187500 0.188151 0.188802 0.189453 0.190104 0.190755 0.191406 0.192057 0.192708 0.193359 0.194010 0.194661 0.195312 0.195964 0.196615 0.197266 0.197917 0.198568 0.199219 0.199870 0.200521 0.201172 0.201823 0.202474 0.203125 0.203776 0.204427 0.205078 0.205729 0.206380 0.207031 0.207682 0.208333 0.208984 0.209635 0.210286 0.210938 0.211589 0.212240 0.212891 0.213542 0.214193 0.214844 0.215495 0.216146 0.216797 0.217448 0.218099 0.218750 0.219401 0.220052 0.220703 0.221354 0.222005 0.222656 0.223307 0.223958 0.224609 0.225260 0.225911 0.226562 0.227214 0.227865 0.228516 0.229167 0.229818 0.230469 0.231120 0.231771 0.232422 0.233073 0.233724 0.234375 0.235026 0.235677
       0.33266        0.33266        0.33266        0.33266        0.33266        0.33266        0.33266        0.33266        0.33266        0.33266        0.33266        0.33266        0.33266        0.33266        0.33266        0.33266        0.33266        0.33266        0.33266        0.33266        0.33266        0.33266        0.33266        0.33266        0.33266        0.33266        0.33266        0.33266        0.33266        0.33266        0.33266        0.33266        0.33266        0.33266        0.33266        0.33266        0.33266        0.33266        0.33266        0.33266        0.33266        0.33266        0.33266        0.33266        0.33266        0.33266        0.33266        0.33266        0.33266        0.33266        0.33266        0.50231        0.71928        0.42853        0.18963       -0.08013       -0.26318       -0.06973       -0.13411       -0.05473       -0.00284       -0.14792       -0.09286       -0.05182       -0.00407       -0.15186       -0.22100       -0.34679       -0.46314       -0.55908       -0.51772       -0.44834       -0.37212       -0.54779       -0.45015       -0.62135       -0.50279       -0.47490       -0.38991       -0.38488       -0.34092       -0.25077       -0.16131       -0.13655        0.03243       -0.01189        0.11812        0.16795        0.30423        0.40911        0.46409        0.49771        0.54116        0.54999        0.69211        0.64518        0.67660        0.59169        0.55620        0.65470        0.52787        0.42650        0.38298        0.32092        0.22761        0.26317        0.25075        0.10690        0.08247       -0.00086       -0.00715        0.03570       -0.00423        0.07475        0.09900        0.23192        0.28319        0.30176        0.37968        0.56033        0.53705        0.57796        0.67035        0.70046        0.63016        0.63383        0.63184        0.55384        0.57531        0.39733        0.34453        0.26562        0.18431        0.07146        0.14433        0.11872        0.09115        0.10612        0.20891        0.21382        0.31667        0.35881        0.41345        0.49247        0.58383        0.54210        0.55324        0.60752        0.53855        0.46165        0.47869        0.32413        0.25062        0.25720        0.24234        0.14233        0.14451        0.15090        0.21816        0.24611        0.32848        0.36490        0.39079        0.46834        0.44651        0.47824        0.45482        0.46732        0.44422        0.40632        0.38309        0.35149        0.30976        0.28541        0.20397        0.19666        0.22080        0.26972        0.26843        0.35061        0.37658        0.35697        0.40997        0.45560        0.44818        0.42462        0.43922        0.37111        0.33468        0.28374        0.26431        0.28957        0.26948        0.29448        0.30060        0.34870        0.34222        0.39746        0.40325        0.42504        0.40987        0.42966        0.40249        0.36534        0.28273        0.29119        0.30744        0.27323        0.25553        0.32760        0.36882        0.34182        0.35424        0.35853        0.35364        0.40731        0.40049        0.35925        0.33891        0.30973        0.30943        0.31604        0.31698        0.29918        0.28611        0.33532        0.35754        0.37719        0.33317        0.32898        0.33385        0.34445        0.30674        0.28278        0.30703        0.31543        0.33719        0.32099        0.33185        0.35760        0.32912        0.31285        0.32785        0.30277        0.26482        0.25145        0.26550        0.30650        0.32263        0.35059        0.30174        0.31488        0.33736        0.29283        0.31578        0.28563        0.28196        0.29163        0.29905        0.30937        0.34297        0.32412        0.33035        0.33475        0.31087        0.33298        0.31868        0.31854        0.30725        0.28202        0.29200        0.31343        0.29154        0.32612        0.33833        0.33453        0.31974        0.33942        0.31639        0.27658        0.25344        0.27079        0.33152        0.35762        0.34594        0.31561        0.29370        0.29860        0.31347        0.24713        0.29804        0.30369        0.32868        0.29848        0.31821        0.28592        0.33615        0.34196        0.34620        0.32385        0.29213        0.31650        0.39762        0.32991        0.31219        0.30844        0.28998        0.28437        0.29736        0.26406        0.30926        0.23867        0.27518        0.29568        0.31609        0.29554        0.27403        0.29813        0.23383        0.22456        0.26232        0.30370        0.30450        0.27580        0.28507        0.33342        0.25781        0.21498        0.30866        0.27495        0.25516        0.28395        0.39741        0.29674        0.28608        0.24711        0.25344        0.26593        0.23983        0.23300        0.16841        0.25533        0.23191        0.24754        0.31719        0.27506        0.34779        0.28394        0.24581        0.22958        0.21180        0.23579        0.29677        0.23076        0.13206        0.15876        0.24199        0.24541        0.32857        0.29683        0.02503       -0.42860       -0.89168
2.723948 2.695013 2.666234 2.637611 2.609145 2.580836 2.552683 2.524686 2.496846 2.469162 2.441635 2.414264 2.387049 2.359991 2.333089 2.306344 2.279755 2.253323 2.227047 2.200927 2.174964 2.149157 2.123507 2.098013 2.072675 2.047494 2.022470 1.997602 1.972890 1.948334 1.923936 1.899693 1.875607 1.851677 1.827904 1.804287 1.780827 1.757523 1.734376 1.711385 1.688550 1.665872 1.643350 1.620984 1.598775 1.576723 1.554827 1.533087 1.511504 1.490077 1.468807 1.538623 1.840831 1.524032 1.203808 0.950464 0.551385 0.919330 0.640227 0.881264 0.934505 0.596848 0.716389 0.787607 0.824041 0.636566 0.543424 0.352409 0.107972 0.083459 0.048117 0.087185 0.305916 -0.031665 0.084793 -0.131914 -0.008593 -0.016118 0.086470 0.064849 0.102075 0.179333 0.284811 0.253511 0.485168 0.400166 0.550124 0.528172 0.770236 0.789502 0.882644 0.922952 0.942812 0.946225 1.114722 0.942439 1.141988 0.949358 0.852807 1.017895 0.849092 0.759918 0.615301 0.596049 0.455432 0.417137 0.509416 0.264694 0.197396 0.156772 0.009803 0.206260 -0.005641 0.119683 0.179285 0.258991 0.330548 0.346584 0.423547 0.536168 0.663879 0.539289 0.738781 0.862132 0.639154 0.694989 0.664224 0.593074 0.537949 0.463441 0.296563 0.213030 0.115409 -0.044168 -0.021951 0.056537 -0.098706 -0.059608 0.046529 0.053424 0.112636 0.218906 0.238737 0.308400 0.444669 0.439783 0.434151 0.480859 0.448071 0.330017 0.333210 0.241634 0.053896 0.062160 0.017217 -0.044155 -0.097490 -0.099266 -0.015649 -0.052018 0.071272 0.123385 0.120559 0.263818 0.231377 0.229830 0.288800 0.242409 0.233977 0.208950 0.167960 0.106009 0.097921 0.022209 0.003399 -0.120398 -0.054201 -0.000076 0.002149 0.021413 0.099083 0.086775 0.130165 0.196001 0.264906 0.183325 0.186868 0.113613 0.141795 0.029039 -0.026035 0.028483 -0.017993 0.011855 0.000043 0.042190 0.090244 0.060034 0.162750 0.105233 0.181631 0.075583 0.160726 0.103400 0.004606 -0.050106 -0.001031 -0.022120 -0.058716 -0.054524 0.066461 0.075908 0.002071 0.094165 0.070052 0.087701 0.158911 0.080897 0.076717 0.065236 -0.010337 0.037615 0.017719 0.026401 0.015713 0.008381 0.054862 0.078153 0.084399 0.045601 0.058676 0.035655 0.072480 0.005321 -0.004331 0.037554 0.024064 0.075790 0.046503 0.066232 0.073644 0.048684 0.028325 0.038703 0.007767 -0.039135 -0.024041 -0.019469 0.031460 0.046500 0.103302 0.001712 0.070623 0.047264 -0.013362 0.059505 0.005104 0.003971 0.031347 0.047925 0.030170 0.086481 0.044143 0.065323 0.072095 0.067223 0.064307 0.064564 0.081644 0.029689 -0.008449 0.045228 0.042429 0.044513 0.068383 0.087895 0.010313 0.059231 0.071822 0.004089 0.000039 -0.061104 -0.026088 0.108573 0.077584 0.044750 0.035141 -0.019548 0.049735 0.019499 -0.070855 0.050353 0.030312 0.061797 0.032465 0.011028 0.001467 0.074676 0.033160 0.027918 0.026402 -0.041233 0.065264 0.115650 0.003348 -0.010846 -0.004918 -0.003153 -0.037702 -0.020962 -0.056575 -0.008812 -0.091822 -0.021342 -0.036064 0.020326 -0.030958 -0.053998 0.029076 -0.082354 -0.056226 -0.078104 0.048999 0.009373 0.002914 -0.008081 0.071435 -0.022830 -0.071170 0.055954 -0.003933 0.009301 0.011802 0.202839 -0.020008 0.034571 -0.012130 -0.003030 -0.005031 -0.034514 -0.016578 -0.163419 0.019139 -0.035836 -0.014409 0.045497 0.006775 0.118032 -0.002841 -0.011746 -0.040374 -0.028213 -0.067640 0.053110 0.275813 0.158068 0.204445 0.240440 0.327909 0.359477 0.360764 0.031849 -1.046611
0.072396 0.072910 0.074452 0.077022 0.080619 0.085242 0.090890 0.097561 0.105253 0.113962 0.123686 0.134420 0.146158 0.158893 0.172618 0.187321 0.202993 0.219618 0.237181 0.255664 0.275046 0.295301 0.316402 0.338319 0.361014 0.384450 0.408582 0.433361 0.458732 0.484637 0.511010 0.537780 0.564869 0.592193 0.619663 0.647179 0.674639 0.701929 0.728932 0.755522 0.781565 0.806921 0.831445 0.854982 0.877373 0.898453 0.918052 0.935995 0.952103 0.966196 0.978088 0.987596 0.994537 0.998727 0.999989 0.998147 0.993035 0.984492 0.972370 0.956533 0.936858 0.913239 0.885591 0.853849 0.817970 0.777941 0.733773 0.685510 0.633230 0.577043 0.517098 0.453581 0.386719 0.316779 0.244070 0.168946 0.091798 0.013064 0.066779 0.147217 0.227695 0.307625 0.386389 0.463341 0.537813 0.609120 0.676568 0.739457 0.797093 0.848794 0.893897 0.931771 0.961823 0.983510 0.996350 0.999929 0.993912 0.978055 0.952213 0.916346 0.870533 0.814971 0.749989 0.676043 0.593726 0.503767 0.407026 0.304493 0.197283 0.086625 0.026146 0.139604 0.252251 0.362529 0.468848 0.569603 0.663203 0.748097 0.822799 0.885922 0.936204 0.972537 0.993994 0.999862 0.989658 0.963157 0.920410 0.861756 0.787833 0.699582 0.598248 0.485366 0.362752 0.232480 0.096852 0.041639 0.180344 0.316515 0.447349 0.570059 0.681921 0.780351 0.862959 0.927623 0.972546 0.996313 0.997947 0.976951 0.933346 0.867690 0.781095 0.675225 0.552274 0.414942 0.266382 0.110142 0.049917 0.209703 0.365004 0.511588 0.645333 0.762337 0.859047 0.932374 0.979803 0.999496 0.990373 0.952177 0.885518 0.791893 0.673674 0.534065 0.377046 0.207262 0.029913 0.149411 0.324888 0.490658 0.641021 0.770638 0.874734 0.949288 0.991204 0.998465 0.970240 0.906965 0.810375 0.683488 0.530541 0.356871 0.168752 0.026818 0.222361 0.410208 0.582792 0.732962 0.854302 0.941406 0.990157 0.997939 0.963805 0.888576 0.774868 0.627044 0.451072 0.254325 0.045287 0.166794 0.372300 0.561690 0.725939 0.856990 0.948172 0.994566 0.993303 0.943777 0.847745 0.709320 0.534837 0.332605 0.112546 0.114275 0.336189 0.541516 0.719195 0.859391 0.954071 0.997498 0.986620 0.921323 0.804527 0.642119 0.442701 0.217183 0.021784 0.260489 0.484946 0.681717 0.838728 0.946047 0.996550 0.986445 0.915599 0.787663 0.609940 0.393038 0.150277 0.103082 0.350785 0.576618 0.765484 0.904425 0.983575 0.996897 0.942711 0.823926 0.647966 0.426381 0.174142 0.091321 0.351306 0.587130 0.781512 0.919850 0.991371 0.990047 0.915153 0.771475 0.569085 0.322716 0.050752 0.226108 0.486400 0.709567 0.877599 0.976551 0.997755 0.938663 0.803208 0.601643 0.349862 0.068206 0.220119 0.490934 0.721120 0.890620 0.984240 0.993096 0.915536 0.757470 0.532022 0.258543 0.038983 0.333982 0.599673 0.811485 0.949398 0.999905 0.957420 0.825003 0.614267 0.344472 0.040852 0.267677 0.551244 0.781934 0.936564 0.999113 0.962462 0.829326 0.612202 0.332310 0.017629 0.299840 0.587290 0.814531 0.957199 0.999467 0.935913 0.772332 0.525358 0.220900 0.108481 0.426986 0.699466 0.895330 0.992063 0.977924 0.853501 0.631914 0.337577 0.003631 0.331703 0.629475 0.854547 0.979810 0.989567 0.881640 0.667914 0.373190 0.032452 0.313199 0.621461 0.854032 0.981434 0.986884 0.868656 0.640600 0.330700 0.022218 0.373254 0.677117 0.894001 0.994882 0.965561 0.808820 0.544386 0.206649 0.159710 0.505509 0.783686 0.955754 0.997257
1.000000 1.000000 1.000000 1.000000 1.000000 1.000000 1.000000 1.000000 1.000000 1.000000 1.000000 1.000000 1.000000 1.000000 1.000000 1.000000 1.000000 1.000000 1.000000 1.000000 1.000000 1.000000 1.000000 1.000000 1.000000 1.000000 1.000000 1.000000 1.000000 1.000000 1.000000 1.000000 1.000000 1.000000 1.000000 1.000000 1.000000 1.000000 1.000000 1.000000 1.000000 1.000000 1.000000 1.000000 1.000000 1.000000 1.000000 1.000000 1.000000 1.000000 1.000000 1.000000 0.919057 0.919057 0.905341 0.905341 0.905341 0.905341 0.905341 0.905341 0.905341 0.905341 0.905341 0.905341 0.905341 0.905341 0.905341 0.905341 0.905341 0.905341 0.905341 0.905341 0.905341 0.905341 0.905341 0.905341 0.905341 0.905341 0.905341 0.905341 0.905341 0.905341 0.905341 0.905341 0.905341 0.905341 0.905341 0.905341 0.905341 0.905341 0.905341 0.905341 0.905341 0.905341 0.905341 0.901183 0.906090 0.907979 0.906467 0.910003 0.910065 0.909355 0.909694 0.909355 0.909689 0.911082 0.921574 0.932579 0.943807 0.944327 0.949481 0.953866 0.956305 0.957160 0.958739 0.968775 0.967425 0.966937 0.967610 0.969027 0.971129 0.969878 0.969416 0.972597 0.973238 0.971663 0.969397 0.968796 0.968204 0.968311 0.967949 0.967833 0.967699 0.968209 0.968405 0.968547 0.968691 0.968746 0.969761 0.970913 0.973308 0.974292 0.974155 0.973099 0.971249 0.975277 0.976198 0.975950 0.975903 0.975441 0.975695 0.961181 0.956619 0.956529 0.953344 0.952220 0.949120 0.947775 0.946242 0.946587 0.945475 0.945217 0.941869 0.928052 0.914083 0.902854 0.923833 0.908316 0.896972 0.871830 0.872249 0.866336 0.866840 0.858626 0.852672 0.848236 0.845482 0.847042 0.844145 0.848249 0.845267 0.831448 0.834583 0.831610 0.801224 0.786477 0.768348 0.769721 0.766809 0.767969 0.767427 0.762364 0.770901 0.763625 0.761656 0.752988 0.732765 0.700062 0.686765 0.697533 0.707502 0.707047 0.703342 0.688104 0.654791 0.666777 0.687686 0.683022 0.685314 0.675956 0.668850 0.675622 0.677221 0.672284 0.665609 0.664596 0.664230 0.673044 0.677487 0.672477 0.663036 0.648253 0.636702 0.623418 0.639331 0.643918 0.613100 0.607330 0.598765 0.592347 0.579550 0.545826 0.545244 0.523456 0.511665 0.514607 0.517238 0.516434 0.526163 0.527135 0.506288 0.528735 0.539628 0.567117 0.544781 0.541425 0.542915 0.551863 0.535145 0.511779 0.504279 0.505199 0.518507 0.552849 0.594612 0.586054 0.575079 0.561766 0.574634 0.551163 0.559954 0.579015 0.557678 0.485264 0.442613 0.440404 0.405924 0.397044 0.387940 0.382712 0.394219 0.382935 0.376315 0.363019 0.351443 0.294543 0.257912 0.239141 0.215288 0.221735 0.234066 0.219194 0.219466 0.252016 0.298428 0.299623 0.291099 0.274933 0.277500 0.246863 0.261593 0.287966 0.245540 0.241062 0.233333 0.208112 0.195988 0.160149 0.184355 0.104835 0.087492 0.089878 0.105072 0.114357 0.111417 0.118034 0.091430 0.111873 0.104645 0.069115 0.055256 0.071346 0.061508 0.032340 0.041939 0.052774 0.038331 0.026657 0.046845 0.052403 0.063546 0.054030 0.053889 0.109337 0.141734 0.128982 0.129532 0.114082 0.120144 0.092110 0.081385 0.072520 0.063688 0.013247 -0.015113 -0.015113 -0.011992 -0.011992 -0.011992 -0.011992 -0.011992 -0.011992 -0.011992 -0.011992 -0.011992 -0.013036 -0.013036 -0.013036 -0.013036 -0.013036 -0.013036 -0.013036 -0.013036 -0.013036 0.011466 0.011466 0.011466 0.011466 0.011466 0.011466 0.011466 0.011466 0.011466
0.000000 0.000000 0.000000 0.000000 0.000000 0.000000 0.000000 0.000000 0.000000 0.000000 0.000000 0.000000 0.000000 0.000000 0.000000 0.000000 0.000000 0.000000 0.000000 0.000000 0.000000 0.000000 0.000000 0.000000 0.000000 0.000000 0.000000 0.000000 0.000000 0.000000 0.000000 0.000000 0.000000 0.000000 0.000000 0.000000 0.000000 0.000000 0.000000 0.000000 0.000000 0.000000 0.000000 0.000000 0.000000 0.000000 0.000000 0.000000 0.000000 0.000000 0.000000 0.000000 0.181818 0.181818 0.199007 0.199007 0.199007 0.199007 0.199007 0.199007 0.199007 0.199007 0.199007 0.199007 0.199007 0.199007 0.199007 0.199007 0.199007 0.199007 0.199007 0.199007 0.199007 0.199007 0.199007 0.199007 0.199007 0.199007 0.199007 0.199007 0.199007 0.199007 0.199007 0.199007 0.199007 0.199007 0.199007 0.199007 0.199007 0.199007 0.199007 0.199007 0.199007 0.199007 0.199007 0.230940 0.230940 0.230940 0.230940 0.230940 0.230940 0.230940 0.230940 0.230940 0.230940 0.230940 0.230940 0.230940 0.230940 0.230940 0.230940 0.230940 0.230940 0.230940 0.230940 0.230940 0.230940 0.230940 0.230940 0.230940 0.230940 0.230940 0.230940 0.244339 0.244339 0.244339 0.244339 0.244339 0.244339 0.244339 0.244339 0.244339 0.244339 0.244339 0.244339 0.244339 0.244339 0.244339 0.244339 0.244339 0.244339 0.244339 0.244339 0.244339 0.244339 0.244339 0.251976 0.251976 0.251976 0.251976 0.251976 0.251976 0.251976 0.251976 0.251976 0.251976 0.251976 0.251976 0.251976 0.251976 0.251976 0.251976 0.251976 0.251976 0.251976 0.251976 0.264906 0.264906 0.264906 0.264906 0.264906 0.264906 0.264906 0.264906 0.264906 0.264906 0.264906 0.264906 0.264906 0.264906 0.264906 0.264906 0.264906 0.264906 0.264906 0.264906 0.264906 0.264906 0.264906 0.264906 0.264906 0.264906 0.264906 0.264906 0.264906 0.264906 0.264906 0.264906 0.264906 0.264906 0.264906 0.264906 0.264906 0.264906 0.264906 0.264906 0.264906 0.264906 0.264906 0.264906 0.264906 0.264906 0.264906 0.264906 0.264906 0.264906 0.264906 0.264906 0.264906 0.264906 0.264906 0.264906 0.264906 0.264906 0.264906 0.264906 0.264906 0.264906 0.264906 0.264906 0.264906 0.264906 0.264906 0.264906 0.264906 0.264906 0.264906 0.264906 0.264906 0.264906 0.264906 0.269680 0.269680 0.269680 0.269680 0.269680 0.269680 0.269680 0.269680 0.269680 0.269680 0.269680 0.269680 0.264906 0.264906 0.264906 0.264906 0.264906 0.264906 0.264906 0.264906 0.264906 0.264906 0.264906 0.264906 0.269680 0.269680 0.269680 0.269680 0.269680 0.269680 0.269680 0.269680 0.269680 0.269680 0.269680 0.264906 0.264906 0.264906 0.264906 0.264906 0.264906 0.264906 0.264906 0.264906 0.264906 0.264906 0.256074 0.256074 0.256074 0.256074 0.256074 0.256074 0.256074 0.256074 0.256074 0.256074 0.256074 0.264906 0.264906 0.264906 0.264906 0.264906 0.264906 0.264906 0.264906 0.264906 0.264906 0.269680 0.269680 0.269680 0.269680 0.269680 0.269680 0.269680 0.269680 0.269680 0.256074 0.256074 0.256074 0.256074 0.256074 0.256074 0.256074 0.256074 0.256074 0.256074 0.260378 0.260378 0.260378 0.260378 0.260378 0.260378 0.260378 0.260378 0.260378 0.256074 0.256074 0.256074 0.256074 0.256074 0.256074 0.256074 0.256074 0.256074 0.251976 0.251976 0.251976 0.251976 0.251976 0.251976 0.251976 0.251976 0.251976 0.264906 0.264906 0.264906 0.264906 0.264906 0.264906 0.264906 0.264906 0.264906
