# Output from CTFFind version 4.1.9, run on 2019-11-01 13:34:02
# Input file: bm3d_stacked.mrc ; Number of micrographs: 1
# Pixel size: 1.500 Angstroms ; acceleration voltage: 300.0 keV ; spherical aberration: 0.00 mm ; amplitude contrast: 0.07
# Box size: 512 pixels ; min. res.: 30.0 Angstroms ; max. res.: 5.0 Angstroms ; min. def.: 5000.0 um; max. def. 50000.0 um; num. frames averaged: 50
# 6 lines per micrograph: #1 - spatial frequency (1/Angstroms); #2 - 1D rotational average of spectrum (assuming no astigmatism); #3 - 1D rotational average of spectrum; #4 - CTF fit; #5 - cross-correlation between spectrum and CTF fit; #6 - 2sigma of expected cross correlation of noise
0.000000 0.001302 0.002604 0.003906 0.005208 0.006510 0.007812 0.009115 0.010417 0.011719 0.013021 0.014323 0.015625 0.016927 0.018229 0.019531 0.020833 0.022135 0.023438 0.024740 0.026042 0.027344 0.028646 0.029948 0.031250 0.032552 0.033854 0.035156 0.036458 0.037760 0.039062 0.040365 0.041667 0.042969 0.044271 0.045573 0.046875 0.048177 0.049479 0.050781 0.052083 0.053385 0.054688 0.055990 0.057292 0.058594 0.059896 0.061198 0.062500 0.063802 0.065104 0.066406 0.067708 0.069010 0.070312 0.071615 0.072917 0.074219 0.075521 0.076823 0.078125 0.079427 0.080729 0.082031 0.083333 0.084635 0.085938 0.087240 0.088542 0.089844 0.091146 0.092448 0.093750 0.095052 0.096354 0.097656 0.098958 0.100260 0.101562 0.102865 0.104167 0.105469 0.106771 0.108073 0.109375 0.110677 0.111979 0.113281 0.114583 0.115885 0.117188 0.118490 0.119792 0.121094 0.122396 0.123698 0.125000 0.126302 0.127604 0.128906 0.130208 0.131510 0.132812 0.134115 0.135417 0.136719 0.138021 0.139323 0.140625 0.141927 0.143229 0.144531 0.145833 0.147135 0.148438 0.149740 0.151042 0.152344 0.153646 0.154948 0.156250 0.157552 0.158854 0.160156 0.161458 0.162760 0.164062 0.165365 0.166667 0.167969 0.169271 0.170573 0.171875 0.173177 0.174479 0.175781 0.177083 0.178385 0.179688 0.180990 0.182292 0.183594 0.184896 0.186198 0.187500 0.188802 0.190104 0.191406 0.192708 0.194010 0.195312 0.196615 0.197917 0.199219 0.200521 0.201823 0.203125 0.204427 0.205729 0.207031 0.208333 0.209635 0.210938 0.212240 0.213542 0.214844 0.216146 0.217448 0.218750 0.220052 0.221354 0.222656 0.223958 0.225260 0.226562 0.227865 0.229167 0.230469 0.231771 0.233073 0.234375 0.235677 0.236979 0.238281 0.239583 0.240885 0.242188 0.243490 0.244792 0.246094 0.247396 0.248698 0.250000 0.251302 0.252604 0.253906 0.255208 0.256510 0.257812 0.259115 0.260417 0.261719 0.263021 0.264323 0.265625 0.266927 0.268229 0.269531 0.270833 0.272135 0.273438 0.274740 0.276042 0.277344 0.278646 0.279948 0.281250 0.282552 0.283854 0.285156 0.286458 0.287760 0.289062 0.290365 0.291667 0.292969 0.294271 0.295573 0.296875 0.298177 0.299479 0.300781 0.302083 0.303385 0.304688 0.305990 0.307292 0.308594 0.309896 0.311198 0.312500 0.313802 0.315104 0.316406 0.317708 0.319010 0.320312 0.321615 0.322917 0.324219 0.325521 0.326823 0.328125 0.329427 0.330729 0.332031 0.333333 0.334635 0.335938 0.337240 0.338542 0.339844 0.341146 0.342448 0.343750 0.345052 0.346354 0.347656 0.348958 0.350260 0.351562 0.352865 0.354167 0.355469 0.356771 0.358073 0.359375 0.360677 0.361979 0.363281 0.364583 0.365885 0.367188 0.368490 0.369792 0.371094 0.372396 0.373698 0.375000 0.376302 0.377604 0.378906 0.380208 0.381510 0.382812 0.384115 0.385417 0.386719 0.388021 0.389323 0.390625 0.391927 0.393229 0.394531 0.395833 0.397135 0.398438 0.399740 0.401042 0.402344 0.403646 0.404948 0.406250 0.407552 0.408854 0.410156 0.411458 0.412760 0.414062 0.415365 0.416667 0.417969 0.419271 0.420573 0.421875 0.423177 0.424479 0.425781 0.427083 0.428385 0.429688 0.430990 0.432292 0.433594 0.434896 0.436198 0.437500 0.438802 0.440104 0.441406 0.442708 0.444010 0.445312 0.446615 0.447917 0.449219 0.450521 0.451823 0.453125 0.454427 0.455729 0.457031 0.458333 0.459635 0.460938 0.462240 0.463542 0.464844 0.466146 0.467448 0.468750 0.470052 0.471354
       0.02072        0.02072        0.02072        0.02072        0.02072        0.02072        0.02072        0.02072        0.02072        0.02072        0.02072        0.02072        0.02072        0.02072        0.02072        0.02072        0.02072        0.02072        0.02072        0.02072        0.02072        0.02072        0.02072        0.02072        0.02072        0.14245        0.70543        0.16092       -1.10244       -1.98495       -2.26570       -1.64811       -1.13609       -0.14355        0.24777        1.01985        1.64763        1.63166        1.81104        1.51022        0.93421        0.03706       -0.40177       -0.73740       -0.87919       -0.77633       -0.34714        0.05354        0.17648        0.30928        0.49756        0.60645        0.26136        0.04378       -0.13741       -0.33575       -0.43520       -0.19026       -0.20933       -0.08485       -0.00870       -0.10780       -0.02142        0.03352        0.09345       -0.02543       -0.07476       -0.17250       -0.26859       -0.36318       -0.32301       -0.25881       -0.19280       -0.36972       -0.28730       -0.47383       -0.39112       -0.38818       -0.33247       -0.36044       -0.32955       -0.27578       -0.20933       -0.19716       -0.05370       -0.12261       -0.02552        0.01327        0.13576        0.20908        0.23696        0.26820        0.30303        0.29714        0.41713        0.36902        0.37913        0.28819        0.25256        0.33277        0.20049        0.08655        0.04137       -0.02069       -0.11480       -0.08021       -0.09914       -0.24279       -0.26794       -0.34325       -0.34401       -0.29501       -0.33068       -0.24001       -0.21050       -0.08513       -0.02927        0.00419        0.08248        0.25807        0.23860        0.26897        0.36864        0.39227        0.32131        0.31551        0.30815        0.23181        0.23870        0.06254        0.00858       -0.07774       -0.16215       -0.26017       -0.19796       -0.22369       -0.25161       -0.23330       -0.13340       -0.12240       -0.01267        0.02955        0.08073        0.16494        0.25045        0.21512        0.22228        0.27204        0.21161        0.15369        0.16684        0.01442       -0.05525       -0.04931       -0.06440       -0.17111       -0.16753       -0.15540       -0.09359       -0.06286        0.00768        0.04483        0.05842        0.13577        0.12172        0.15210        0.13302        0.13886        0.11666        0.07938        0.06099        0.03462        0.00060       -0.02523       -0.09837       -0.10513       -0.08549       -0.03921       -0.04056        0.03376        0.05374        0.02849        0.08034        0.12660        0.11552        0.08994        0.09991        0.04402        0.01564       -0.01856       -0.04241       -0.02209       -0.04409       -0.02511       -0.01870        0.02038        0.02006        0.07972        0.06880        0.08311        0.07161        0.08699        0.05896        0.03231       -0.02762       -0.01271       -0.00529       -0.02895       -0.05462        0.00765        0.04700        0.02405        0.03944        0.04291        0.02418        0.07448        0.06186        0.02303        0.01743        0.00829        0.00968        0.00952        0.00528        0.00406       -0.01614        0.01570        0.03634        0.04940        0.01708        0.01227        0.01662        0.03391        0.00286       -0.01838        0.00485        0.01960        0.03263        0.00712        0.02051        0.03397        0.01249        0.00865        0.02945        0.01311       -0.00928       -0.01496       -0.02118        0.00034        0.01334        0.03549        0.02146        0.01528        0.02432        0.01518        0.00545       -0.00433       -0.00134        0.01146       -0.00012        0.01651        0.03395        0.00948        0.02899        0.02901        0.01504        0.01990        0.02305        0.02310        0.01708       -0.00960       -0.01326        0.02821       -0.00132        0.01388        0.02440        0.02223        0.03086        0.01235        0.02327        0.00344       -0.00773       -0.02225        0.00426        0.02463        0.02809        0.01048        0.01346        0.01324        0.01127       -0.00185        0.02117       -0.00179        0.00545        0.00513        0.00999       -0.00526        0.01454        0.02576        0.02710        0.01639       -0.00008        0.02195        0.06028        0.00444        0.02745        0.02599        0.00394        0.00803        0.00997        0.00838        0.00639       -0.01430        0.00917       -0.00549       -0.01059        0.00551       -0.00154        0.02025        0.00132       -0.01854       -0.01508        0.02096        0.03315        0.03076       -0.02033        0.00978       -0.01288       -0.01715        0.03140        0.01415        0.00449       -0.00727        0.03371        0.02214        0.01356        0.01416        0.00228       -0.01078        0.01352        0.00611       -0.01605        0.01963       -0.00604       -0.02809        0.00264       -0.02525        0.02265        0.02228        0.03125        0.01722       -0.02347        0.04592        0.06271       -0.00067        0.00112       -0.04025       -0.06569        0.00525        0.09055        0.05364       -0.08346       -0.25076       -0.41905
-0.055223 0.550186 0.551903 0.553581 0.555220 0.556819 0.558380 0.559900 0.561382 0.562824 0.564226 0.565589 0.566913 0.568198 0.569443 0.570649 0.571815 0.572942 0.574030 0.575078 0.576087 0.577056 0.577987 0.578878 0.579729 0.580541 2.061977 0.747534 -0.975372 -2.905963 -3.368482 -2.129912 -1.649031 0.317979 0.844669 1.997893 3.547763 3.364945 3.416908 3.340547 2.198773 0.648678 -0.037906 -0.591676 -1.014882 -0.829296 -0.121394 0.693854 0.808718 0.845854 1.353213 1.738546 0.966374 0.873165 0.337711 0.063881 -0.317607 0.313569 0.037720 0.471218 0.612479 0.248476 0.494386 0.639830 0.739603 0.550507 0.473915 0.282488 -0.012417 -0.014135 -0.038279 0.042768 0.342489 -0.105333 0.059719 -0.245429 -0.103248 -0.140348 -0.022976 -0.082299 -0.024377 0.050010 0.179153 0.131862 0.439612 0.298956 0.487207 0.445841 0.791852 0.790933 0.881192 0.968475 1.013123 0.973891 1.199658 1.096225 1.202761 0.992573 0.877621 1.083661 0.849327 0.725646 0.529594 0.520347 0.321561 0.296145 0.424395 0.093826 0.020633 -0.030478 -0.199922 0.083697 -0.171895 0.022421 0.140439 0.250560 0.364666 0.435139 0.555949 0.737103 0.917462 0.758617 1.091741 1.081417 0.967453 0.969107 0.942396 0.855369 0.776599 0.662757 0.446658 0.315031 0.182513 -0.010529 0.005887 0.127175 -0.082691 -0.018006 0.127145 0.173955 0.257998 0.419147 0.459580 0.559591 0.759485 0.775204 0.708844 0.730463 0.759635 0.607832 0.601249 0.495329 0.227889 0.245876 0.189160 0.090968 0.013364 0.016675 0.149663 0.094579 0.268088 0.341580 0.310848 0.483458 0.470906 0.469983 0.547271 0.465965 0.470341 0.416726 0.377323 0.286171 0.289230 0.185944 0.152576 0.003347 0.078429 0.156627 0.144799 0.184233 0.266187 0.246900 0.304670 0.367776 0.327092 0.339178 0.274934 0.203484 0.219786 0.121525 0.025722 0.091253 0.029894 0.054913 0.046305 0.086800 0.096959 0.159958 0.246127 0.155411 0.241947 0.178375 0.207686 0.151343 0.051420 -0.018969 0.052854 0.026875 -0.019058 -0.052948 0.097537 0.134253 0.040199 0.121199 0.073638 0.090446 0.182904 0.051945 0.039847 0.050651 0.002515 0.027577 0.000279 0.013840 0.002828 -0.030823 0.031026 0.054749 0.053132 -0.004884 0.033860 0.005611 0.051536 -0.007071 -0.030847 0.002545 0.025241 0.036755 0.000474 0.045643 0.023387 0.004419 -0.027260 0.026969 -0.040835 -0.026460 -0.038360 -0.087910 -0.027590 -0.008837 0.065136 -0.029888 0.004821 -0.008304 -0.006644 -0.021269 -0.035408 -0.030926 -0.020483 -0.026112 -0.004364 0.028714 -0.046014 0.039016 -0.000671 0.009536 -0.013539 -0.006274 0.039294 -0.037983 -0.077920 -0.031847 0.015538 -0.037875 -0.003858 0.004852 0.004216 0.026345 -0.004993 -0.023636 -0.023629 -0.085953 -0.059901 0.003974 0.000098 0.014135 -0.000925 -0.037883 0.001328 0.023398 -0.036353 0.063319 -0.042746 0.030793 0.000191 0.006925 -0.012762 0.020961 0.044160 0.067714 0.043731 -0.014005 0.090173 0.095671 -0.001815 0.071830 0.044472 0.026819 0.005955 0.015332 0.020430 0.027732 -0.074453 0.052415 -0.039494 -0.011666 0.005755 -0.022360 0.028479 -0.021478 -0.074388 -0.071845 -0.005622 0.015245 0.018466 -0.104219 0.015612 -0.099549 -0.088083 0.057616 -0.065767 -0.006056 -0.065199 0.042271 -0.029194 -0.041579 0.005936 -0.051674 -0.080035 0.015034 -0.047430 -0.099123 0.021392 -0.087003 -0.081635 -0.056461 -0.072216 0.054764 -0.047757 0.009111 -0.017079 -0.095994 0.017671 0.123388 -0.060178 -0.098584 -0.025737 -0.171199 0.050959 0.162022 0.113713 -0.138444 -0.700274
0.072396 0.072903 0.074424 0.076958 0.080505 0.085064 0.090634 0.097213 0.104799 0.113389 0.122979 0.133565 0.145142 0.157704 0.171241 0.185745 0.201205 0.217607 0.234937 0.253175 0.272303 0.292295 0.313127 0.334767 0.357181 0.380333 0.404178 0.428670 0.453758 0.479383 0.505484 0.531990 0.558829 0.585919 0.613173 0.640496 0.667789 0.694944 0.721845 0.748373 0.774397 0.799784 0.824391 0.848070 0.870667 0.892020 0.911967 0.930335 0.946952 0.961641 0.974222 0.984515 0.992340 0.997517 0.999871 0.999227 0.995421 0.988292 0.977689 0.963476 0.945525 0.923726 0.897987 0.868235 0.834419 0.796513 0.754516 0.708458 0.658398 0.604429 0.546680 0.485313 0.420533 0.352580 0.281738 0.208329 0.132718 0.055310 0.023448 0.103072 0.183040 0.262793 0.341743 0.419272 0.494737 0.567476 0.636814 0.702068 0.762554 0.817596 0.866532 0.908724 0.943566 0.970495 0.988999 0.998628 0.999001 0.989822 0.970880 0.942066 0.903379 0.854928 0.796947 0.729794 0.653954 0.570046 0.478818 0.381147 0.278036 0.170606 0.060088 0.052190 0.164812 0.276296 0.385108 0.489686 0.588458 0.679871 0.762417 0.834658 0.895253 0.942990 0.976811 0.995841 0.999411 0.987086 0.958679 0.914277 0.854246 0.779246 0.690231 0.588449 0.475429 0.352974 0.223135 0.088177 0.049440 0.187121 0.322167 0.451834 0.573392 0.684178 0.781664 0.863515 0.927655 0.972326 0.996140 0.998137 0.977822 0.935201 0.870807 0.785707 0.681507 0.560330 0.424792 0.277953 0.123262 0.035518 0.194399 0.349259 0.495953 0.630425 0.748824 0.847622 0.923730 0.974603 0.998341 0.993772 0.960514 0.899027 0.810628 0.697489 0.562607 0.409739 0.243316 0.068328 0.109815 0.285446 0.452818 0.606293 0.740542 0.850732 0.932724 0.983236 0.999995 0.981862 0.928910 0.842473 0.725141 0.580714 0.414100 0.231176 0.038593 0.156453 0.346481 0.524008 0.681859 0.813456 0.913112 0.976301 0.999883 0.982285 0.923627 0.825772 0.692310 0.528461 0.340895 0.137497 0.072952 0.281142 0.477640 0.653324 0.799813 0.909890 0.977879 0.999973 0.974476 0.901955 0.785286 0.629590 0.442043 0.231587 0.008525 0.215960 0.430360 0.623432 0.784800 0.905535 0.978678 0.999677 0.966712 0.880881 0.746224 0.569588 0.360330 0.129856 0.108975 0.342545 0.557253 0.740316 0.880551 0.969092 0.999993 0.970675 0.882181 0.739218 0.549968 0.325676 0.080025 0.171667 0.413386 0.629444 0.805499 0.929559 0.992825 0.990373 0.921599 0.790372 0.604894 0.377259 0.122711 0.141335 0.396462 0.624526 0.808974 0.936075 0.995991 0.983600 0.899005 0.747658 0.540094 0.291267 0.019534 0.254660 0.510310 0.727458 0.888786 0.981046 0.996209 0.932242 0.793422 0.590152 0.338261 0.057839 0.228313 0.496511 0.724165 0.891700 0.984300 0.993295 0.917049 0.761280 0.538736 0.268247 0.026805 0.320451 0.586410 0.800453 0.942654 0.999322 0.964397 0.840203 0.637418 0.374274 0.074995 0.232354 0.518485 0.755669 0.920473 0.996141 0.974399 0.856456 0.653113 0.383874 0.075207 0.242024 0.535583 0.775155 0.935525 0.999306 0.958940 0.817706 0.589603 0.298103 0.026172 0.348594 0.634208 0.851538 0.976129 0.993392 0.900445 0.706682 0.432969 0.109536 0.227286 0.539086 0.789768 0.949778 0.999691 0.932699 0.755673 0.488631 0.162615 0.183803 0.509038 0.773468 0.944326 0.999855 0.932225 0.748777 0.471426 0.134170 0.220932 0.548969 0.807858 0.963800 0.995816 0.898723 0.684127 0.379210 0.023462 0.336341 0.652241
1.000000 1.000000 1.000000 1.000000 1.000000 1.000000 1.000000 1.000000 1.000000 1.000000 1.000000 1.000000 1.000000 1.000000 1.000000 1.000000 1.000000 1.000000 1.000000 1.000000 1.000000 1.000000 1.000000 1.000000 1.000000 1.000000 0.351526 0.351526 0.351526 0.351526 0.351526 0.351526 0.351526 0.351526 0.351526 0.351526 0.351526 0.351526 0.351526 0.351526 0.351526 0.351526 0.351526 0.351526 0.351526 0.351526 0.351526 0.351526 0.351526 0.351526 0.351526 0.351526 0.351526 0.351526 0.351526 0.310031 0.310031 0.310031 0.310031 0.310031 0.310031 0.310031 0.310031 0.310031 0.310031 0.310031 0.310031 0.310031 0.310031 0.310031 0.310031 0.310031 0.310031 0.310031 0.310031 0.310031 0.306747 0.318217 0.317147 0.308258 0.302592 0.305895 0.308408 0.321020 0.326266 0.328472 0.346310 0.367726 0.380768 0.390340 0.396836 0.395491 0.404891 0.429906 0.476100 0.551595 0.908651 0.909973 0.906279 0.912610 0.913669 0.913991 0.914331 0.915107 0.916566 0.917109 0.921614 0.926616 0.931807 0.933536 0.948426 0.950606 0.961844 0.962568 0.962254 0.959182 0.973899 0.972843 0.972484 0.972341 0.973262 0.972202 0.971488 0.971639 0.974826 0.973453 0.971573 0.971164 0.969130 0.967651 0.965879 0.965433 0.965548 0.965809 0.965866 0.966257 0.966431 0.966418 0.964257 0.964345 0.966295 0.966625 0.967737 0.967284 0.960456 0.963528 0.961352 0.960792 0.959937 0.957484 0.957658 0.957949 0.958169 0.958065 0.958088 0.956151 0.949263 0.947726 0.941723 0.930269 0.931250 0.934341 0.936250 0.935019 0.932167 0.926396 0.921725 0.931500 0.923308 0.919736 0.920974 0.910323 0.911746 0.909037 0.908557 0.906293 0.896431 0.883971 0.882264 0.879825 0.882955 0.883714 0.883455 0.882163 0.850406 0.837995 0.839645 0.814391 0.797136 0.797195 0.793896 0.797331 0.806100 0.809274 0.811237 0.792409 0.779837 0.767230 0.766672 0.729954 0.727601 0.759101 0.722323 0.710774 0.696986 0.707563 0.707602 0.720785 0.714809 0.669440 0.629814 0.618770 0.600896 0.592704 0.581098 0.573841 0.559082 0.556321 0.556834 0.562060 0.546311 0.507847 0.451369 0.440776 0.441620 0.444202 0.435770 0.405462 0.374964 0.376036 0.357327 0.276940 0.271617 0.243667 0.238225 0.250524 0.253372 0.259606 0.267076 0.237290 0.216656 0.224243 0.175984 0.222992 0.194425 0.149450 0.162615 0.159349 0.154607 0.150832 0.145242 0.141546 0.132085 0.133378 0.142690 0.113542 0.092377 0.049546 0.078728 0.061483 0.078499 0.078202 0.047699 0.031148 0.028575 0.032342 0.065070 0.056373 0.049609 0.051559 0.067200 0.072314 0.102183 0.105100 0.077451 0.045935 0.004341 0.049649 0.027487 0.045947 0.028817 0.036031 0.047283 0.063480 0.078804 0.079454 0.115837 0.116651 0.102098 0.132277 0.097185 0.082114 0.112201 0.059052 0.010519 0.039749 0.034883 0.014794 -0.021339 -0.014157 -0.058468 -0.005461 -0.041217 -0.039753 -0.024755 -0.064329 -0.084057 -0.097594 -0.096272 -0.101090 -0.101879 -0.110502 -0.111209 -0.120525 -0.071062 -0.054760 -0.060953 -0.076456 -0.074846 -0.096873 -0.091343 -0.102255 -0.086802 -0.052716 -0.056183 -0.065137 -0.076250 -0.119146 -0.162540 -0.181661 -0.170207 -0.116232 -0.094347 -0.075472 -0.093823 -0.093823 -0.093823 -0.093823 -0.102539 -0.102539 -0.102539 -0.102539 -0.102539 -0.102539 -0.102539 -0.102539 -0.102539 -0.078280 -0.078280 -0.078280 -0.078280 -0.078280 -0.078280 -0.078280 -0.078280 -0.078280 -0.078280 -0.078280 -0.078280 -0.078280 -0.078280 -0.078280 -0.078280
0.000000 0.000000 0.000000 0.000000 0.000000 0.000000 0.000000 0.000000 0.000000 0.000000 0.000000 0.000000 0.000000 0.000000 0.000000 0.000000 0.000000 0.000000 0.000000 0.000000 0.000000 0.000000 0.000000 0.000000 2.000000 0.000000 0.180334 0.180334 0.180334 0.180334 0.180334 0.180334 0.180334 0.180334 0.180334 0.180334 0.180334 0.180334 0.180334 0.180334 0.180334 0.180334 0.180334 0.180334 0.180334 0.180334 0.180334 0.180334 0.180334 0.180334 0.180334 0.180334 0.180334 0.180334 0.180334 0.199007 0.199007 0.199007 0.199007 0.199007 0.199007 0.199007 0.199007 0.199007 0.199007 0.199007 0.199007 0.199007 0.199007 0.199007 0.199007 0.199007 0.199007 0.199007 0.199007 0.199007 0.199007 0.199007 0.199007 0.199007 0.199007 0.199007 0.199007 0.199007 0.199007 0.199007 0.199007 0.199007 0.199007 0.199007 0.199007 0.199007 0.199007 0.199007 0.199007 0.199007 0.230940 0.230940 0.230940 0.230940 0.230940 0.230940 0.230940 0.230940 0.230940 0.230940 0.230940 0.230940 0.230940 0.230940 0.230940 0.230940 0.230940 0.230940 0.230940 0.230940 0.230940 0.230940 0.230940 0.230940 0.230940 0.230940 0.230940 0.230940 0.244339 0.244339 0.244339 0.244339 0.244339 0.244339 0.244339 0.244339 0.244339 0.244339 0.244339 0.244339 0.244339 0.244339 0.244339 0.244339 0.244339 0.244339 0.244339 0.244339 0.244339 0.244339 0.244339 0.251976 0.251976 0.251976 0.251976 0.251976 0.251976 0.251976 0.251976 0.251976 0.251976 0.251976 0.251976 0.251976 0.251976 0.251976 0.251976 0.251976 0.251976 0.251976 0.251976 0.264906 0.264906 0.264906 0.264906 0.264906 0.264906 0.264906 0.264906 0.264906 0.264906 0.264906 0.264906 0.264906 0.264906 0.264906 0.264906 0.264906 0.256074 0.256074 0.256074 0.256074 0.256074 0.256074 0.256074 0.256074 0.256074 0.256074 0.256074 0.256074 0.256074 0.256074 0.256074 0.256074 0.256074 0.269680 0.269680 0.269680 0.269680 0.269680 0.269680 0.269680 0.269680 0.269680 0.269680 0.269680 0.269680 0.269680 0.269680 0.264906 0.264906 0.264906 0.264906 0.264906 0.264906 0.264906 0.264906 0.264906 0.264906 0.264906 0.264906 0.264906 0.264906 0.256074 0.256074 0.256074 0.256074 0.256074 0.256074 0.256074 0.256074 0.256074 0.256074 0.256074 0.256074 0.256074 0.256074 0.269680 0.269680 0.269680 0.269680 0.269680 0.269680 0.269680 0.269680 0.269680 0.269680 0.269680 0.269680 0.264906 0.264906 0.264906 0.264906 0.264906 0.264906 0.264906 0.264906 0.264906 0.264906 0.264906 0.264906 0.269680 0.269680 0.269680 0.269680 0.269680 0.269680 0.269680 0.269680 0.269680 0.269680 0.269680 0.264906 0.264906 0.264906 0.264906 0.264906 0.264906 0.264906 0.264906 0.264906 0.264906 0.264906 0.256074 0.256074 0.256074 0.256074 0.256074 0.256074 0.256074 0.256074 0.256074 0.256074 0.256074 0.264906 0.264906 0.264906 0.264906 0.264906 0.264906 0.264906 0.264906 0.264906 0.264906 0.260378 0.260378 0.260378 0.260378 0.260378 0.260378 0.260378 0.260378 0.260378 0.260378 0.264906 0.264906 0.264906 0.264906 0.264906 0.264906 0.264906 0.264906 0.264906 0.260378 0.260378 0.260378 0.260378 0.260378 0.260378 0.260378 0.260378 0.260378 0.256074 0.256074 0.256074 0.256074 0.256074 0.256074 0.256074 0.256074 0.256074 0.251976 0.251976 0.251976 0.251976 0.251976 0.251976 0.251976 0.251976 0.251976 0.251976 0.251976 0.251976 0.251976 0.251976 0.251976 0.251976
