# Output from CTFFind version 4.1.9, run on 2019-11-01 21:22:28
# Input file: bm3d_averaged_0.5_1.7_0.33_750_full.mrc ; Number of micrographs: 1
# Pixel size: 3.000 Angstroms ; acceleration voltage: 300.0 keV ; spherical aberration: 0.00 mm ; amplitude contrast: 0.07
# Box size: 512 pixels ; min. res.: 30.0 Angstroms ; max. res.: 5.0 Angstroms ; min. def.: 5000.0 um; max. def. 50000.0 um; num. frames averaged: 1
# 6 lines per micrograph: #1 - spatial frequency (1/Angstroms); #2 - 1D rotational average of spectrum (assuming no astigmatism); #3 - 1D rotational average of spectrum; #4 - CTF fit; #5 - cross-correlation between spectrum and CTF fit; #6 - 2sigma of expected cross correlation of noise
0.000000 0.000651 0.001302 0.001953 0.002604 0.003255 0.003906 0.004557 0.005208 0.005859 0.006510 0.007161 0.007812 0.008464 0.009115 0.009766 0.010417 0.011068 0.011719 0.012370 0.013021 0.013672 0.014323 0.014974 0.015625 0.016276 0.016927 0.017578 0.018229 0.018880 0.019531 0.020182 0.020833 0.021484 0.022135 0.022786 0.023438 0.024089 0.024740 0.025391 0.026042 0.026693 0.027344 0.027995 0.028646 0.029297 0.029948 0.030599 0.031250 0.031901 0.032552 0.033203 0.033854 0.034505 0.035156 0.035807 0.036458 0.037109 0.037760 0.038411 0.039062 0.039714 0.040365 0.041016 0.041667 0.042318 0.042969 0.043620 0.044271 0.044922 0.045573 0.046224 0.046875 0.047526 0.048177 0.048828 0.049479 0.050130 0.050781 0.051432 0.052083 0.052734 0.053385 0.054036 0.054688 0.055339 0.055990 0.056641 0.057292 0.057943 0.058594 0.059245 0.059896 0.060547 0.061198 0.061849 0.062500 0.063151 0.063802 0.064453 0.065104 0.065755 0.066406 0.067057 0.067708 0.068359 0.069010 0.069661 0.070312 0.070964 0.071615 0.072266 0.072917 0.073568 0.074219 0.074870 0.075521 0.076172 0.076823 0.077474 0.078125 0.078776 0.079427 0.080078 0.080729 0.081380 0.082031 0.082682 0.083333 0.083984 0.084635 0.085286 0.085938 0.086589 0.087240 0.087891 0.088542 0.089193 0.089844 0.090495 0.091146 0.091797 0.092448 0.093099 0.093750 0.094401 0.095052 0.095703 0.096354 0.097005 0.097656 0.098307 0.098958 0.099609 0.100260 0.100911 0.101562 0.102214 0.102865 0.103516 0.104167 0.104818 0.105469 0.106120 0.106771 0.107422 0.108073 0.108724 0.109375 0.110026 0.110677 0.111328 0.111979 0.112630 0.113281 0.113932 0.114583 0.115234 0.115885 0.116536 0.117188 0.117839 0.118490 0.119141 0.119792 0.120443 0.121094 0.121745 0.122396 0.123047 0.123698 0.124349 0.125000 0.125651 0.126302 0.126953 0.127604 0.128255 0.128906 0.129557 0.130208 0.130859 0.131510 0.132161 0.132812 0.133464 0.134115 0.134766 0.135417 0.136068 0.136719 0.137370 0.138021 0.138672 0.139323 0.139974 0.140625 0.141276 0.141927 0.142578 0.143229 0.143880 0.144531 0.145182 0.145833 0.146484 0.147135 0.147786 0.148438 0.149089 0.149740 0.150391 0.151042 0.151693 0.152344 0.152995 0.153646 0.154297 0.154948 0.155599 0.156250 0.156901 0.157552 0.158203 0.158854 0.159505 0.160156 0.160807 0.161458 0.162109 0.162760 0.163411 0.164062 0.164714 0.165365 0.166016 0.166667 0.167318 0.167969 0.168620 0.169271 0.169922 0.170573 0.171224 0.171875 0.172526 0.173177 0.173828 0.174479 0.175130 0.175781 0.176432 0.177083 0.177734 0.178385 0.179036 0.179688 0.180339 0.180990 0.181641 0.182292 0.182943 0.183594 0.184245 0.184896 0.185547 0.186198 0.186849 0.187500 0.188151 0.188802 0.189453 0.190104 0.190755 0.191406 0.192057 0.192708 0.193359 0.194010 0.194661 0.195312 0.195964 0.196615 0.197266 0.197917 0.198568 0.199219 0.199870 0.200521 0.201172 0.201823 0.202474 0.203125 0.203776 0.204427 0.205078 0.205729 0.206380 0.207031 0.207682 0.208333 0.208984 0.209635 0.210286 0.210938 0.211589 0.212240 0.212891 0.213542 0.214193 0.214844 0.215495 0.216146 0.216797 0.217448 0.218099 0.218750 0.219401 0.220052 0.220703 0.221354 0.222005 0.222656 0.223307 0.223958 0.224609 0.225260 0.225911 0.226562 0.227214 0.227865 0.228516 0.229167 0.229818 0.230469 0.231120 0.231771 0.232422 0.233073 0.233724 0.234375 0.235026 0.235677
       0.33188        0.33188        0.33188        0.33188        0.33188        0.33188        0.33188        0.33188        0.33188        0.33188        0.33188        0.33188        0.33188        0.33188        0.33188        0.33188        0.33188        0.33188        0.33188        0.33188        0.33188        0.33188        0.33188        0.33188        0.33188        0.33188        0.33188        0.33188        0.33188        0.33188        0.33188        0.33188        0.33188        0.33188        0.33188        0.33188        0.33188        0.33188        0.33188        0.33188        0.33188        0.33188        0.33188        0.33188        0.33188        0.33188        0.33188        0.33188        0.33188        0.33188        0.33188        0.50228        0.71916        0.42839        0.18901       -0.08105       -0.26203       -0.06939       -0.13467       -0.05342       -0.00370       -0.14859       -0.09249       -0.05458       -0.00544       -0.15318       -0.22268       -0.34796       -0.46228       -0.55725       -0.51701       -0.44731       -0.37185       -0.54702       -0.45215       -0.62230       -0.50411       -0.47507       -0.39011       -0.38703       -0.34026       -0.25238       -0.16202       -0.13763        0.03180       -0.01288        0.11755        0.16635        0.30498        0.41000        0.46250        0.49931        0.54107        0.54959        0.68922        0.64388        0.67508        0.59065        0.55533        0.65315        0.52695        0.42546        0.38111        0.32019        0.22743        0.26060        0.24937        0.10626        0.08127       -0.00080       -0.00624        0.03722       -0.00548        0.07313        0.10072        0.23134        0.28377        0.29951        0.37850        0.56147        0.53482        0.57762        0.66819        0.70146        0.62889        0.63448        0.63166        0.55595        0.57505        0.39927        0.34339        0.26449        0.18313        0.07152        0.14267        0.11831        0.09072        0.10529        0.20878        0.21386        0.31610        0.35965        0.41183        0.49087        0.58226        0.54118        0.55397        0.60635        0.53572        0.45939        0.48000        0.32477        0.24777        0.25820        0.24034        0.14026        0.14187        0.15081        0.21746        0.24300        0.32905        0.36497        0.39084        0.46796        0.44509        0.47963        0.45364        0.46639        0.44543        0.40668        0.38412        0.35096        0.31042        0.28759        0.20418        0.19361        0.21936        0.26901        0.26693        0.34930        0.37421        0.35627        0.41004        0.45131        0.44427        0.42414        0.44003        0.37449        0.33333        0.28211        0.26183        0.28990        0.26812        0.29246        0.29954        0.34663        0.34194        0.39379        0.40174        0.42618        0.40841        0.43085        0.40222        0.36228        0.28107        0.29074        0.30589        0.27008        0.25350        0.32362        0.36778        0.34127        0.35289        0.35826        0.35427        0.40811        0.40198        0.36128        0.33777        0.30709        0.30956        0.31679        0.31781        0.29981        0.28364        0.33526        0.35883        0.37730        0.33269        0.32985        0.33424        0.34403        0.30645        0.28268        0.30510        0.31278        0.33737        0.31814        0.32814        0.35750        0.32757        0.31140        0.32588        0.30076        0.26404        0.25174        0.26615        0.30714        0.32122        0.35152        0.30194        0.31147        0.33254        0.29263        0.31395        0.28399        0.28114        0.29092        0.29677        0.30769        0.34226        0.32781        0.33070        0.33686        0.31070        0.33349        0.31975        0.31884        0.30743        0.28128        0.29076        0.30888        0.29093        0.32451        0.33556        0.33456        0.32250        0.34016        0.31781        0.27825        0.25049        0.26775        0.32939        0.35497        0.34220        0.31344        0.29186        0.29774        0.31234        0.24865        0.29826        0.30648        0.33393        0.29813        0.31393        0.28534        0.33584        0.33898        0.34222        0.31763        0.29104        0.31576        0.39901        0.32756        0.31109        0.31014        0.28663        0.28265        0.29985        0.26714        0.31432        0.23642        0.27190        0.29523        0.31395        0.29402        0.26753        0.29563        0.23508        0.22160        0.26290        0.29972        0.30556        0.27058        0.28243        0.33155        0.25980        0.21760        0.30584        0.27342        0.25716        0.28374        0.39257        0.29365        0.28555        0.24558        0.25140        0.26853        0.24578        0.23481        0.17548        0.25933        0.23085        0.24559        0.31656        0.26601        0.35235        0.29180        0.23336        0.22110        0.21164        0.23517        0.31050        0.23183        0.13406        0.16760        0.23774        0.24807        0.30386        0.26795        0.02625       -0.44052       -0.91451
2.690409 2.661985 2.633713 2.605594 2.577627 2.549813 2.522151 2.494642 2.467285 2.440081 2.413029 2.386130 2.359383 2.332789 2.306348 2.280058 2.253922 2.227938 2.202106 2.176427 2.150900 2.125526 2.100305 2.075236 2.050319 2.025555 2.000944 1.976485 1.952178 1.928024 1.904023 1.880174 1.856478 1.832934 1.809542 1.786303 1.763217 1.740283 1.717502 1.694873 1.672396 1.650073 1.627901 1.605883 1.584016 1.562302 1.540741 1.519332 1.498076 1.476972 1.456021 1.526488 1.829150 1.512437 1.192243 0.939791 0.545196 0.910670 0.631998 0.874304 0.925418 0.588852 0.710534 0.776182 0.815704 0.629247 0.534943 0.346666 0.103627 0.081210 0.045219 0.085463 0.302059 -0.034855 0.079898 -0.135138 -0.012860 -0.017977 0.084632 0.057857 0.102196 0.175179 0.281071 0.249713 0.482019 0.396480 0.547397 0.524865 0.766892 0.788731 0.878301 0.922341 0.940276 0.943074 1.109132 0.940899 1.137152 0.944691 0.850674 1.014138 0.846589 0.756422 0.614023 0.593448 0.456500 0.413254 0.507644 0.264832 0.195545 0.156257 0.012948 0.209324 -0.004224 0.117725 0.181456 0.259980 0.332015 0.344653 0.422184 0.539884 0.660450 0.539782 0.736361 0.865118 0.637885 0.694442 0.665255 0.595243 0.536727 0.467323 0.296701 0.213175 0.115035 -0.042078 -0.022627 0.057710 -0.098329 -0.058736 0.049250 0.054199 0.110855 0.221782 0.238299 0.307294 0.432696 0.441452 0.437015 0.479024 0.443254 0.323210 0.333880 0.242090 0.048485 0.061882 0.018874 -0.051554 -0.098090 -0.102455 -0.015773 -0.056071 0.069428 0.123459 0.121184 0.261179 0.229082 0.245717 0.290348 0.243546 0.241292 0.210627 0.176005 0.108492 0.101464 0.027486 0.009751 -0.120468 -0.054584 -0.000800 0.004892 0.018014 0.098828 0.084272 0.134683 0.181436 0.252900 0.173514 0.185947 0.109727 0.139711 0.018697 -0.030546 0.019544 -0.020631 -0.001344 -0.005835 0.033819 0.079773 0.053809 0.150115 0.100576 0.161885 0.062956 0.146451 0.091623 -0.011988 -0.061802 -0.015424 -0.036887 -0.076171 -0.067949 0.048369 0.058224 -0.008062 0.047051 0.062315 0.072272 0.144440 0.068006 0.062640 0.044666 -0.027313 0.024553 0.003672 0.011548 0.002618 -0.010418 0.040271 0.062214 0.068595 0.029076 0.044614 0.018824 0.057498 -0.011443 -0.018939 0.019716 0.007095 0.061752 0.032171 0.039638 0.054004 0.041846 0.017011 0.027910 -0.004389 -0.046740 -0.031862 -0.027699 0.023316 0.040125 0.095233 -0.003935 0.047949 0.066016 -0.009266 0.062889 0.009895 0.011096 0.038440 0.052216 0.037376 0.094954 0.057928 0.072880 0.092549 0.059381 0.067739 0.066182 0.083107 0.031249 -0.005837 0.044376 0.038096 0.049821 0.065506 0.086167 0.012906 0.064574 0.071361 0.007180 0.008053 -0.067802 -0.027318 0.106945 0.073881 0.043274 0.038434 -0.025346 0.046817 0.021284 -0.065714 0.048009 0.038630 0.069269 0.031308 0.008178 0.004187 0.057770 0.040266 0.016405 0.034253 -0.036511 0.063161 0.119777 0.006105 -0.009757 0.001451 -0.007749 -0.035656 -0.019858 -0.054836 0.002476 -0.095182 -0.023852 -0.034232 0.022339 -0.035358 -0.066143 0.029428 -0.080413 -0.060714 -0.074201 0.047107 0.010116 -0.000934 -0.008941 0.077264 -0.027609 -0.066438 0.053391 -0.004432 0.017306 0.013568 0.197586 -0.015975 0.024034 0.003847 -0.002439 -0.000403 -0.020626 -0.014869 -0.146602 0.025058 -0.035828 0.003532 0.029473 -0.006637 0.139240 0.014874 -0.024924 -0.051640 -0.027992 -0.067094 0.075214 0.276744 0.158673 0.213759 0.230166 0.336328 0.334538 0.320357 0.033273 -1.070836
0.072396 0.072910 0.074452 0.077021 0.080617 0.085239 0.090885 0.097555 0.105245 0.113952 0.123674 0.134405 0.146140 0.158873 0.172594 0.187294 0.202962 0.219583 0.237142 0.255621 0.274998 0.295249 0.316345 0.338257 0.360948 0.384379 0.408505 0.433279 0.458646 0.484546 0.510914 0.537679 0.564764 0.592085 0.619550 0.647064 0.674520 0.701808 0.728810 0.755398 0.781441 0.806798 0.831323 0.854863 0.877258 0.898343 0.917948 0.935899 0.952016 0.966119 0.978023 0.987546 0.994502 0.998710 0.999991 0.998170 0.993080 0.984563 0.972468 0.956659 0.937014 0.913427 0.885813 0.854105 0.818262 0.778270 0.734139 0.685915 0.633673 0.577525 0.517617 0.454138 0.387311 0.317405 0.244728 0.169633 0.092511 0.013799 0.066027 0.146452 0.226922 0.306851 0.385620 0.462584 0.537076 0.608410 0.675893 0.738825 0.796513 0.848275 0.893447 0.931397 0.961535 0.983316 0.996256 0.999941 0.994037 0.978297 0.952576 0.916832 0.871142 0.815703 0.750841 0.677011 0.594804 0.504947 0.408297 0.305844 0.198699 0.088092 0.024646 0.138092 0.250746 0.361054 0.467425 0.568255 0.661954 0.746970 0.821817 0.885107 0.935575 0.972113 0.993791 0.999891 0.989929 0.963676 0.921177 0.862768 0.789081 0.701054 0.599925 0.487224 0.364763 0.234612 0.099066 0.039382 0.178090 0.314307 0.445238 0.568090 0.680143 0.778808 0.861694 0.926674 0.971945 0.996086 0.998112 0.977519 0.934316 0.869054 0.782833 0.677306 0.554658 0.417580 0.269214 0.113100 0.046905 0.206716 0.362122 0.508894 0.642906 0.760254 0.857378 0.931178 0.979131 0.999384 0.990840 0.953227 0.887138 0.794050 0.676316 0.537125 0.380439 0.210889 0.033662 0.145658 0.321256 0.487272 0.638004 0.768102 0.872781 0.948003 0.990653 0.998687 0.971247 0.908743 0.812879 0.686645 0.534248 0.361003 0.173159 0.022299 0.217905 0.405994 0.578994 0.729749 0.851818 0.939773 0.989466 0.998242 0.965114 0.890861 0.778054 0.631013 0.455668 0.259357 0.050539 0.161556 0.367319 0.557204 0.722168 0.854134 0.946387 0.993965 0.993943 0.945655 0.850798 0.713421 0.539803 0.338204 0.118504 0.108261 0.330431 0.536325 0.714861 0.856166 0.952156 0.997026 0.987649 0.923830 0.808403 0.647175 0.448672 0.223744 0.014999 0.253876 0.478900 0.676609 0.834885 0.943730 0.995932 0.987600 0.918494 0.792149 0.615770 0.399865 0.157688 0.095558 0.343638 0.570324 0.760476 0.901066 0.982124 0.997490 0.945348 0.828465 0.654131 0.433772 0.182261 0.083041 0.343451 0.580279 0.776179 0.916453 0.990202 0.991234 0.918652 0.777064 0.576380 0.331192 0.059771 0.217233 0.478371 0.703029 0.873101 0.974491 0.998343 0.941899 0.808875 0.609321 0.358948 0.077964 0.210493 0.482263 0.714160 0.885997 0.982397 0.994241 0.919621 0.764186 0.540817 0.268663 0.028422 0.323935 0.591066 0.805136 0.945933 0.999694 0.960539 0.831215 0.623031 0.354990 0.052142 0.256699 0.541654 0.774696 0.932436 0.998553 0.965585 0.835880 0.621572 0.343590 0.029688 0.288235 0.577360 0.807338 0.953546 0.999796 0.940254 0.780282 0.536111 0.233334 0.095700 0.415260 0.690110 0.889424 0.990322 0.980606 0.860372 0.642252 0.350250 0.017207 0.318785 0.618740 0.847285 0.976935 0.991486 0.888193 0.678382 0.386363 0.046765 0.299483 0.610042 0.846357 0.978516 0.989158 0.875910 0.651987 0.344825 0.007125 0.359130 0.665805 0.887016 0.993204 0.969484 0.817900 0.557495 0.222075 0.144010 0.491661 0.773610 0.950879 0.998328
1.000000 1.000000 1.000000 1.000000 1.000000 1.000000 1.000000 1.000000 1.000000 1.000000 1.000000 1.000000 1.000000 1.000000 1.000000 1.000000 1.000000 1.000000 1.000000 1.000000 1.000000 1.000000 1.000000 1.000000 1.000000 1.000000 1.000000 1.000000 1.000000 1.000000 1.000000 1.000000 1.000000 1.000000 1.000000 1.000000 1.000000 1.000000 1.000000 1.000000 1.000000 1.000000 1.000000 1.000000 1.000000 1.000000 1.000000 1.000000 1.000000 1.000000 1.000000 1.000000 0.920900 0.920900 0.907917 0.907917 0.907917 0.907917 0.907917 0.907917 0.907917 0.907917 0.907917 0.907917 0.907917 0.907917 0.907917 0.907917 0.907917 0.907917 0.907917 0.907917 0.907917 0.907917 0.907917 0.907917 0.907917 0.907917 0.907917 0.907917 0.907917 0.907917 0.907917 0.907917 0.907917 0.907917 0.907917 0.907917 0.907917 0.907917 0.907917 0.907917 0.907917 0.907917 0.907917 0.904895 0.909610 0.911422 0.909799 0.913296 0.913365 0.912683 0.913060 0.912727 0.913042 0.914394 0.924876 0.935880 0.947128 0.947216 0.952331 0.956730 0.959186 0.960147 0.961829 0.968389 0.967079 0.966574 0.967262 0.968731 0.970875 0.969570 0.969187 0.972349 0.973017 0.971386 0.969187 0.968581 0.967981 0.968080 0.967703 0.967591 0.967467 0.967973 0.968189 0.967878 0.968022 0.968071 0.969090 0.970247 0.972609 0.973602 0.973444 0.972335 0.970401 0.974426 0.975288 0.975013 0.974951 0.974473 0.974746 0.962495 0.957156 0.957076 0.953836 0.952978 0.950250 0.948592 0.946499 0.946714 0.945809 0.945864 0.941836 0.928413 0.914554 0.903377 0.924402 0.909037 0.897671 0.873599 0.874202 0.870879 0.871415 0.864225 0.857884 0.853109 0.850329 0.851799 0.848236 0.851878 0.848948 0.836359 0.839267 0.836301 0.808674 0.790872 0.775473 0.776364 0.773647 0.774804 0.774265 0.770954 0.779309 0.771017 0.769268 0.761019 0.741706 0.707872 0.694234 0.704586 0.714194 0.712743 0.708989 0.693774 0.661239 0.673715 0.694331 0.691926 0.694535 0.685089 0.678030 0.679036 0.680196 0.676211 0.668890 0.667938 0.667114 0.676370 0.680620 0.676165 0.666080 0.651034 0.638762 0.625512 0.638328 0.648637 0.616271 0.610374 0.598697 0.591911 0.578050 0.547384 0.547418 0.524126 0.514055 0.518242 0.521642 0.512792 0.520236 0.521649 0.506584 0.527700 0.536541 0.563000 0.547107 0.546275 0.547986 0.554574 0.539765 0.523898 0.519789 0.520670 0.532491 0.561587 0.603066 0.589412 0.576653 0.564119 0.576533 0.544967 0.553311 0.574616 0.551959 0.483517 0.432681 0.431077 0.390627 0.388076 0.377836 0.368698 0.372286 0.363178 0.352050 0.338545 0.326374 0.270456 0.229818 0.212171 0.191382 0.196878 0.210770 0.203648 0.192230 0.215831 0.263405 0.264300 0.255798 0.232357 0.238057 0.209438 0.222718 0.249130 0.203948 0.195940 0.186886 0.159412 0.160113 0.125235 0.145981 0.065239 0.041432 0.039558 0.055364 0.067176 0.063296 0.065633 0.036764 0.058001 0.054724 0.027427 0.017486 0.034719 0.020892 -0.010724 0.001855 0.016792 0.005788 -0.019631 0.001568 0.020739 0.036028 0.027627 0.024335 0.080638 0.110579 0.097980 0.099393 0.092407 0.102502 0.081164 0.074659 0.060667 0.049952 0.002035 -0.027312 -0.027312 -0.022283 -0.022283 -0.022283 -0.022283 -0.022283 -0.022283 -0.022283 -0.022283 -0.022283 -0.025818 -0.025818 -0.025818 -0.025818 -0.025818 -0.025818 -0.025818 -0.025818 -0.025818 0.000010 0.000010 0.000010 0.000010 0.000010 0.000010 0.000010 0.000010 0.000010
0.000000 0.000000 0.000000 0.000000 0.000000 0.000000 0.000000 0.000000 0.000000 0.000000 0.000000 0.000000 0.000000 0.000000 0.000000 0.000000 0.000000 0.000000 0.000000 0.000000 0.000000 0.000000 0.000000 0.000000 0.000000 0.000000 0.000000 0.000000 0.000000 0.000000 0.000000 0.000000 0.000000 0.000000 0.000000 0.000000 0.000000 0.000000 0.000000 0.000000 0.000000 0.000000 0.000000 0.000000 0.000000 0.000000 0.000000 0.000000 0.000000 0.000000 0.000000 0.000000 0.181818 0.181818 0.199007 0.199007 0.199007 0.199007 0.199007 0.199007 0.199007 0.199007 0.199007 0.199007 0.199007 0.199007 0.199007 0.199007 0.199007 0.199007 0.199007 0.199007 0.199007 0.199007 0.199007 0.199007 0.199007 0.199007 0.199007 0.199007 0.199007 0.199007 0.199007 0.199007 0.199007 0.199007 0.199007 0.199007 0.199007 0.199007 0.199007 0.199007 0.199007 0.199007 0.199007 0.230940 0.230940 0.230940 0.230940 0.230940 0.230940 0.230940 0.230940 0.230940 0.230940 0.230940 0.230940 0.230940 0.230940 0.230940 0.230940 0.230940 0.230940 0.230940 0.230940 0.230940 0.230940 0.230940 0.230940 0.230940 0.230940 0.230940 0.230940 0.244339 0.244339 0.244339 0.244339 0.244339 0.244339 0.244339 0.244339 0.244339 0.244339 0.244339 0.244339 0.244339 0.244339 0.244339 0.244339 0.244339 0.244339 0.244339 0.244339 0.244339 0.244339 0.244339 0.251976 0.251976 0.251976 0.251976 0.251976 0.251976 0.251976 0.251976 0.251976 0.251976 0.251976 0.251976 0.251976 0.251976 0.251976 0.251976 0.251976 0.251976 0.251976 0.251976 0.264906 0.264906 0.264906 0.264906 0.264906 0.264906 0.264906 0.264906 0.264906 0.264906 0.264906 0.264906 0.264906 0.264906 0.264906 0.264906 0.264906 0.264906 0.264906 0.264906 0.264906 0.264906 0.264906 0.264906 0.264906 0.264906 0.264906 0.264906 0.264906 0.264906 0.264906 0.264906 0.264906 0.264906 0.264906 0.264906 0.264906 0.264906 0.264906 0.264906 0.264906 0.264906 0.264906 0.264906 0.264906 0.264906 0.264906 0.264906 0.264906 0.264906 0.264906 0.264906 0.264906 0.264906 0.264906 0.264906 0.264906 0.264906 0.264906 0.264906 0.264906 0.264906 0.264906 0.264906 0.264906 0.264906 0.264906 0.264906 0.264906 0.264906 0.264906 0.264906 0.264906 0.264906 0.264906 0.269680 0.269680 0.269680 0.269680 0.269680 0.269680 0.269680 0.269680 0.269680 0.269680 0.269680 0.269680 0.264906 0.264906 0.264906 0.264906 0.264906 0.264906 0.264906 0.264906 0.264906 0.264906 0.264906 0.264906 0.269680 0.269680 0.269680 0.269680 0.269680 0.269680 0.269680 0.269680 0.269680 0.269680 0.269680 0.264906 0.264906 0.264906 0.264906 0.264906 0.264906 0.264906 0.264906 0.264906 0.264906 0.264906 0.256074 0.256074 0.256074 0.256074 0.256074 0.256074 0.256074 0.256074 0.256074 0.256074 0.256074 0.264906 0.264906 0.264906 0.264906 0.264906 0.264906 0.264906 0.264906 0.264906 0.264906 0.269680 0.269680 0.269680 0.269680 0.269680 0.269680 0.269680 0.269680 0.269680 0.256074 0.256074 0.256074 0.256074 0.256074 0.256074 0.256074 0.256074 0.256074 0.256074 0.260378 0.260378 0.260378 0.260378 0.260378 0.260378 0.260378 0.260378 0.260378 0.256074 0.256074 0.256074 0.256074 0.256074 0.256074 0.256074 0.256074 0.256074 0.251976 0.251976 0.251976 0.251976 0.251976 0.251976 0.251976 0.251976 0.251976 0.264906 0.264906 0.264906 0.264906 0.264906 0.264906 0.264906 0.264906 0.264906
