# Output from CTFFind version 4.1.9, run on 2019-10-31 15:17:59
# Input file: bm3d_stacked2.mrc ; Number of micrographs: 1
# Pixel size: 1.500 Angstroms ; acceleration voltage: 300.0 keV ; spherical aberration: 0.00 mm ; amplitude contrast: 0.07
# Box size: 512 pixels ; min. res.: 30.0 Angstroms ; max. res.: 5.0 Angstroms ; min. def.: 5000.0 um; max. def. 50000.0 um; num. frames averaged: 50
# 6 lines per micrograph: #1 - spatial frequency (1/Angstroms); #2 - 1D rotational average of spectrum (assuming no astigmatism); #3 - 1D rotational average of spectrum; #4 - CTF fit; #5 - cross-correlation between spectrum and CTF fit; #6 - 2sigma of expected cross correlation of noise
0.000000 0.001302 0.002604 0.003906 0.005208 0.006510 0.007812 0.009115 0.010417 0.011719 0.013021 0.014323 0.015625 0.016927 0.018229 0.019531 0.020833 0.022135 0.023438 0.024740 0.026042 0.027344 0.028646 0.029948 0.031250 0.032552 0.033854 0.035156 0.036458 0.037760 0.039062 0.040365 0.041667 0.042969 0.044271 0.045573 0.046875 0.048177 0.049479 0.050781 0.052083 0.053385 0.054688 0.055990 0.057292 0.058594 0.059896 0.061198 0.062500 0.063802 0.065104 0.066406 0.067708 0.069010 0.070312 0.071615 0.072917 0.074219 0.075521 0.076823 0.078125 0.079427 0.080729 0.082031 0.083333 0.084635 0.085938 0.087240 0.088542 0.089844 0.091146 0.092448 0.093750 0.095052 0.096354 0.097656 0.098958 0.100260 0.101562 0.102865 0.104167 0.105469 0.106771 0.108073 0.109375 0.110677 0.111979 0.113281 0.114583 0.115885 0.117188 0.118490 0.119792 0.121094 0.122396 0.123698 0.125000 0.126302 0.127604 0.128906 0.130208 0.131510 0.132812 0.134115 0.135417 0.136719 0.138021 0.139323 0.140625 0.141927 0.143229 0.144531 0.145833 0.147135 0.148438 0.149740 0.151042 0.152344 0.153646 0.154948 0.156250 0.157552 0.158854 0.160156 0.161458 0.162760 0.164062 0.165365 0.166667 0.167969 0.169271 0.170573 0.171875 0.173177 0.174479 0.175781 0.177083 0.178385 0.179688 0.180990 0.182292 0.183594 0.184896 0.186198 0.187500 0.188802 0.190104 0.191406 0.192708 0.194010 0.195312 0.196615 0.197917 0.199219 0.200521 0.201823 0.203125 0.204427 0.205729 0.207031 0.208333 0.209635 0.210938 0.212240 0.213542 0.214844 0.216146 0.217448 0.218750 0.220052 0.221354 0.222656 0.223958 0.225260 0.226562 0.227865 0.229167 0.230469 0.231771 0.233073 0.234375 0.235677 0.236979 0.238281 0.239583 0.240885 0.242188 0.243490 0.244792 0.246094 0.247396 0.248698 0.250000 0.251302 0.252604 0.253906 0.255208 0.256510 0.257812 0.259115 0.260417 0.261719 0.263021 0.264323 0.265625 0.266927 0.268229 0.269531 0.270833 0.272135 0.273438 0.274740 0.276042 0.277344 0.278646 0.279948 0.281250 0.282552 0.283854 0.285156 0.286458 0.287760 0.289062 0.290365 0.291667 0.292969 0.294271 0.295573 0.296875 0.298177 0.299479 0.300781 0.302083 0.303385 0.304688 0.305990 0.307292 0.308594 0.309896 0.311198 0.312500 0.313802 0.315104 0.316406 0.317708 0.319010 0.320312 0.321615 0.322917 0.324219 0.325521 0.326823 0.328125 0.329427 0.330729 0.332031 0.333333 0.334635 0.335938 0.337240 0.338542 0.339844 0.341146 0.342448 0.343750 0.345052 0.346354 0.347656 0.348958 0.350260 0.351562 0.352865 0.354167 0.355469 0.356771 0.358073 0.359375 0.360677 0.361979 0.363281 0.364583 0.365885 0.367188 0.368490 0.369792 0.371094 0.372396 0.373698 0.375000 0.376302 0.377604 0.378906 0.380208 0.381510 0.382812 0.384115 0.385417 0.386719 0.388021 0.389323 0.390625 0.391927 0.393229 0.394531 0.395833 0.397135 0.398438 0.399740 0.401042 0.402344 0.403646 0.404948 0.406250 0.407552 0.408854 0.410156 0.411458 0.412760 0.414062 0.415365 0.416667 0.417969 0.419271 0.420573 0.421875 0.423177 0.424479 0.425781 0.427083 0.428385 0.429688 0.430990 0.432292 0.433594 0.434896 0.436198 0.437500 0.438802 0.440104 0.441406 0.442708 0.444010 0.445312 0.446615 0.447917 0.449219 0.450521 0.451823 0.453125 0.454427 0.455729 0.457031 0.458333 0.459635 0.460938 0.462240 0.463542 0.464844 0.466146 0.467448 0.468750 0.470052 0.471354
       0.02707        0.02707        0.02707        0.02707        0.02707        0.02707        0.02707        0.02707        0.02707        0.02707        0.02707        0.02707        0.02707        0.02707        0.02707        0.02707        0.02707        0.02707        0.02707        0.02707        0.02707        0.02707        0.02707        0.02707        0.02707        0.14880        0.71232        0.17225       -1.08313       -1.96310       -2.24777       -1.63939       -1.11376       -0.12997        0.24924        1.02568        1.65368        1.63740        1.81429        1.50741        0.93662        0.04219       -0.39189       -0.73640       -0.87319       -0.76758       -0.33829        0.05765        0.17390        0.31943        0.49656        0.60189        0.26304        0.04797       -0.13196       -0.32618       -0.43993       -0.19533       -0.19824       -0.07120        0.00187       -0.09803       -0.00843        0.03625        0.10586       -0.01198       -0.06194       -0.16719       -0.25946       -0.35770       -0.31620       -0.24737       -0.18817       -0.34774       -0.27021       -0.46567       -0.38759       -0.38720       -0.33397       -0.34580       -0.33092       -0.26705       -0.18935       -0.18337       -0.04837       -0.11410       -0.01601        0.03307        0.14084        0.20725        0.24348        0.26520        0.30159        0.29962        0.42145        0.37011        0.38922        0.29244        0.25640        0.32540        0.18937        0.08762        0.04142       -0.01065       -0.10731       -0.07095       -0.08300       -0.23705       -0.24968       -0.33805       -0.33344       -0.27625       -0.31704       -0.22585       -0.20445       -0.07758       -0.03332        0.02517        0.09540        0.25931        0.23646        0.28823        0.37103        0.39132        0.32202        0.33430        0.30857        0.23258        0.24401        0.05298        0.01277       -0.05749       -0.16642       -0.24901       -0.18893       -0.21620       -0.25702       -0.24012       -0.12521       -0.11173       -0.01949        0.03508        0.09429        0.18276        0.26443        0.22331        0.22942        0.27527        0.23559        0.15872        0.15792        0.02902       -0.04180       -0.04367       -0.05581       -0.14798       -0.13870       -0.13167       -0.08693       -0.06322        0.00694        0.04550        0.06869        0.13214        0.12068        0.15597        0.12697        0.14181        0.11756        0.08596        0.06720        0.03589       -0.00813       -0.02092       -0.08792       -0.09617       -0.07875       -0.04043       -0.02794        0.04723        0.05686        0.03172        0.08498        0.14278        0.12729        0.08749        0.09968        0.04898        0.02334       -0.00146       -0.03441       -0.01151       -0.03505       -0.00154       -0.00061        0.03249        0.02894        0.08007        0.07644        0.08285        0.07232        0.08531        0.05750        0.02903       -0.01960       -0.00650        0.00409       -0.02105       -0.04428        0.02113        0.04791        0.03085        0.03839        0.04533        0.03061        0.07175        0.06324        0.02985        0.02726        0.02249        0.01444        0.01632        0.01457        0.01043       -0.01086        0.01960        0.04106        0.05527        0.02627        0.01575        0.01570        0.03628        0.00643       -0.01142        0.01186        0.02484        0.04174        0.01981        0.02736        0.04282        0.01823        0.01608        0.03648        0.01972        0.00140       -0.00918       -0.01417        0.00169        0.02268        0.03377        0.02233        0.02261        0.03706        0.01793        0.00794        0.00152        0.00620        0.01761        0.00787        0.01643        0.04160        0.02046        0.03769        0.03713        0.02865        0.02830        0.02130        0.02380        0.02173       -0.00524       -0.00369        0.04755        0.00956        0.02289        0.03663        0.02748        0.02868        0.01336        0.02824        0.00454        0.00326       -0.00847        0.01259        0.03061        0.03181        0.00773        0.01604        0.01859        0.01384        0.00061        0.02653        0.00068        0.01270        0.01119        0.02266        0.00479        0.02257        0.02260        0.03304        0.02227        0.01721        0.03509        0.06392        0.00154        0.02725        0.03232        0.00534        0.01725        0.01954        0.01323        0.00712       -0.00681        0.02022       -0.00020        0.00124        0.01804        0.00626        0.01929        0.01545       -0.00239       -0.01002        0.02251        0.03003        0.04300       -0.01251        0.01253       -0.00396        0.00167        0.04144        0.02882        0.01208        0.00068        0.03971        0.03520        0.00933        0.01146        0.00787        0.00885        0.02083        0.00631       -0.00674        0.02546       -0.00595       -0.02364        0.00560       -0.02208        0.02648        0.03750        0.03901        0.03472        0.00179        0.05177        0.05407        0.00445       -0.00191       -0.04582       -0.06257        0.01338        0.12339        0.03843       -0.05266       -0.20939       -0.42235
-0.067294 0.620656 0.621237 0.621788 0.622307 0.622794 0.623250 0.623675 0.624069 0.624431 0.624762 0.625061 0.625330 0.625566 0.625772 0.625946 0.626089 0.626200 0.626280 0.626329 0.626346 0.626332 0.626287 0.626210 0.626102 0.625963 2.116885 0.803174 -0.925313 -2.860527 -3.333211 -2.110453 -1.589262 0.358762 0.878761 2.046291 3.601502 3.418098 3.465661 3.376232 2.240203 0.669527 0.001696 -0.581344 -1.001320 -0.801616 -0.105720 0.731955 0.818895 0.868655 1.376336 1.753844 0.976714 0.895519 0.355783 0.087095 -0.323014 0.311103 0.052903 0.502039 0.634178 0.273826 0.520237 0.651609 0.764491 0.578461 0.500268 0.280245 0.013397 -0.005609 -0.044222 0.068306 0.341912 -0.076340 0.091686 -0.245519 -0.112804 -0.144681 -0.030597 -0.063283 -0.037048 0.051423 0.198029 0.155341 0.437650 0.303703 0.501956 0.459135 0.792453 0.796716 0.875354 0.953170 1.008841 0.969086 1.202423 1.082439 1.216378 0.989118 0.874736 1.063642 0.825022 0.708660 0.507386 0.509008 0.329595 0.296499 0.432966 0.082578 0.038521 -0.051393 -0.204071 0.108549 -0.175981 0.024891 0.142370 0.232756 0.341596 0.443631 0.566424 0.721651 0.899724 0.767230 1.088266 1.068413 0.941008 0.994090 0.929663 0.835015 0.780302 0.619335 0.420692 0.341833 0.155141 -0.044617 0.026920 0.105338 -0.104185 -0.059889 0.109414 0.160816 0.246710 0.396402 0.455119 0.563341 0.766821 0.789080 0.696740 0.710939 0.764124 0.622458 0.555769 0.470510 0.249694 0.219623 0.178771 0.091804 0.032196 0.036685 0.160747 0.067819 0.219464 0.341131 0.295214 0.466162 0.439428 0.442136 0.557516 0.441211 0.446214 0.422898 0.360249 0.289398 0.269515 0.172344 0.140840 0.008123 0.076187 0.139314 0.131452 0.210399 0.259365 0.235456 0.294344 0.332971 0.402772 0.333492 0.237131 0.202395 0.209083 0.127095 0.041174 0.096045 0.004437 0.076409 0.072066 0.092264 0.108552 0.143365 0.244760 0.149141 0.214771 0.179050 0.200724 0.139853 0.054834 -0.019785 0.066618 0.031264 -0.003562 -0.040079 0.106759 0.127401 0.052352 0.108425 0.084315 0.060831 0.181792 0.049097 0.046386 0.055594 0.025779 0.009900 -0.001057 0.029217 -0.012099 -0.020272 0.028468 0.046687 0.067864 -0.019924 0.019450 0.002404 0.048934 -0.015028 -0.030775 0.001947 0.026739 0.036018 0.008670 0.052587 0.017974 0.005198 -0.010905 0.024829 -0.038267 -0.033200 -0.040106 -0.084348 -0.027987 -0.009546 0.043231 -0.029589 0.007255 0.008610 -0.026219 -0.023691 -0.041097 -0.034743 -0.013803 -0.034552 -0.017403 0.036598 -0.043475 0.040014 -0.003297 0.020117 -0.019018 -0.014123 0.016228 -0.040087 -0.081557 -0.027092 0.035791 -0.038735 -0.000159 0.017055 -0.007870 -0.002006 0.005590 -0.034740 -0.025216 -0.084705 -0.035926 -0.004723 0.001275 0.003399 -0.018792 -0.042485 0.004517 0.024485 -0.047472 0.080777 -0.051902 0.044220 0.002623 0.026336 -0.005835 0.035588 0.030261 0.083142 0.049408 0.014934 0.113276 0.098941 -0.005988 0.074256 0.055991 0.020092 0.028250 0.008917 0.005275 0.002752 -0.076617 0.052259 -0.060443 -0.003765 0.011506 -0.024567 0.014513 0.007069 -0.044899 -0.056624 -0.002069 0.020988 0.053893 -0.084051 0.024052 -0.076045 -0.053431 0.082660 -0.038448 0.008583 -0.052531 0.056488 0.005255 -0.046514 0.010085 -0.028662 -0.029464 0.046822 -0.024805 -0.047358 0.053024 -0.060000 -0.051679 -0.019346 -0.031319 0.073393 0.026020 0.054357 0.052794 -0.010991 0.054352 0.133933 -0.011836 -0.066676 -0.033966 -0.159789 0.067715 0.250208 0.042302 -0.088760 -0.710647
0.072396 0.072903 0.074423 0.076957 0.080504 0.085062 0.090630 0.097208 0.104792 0.113380 0.122968 0.133552 0.145127 0.157685 0.171220 0.185721 0.201177 0.217576 0.234902 0.253137 0.272260 0.292249 0.313076 0.334712 0.357122 0.380269 0.404110 0.428598 0.453681 0.479302 0.505398 0.531901 0.558736 0.585822 0.613072 0.640393 0.667683 0.694835 0.721735 0.748262 0.774286 0.799673 0.824281 0.847962 0.870562 0.891920 0.911871 0.930246 0.946870 0.961568 0.974160 0.984465 0.992303 0.997495 0.999865 0.999240 0.995454 0.988346 0.977767 0.963578 0.945654 0.923883 0.898174 0.868452 0.834668 0.796794 0.754831 0.708807 0.658782 0.604847 0.547132 0.485799 0.421051 0.353130 0.282317 0.208935 0.133349 0.055963 0.022778 0.102388 0.182346 0.262095 0.341047 0.418582 0.494060 0.566820 0.636185 0.701473 0.762001 0.817093 0.866086 0.908342 0.943257 0.970265 0.988855 0.998575 0.999046 0.989969 0.971133 0.942428 0.903851 0.855511 0.797640 0.730593 0.654856 0.571044 0.479905 0.382314 0.279271 0.171897 0.061419 0.050833 0.163448 0.274943 0.383786 0.488414 0.587258 0.678764 0.761423 0.833797 0.894544 0.942451 0.976458 0.995687 0.999468 0.987360 0.959176 0.914996 0.855183 0.780395 0.691578 0.589978 0.477118 0.354798 0.225064 0.090179 0.047404 0.185088 0.320178 0.449933 0.571620 0.682577 0.780275 0.862376 0.926799 0.971781 0.995931 0.998280 0.978325 0.936066 0.872024 0.787260 0.683369 0.562466 0.427158 0.280497 0.125925 0.032802 0.191698 0.346646 0.493500 0.628205 0.746903 0.846065 0.922590 0.973927 0.998162 0.994110 0.961375 0.900401 0.812490 0.699796 0.565302 0.412747 0.246552 0.071697 0.106420 0.282133 0.449700 0.603480 0.738136 0.848829 0.931401 0.982556 1.000000 0.982570 0.930316 0.844544 0.727819 0.583915 0.417720 0.235087 0.042654 0.152396 0.342585 0.520433 0.678754 0.810959 0.911341 0.975347 0.999805 0.983110 0.925341 0.828326 0.695614 0.532388 0.345290 0.142175 0.068193 0.276517 0.473363 0.649601 0.796829 0.907803 0.976810 0.999997 0.975618 0.904184 0.788519 0.633689 0.446822 0.236822 0.013959 0.210603 0.425359 0.619058 0.781298 0.903111 0.977485 0.999807 0.968188 0.883651 0.750160 0.574497 0.365957 0.135891 0.102870 0.336722 0.552057 0.736067 0.877523 0.967492 0.999948 0.972219 0.885253 0.743659 0.555528 0.332029 0.086782 0.164928 0.407102 0.624031 0.801331 0.926934 0.991949 0.991341 0.924380 0.794813 0.610722 0.384098 0.130105 0.133896 0.389503 0.618553 0.804434 0.933324 0.995263 0.984987 0.902445 0.752934 0.546841 0.299001 0.027687 0.246705 0.503174 0.721711 0.884906 0.979372 0.996914 0.935313 0.798654 0.597157 0.346497 0.066649 0.219647 0.488720 0.717917 0.887552 0.982645 0.994317 0.920706 0.767300 0.546631 0.277353 0.017279 0.311348 0.578556 0.794584 0.939342 0.998910 0.966973 0.845577 0.645134 0.383639 0.085151 0.222365 0.509628 0.748822 0.916335 0.995162 0.976726 0.861913 0.661201 0.393827 0.086039 0.231398 0.526254 0.768109 0.931527 0.998825 0.962082 0.824192 0.598798 0.309062 0.014601 0.337655 0.625104 0.845299 0.973483 0.994691 0.905604 0.715175 0.443892 0.121680 0.215293 0.528625 0.782072 0.945786 0.999925 0.937193 0.763958 0.499773 0.175323 0.171039 0.497765 0.765084 0.939901 0.999993 0.936973 0.757612 0.483292 0.147619 0.207585 0.537432 0.799638 0.960001 0.996995 0.904796 0.694364 0.392323 0.037745 0.322771 0.641220
1.000000 1.000000 1.000000 1.000000 1.000000 1.000000 1.000000 1.000000 1.000000 1.000000 1.000000 1.000000 1.000000 1.000000 1.000000 1.000000 1.000000 1.000000 1.000000 1.000000 1.000000 1.000000 1.000000 1.000000 1.000000 1.000000 0.353742 0.353742 0.353742 0.353742 0.353742 0.353742 0.353742 0.353742 0.353742 0.353742 0.353742 0.353742 0.353742 0.353742 0.353742 0.353742 0.353742 0.353742 0.353742 0.353742 0.353742 0.353742 0.353742 0.353742 0.353742 0.353742 0.353742 0.353742 0.353742 0.312087 0.312087 0.312087 0.312087 0.312087 0.312087 0.312087 0.312087 0.312087 0.312087 0.312087 0.312087 0.312087 0.312087 0.312087 0.312087 0.312087 0.312087 0.312087 0.312087 0.312087 0.308803 0.320401 0.319448 0.310650 0.305114 0.308630 0.311421 0.323880 0.329114 0.331314 0.349220 0.370888 0.384189 0.394007 0.400613 0.399285 0.408714 0.433358 0.479847 0.555595 0.914870 0.916128 0.912451 0.918579 0.919585 0.919934 0.920338 0.921176 0.922663 0.923176 0.926073 0.929382 0.934498 0.937058 0.951918 0.952966 0.964264 0.964952 0.963957 0.962481 0.970541 0.969341 0.968931 0.968850 0.969873 0.968793 0.968228 0.968379 0.971353 0.969965 0.968182 0.967723 0.965576 0.964053 0.962214 0.961748 0.961872 0.962145 0.962227 0.962666 0.963481 0.963532 0.964020 0.964421 0.966311 0.966983 0.968069 0.967962 0.963229 0.970341 0.969105 0.968135 0.968022 0.966835 0.966436 0.966763 0.967392 0.967638 0.965450 0.954650 0.943976 0.939791 0.933482 0.926307 0.927218 0.930848 0.931859 0.932190 0.929378 0.923900 0.914517 0.916090 0.912519 0.894889 0.897079 0.898506 0.899951 0.900164 0.893946 0.881637 0.878124 0.874162 0.874063 0.872344 0.864321 0.860203 0.853132 0.853206 0.832341 0.844692 0.817573 0.790489 0.790516 0.769458 0.762910 0.761352 0.765328 0.769094 0.772448 0.768271 0.760499 0.738328 0.723480 0.711900 0.720083 0.720555 0.665153 0.641669 0.622510 0.634767 0.633281 0.647036 0.643513 0.602574 0.567968 0.552786 0.531934 0.521463 0.515379 0.529128 0.520684 0.518272 0.518574 0.523519 0.502348 0.450926 0.398569 0.390580 0.393153 0.404580 0.380855 0.351101 0.321269 0.320155 0.321980 0.233282 0.223604 0.193187 0.185395 0.202994 0.206734 0.217215 0.225215 0.201650 0.182162 0.187220 0.114146 0.198434 0.161389 0.091135 0.100282 0.095069 0.095195 0.080440 0.062172 0.078527 0.063150 0.064070 0.074616 0.031788 0.006767 -0.035354 0.001698 0.000239 0.021433 0.020268 -0.010553 -0.026256 -0.035195 -0.041814 -0.015232 -0.023378 -0.029503 -0.024359 -0.020174 -0.034011 -0.007130 -0.007870 -0.025141 -0.056383 -0.085885 -0.021174 -0.031549 -0.018092 -0.028536 -0.025794 -0.031078 -0.006071 0.012310 0.019296 0.074615 0.072341 0.052377 0.079210 0.043270 0.009168 0.048798 0.008026 -0.041569 -0.007694 -0.019264 -0.038225 -0.072922 -0.057572 -0.101385 -0.020858 -0.055161 -0.052032 -0.034709 -0.065230 -0.080310 -0.107288 -0.111542 -0.115731 -0.102137 -0.111817 -0.100886 -0.107410 -0.036854 -0.015985 -0.020790 -0.040214 -0.040368 -0.053914 -0.047971 -0.055028 -0.040072 -0.015640 -0.012881 -0.023912 -0.038885 -0.073840 -0.121476 -0.143071 -0.134336 -0.084154 -0.065032 -0.047710 -0.064421 -0.064421 -0.064421 -0.064421 -0.067138 -0.067138 -0.067138 -0.067138 -0.067138 -0.067138 -0.067138 -0.067138 -0.067138 -0.041876 -0.041876 -0.041876 -0.041876 -0.041876 -0.041876 -0.041876 -0.041876 -0.041876 -0.041876 -0.041876 -0.041876 -0.041876 -0.041876 -0.041876 -0.041876
0.000000 0.000000 0.000000 0.000000 0.000000 0.000000 0.000000 0.000000 0.000000 0.000000 0.000000 0.000000 0.000000 0.000000 0.000000 0.000000 0.000000 0.000000 0.000000 0.000000 0.000000 0.000000 0.000000 0.000000 0.000000 0.000000 0.180334 0.180334 0.180334 0.180334 0.180334 0.180334 0.180334 0.180334 0.180334 0.180334 0.180334 0.180334 0.180334 0.180334 0.180334 0.180334 0.180334 0.180334 0.180334 0.180334 0.180334 0.180334 0.180334 0.180334 0.180334 0.180334 0.180334 0.180334 0.180334 0.199007 0.199007 0.199007 0.199007 0.199007 0.199007 0.199007 0.199007 0.199007 0.199007 0.199007 0.199007 0.199007 0.199007 0.199007 0.199007 0.199007 0.199007 0.199007 0.199007 0.199007 0.199007 0.199007 0.199007 0.199007 0.199007 0.199007 0.199007 0.199007 0.199007 0.199007 0.199007 0.199007 0.199007 0.199007 0.199007 0.199007 0.199007 0.199007 0.199007 0.199007 0.230940 0.230940 0.230940 0.230940 0.230940 0.230940 0.230940 0.230940 0.230940 0.230940 0.230940 0.230940 0.230940 0.230940 0.230940 0.230940 0.230940 0.230940 0.230940 0.230940 0.230940 0.230940 0.230940 0.230940 0.230940 0.230940 0.230940 0.230940 0.244339 0.244339 0.244339 0.244339 0.244339 0.244339 0.244339 0.244339 0.244339 0.244339 0.244339 0.244339 0.244339 0.244339 0.244339 0.244339 0.244339 0.244339 0.244339 0.244339 0.244339 0.244339 0.244339 0.251976 0.251976 0.251976 0.251976 0.251976 0.251976 0.251976 0.251976 0.251976 0.251976 0.251976 0.251976 0.251976 0.251976 0.251976 0.251976 0.251976 0.251976 0.251976 0.251976 0.256074 0.256074 0.256074 0.256074 0.256074 0.256074 0.256074 0.256074 0.256074 0.256074 0.256074 0.256074 0.256074 0.256074 0.256074 0.256074 0.256074 0.256074 0.264906 0.264906 0.264906 0.264906 0.264906 0.264906 0.264906 0.264906 0.264906 0.264906 0.264906 0.264906 0.264906 0.264906 0.264906 0.264906 0.269680 0.269680 0.269680 0.269680 0.269680 0.269680 0.269680 0.269680 0.269680 0.269680 0.269680 0.269680 0.269680 0.269680 0.264906 0.264906 0.264906 0.264906 0.264906 0.264906 0.264906 0.264906 0.264906 0.264906 0.264906 0.264906 0.264906 0.264906 0.256074 0.256074 0.256074 0.256074 0.256074 0.256074 0.256074 0.256074 0.256074 0.256074 0.256074 0.256074 0.256074 0.256074 0.269680 0.269680 0.269680 0.269680 0.269680 0.269680 0.269680 0.269680 0.269680 0.269680 0.269680 0.269680 0.264906 0.264906 0.264906 0.264906 0.264906 0.264906 0.264906 0.264906 0.264906 0.264906 0.264906 0.264906 0.269680 0.269680 0.269680 0.269680 0.269680 0.269680 0.269680 0.269680 0.269680 0.269680 0.269680 0.264906 0.264906 0.264906 0.264906 0.264906 0.264906 0.264906 0.264906 0.264906 0.264906 0.264906 0.256074 0.256074 0.256074 0.256074 0.256074 0.256074 0.256074 0.256074 0.256074 0.256074 0.256074 0.264906 0.264906 0.264906 0.264906 0.264906 0.264906 0.264906 0.264906 0.264906 0.264906 0.260378 0.260378 0.260378 0.260378 0.260378 0.260378 0.260378 0.260378 0.260378 0.260378 0.264906 0.264906 0.264906 0.264906 0.264906 0.264906 0.264906 0.264906 0.264906 0.260378 0.260378 0.260378 0.260378 0.260378 0.260378 0.260378 0.260378 0.260378 0.256074 0.256074 0.256074 0.256074 0.256074 0.256074 0.256074 0.256074 0.256074 0.251976 0.251976 0.251976 0.251976 0.251976 0.251976 0.251976 0.251976 0.251976 0.251976 0.251976 0.251976 0.251976 0.251976 0.251976 0.251976
