# Output from CTFFind version 4.1.9, run on 2019-11-01 21:23:48
# Input file: bm3d_averaged_1_1.7_0.33_750_full.mrc ; Number of micrographs: 1
# Pixel size: 3.000 Angstroms ; acceleration voltage: 300.0 keV ; spherical aberration: 0.00 mm ; amplitude contrast: 0.07
# Box size: 512 pixels ; min. res.: 30.0 Angstroms ; max. res.: 5.0 Angstroms ; min. def.: 5000.0 um; max. def. 50000.0 um; num. frames averaged: 1
# 6 lines per micrograph: #1 - spatial frequency (1/Angstroms); #2 - 1D rotational average of spectrum (assuming no astigmatism); #3 - 1D rotational average of spectrum; #4 - CTF fit; #5 - cross-correlation between spectrum and CTF fit; #6 - 2sigma of expected cross correlation of noise
0.000000 0.000651 0.001302 0.001953 0.002604 0.003255 0.003906 0.004557 0.005208 0.005859 0.006510 0.007161 0.007812 0.008464 0.009115 0.009766 0.010417 0.011068 0.011719 0.012370 0.013021 0.013672 0.014323 0.014974 0.015625 0.016276 0.016927 0.017578 0.018229 0.018880 0.019531 0.020182 0.020833 0.021484 0.022135 0.022786 0.023438 0.024089 0.024740 0.025391 0.026042 0.026693 0.027344 0.027995 0.028646 0.029297 0.029948 0.030599 0.031250 0.031901 0.032552 0.033203 0.033854 0.034505 0.035156 0.035807 0.036458 0.037109 0.037760 0.038411 0.039062 0.039714 0.040365 0.041016 0.041667 0.042318 0.042969 0.043620 0.044271 0.044922 0.045573 0.046224 0.046875 0.047526 0.048177 0.048828 0.049479 0.050130 0.050781 0.051432 0.052083 0.052734 0.053385 0.054036 0.054688 0.055339 0.055990 0.056641 0.057292 0.057943 0.058594 0.059245 0.059896 0.060547 0.061198 0.061849 0.062500 0.063151 0.063802 0.064453 0.065104 0.065755 0.066406 0.067057 0.067708 0.068359 0.069010 0.069661 0.070312 0.070964 0.071615 0.072266 0.072917 0.073568 0.074219 0.074870 0.075521 0.076172 0.076823 0.077474 0.078125 0.078776 0.079427 0.080078 0.080729 0.081380 0.082031 0.082682 0.083333 0.083984 0.084635 0.085286 0.085938 0.086589 0.087240 0.087891 0.088542 0.089193 0.089844 0.090495 0.091146 0.091797 0.092448 0.093099 0.093750 0.094401 0.095052 0.095703 0.096354 0.097005 0.097656 0.098307 0.098958 0.099609 0.100260 0.100911 0.101562 0.102214 0.102865 0.103516 0.104167 0.104818 0.105469 0.106120 0.106771 0.107422 0.108073 0.108724 0.109375 0.110026 0.110677 0.111328 0.111979 0.112630 0.113281 0.113932 0.114583 0.115234 0.115885 0.116536 0.117188 0.117839 0.118490 0.119141 0.119792 0.120443 0.121094 0.121745 0.122396 0.123047 0.123698 0.124349 0.125000 0.125651 0.126302 0.126953 0.127604 0.128255 0.128906 0.129557 0.130208 0.130859 0.131510 0.132161 0.132812 0.133464 0.134115 0.134766 0.135417 0.136068 0.136719 0.137370 0.138021 0.138672 0.139323 0.139974 0.140625 0.141276 0.141927 0.142578 0.143229 0.143880 0.144531 0.145182 0.145833 0.146484 0.147135 0.147786 0.148438 0.149089 0.149740 0.150391 0.151042 0.151693 0.152344 0.152995 0.153646 0.154297 0.154948 0.155599 0.156250 0.156901 0.157552 0.158203 0.158854 0.159505 0.160156 0.160807 0.161458 0.162109 0.162760 0.163411 0.164062 0.164714 0.165365 0.166016 0.166667 0.167318 0.167969 0.168620 0.169271 0.169922 0.170573 0.171224 0.171875 0.172526 0.173177 0.173828 0.174479 0.175130 0.175781 0.176432 0.177083 0.177734 0.178385 0.179036 0.179688 0.180339 0.180990 0.181641 0.182292 0.182943 0.183594 0.184245 0.184896 0.185547 0.186198 0.186849 0.187500 0.188151 0.188802 0.189453 0.190104 0.190755 0.191406 0.192057 0.192708 0.193359 0.194010 0.194661 0.195312 0.195964 0.196615 0.197266 0.197917 0.198568 0.199219 0.199870 0.200521 0.201172 0.201823 0.202474 0.203125 0.203776 0.204427 0.205078 0.205729 0.206380 0.207031 0.207682 0.208333 0.208984 0.209635 0.210286 0.210938 0.211589 0.212240 0.212891 0.213542 0.214193 0.214844 0.215495 0.216146 0.216797 0.217448 0.218099 0.218750 0.219401 0.220052 0.220703 0.221354 0.222005 0.222656 0.223307 0.223958 0.224609 0.225260 0.225911 0.226562 0.227214 0.227865 0.228516 0.229167 0.229818 0.230469 0.231120 0.231771 0.232422 0.233073 0.233724 0.234375 0.235026 0.235677
       0.33187        0.33187        0.33187        0.33187        0.33187        0.33187        0.33187        0.33187        0.33187        0.33187        0.33187        0.33187        0.33187        0.33187        0.33187        0.33187        0.33187        0.33187        0.33187        0.33187        0.33187        0.33187        0.33187        0.33187        0.33187        0.33187        0.33187        0.33187        0.33187        0.33187        0.33187        0.33187        0.33187        0.33187        0.33187        0.33187        0.33187        0.33187        0.33187        0.33187        0.33187        0.33187        0.33187        0.33187        0.33187        0.33187        0.33187        0.33187        0.33187        0.33187        0.33187        0.50211        0.71908        0.42820        0.18900       -0.08091       -0.26210       -0.06940       -0.13450       -0.05392       -0.00382       -0.14875       -0.09271       -0.05457       -0.00560       -0.15311       -0.22270       -0.34784       -0.46244       -0.55745       -0.51666       -0.44731       -0.37168       -0.54709       -0.45187       -0.62214       -0.50404       -0.47494       -0.39002       -0.38678       -0.34037       -0.25212       -0.16209       -0.13764        0.03190       -0.01274        0.11784        0.16638        0.30470        0.40981        0.46244        0.49938        0.54117        0.54965        0.68949        0.64381        0.67514        0.59070        0.55515        0.65290        0.52688        0.42568        0.38122        0.32002        0.22771        0.26070        0.24956        0.10597        0.08088       -0.00121       -0.00641        0.03725       -0.00569        0.07320        0.10087        0.23155        0.28395        0.29961        0.37875        0.56148        0.53476        0.57752        0.66835        0.70138        0.62888        0.63475        0.63180        0.55581        0.57491        0.39937        0.34362        0.26444        0.18289        0.07159        0.14249        0.11815        0.09132        0.10539        0.20826        0.21364        0.31615        0.35939        0.41203        0.49118        0.58204        0.54121        0.55371        0.60597        0.53515        0.45931        0.47990        0.32457        0.24792        0.25805        0.24041        0.14006        0.14212        0.15051        0.21736        0.24307        0.32908        0.36560        0.39130        0.46789        0.44516        0.47943        0.45331        0.46671        0.44527        0.40622        0.38414        0.35101        0.31054        0.28742        0.20431        0.19377        0.21943        0.26932        0.26679        0.34950        0.37479        0.35607        0.40996        0.45162        0.44451        0.42422        0.44025        0.37450        0.33329        0.28218        0.26174        0.28964        0.26800        0.29273        0.29955        0.34644        0.34177        0.39404        0.40167        0.42565        0.40832        0.43097        0.40216        0.36255        0.28125        0.29041        0.30573        0.27030        0.25321        0.32373        0.36756        0.34122        0.35301        0.35838        0.35398        0.40802        0.40175        0.36139        0.33790        0.30710        0.30962        0.31715        0.31805        0.29950        0.28336        0.33508        0.35868        0.37726        0.33311        0.33003        0.33412        0.34393        0.30646        0.28226        0.30512        0.31281        0.33752        0.31817        0.32851        0.35738        0.32732        0.31154        0.32606        0.30079        0.26415        0.25168        0.26570        0.30691        0.32130        0.35147        0.30151        0.31127        0.33276        0.29265        0.31404        0.28400        0.28120        0.29101        0.29679        0.30794        0.34270        0.32765        0.33074        0.33674        0.31118        0.33351        0.31966        0.31853        0.30716        0.28063        0.29014        0.30946        0.29115        0.32415        0.33577        0.33457        0.32259        0.34095        0.31792        0.27782        0.25057        0.26841        0.32993        0.35493        0.34228        0.31381        0.29186        0.29782        0.31205        0.24889        0.29815        0.30592        0.33342        0.29859        0.31372        0.28457        0.33578        0.33910        0.34271        0.31757        0.29057        0.31601        0.39890        0.32757        0.31148        0.31018        0.28711        0.28254        0.29945        0.26712        0.31393        0.23628        0.27130        0.29532        0.31411        0.29452        0.26765        0.29534        0.23485        0.22145        0.26281        0.29935        0.30537        0.27064        0.28243        0.33161        0.25953        0.21777        0.30573        0.27351        0.25709        0.28355        0.39321        0.29393        0.28651        0.24616        0.25135        0.26903        0.24691        0.23407        0.17461        0.25880        0.23016        0.24435        0.31606        0.26557        0.35242        0.29281        0.23459        0.22090        0.21187        0.23662        0.30912        0.23103        0.13412        0.16762        0.23890        0.24748        0.30483        0.26707        0.02438       -0.43870       -0.91103
2.688586 2.660194 2.631954 2.603866 2.575931 2.548147 2.520516 2.493038 2.465712 2.438538 2.411516 2.384646 2.357929 2.331365 2.304952 2.278692 2.252584 2.226628 2.200825 2.175174 2.149675 2.124328 2.099134 2.074092 2.049203 2.024465 1.999880 1.975448 1.951167 1.927039 1.903063 1.879240 1.855568 1.832049 1.808683 1.785468 1.762406 1.739496 1.716739 1.694134 1.671681 1.649380 1.627232 1.605236 1.583392 1.561700 1.540161 1.518774 1.497540 1.476458 1.455528 1.525877 1.828734 1.511784 1.191914 0.939492 0.544472 0.910282 0.631647 0.873417 0.924857 0.588340 0.709770 0.775977 0.815116 0.628960 0.534520 0.346496 0.103277 0.080399 0.045362 0.085053 0.302163 -0.035308 0.079895 -0.135222 -0.013177 -0.017897 0.084433 0.058073 0.101787 0.175467 0.280862 0.249604 0.482110 0.396834 0.547804 0.524976 0.766819 0.788532 0.878363 0.922712 0.940450 0.943629 1.109738 0.940971 1.137597 0.945081 0.851085 1.014020 0.846781 0.757106 0.614468 0.593546 0.457108 0.413852 0.507968 0.264945 0.195499 0.156106 0.012882 0.209721 -0.004284 0.118219 0.181869 0.260591 0.332626 0.345360 0.422963 0.540364 0.660863 0.540129 0.737094 0.865521 0.638148 0.695525 0.665968 0.595700 0.537258 0.467853 0.297479 0.213597 0.115385 -0.041719 -0.022059 0.057471 -0.097129 -0.058006 0.049410 0.054045 0.111609 0.221906 0.238694 0.308632 0.433015 0.441985 0.437639 0.478819 0.443081 0.323400 0.334268 0.242263 0.049067 0.062000 0.019227 -0.051110 -0.097752 -0.102171 -0.015867 -0.055527 0.069938 0.124360 0.122231 0.261741 0.229572 0.243501 0.291667 0.243948 0.241718 0.210746 0.176005 0.108960 0.102052 0.027572 0.009862 -0.119917 -0.054354 0.000168 0.005104 0.018056 0.099776 0.085012 0.127527 0.191166 0.253785 0.173504 0.186452 0.110087 0.139951 0.018853 -0.030597 0.019410 -0.020809 -0.001133 -0.005301 0.034017 0.079302 0.054179 0.149332 0.102574 0.161881 0.063336 0.147069 0.091548 -0.010887 -0.061599 -0.015570 -0.036404 -0.075928 -0.067864 0.048942 0.058430 -0.007947 0.047681 0.062818 0.072245 0.144690 0.068349 0.063412 0.045239 -0.027019 0.024983 0.004756 0.011988 0.002667 -0.010226 0.040504 0.062350 0.069156 0.030226 0.044734 0.018985 0.057892 -0.011164 -0.019368 0.020462 0.007577 0.062365 0.032692 0.040291 0.054166 0.043560 0.016122 0.028557 -0.003879 -0.046326 -0.031684 -0.027657 0.023521 0.040554 0.095416 -0.003874 0.048401 0.066625 -0.008911 0.063331 0.010580 0.011426 0.038997 0.052533 0.038236 0.095901 0.057923 0.073676 0.093023 0.060182 0.067891 0.066660 0.082933 0.031140 -0.006208 0.044291 0.039241 0.050004 0.065603 0.086721 0.012704 0.065503 0.072536 0.007364 0.007813 -0.067519 -0.026015 0.107741 0.073883 0.043877 0.039225 -0.025516 0.047060 0.020973 -0.065112 0.047851 0.038172 0.068834 0.032244 0.008158 0.003278 0.057575 0.040605 0.017658 0.033477 -0.036531 0.063811 0.119467 0.006452 -0.009363 0.001725 -0.007018 -0.035858 -0.020228 -0.054917 0.002037 -0.095586 -0.024302 -0.033881 0.022693 -0.037935 -0.058910 0.029629 -0.080721 -0.060096 -0.074391 0.047109 0.009771 0.000053 -0.009010 0.077835 -0.028135 -0.066070 0.052963 -0.004260 0.017604 0.013393 0.198437 -0.015795 0.025042 0.004530 -0.001830 0.000042 -0.018689 -0.015724 -0.147233 0.024376 -0.035791 0.002683 0.029746 -0.002582 0.127331 0.017231 -0.022853 -0.051031 -0.027577 -0.063759 0.073415 0.275886 0.159236 0.213942 0.232376 0.333972 0.335991 0.319599 0.031054 -1.067034
0.072396 0.072910 0.074452 0.077021 0.080617 0.085239 0.090886 0.097555 0.105246 0.113953 0.123675 0.134407 0.146142 0.158875 0.172596 0.187297 0.202965 0.219587 0.237146 0.255625 0.275003 0.295254 0.316351 0.338263 0.360954 0.384386 0.408513 0.433287 0.458654 0.484555 0.510924 0.537689 0.564775 0.592095 0.619562 0.647075 0.674532 0.701820 0.728822 0.755410 0.781453 0.806810 0.831335 0.854875 0.877269 0.898354 0.917959 0.935908 0.952025 0.966126 0.978030 0.987551 0.994505 0.998712 0.999990 0.998168 0.993076 0.984556 0.972458 0.956646 0.936998 0.913409 0.885791 0.854079 0.818233 0.778237 0.734103 0.685875 0.633629 0.577477 0.517566 0.454082 0.387252 0.317343 0.244663 0.169564 0.092440 0.013726 0.066102 0.146528 0.226999 0.306928 0.385697 0.462660 0.537149 0.608481 0.675960 0.738888 0.796571 0.848326 0.893491 0.931435 0.961564 0.983335 0.996265 0.999940 0.994024 0.978273 0.952540 0.916784 0.871082 0.815631 0.750756 0.676915 0.594697 0.504830 0.408170 0.305710 0.198559 0.087946 0.024796 0.138242 0.250896 0.361201 0.467567 0.568390 0.662079 0.747082 0.821915 0.885188 0.935638 0.972155 0.993811 0.999888 0.989902 0.963624 0.921101 0.862667 0.788957 0.700908 0.599757 0.487039 0.364564 0.234400 0.098846 0.039607 0.178314 0.314526 0.445448 0.568286 0.680320 0.778962 0.861820 0.926768 0.972005 0.996109 0.998096 0.977463 0.934220 0.868919 0.782661 0.677100 0.554422 0.417317 0.268932 0.112806 0.047204 0.207013 0.362409 0.509162 0.643148 0.760462 0.857544 0.931298 0.979198 0.999395 0.990794 0.953123 0.886977 0.793836 0.676053 0.536821 0.380102 0.210529 0.033290 0.146032 0.321617 0.487609 0.638303 0.768355 0.872976 0.948132 0.990708 0.998665 0.971148 0.908567 0.812631 0.686332 0.533880 0.360592 0.172721 0.022749 0.218350 0.406414 0.579374 0.730070 0.852065 0.939937 0.989535 0.998213 0.964985 0.890634 0.777739 0.630619 0.455211 0.258858 0.050017 0.162077 0.367816 0.557650 0.722544 0.854419 0.946567 0.994026 0.993881 0.945470 0.850496 0.713014 0.539310 0.337648 0.117911 0.108858 0.331003 0.536843 0.715293 0.856489 0.952348 0.997075 0.987549 0.923582 0.808019 0.646673 0.448078 0.223092 0.015674 0.254534 0.479503 0.677118 0.835270 0.943962 0.995996 0.987487 0.918208 0.791705 0.615191 0.399189 0.156951 0.096306 0.344350 0.570954 0.760976 0.901403 0.982270 0.997434 0.945089 0.828016 0.653519 0.433039 0.181455 0.083865 0.344232 0.580962 0.776710 0.916793 0.990322 0.991119 0.918308 0.776512 0.575657 0.330349 0.058876 0.218119 0.479171 0.703683 0.873553 0.974699 0.998288 0.941581 0.808314 0.608561 0.358047 0.076994 0.211452 0.483128 0.714854 0.886460 0.982585 0.994132 0.919221 0.763522 0.539944 0.267659 0.029471 0.324939 0.591925 0.805771 0.946282 0.999720 0.960234 0.830601 0.622162 0.353945 0.051018 0.257790 0.542612 0.775419 0.932851 0.998614 0.965281 0.835232 0.620646 0.342469 0.028487 0.289392 0.578350 0.808057 0.953915 0.999770 0.939828 0.779496 0.535048 0.232099 0.096972 0.416430 0.691046 0.890018 0.990502 0.980347 0.859695 0.641228 0.348992 0.015857 0.320072 0.619812 0.848016 0.977230 0.991304 0.887549 0.677347 0.385057 0.045344 0.300848 0.611184 0.847128 0.978815 0.988941 0.875197 0.650861 0.343424 0.008624 0.360536 0.666937 0.887721 0.993381 0.969105 0.817008 0.556196 0.220542 0.145573 0.493049 0.774619 0.951373 0.998233
1.000000 1.000000 1.000000 1.000000 1.000000 1.000000 1.000000 1.000000 1.000000 1.000000 1.000000 1.000000 1.000000 1.000000 1.000000 1.000000 1.000000 1.000000 1.000000 1.000000 1.000000 1.000000 1.000000 1.000000 1.000000 1.000000 1.000000 1.000000 1.000000 1.000000 1.000000 1.000000 1.000000 1.000000 1.000000 1.000000 1.000000 1.000000 1.000000 1.000000 1.000000 1.000000 1.000000 1.000000 1.000000 1.000000 1.000000 1.000000 1.000000 1.000000 1.000000 1.000000 0.918624 0.918624 0.905133 0.905133 0.905133 0.905133 0.905133 0.905133 0.905133 0.905133 0.905133 0.905133 0.905133 0.905133 0.905133 0.905133 0.905133 0.905133 0.905133 0.905133 0.905133 0.905133 0.905133 0.905133 0.905133 0.905133 0.905133 0.905133 0.905133 0.905133 0.905133 0.905133 0.905133 0.905133 0.905133 0.905133 0.905133 0.905133 0.905133 0.905133 0.905133 0.905133 0.905133 0.901010 0.905854 0.907746 0.906188 0.909746 0.909815 0.909103 0.909428 0.909077 0.909399 0.910792 0.921307 0.932341 0.943601 0.944129 0.949267 0.953682 0.956078 0.956963 0.958504 0.968428 0.967114 0.966611 0.967297 0.968761 0.970901 0.969601 0.969211 0.972375 0.973040 0.971415 0.969209 0.968604 0.968004 0.968104 0.967729 0.967616 0.967491 0.967997 0.968214 0.967899 0.968044 0.968093 0.969112 0.970269 0.972635 0.973629 0.973473 0.972368 0.970440 0.974464 0.975329 0.975057 0.974997 0.974521 0.974792 0.960677 0.956691 0.956613 0.953296 0.952425 0.949700 0.948042 0.945980 0.946239 0.945386 0.945439 0.941433 0.928114 0.914243 0.902855 0.924045 0.908670 0.897103 0.873063 0.873588 0.870592 0.871125 0.863987 0.857557 0.852794 0.850068 0.851557 0.848067 0.851676 0.848735 0.836091 0.839022 0.836052 0.808386 0.790711 0.775391 0.776172 0.773464 0.774612 0.773993 0.770588 0.778940 0.770623 0.768831 0.760563 0.741115 0.707172 0.693482 0.703841 0.713472 0.712445 0.708672 0.693437 0.660910 0.673146 0.693784 0.690896 0.693422 0.683926 0.676916 0.679550 0.679681 0.676034 0.668284 0.667338 0.666534 0.675747 0.680107 0.675820 0.665696 0.650626 0.638478 0.624967 0.637720 0.648138 0.615755 0.609903 0.598023 0.591266 0.577490 0.547526 0.547480 0.524313 0.514108 0.518101 0.521534 0.513009 0.520501 0.521890 0.507068 0.528203 0.537040 0.563700 0.548013 0.546936 0.548705 0.555327 0.540390 0.524121 0.520170 0.521051 0.533051 0.562439 0.603891 0.590402 0.577866 0.565351 0.577396 0.545428 0.553798 0.575069 0.552638 0.484100 0.434222 0.432737 0.392220 0.389244 0.379029 0.368744 0.372875 0.363913 0.353273 0.339740 0.327527 0.270673 0.230084 0.212455 0.191792 0.197580 0.211571 0.204536 0.193298 0.217328 0.265100 0.266264 0.257707 0.238525 0.244162 0.215117 0.227976 0.254502 0.209165 0.201452 0.192544 0.165125 0.165370 0.129996 0.151265 0.069679 0.045472 0.043992 0.059985 0.072057 0.068476 0.071248 0.042099 0.063273 0.059736 0.032171 0.022520 0.039699 0.025398 -0.005387 0.006662 0.022103 0.010826 -0.012760 0.007706 0.025933 0.041644 0.033088 0.029546 0.085627 0.115591 0.102873 0.104375 0.098042 0.107499 0.086104 0.079286 0.065215 0.054454 0.005685 -0.023660 -0.023660 -0.018866 -0.018866 -0.018866 -0.018866 -0.018866 -0.018866 -0.018866 -0.018866 -0.018866 -0.022249 -0.022249 -0.022249 -0.022249 -0.022249 -0.022249 -0.022249 -0.022249 -0.022249 0.003693 0.003693 0.003693 0.003693 0.003693 0.003693 0.003693 0.003693 0.003693
0.000000 0.000000 0.000000 0.000000 0.000000 0.000000 0.000000 0.000000 0.000000 0.000000 0.000000 0.000000 0.000000 0.000000 0.000000 0.000000 0.000000 0.000000 0.000000 0.000000 0.000000 0.000000 0.000000 0.000000 0.000000 0.000000 0.000000 0.000000 0.000000 0.000000 0.000000 0.000000 0.000000 0.000000 0.000000 0.000000 0.000000 0.000000 0.000000 0.000000 0.000000 0.000000 0.000000 0.000000 0.000000 0.000000 0.000000 0.000000 0.000000 0.000000 0.000000 0.000000 0.181818 0.181818 0.199007 0.199007 0.199007 0.199007 0.199007 0.199007 0.199007 0.199007 0.199007 0.199007 0.199007 0.199007 0.199007 0.199007 0.199007 0.199007 0.199007 0.199007 0.199007 0.199007 0.199007 0.199007 0.199007 0.199007 0.199007 0.199007 0.199007 0.199007 0.199007 0.199007 0.199007 0.199007 0.199007 0.199007 0.199007 0.199007 0.199007 0.199007 0.199007 0.199007 0.199007 0.230940 0.230940 0.230940 0.230940 0.230940 0.230940 0.230940 0.230940 0.230940 0.230940 0.230940 0.230940 0.230940 0.230940 0.230940 0.230940 0.230940 0.230940 0.230940 0.230940 0.230940 0.230940 0.230940 0.230940 0.230940 0.230940 0.230940 0.230940 0.244339 0.244339 0.244339 0.244339 0.244339 0.244339 0.244339 0.244339 0.244339 0.244339 0.244339 0.244339 0.244339 0.244339 0.244339 0.244339 0.244339 0.244339 0.244339 0.244339 0.244339 0.244339 0.244339 0.251976 0.251976 0.251976 0.251976 0.251976 0.251976 0.251976 0.251976 0.251976 0.251976 0.251976 0.251976 0.251976 0.251976 0.251976 0.251976 0.251976 0.251976 0.251976 0.251976 0.264906 0.264906 0.264906 0.264906 0.264906 0.264906 0.264906 0.264906 0.264906 0.264906 0.264906 0.264906 0.264906 0.264906 0.264906 0.264906 0.264906 0.264906 0.264906 0.264906 0.264906 0.264906 0.264906 0.264906 0.264906 0.264906 0.264906 0.264906 0.264906 0.264906 0.264906 0.264906 0.264906 0.264906 0.264906 0.264906 0.264906 0.264906 0.264906 0.264906 0.264906 0.264906 0.264906 0.264906 0.264906 0.264906 0.264906 0.264906 0.264906 0.264906 0.264906 0.264906 0.264906 0.264906 0.264906 0.264906 0.264906 0.264906 0.264906 0.264906 0.264906 0.264906 0.264906 0.264906 0.264906 0.264906 0.264906 0.264906 0.264906 0.264906 0.264906 0.264906 0.264906 0.264906 0.264906 0.269680 0.269680 0.269680 0.269680 0.269680 0.269680 0.269680 0.269680 0.269680 0.269680 0.269680 0.269680 0.264906 0.264906 0.264906 0.264906 0.264906 0.264906 0.264906 0.264906 0.264906 0.264906 0.264906 0.264906 0.269680 0.269680 0.269680 0.269680 0.269680 0.269680 0.269680 0.269680 0.269680 0.269680 0.269680 0.264906 0.264906 0.264906 0.264906 0.264906 0.264906 0.264906 0.264906 0.264906 0.264906 0.264906 0.256074 0.256074 0.256074 0.256074 0.256074 0.256074 0.256074 0.256074 0.256074 0.256074 0.256074 0.264906 0.264906 0.264906 0.264906 0.264906 0.264906 0.264906 0.264906 0.264906 0.264906 0.269680 0.269680 0.269680 0.269680 0.269680 0.269680 0.269680 0.269680 0.269680 0.256074 0.256074 0.256074 0.256074 0.256074 0.256074 0.256074 0.256074 0.256074 0.256074 0.260378 0.260378 0.260378 0.260378 0.260378 0.260378 0.260378 0.260378 0.260378 0.256074 0.256074 0.256074 0.256074 0.256074 0.256074 0.256074 0.256074 0.256074 0.251976 0.251976 0.251976 0.251976 0.251976 0.251976 0.251976 0.251976 0.251976 0.264906 0.264906 0.264906 0.264906 0.264906 0.264906 0.264906 0.264906 0.264906
