# Output from CTFFind version 4.1.9, run on 2019-11-01 21:24:48
# Input file: bm3d_averaged_3_1.7_0.33_250_full.mrc ; Number of micrographs: 1
# Pixel size: 3.000 Angstroms ; acceleration voltage: 300.0 keV ; spherical aberration: 0.00 mm ; amplitude contrast: 0.07
# Box size: 512 pixels ; min. res.: 30.0 Angstroms ; max. res.: 5.0 Angstroms ; min. def.: 5000.0 um; max. def. 50000.0 um; num. frames averaged: 1
# 6 lines per micrograph: #1 - spatial frequency (1/Angstroms); #2 - 1D rotational average of spectrum (assuming no astigmatism); #3 - 1D rotational average of spectrum; #4 - CTF fit; #5 - cross-correlation between spectrum and CTF fit; #6 - 2sigma of expected cross correlation of noise
0.000000 0.000651 0.001302 0.001953 0.002604 0.003255 0.003906 0.004557 0.005208 0.005859 0.006510 0.007161 0.007812 0.008464 0.009115 0.009766 0.010417 0.011068 0.011719 0.012370 0.013021 0.013672 0.014323 0.014974 0.015625 0.016276 0.016927 0.017578 0.018229 0.018880 0.019531 0.020182 0.020833 0.021484 0.022135 0.022786 0.023438 0.024089 0.024740 0.025391 0.026042 0.026693 0.027344 0.027995 0.028646 0.029297 0.029948 0.030599 0.031250 0.031901 0.032552 0.033203 0.033854 0.034505 0.035156 0.035807 0.036458 0.037109 0.037760 0.038411 0.039062 0.039714 0.040365 0.041016 0.041667 0.042318 0.042969 0.043620 0.044271 0.044922 0.045573 0.046224 0.046875 0.047526 0.048177 0.048828 0.049479 0.050130 0.050781 0.051432 0.052083 0.052734 0.053385 0.054036 0.054688 0.055339 0.055990 0.056641 0.057292 0.057943 0.058594 0.059245 0.059896 0.060547 0.061198 0.061849 0.062500 0.063151 0.063802 0.064453 0.065104 0.065755 0.066406 0.067057 0.067708 0.068359 0.069010 0.069661 0.070312 0.070964 0.071615 0.072266 0.072917 0.073568 0.074219 0.074870 0.075521 0.076172 0.076823 0.077474 0.078125 0.078776 0.079427 0.080078 0.080729 0.081380 0.082031 0.082682 0.083333 0.083984 0.084635 0.085286 0.085938 0.086589 0.087240 0.087891 0.088542 0.089193 0.089844 0.090495 0.091146 0.091797 0.092448 0.093099 0.093750 0.094401 0.095052 0.095703 0.096354 0.097005 0.097656 0.098307 0.098958 0.099609 0.100260 0.100911 0.101562 0.102214 0.102865 0.103516 0.104167 0.104818 0.105469 0.106120 0.106771 0.107422 0.108073 0.108724 0.109375 0.110026 0.110677 0.111328 0.111979 0.112630 0.113281 0.113932 0.114583 0.115234 0.115885 0.116536 0.117188 0.117839 0.118490 0.119141 0.119792 0.120443 0.121094 0.121745 0.122396 0.123047 0.123698 0.124349 0.125000 0.125651 0.126302 0.126953 0.127604 0.128255 0.128906 0.129557 0.130208 0.130859 0.131510 0.132161 0.132812 0.133464 0.134115 0.134766 0.135417 0.136068 0.136719 0.137370 0.138021 0.138672 0.139323 0.139974 0.140625 0.141276 0.141927 0.142578 0.143229 0.143880 0.144531 0.145182 0.145833 0.146484 0.147135 0.147786 0.148438 0.149089 0.149740 0.150391 0.151042 0.151693 0.152344 0.152995 0.153646 0.154297 0.154948 0.155599 0.156250 0.156901 0.157552 0.158203 0.158854 0.159505 0.160156 0.160807 0.161458 0.162109 0.162760 0.163411 0.164062 0.164714 0.165365 0.166016 0.166667 0.167318 0.167969 0.168620 0.169271 0.169922 0.170573 0.171224 0.171875 0.172526 0.173177 0.173828 0.174479 0.175130 0.175781 0.176432 0.177083 0.177734 0.178385 0.179036 0.179688 0.180339 0.180990 0.181641 0.182292 0.182943 0.183594 0.184245 0.184896 0.185547 0.186198 0.186849 0.187500 0.188151 0.188802 0.189453 0.190104 0.190755 0.191406 0.192057 0.192708 0.193359 0.194010 0.194661 0.195312 0.195964 0.196615 0.197266 0.197917 0.198568 0.199219 0.199870 0.200521 0.201172 0.201823 0.202474 0.203125 0.203776 0.204427 0.205078 0.205729 0.206380 0.207031 0.207682 0.208333 0.208984 0.209635 0.210286 0.210938 0.211589 0.212240 0.212891 0.213542 0.214193 0.214844 0.215495 0.216146 0.216797 0.217448 0.218099 0.218750 0.219401 0.220052 0.220703 0.221354 0.222005 0.222656 0.223307 0.223958 0.224609 0.225260 0.225911 0.226562 0.227214 0.227865 0.228516 0.229167 0.229818 0.230469 0.231120 0.231771 0.232422 0.233073 0.233724 0.234375 0.235026 0.235677
       0.32974        0.32974        0.32974        0.32974        0.32974        0.32974        0.32974        0.32974        0.32974        0.32974        0.32974        0.32974        0.32974        0.32974        0.32974        0.32974        0.32974        0.32974        0.32974        0.32974        0.32974        0.32974        0.32974        0.32974        0.32974        0.32974        0.32974        0.32974        0.32974        0.32974        0.32974        0.32974        0.32974        0.32974        0.32974        0.32974        0.32974        0.32974        0.32974        0.32974        0.32974        0.32974        0.32974        0.32974        0.32974        0.32974        0.32974        0.32974        0.32974        0.32974        0.32974        0.48259        0.71401        0.39164        0.18248       -0.06289       -0.26560       -0.07592       -0.13462       -0.12685       -0.03110       -0.18109       -0.14019       -0.07377       -0.03133       -0.15381       -0.23497       -0.33278       -0.48161       -0.57456       -0.47948       -0.44979       -0.36634       -0.55447       -0.42456       -0.60153       -0.48228       -0.44807       -0.38364       -0.34846       -0.33613       -0.22361       -0.15988       -0.12737        0.03157        0.00349        0.16031        0.17682        0.28114        0.37489        0.45607        0.50488        0.54873        0.57054        0.68619        0.61261        0.64052        0.58039        0.55511        0.59150        0.50649        0.45145        0.39954        0.30232        0.26223        0.27524        0.27556        0.08530        0.04361       -0.01011        0.01240        0.04569       -0.00160        0.09769        0.11094        0.22878        0.30296        0.29283        0.39200        0.53132        0.49603        0.53764        0.65969        0.64867        0.60669        0.63576        0.61672        0.54006        0.55892        0.44054        0.36512        0.24854        0.18725        0.10681        0.13418        0.07821        0.15380        0.13843        0.18549        0.19069        0.31363        0.34240        0.42591        0.47764        0.52662        0.51005        0.49345        0.55967        0.45402        0.44878        0.47580        0.33645        0.27987        0.26323        0.27901        0.15850        0.20695        0.17163        0.19717        0.22050        0.27558        0.38549        0.41205        0.42218        0.45632        0.46360        0.45834        0.51687        0.41594        0.34446        0.35393        0.36297        0.33188        0.27434        0.24172        0.25789        0.25891        0.28470        0.26347        0.34062        0.42174        0.35751        0.39435        0.45448        0.42498        0.43069        0.46527        0.35068        0.30192        0.31892        0.26336        0.28925        0.26558        0.29945        0.28289        0.29373        0.34687        0.42638        0.39571        0.39283        0.38381        0.40660        0.33727        0.38211        0.30184        0.28880        0.26473        0.25999        0.25208        0.31155        0.33121        0.35105        0.35917        0.38458        0.33561        0.41184        0.39679        0.35663        0.34308        0.30230        0.31269        0.33287        0.31637        0.31434        0.31133        0.30169        0.31887        0.38505        0.33887        0.33621        0.33896        0.36009        0.34694        0.29102        0.32069        0.31191        0.31572        0.30393        0.31839        0.34253        0.33821        0.34888        0.33134        0.30625        0.29757        0.27030        0.26817        0.31936        0.30183        0.32098        0.30386        0.29796        0.32934        0.32275        0.29573        0.28389        0.28753        0.29922        0.28099        0.28611        0.31423        0.26815        0.34011        0.32057        0.34451        0.33239        0.29919        0.33076        0.30057        0.23041        0.24950        0.31928        0.30687        0.29392        0.33259        0.29044        0.30637        0.33711        0.37083        0.29652        0.27940        0.23803        0.28762        0.33656        0.38378        0.36213        0.31697        0.30306        0.31009        0.25890        0.31576        0.30111        0.34288        0.30537        0.28295        0.27251        0.29372        0.35094        0.27984        0.28041        0.25928        0.33280        0.35421        0.36863        0.32116        0.32832        0.28632        0.31212        0.31214        0.29304        0.27101        0.24752        0.24346        0.26793        0.30094        0.28608        0.29061        0.28687        0.24272        0.25687        0.23841        0.32420        0.30958        0.27426        0.29338        0.31827        0.31004        0.26123        0.21483        0.25839        0.27590        0.30520        0.33195        0.24328        0.28585        0.29952        0.23815        0.26485        0.25197        0.23141        0.22930        0.28878        0.21857        0.19889        0.29088        0.27759        0.31294        0.24479        0.21818        0.21606        0.10330        0.21690        0.30348        0.22872        0.18328        0.17612        0.31495        0.26567        0.26569        0.06825        0.06971       -0.49428       -0.78630
2.465458 2.440499 2.415670 2.390971 2.366402 2.341963 2.317655 2.293476 2.269428 2.245510 2.221722 2.198064 2.174536 2.151138 2.127871 2.104733 2.081726 2.058849 2.036102 2.013485 1.990998 1.968641 1.946415 1.924318 1.902352 1.880515 1.858809 1.837233 1.815788 1.794472 1.773286 1.752231 1.731305 1.710510 1.689845 1.669310 1.648905 1.628630 1.608486 1.588471 1.568587 1.548833 1.529208 1.509714 1.490351 1.471117 1.452013 1.433040 1.414196 1.395483 1.376900 1.433019 1.782112 1.639817 1.071029 0.964973 0.441918 0.838804 0.548121 0.719027 0.809244 0.507744 0.572245 0.684909 0.718455 0.564067 0.438648 0.300290 0.039039 -0.036886 0.036929 0.007107 0.278969 -0.135238 0.060739 -0.176028 -0.056599 -0.023129 0.028028 0.067668 0.057729 0.165655 0.254296 0.220388 0.453165 0.410011 0.592523 0.527658 0.746083 0.726773 0.851662 0.974825 0.908638 1.013606 1.091269 1.046148 1.057259 0.930469 0.916105 0.949668 0.837812 0.797862 0.656522 0.584565 0.522441 0.458855 0.508576 0.289947 0.168881 0.151599 0.052274 0.207617 0.021602 0.173844 0.186545 0.288177 0.379268 0.393748 0.473060 0.567728 0.640854 0.533011 0.773206 0.824567 0.689286 0.745987 0.709446 0.613766 0.573877 0.549186 0.367423 0.248845 0.141116 0.044020 0.022548 -0.011745 0.022524 0.010804 0.107021 0.037435 0.150520 0.239937 0.293157 0.379575 0.433160 0.438292 0.409283 0.461012 0.362198 0.330213 0.355710 0.282217 0.102579 0.092044 0.062965 0.016435 -0.024900 -0.037339 -0.033675 -0.013529 0.025047 0.116302 0.227988 0.248195 0.213507 0.324354 0.294966 0.322995 0.291214 0.204282 0.128078 0.143763 0.176271 0.055238 0.006130 0.000261 0.025364 0.056329 0.056868 0.016204 0.177761 0.162459 0.092710 0.186367 0.250893 0.137780 0.263691 0.146116 0.094838 0.042963 0.003961 0.017093 -0.003076 0.001338 0.034891 0.004087 0.005834 0.128371 0.186754 0.126539 0.137197 0.128442 0.102420 0.089764 0.090669 -0.007557 0.009045 -0.042512 -0.062675 -0.013310 0.045824 0.084866 0.037875 0.114255 0.075188 0.080986 0.171789 0.079225 0.090808 0.059418 -0.009089 0.031505 0.079548 -0.009273 0.056706 0.026501 0.001908 0.082745 0.088896 0.046545 0.061441 0.070638 0.082657 0.048175 -0.003458 0.042973 0.027746 0.043926 0.025023 0.037588 0.055377 0.088215 0.045022 0.038803 -0.003116 -0.006145 -0.035151 -0.014676 0.027177 0.007496 0.042708 0.005424 0.011648 0.056137 0.048142 0.038396 0.022560 0.000464 0.024260 0.015295 0.032938 0.041166 -0.020531 0.097142 0.077993 0.060926 0.052454 0.051453 0.055935 0.007787 -0.077949 0.003553 0.047723 0.033435 0.009721 0.073129 -0.000868 0.018442 0.069335 0.062772 0.014359 -0.066824 -0.044482 -0.005402 0.051304 0.098347 0.083705 0.036618 0.005514 0.015805 -0.067525 0.038972 0.032135 0.053080 0.025506 -0.054749 -0.037827 0.007011 0.017633 -0.052209 -0.046269 -0.069291 0.090683 0.041288 0.041221 -0.026949 0.034343 -0.040579 -0.022096 -0.018921 -0.095760 -0.080204 -0.111857 -0.098322 -0.087928 -0.025780 -0.047726 -0.057972 -0.054270 -0.089141 -0.081042 -0.144195 0.071091 -0.014876 -0.042318 -0.029648 0.032108 -0.010173 -0.054342 -0.103369 -0.020045 0.030470 0.031187 0.071523 -0.061705 0.036308 -0.009864 -0.009220 0.034341 -0.045451 -0.007957 -0.045063 0.067943 -0.020433 -0.163945 0.067561 0.040933 0.092246 -0.009196 0.004770 -0.029227 -0.188212 -0.058088 0.082143 0.294122 0.200487 0.221908 0.463827 0.310069 0.332231 -0.066968 0.091796 -0.953567
0.072396 0.072909 0.074446 0.077007 0.080592 0.085200 0.090830 0.097479 0.105146 0.113827 0.123519 0.134218 0.145918 0.158612 0.172293 0.186949 0.202571 0.219143 0.236652 0.255077 0.274398 0.294592 0.315629 0.337481 0.360110 0.383479 0.407543 0.432255 0.457559 0.483398 0.509707 0.536415 0.563446 0.590716 0.618135 0.645606 0.673027 0.700286 0.727266 0.753842 0.779882 0.805247 0.829792 0.853364 0.875805 0.896952 0.916635 0.934680 0.950911 0.965146 0.977203 0.986900 0.994052 0.998478 1.000000 0.998444 0.993643 0.985437 0.973676 0.958225 0.938959 0.915773 0.888578 0.857307 0.821916 0.782389 0.738733 0.690991 0.639234 0.583569 0.524139 0.461125 0.394750 0.325272 0.252997 0.178269 0.101474 0.023041 0.056560 0.136820 0.217194 0.297100 0.375927 0.453036 0.527764 0.599432 0.667350 0.730822 0.789156 0.841671 0.887703 0.926621 0.957827 0.980774 0.994971 0.999995 0.995501 0.981231 0.957025 0.922826 0.878691 0.824800 0.761455 0.689090 0.608274 0.519708 0.424224 0.322788 0.216488 0.106527 0.005785 0.119043 0.231768 0.342419 0.449419 0.551170 0.646086 0.732612 0.809256 0.874618 0.927413 0.966507 0.990942 0.999961 0.993038 0.969895 0.930526 0.875207 0.804513 0.719317 0.620793 0.510411 0.389919 0.261327 0.126880 0.010979 0.149644 0.286398 0.418460 0.543047 0.657428 0.758995 0.845319 0.914222 0.963834 0.992654 0.999602 0.984067 0.945942 0.885653 0.804174 0.703025 0.584264 0.450455 0.304631 0.150228 0.008981 0.168974 0.325578 0.474579 0.611832 0.733388 0.835607 0.915283 0.969751 0.996994 0.995725 0.965464 0.906580 0.820320 0.708807 0.575007 0.422673 0.256254 0.080782 0.098273 0.275166 0.444056 0.599204 0.735171 0.847023 0.930519 0.982291 1.000000 0.982455 0.929709 0.843095 0.725240 0.579994 0.412351 0.228287 0.034568 0.161485 0.352268 0.530185 0.687959 0.818935 0.917386 0.978775 0.999997 0.979556 0.917689 0.816417 0.679518 0.512423 0.322033 0.116454 0.095319 0.303797 0.499405 0.672942 0.816009 0.921449 0.983726 0.999250 0.966615 0.886738 0.762897 0.600636 0.407561 0.193021 0.032323 0.257008 0.469345 0.658030 0.812762 0.924829 0.987626 0.997092 0.952006 0.854147 0.708283 0.521999 0.305338 0.070310 0.169761 0.400964 0.609617 0.783087 0.910577 0.983839 0.997750 0.950722 0.844902 0.686148 0.483765 0.250015 0.000589 0.252150 0.488387 0.693695 0.854194 0.958708 0.999582 0.973311 0.880889 0.727867 0.524092 0.283135 0.021446 0.242747 0.490676 0.704389 0.868063 0.969219 0.999735 0.956561 0.842083 0.664084 0.435306 0.172593 0.104295 0.374125 0.615843 0.810193 0.941325 0.998129 0.975253 0.873686 0.700830 0.470067 0.199794 0.087984 0.369410 0.620731 0.820341 0.950663 0.999779 0.962597 0.841465 0.646146 0.393124 0.104315 0.194794 0.477338 0.717517 0.892952 0.986862 0.989734 0.900391 0.726300 0.483067 0.193134 0.116207 0.415345 0.675176 0.869955 0.979918 0.993370 0.908044 0.731538 0.480766 0.180462 0.139193 0.445537 0.706775 0.895304 0.990702 0.982048 0.869291 0.663486 0.385869 0.065753 0.262463 0.562974 0.802462 0.953868 0.999533 0.933382 0.761863 0.503474 0.186913 0.152012 0.474376 0.742593 0.924850 0.998969 0.955236 0.797817 0.544548 0.225063 0.122556 0.456239 0.735015 0.924089 0.999272 0.950226 0.782035 0.514874 0.181751 0.175440 0.511129 0.781879 0.952052 0.998632 0.914484 0.709615 0.410164 0.055273 0.307979 0.630705 0.868854 0.989294
1.000000 1.000000 1.000000 1.000000 1.000000 1.000000 1.000000 1.000000 1.000000 1.000000 1.000000 1.000000 1.000000 1.000000 1.000000 1.000000 1.000000 1.000000 1.000000 1.000000 1.000000 1.000000 1.000000 1.000000 1.000000 1.000000 1.000000 1.000000 1.000000 1.000000 1.000000 1.000000 1.000000 1.000000 1.000000 1.000000 1.000000 1.000000 1.000000 1.000000 1.000000 1.000000 1.000000 1.000000 1.000000 1.000000 1.000000 1.000000 1.000000 1.000000 1.000000 1.000000 0.913067 0.913067 0.913067 0.901702 0.901702 0.901702 0.901702 0.901702 0.901702 0.901702 0.901702 0.901702 0.901702 0.901702 0.901702 0.901702 0.901702 0.901702 0.901702 0.901702 0.901702 0.901702 0.901702 0.901702 0.901702 0.901702 0.901702 0.901702 0.901702 0.901702 0.901702 0.901702 0.901702 0.901702 0.901702 0.901702 0.901702 0.901702 0.901702 0.901702 0.901702 0.901702 0.901702 0.901702 0.910166 0.912312 0.915498 0.916196 0.916014 0.913544 0.913097 0.912966 0.913225 0.914290 0.928121 0.943007 0.945355 0.948714 0.954248 0.958085 0.960564 0.961639 0.963203 0.974755 0.973504 0.972997 0.973446 0.974792 0.976541 0.976775 0.977721 0.977696 0.977275 0.977745 0.977611 0.977140 0.976536 0.975956 0.974994 0.974905 0.974062 0.974382 0.973303 0.973722 0.974039 0.974814 0.965477 0.967219 0.962880 0.962408 0.962463 0.961012 0.960880 0.957181 0.956953 0.954697 0.941933 0.941072 0.941604 0.940872 0.931989 0.932468 0.916837 0.913751 0.910280 0.905314 0.901339 0.901686 0.905423 0.907932 0.904338 0.897799 0.874314 0.840247 0.827887 0.822254 0.818221 0.826154 0.829073 0.832007 0.832860 0.830538 0.820138 0.819666 0.810652 0.812929 0.810885 0.807634 0.806169 0.806928 0.800241 0.799351 0.792745 0.780494 0.758621 0.746076 0.748905 0.748210 0.748515 0.749327 0.756886 0.752149 0.736963 0.727279 0.717691 0.694479 0.653170 0.667384 0.677392 0.681512 0.663000 0.658644 0.665874 0.653140 0.647874 0.668922 0.652591 0.647225 0.638421 0.627921 0.610030 0.617760 0.632462 0.631485 0.626460 0.628214 0.635452 0.629912 0.606520 0.591614 0.583396 0.571686 0.572239 0.602191 0.602870 0.592715 0.577195 0.565312 0.555991 0.552450 0.548789 0.560756 0.533093 0.542887 0.538973 0.537349 0.543155 0.547210 0.537667 0.554726 0.538912 0.509046 0.515348 0.522744 0.526425 0.503521 0.499035 0.503506 0.481614 0.467054 0.496026 0.512105 0.516161 0.523638 0.547877 0.546190 0.543759 0.568385 0.588697 0.571679 0.579293 0.576742 0.560005 0.411910 0.393875 0.377929 0.370460 0.372619 0.338707 0.307433 0.309227 0.257009 0.239094 0.226838 0.196146 0.160726 0.160204 0.158271 0.191124 0.221272 0.209084 0.214665 0.253111 0.282824 0.286549 0.282483 0.262797 0.263747 0.268726 0.246874 0.213549 0.195084 0.201337 0.133201 0.126197 0.127818 0.148945 0.113048 0.101861 0.105752 0.108474 0.081482 0.032824 0.034775 0.028656 0.028274 0.054760 0.061816 0.060384 0.008383 -0.030772 -0.053786 -0.052308 -0.093115 -0.088635 -0.090234 -0.097607 -0.085280 -0.074339 -0.059706 -0.023819 -0.003002 0.000074 -0.002521 -0.011083 -0.016278 0.005458 0.013521 -0.004482 -0.055838 -0.069175 -0.069175 -0.069175 -0.069175 -0.069175 -0.050506 -0.050506 -0.050506 -0.050506 -0.050506 -0.050506 -0.050506 -0.050506 -0.050506 -0.009437 -0.009437 -0.009437 -0.009437 -0.009437 -0.009437 -0.009437 -0.009437 -0.009437 -0.009437 -0.009437 -0.009437 -0.009437 -0.009437 -0.009437 -0.009437 -0.009437
0.000000 0.000000 0.000000 0.000000 0.000000 0.000000 0.000000 0.000000 0.000000 0.000000 0.000000 0.000000 0.000000 0.000000 0.000000 0.000000 0.000000 0.000000 0.000000 0.000000 0.000000 0.000000 0.000000 0.000000 0.000000 0.000000 0.000000 0.000000 0.000000 0.000000 0.000000 0.000000 0.000000 0.000000 0.000000 0.000000 0.000000 0.000000 0.000000 0.000000 0.000000 0.000000 0.000000 0.000000 0.000000 0.000000 0.000000 0.000000 0.000000 0.000000 0.000000 0.000000 0.180334 0.180334 0.180334 0.199007 0.199007 0.199007 0.199007 0.199007 0.199007 0.199007 0.199007 0.199007 0.199007 0.199007 0.199007 0.199007 0.199007 0.199007 0.199007 0.199007 0.199007 0.199007 0.199007 0.199007 0.199007 0.199007 0.199007 0.199007 0.199007 0.199007 0.199007 0.199007 0.199007 0.199007 0.199007 0.199007 0.199007 0.199007 0.199007 0.199007 0.199007 0.199007 0.199007 0.199007 0.230940 0.230940 0.230940 0.230940 0.230940 0.230940 0.230940 0.230940 0.230940 0.230940 0.230940 0.230940 0.230940 0.230940 0.230940 0.230940 0.230940 0.230940 0.230940 0.230940 0.230940 0.230940 0.230940 0.230940 0.230940 0.230940 0.230940 0.230940 0.248069 0.248069 0.248069 0.248069 0.248069 0.248069 0.248069 0.248069 0.248069 0.248069 0.248069 0.248069 0.248069 0.248069 0.248069 0.248069 0.248069 0.248069 0.248069 0.248069 0.248069 0.248069 0.251976 0.251976 0.251976 0.251976 0.251976 0.251976 0.251976 0.251976 0.251976 0.251976 0.251976 0.251976 0.251976 0.251976 0.251976 0.251976 0.251976 0.251976 0.251976 0.251976 0.256074 0.256074 0.256074 0.256074 0.256074 0.256074 0.256074 0.256074 0.256074 0.256074 0.256074 0.256074 0.256074 0.256074 0.256074 0.256074 0.256074 0.256074 0.264906 0.264906 0.264906 0.264906 0.264906 0.264906 0.264906 0.264906 0.264906 0.264906 0.264906 0.264906 0.264906 0.264906 0.264906 0.264906 0.269680 0.269680 0.269680 0.269680 0.269680 0.269680 0.269680 0.269680 0.269680 0.269680 0.269680 0.269680 0.269680 0.269680 0.264906 0.264906 0.264906 0.264906 0.264906 0.264906 0.264906 0.264906 0.264906 0.264906 0.264906 0.264906 0.264906 0.264906 0.264906 0.264906 0.264906 0.264906 0.264906 0.264906 0.264906 0.264906 0.264906 0.264906 0.264906 0.264906 0.264906 0.260378 0.260378 0.260378 0.260378 0.260378 0.260378 0.260378 0.260378 0.260378 0.260378 0.260378 0.260378 0.260378 0.274721 0.274721 0.274721 0.274721 0.274721 0.274721 0.274721 0.274721 0.274721 0.274721 0.274721 0.260378 0.260378 0.260378 0.260378 0.260378 0.260378 0.260378 0.260378 0.260378 0.260378 0.260378 0.260378 0.264906 0.264906 0.264906 0.264906 0.264906 0.264906 0.264906 0.264906 0.264906 0.264906 0.264906 0.269680 0.269680 0.269680 0.269680 0.269680 0.269680 0.269680 0.269680 0.269680 0.269680 0.264906 0.264906 0.264906 0.264906 0.264906 0.264906 0.264906 0.264906 0.264906 0.264906 0.260378 0.260378 0.260378 0.260378 0.260378 0.260378 0.260378 0.260378 0.260378 0.260378 0.264906 0.264906 0.264906 0.264906 0.264906 0.264906 0.264906 0.264906 0.264906 0.251976 0.251976 0.251976 0.251976 0.251976 0.251976 0.251976 0.251976 0.251976 0.251976 0.256074 0.256074 0.256074 0.256074 0.256074 0.256074 0.256074 0.256074 0.256074 0.269680 0.269680 0.269680 0.269680 0.269680 0.269680 0.269680 0.269680 0.269680 0.269680 0.269680 0.269680 0.269680 0.269680 0.269680 0.269680 0.269680
