# Output from CTFFind version 4.1.9, run on 2019-11-01 21:25:08
# Input file: bm3d_averaged_3_1.7_0.33_750_full.mrc ; Number of micrographs: 1
# Pixel size: 3.000 Angstroms ; acceleration voltage: 300.0 keV ; spherical aberration: 0.00 mm ; amplitude contrast: 0.07
# Box size: 512 pixels ; min. res.: 30.0 Angstroms ; max. res.: 5.0 Angstroms ; min. def.: 5000.0 um; max. def. 50000.0 um; num. frames averaged: 1
# 6 lines per micrograph: #1 - spatial frequency (1/Angstroms); #2 - 1D rotational average of spectrum (assuming no astigmatism); #3 - 1D rotational average of spectrum; #4 - CTF fit; #5 - cross-correlation between spectrum and CTF fit; #6 - 2sigma of expected cross correlation of noise
0.000000 0.000651 0.001302 0.001953 0.002604 0.003255 0.003906 0.004557 0.005208 0.005859 0.006510 0.007161 0.007812 0.008464 0.009115 0.009766 0.010417 0.011068 0.011719 0.012370 0.013021 0.013672 0.014323 0.014974 0.015625 0.016276 0.016927 0.017578 0.018229 0.018880 0.019531 0.020182 0.020833 0.021484 0.022135 0.022786 0.023438 0.024089 0.024740 0.025391 0.026042 0.026693 0.027344 0.027995 0.028646 0.029297 0.029948 0.030599 0.031250 0.031901 0.032552 0.033203 0.033854 0.034505 0.035156 0.035807 0.036458 0.037109 0.037760 0.038411 0.039062 0.039714 0.040365 0.041016 0.041667 0.042318 0.042969 0.043620 0.044271 0.044922 0.045573 0.046224 0.046875 0.047526 0.048177 0.048828 0.049479 0.050130 0.050781 0.051432 0.052083 0.052734 0.053385 0.054036 0.054688 0.055339 0.055990 0.056641 0.057292 0.057943 0.058594 0.059245 0.059896 0.060547 0.061198 0.061849 0.062500 0.063151 0.063802 0.064453 0.065104 0.065755 0.066406 0.067057 0.067708 0.068359 0.069010 0.069661 0.070312 0.070964 0.071615 0.072266 0.072917 0.073568 0.074219 0.074870 0.075521 0.076172 0.076823 0.077474 0.078125 0.078776 0.079427 0.080078 0.080729 0.081380 0.082031 0.082682 0.083333 0.083984 0.084635 0.085286 0.085938 0.086589 0.087240 0.087891 0.088542 0.089193 0.089844 0.090495 0.091146 0.091797 0.092448 0.093099 0.093750 0.094401 0.095052 0.095703 0.096354 0.097005 0.097656 0.098307 0.098958 0.099609 0.100260 0.100911 0.101562 0.102214 0.102865 0.103516 0.104167 0.104818 0.105469 0.106120 0.106771 0.107422 0.108073 0.108724 0.109375 0.110026 0.110677 0.111328 0.111979 0.112630 0.113281 0.113932 0.114583 0.115234 0.115885 0.116536 0.117188 0.117839 0.118490 0.119141 0.119792 0.120443 0.121094 0.121745 0.122396 0.123047 0.123698 0.124349 0.125000 0.125651 0.126302 0.126953 0.127604 0.128255 0.128906 0.129557 0.130208 0.130859 0.131510 0.132161 0.132812 0.133464 0.134115 0.134766 0.135417 0.136068 0.136719 0.137370 0.138021 0.138672 0.139323 0.139974 0.140625 0.141276 0.141927 0.142578 0.143229 0.143880 0.144531 0.145182 0.145833 0.146484 0.147135 0.147786 0.148438 0.149089 0.149740 0.150391 0.151042 0.151693 0.152344 0.152995 0.153646 0.154297 0.154948 0.155599 0.156250 0.156901 0.157552 0.158203 0.158854 0.159505 0.160156 0.160807 0.161458 0.162109 0.162760 0.163411 0.164062 0.164714 0.165365 0.166016 0.166667 0.167318 0.167969 0.168620 0.169271 0.169922 0.170573 0.171224 0.171875 0.172526 0.173177 0.173828 0.174479 0.175130 0.175781 0.176432 0.177083 0.177734 0.178385 0.179036 0.179688 0.180339 0.180990 0.181641 0.182292 0.182943 0.183594 0.184245 0.184896 0.185547 0.186198 0.186849 0.187500 0.188151 0.188802 0.189453 0.190104 0.190755 0.191406 0.192057 0.192708 0.193359 0.194010 0.194661 0.195312 0.195964 0.196615 0.197266 0.197917 0.198568 0.199219 0.199870 0.200521 0.201172 0.201823 0.202474 0.203125 0.203776 0.204427 0.205078 0.205729 0.206380 0.207031 0.207682 0.208333 0.208984 0.209635 0.210286 0.210938 0.211589 0.212240 0.212891 0.213542 0.214193 0.214844 0.215495 0.216146 0.216797 0.217448 0.218099 0.218750 0.219401 0.220052 0.220703 0.221354 0.222005 0.222656 0.223307 0.223958 0.224609 0.225260 0.225911 0.226562 0.227214 0.227865 0.228516 0.229167 0.229818 0.230469 0.231120 0.231771 0.232422 0.233073 0.233724 0.234375 0.235026 0.235677
       0.32972        0.32972        0.32972        0.32972        0.32971        0.32972        0.32972        0.32972        0.32972        0.32972        0.32972        0.32971        0.32972        0.32971        0.32972        0.32971        0.32972        0.32971        0.32971        0.32972        0.32971        0.32971        0.32972        0.32972        0.32971        0.32972        0.32971        0.32971        0.32972        0.32972        0.32971        0.32971        0.32972        0.32972        0.32971        0.32971        0.32972        0.32971        0.32971        0.32971        0.32972        0.32972        0.32971        0.32971        0.32971        0.32972        0.32971        0.32972        0.32971        0.32972        0.32972        0.48245        0.71318        0.39141        0.18263       -0.06251       -0.26642       -0.07670       -0.13711       -0.12692       -0.03084       -0.18011       -0.14083       -0.07321       -0.03050       -0.15455       -0.23477       -0.33386       -0.48352       -0.57698       -0.48242       -0.45122       -0.36616       -0.55487       -0.42438       -0.60229       -0.48218       -0.44945       -0.38253       -0.34823       -0.33704       -0.22394       -0.16033       -0.12665        0.03137        0.00049        0.15830        0.17763        0.28097        0.37484        0.45830        0.50459        0.54864        0.57101        0.68867        0.61448        0.64165        0.58033        0.55452        0.59563        0.50768        0.45315        0.40116        0.30113        0.26003        0.27664        0.27446        0.08591        0.04504       -0.01099        0.01165        0.04535       -0.00328        0.09612        0.10625        0.22756        0.30012        0.29240        0.39101        0.53187        0.49818        0.53736        0.66011        0.64865        0.60462        0.63563        0.61715        0.53794        0.55738        0.43769        0.36525        0.24862        0.18634        0.10571        0.13532        0.07668        0.15471        0.14024        0.18586        0.18877        0.31178        0.34352        0.42517        0.47728        0.52744        0.51057        0.49411        0.56282        0.45476        0.45118        0.47739        0.33556        0.27806        0.26384        0.28194        0.15975        0.20792        0.17143        0.19744        0.22381        0.27707        0.38507        0.40980        0.42037        0.45361        0.46271        0.45606        0.51435        0.41598        0.34450        0.35146        0.36249        0.33245        0.27484        0.24255        0.25845        0.25829        0.28376        0.26204        0.33781        0.41912        0.35764        0.39542        0.45522        0.42793        0.43134        0.46658        0.34924        0.30349        0.31790        0.26307        0.29100        0.26642        0.29840        0.28505        0.29375        0.34630        0.42388        0.39569        0.39387        0.38272        0.40578        0.33814        0.38155        0.30165        0.28829        0.26523        0.26025        0.25341        0.31555        0.33237        0.35036        0.35914        0.38394        0.33304        0.41075        0.39782        0.35646        0.34197        0.30182        0.31289        0.33398        0.31476        0.31462        0.31061        0.30186        0.31949        0.38099        0.33937        0.33742        0.33976        0.36146        0.34634        0.29300        0.32356        0.31254        0.31581        0.30313        0.32188        0.34264        0.33837        0.35007        0.33292        0.30578        0.29491        0.26929        0.26949        0.31905        0.30100        0.32095        0.30184        0.29526        0.32912        0.32167        0.29445        0.28205        0.28656        0.30032        0.28146        0.28614        0.31393        0.26798        0.34042        0.32159        0.34419        0.33311        0.30316        0.33160        0.30096        0.23154        0.24939        0.31739        0.30509        0.29436        0.33210        0.28803        0.30494        0.33909        0.37011        0.29392        0.27568        0.23735        0.28860        0.33978        0.38404        0.36008        0.31833        0.30209        0.30836        0.25677        0.31326        0.29916        0.33942        0.30901        0.28835        0.26915        0.29483        0.35296        0.28452        0.28743        0.25821        0.32851        0.35239        0.37172        0.31987        0.33263        0.29019        0.31180        0.31136        0.29565        0.27224        0.24605        0.24912        0.27242        0.30346        0.28476        0.29230        0.28139        0.23978        0.25623        0.24067        0.32397        0.30555        0.27236        0.29049        0.31990        0.31020        0.26204        0.21593        0.25839        0.27315        0.30255        0.33431        0.24162        0.28439        0.30308        0.23764        0.27138        0.24823        0.23305        0.22038        0.28593        0.21788        0.19998        0.29494        0.26848        0.31974        0.24523        0.22449        0.20991        0.09278        0.21164        0.31209        0.22155        0.18191        0.17078        0.31707        0.25895        0.26242        0.07893        0.06533       -0.47835       -0.74286
2.400196 2.375913 2.351757 2.327727 2.303824 2.280047 2.256397 2.232873 2.209476 2.186204 2.163060 2.140042 2.117150 2.094384 2.071745 2.049233 2.026846 2.004587 1.982453 1.960446 1.938566 1.916812 1.895184 1.873683 1.852308 1.831059 1.809937 1.788942 1.768072 1.747330 1.726713 1.706223 1.685860 1.665622 1.645512 1.625527 1.605669 1.585938 1.566333 1.546854 1.527502 1.508276 1.489177 1.470204 1.451357 1.432637 1.414043 1.395576 1.377235 1.359020 1.340932 1.395624 1.732652 1.595749 1.043862 0.941302 0.432265 0.817678 0.532994 0.701933 0.789317 0.497866 0.558038 0.669913 0.702592 0.549451 0.430786 0.293573 0.038665 -0.033819 0.035853 0.007360 0.274007 -0.126558 0.060460 -0.167600 -0.051362 -0.021903 0.030889 0.071104 0.056759 0.163057 0.249835 0.218782 0.442531 0.397060 0.573560 0.516663 0.727675 0.705918 0.832459 0.949194 0.884460 0.986614 1.029379 1.061160 1.029808 0.907120 0.887649 0.929987 0.816833 0.777710 0.642672 0.568344 0.505937 0.447736 0.497379 0.280337 0.169336 0.149152 0.049071 0.204319 0.019958 0.169134 0.178076 0.278870 0.367097 0.381640 0.459962 0.549203 0.627736 0.518394 0.750861 0.828436 0.660362 0.724993 0.691008 0.594142 0.557160 0.529286 0.357934 0.240872 0.137393 0.042410 0.022461 -0.010101 0.021930 0.013250 0.104002 0.036958 0.143932 0.231546 0.287450 0.365752 0.421132 0.426478 0.399639 0.449332 0.354707 0.324116 0.346933 0.274588 0.097354 0.090707 0.062257 0.019405 -0.025757 -0.033487 -0.033920 -0.009890 0.028236 0.111646 0.219464 0.239611 0.203439 0.308381 0.284955 0.310503 0.278043 0.201529 0.118745 0.137341 0.169208 0.052372 0.005556 0.000044 0.022761 0.053095 0.051568 0.011001 0.168431 0.153816 0.134324 0.197904 0.276678 0.131134 0.258670 0.140257 0.089148 0.043098 -0.001778 0.018846 -0.004401 0.002493 0.031075 0.003858 0.005880 0.121511 0.172370 0.107349 0.140845 0.121147 0.095782 0.086299 0.087053 -0.012729 0.007234 -0.041794 -0.062116 -0.012502 0.047382 0.080101 0.033940 0.107753 0.072136 0.075493 0.165266 0.076182 0.085040 0.057106 -0.010205 0.028973 0.077236 -0.012640 0.054524 0.024014 0.001689 0.069979 0.090558 0.047402 0.060383 0.068041 0.079524 0.048479 -0.002216 0.045243 0.024179 0.042779 0.024961 0.039735 0.053001 0.084358 0.045291 0.037836 -0.005402 -0.011076 -0.033693 -0.014771 0.026065 0.002469 0.042809 -0.000475 0.008219 0.054904 0.043368 0.035443 0.018049 0.000084 0.023013 0.015402 0.030325 0.037356 -0.020925 0.093239 0.075579 0.058161 0.054867 0.051957 0.056960 0.009148 -0.078210 0.003436 0.043446 0.032144 0.010506 0.069718 0.002653 0.012157 0.071871 0.058802 0.013637 -0.069009 -0.042744 -0.000129 0.051154 0.100326 0.076032 0.040544 0.004573 0.011588 -0.066938 0.034381 0.029859 0.047859 0.027796 -0.046306 -0.041070 0.008630 0.019725 -0.048759 -0.036258 -0.073225 0.080671 0.038185 0.043660 -0.030295 0.036638 -0.045072 -0.017990 -0.021903 -0.093602 -0.078783 -0.112568 -0.091459 -0.082796 -0.023524 -0.050754 -0.057338 -0.055556 -0.080913 -0.075309 -0.133042 0.072047 -0.021518 -0.039400 -0.024880 0.032950 -0.016052 -0.054115 -0.097572 -0.024797 0.025576 0.025127 0.066442 -0.062082 0.024828 -0.003060 -0.012633 0.043651 -0.053675 -0.005137 -0.062032 0.060728 -0.029001 -0.164991 0.076693 0.023079 0.097449 -0.023319 0.008158 -0.049262 -0.195264 -0.075818 0.078662 0.281351 0.198099 0.209574 0.453979 0.291586 0.317164 -0.043026 0.083874 -0.874462
0.072396 0.072909 0.074446 0.077008 0.080593 0.085202 0.090832 0.097481 0.105149 0.113831 0.123525 0.134225 0.145926 0.158622 0.172303 0.186961 0.202584 0.219159 0.236669 0.255096 0.274419 0.294615 0.315654 0.337508 0.360139 0.383510 0.407577 0.432290 0.457597 0.483438 0.509749 0.536459 0.563492 0.590763 0.618184 0.645657 0.673079 0.700339 0.727320 0.753896 0.779936 0.805301 0.829845 0.853416 0.875856 0.897000 0.916680 0.934723 0.950949 0.965180 0.977232 0.986922 0.994068 0.998486 1.000000 0.998435 0.993624 0.985407 0.973635 0.958171 0.938892 0.915692 0.888482 0.857196 0.821790 0.782246 0.738575 0.690815 0.639041 0.583359 0.523913 0.460883 0.394491 0.325000 0.252710 0.177969 0.101162 0.022720 0.056889 0.137155 0.217532 0.297439 0.376265 0.453368 0.528088 0.599745 0.667648 0.731102 0.789413 0.841902 0.887905 0.926789 0.957958 0.980865 0.995018 0.999996 0.995454 0.981133 0.956874 0.922621 0.878433 0.824487 0.761089 0.688674 0.607809 0.519197 0.423673 0.322201 0.215871 0.105887 0.006440 0.119706 0.232429 0.343069 0.450047 0.551768 0.646642 0.733116 0.809699 0.874989 0.927704 0.966710 0.991050 0.999968 0.992939 0.969689 0.930211 0.874785 0.803986 0.718690 0.620076 0.509611 0.389050 0.260403 0.125915 0.011966 0.150634 0.287372 0.419397 0.543925 0.658228 0.759695 0.845902 0.914670 0.964133 0.992791 0.999569 0.983858 0.945556 0.885094 0.803449 0.702147 0.583248 0.449323 0.303407 0.148941 0.010299 0.170290 0.326857 0.475784 0.612929 0.734342 0.836387 0.915862 0.970106 0.997107 0.995586 0.965069 0.905934 0.819435 0.707702 0.573711 0.421221 0.254687 0.079148 0.099925 0.276779 0.445576 0.600576 0.736346 0.847954 0.931167 0.982626 1.000000 0.982111 0.929024 0.842087 0.723934 0.578433 0.410587 0.226383 0.032593 0.163456 0.354156 0.531913 0.689452 0.820127 0.918220 0.979208 1.000000 0.979118 0.916817 0.815138 0.677877 0.510486 0.319876 0.114171 0.097630 0.306027 0.501455 0.674707 0.817400 0.922392 0.984165 0.999151 0.965970 0.885567 0.761244 0.598575 0.405188 0.190449 0.034967 0.259587 0.471722 0.660074 0.814357 0.925877 0.988060 0.996873 0.951133 0.852653 0.706241 0.519509 0.302536 0.067351 0.172708 0.403725 0.612027 0.784991 0.911852 0.984393 0.997534 0.949734 0.843187 0.683799 0.480917 0.246839 0.003894 0.255371 0.491315 0.696131 0.855965 0.959680 0.999676 0.972503 0.879217 0.725429 0.521041 0.279675 0.017811 0.246298 0.493887 0.707024 0.869917 0.970142 0.999640 0.955436 0.839992 0.661170 0.431776 0.168703 0.108247 0.377840 0.619018 0.812570 0.942700 0.998373 0.974326 0.871640 0.697817 0.466316 0.195602 0.092277 0.373437 0.624153 0.822848 0.952027 0.999862 0.961370 0.839012 0.642660 0.388901 0.099719 0.199353 0.481449 0.720790 0.895078 0.987623 0.989035 0.898274 0.722940 0.478762 0.188284 0.121147 0.419896 0.678885 0.872446 0.980923 0.992766 0.905865 0.727977 0.476164 0.175270 0.144445 0.450312 0.710567 0.897700 0.991428 0.981000 0.866553 0.659326 0.380715 0.060149 0.267914 0.567662 0.805864 0.955581 0.999339 0.931276 0.758052 0.498369 0.181079 0.157910 0.479657 0.746626 0.927144 0.999228 0.953398 0.794072 0.539319 0.218959 0.128804 0.461865 0.739320 0.926519 0.999497 0.948186 0.777952 0.509238 0.175262 0.181967 0.516852 0.786044 0.954096 0.998254 0.911700 0.704760 0.403864 0.048340 0.314613 0.636136 0.872326 0.990304
1.000000 1.000000 1.000000 1.000000 1.000000 1.000000 1.000000 1.000000 1.000000 1.000000 1.000000 1.000000 1.000000 1.000000 1.000000 1.000000 1.000000 1.000000 1.000000 1.000000 1.000000 1.000000 1.000000 1.000000 1.000000 1.000000 1.000000 1.000000 1.000000 1.000000 1.000000 1.000000 1.000000 1.000000 1.000000 1.000000 1.000000 1.000000 1.000000 1.000000 1.000000 1.000000 1.000000 1.000000 1.000000 1.000000 1.000000 1.000000 1.000000 1.000000 1.000000 1.000000 0.909880 0.909880 0.909880 0.897816 0.897816 0.897816 0.897816 0.897816 0.897816 0.897816 0.897816 0.897816 0.897816 0.897816 0.897816 0.897816 0.897816 0.897816 0.897816 0.897816 0.897816 0.897816 0.897816 0.897816 0.897816 0.897816 0.897816 0.897816 0.897816 0.897816 0.897816 0.897816 0.897816 0.897816 0.897816 0.897816 0.897816 0.897816 0.897816 0.897816 0.897816 0.897816 0.897816 0.897816 0.905003 0.907272 0.910623 0.911401 0.911249 0.908747 0.908461 0.908302 0.908570 0.909687 0.923535 0.938429 0.942252 0.945671 0.951236 0.955083 0.957520 0.958526 0.962270 0.973832 0.972549 0.973191 0.973558 0.974892 0.976631 0.976868 0.977812 0.977793 0.977362 0.977830 0.977698 0.977233 0.976626 0.976059 0.975112 0.975029 0.974183 0.974501 0.973422 0.973835 0.974145 0.974918 0.965635 0.967409 0.963016 0.962566 0.962643 0.960843 0.958405 0.952344 0.952033 0.947806 0.937245 0.936580 0.937086 0.913816 0.906317 0.907240 0.888937 0.886518 0.881645 0.875572 0.871996 0.873137 0.877722 0.881289 0.878736 0.871974 0.849249 0.815853 0.855600 0.835783 0.801314 0.793427 0.791726 0.792416 0.794038 0.792877 0.789148 0.782914 0.769275 0.769696 0.763798 0.770803 0.773645 0.773371 0.773258 0.768294 0.755380 0.744023 0.739410 0.723702 0.716059 0.715232 0.728453 0.730869 0.723050 0.719296 0.713613 0.692389 0.649706 0.648446 0.649963 0.641321 0.643530 0.648490 0.628983 0.625152 0.638030 0.631868 0.630266 0.650918 0.632772 0.627871 0.636185 0.622799 0.604794 0.614625 0.631547 0.631094 0.625851 0.627708 0.635139 0.629512 0.605663 0.591014 0.582713 0.568597 0.567810 0.599133 0.601042 0.593205 0.579234 0.567711 0.557315 0.551075 0.546729 0.557920 0.528998 0.537698 0.534146 0.533195 0.540114 0.544004 0.532534 0.548254 0.532106 0.502478 0.507426 0.515362 0.519315 0.499642 0.493126 0.498202 0.476597 0.462745 0.493233 0.507750 0.514226 0.521659 0.543984 0.541592 0.538849 0.560042 0.578660 0.563929 0.573261 0.569129 0.553335 0.404723 0.388604 0.371399 0.368055 0.373617 0.344203 0.316899 0.318309 0.266043 0.246310 0.231021 0.199652 0.162149 0.162835 0.156132 0.193178 0.224205 0.212428 0.220002 0.260517 0.287007 0.289878 0.285325 0.263760 0.261260 0.265947 0.239916 0.205048 0.186454 0.192567 0.124377 0.122003 0.124205 0.145238 0.104208 0.091544 0.094516 0.098443 0.072767 0.026551 0.027379 0.023029 0.019491 0.049010 0.057827 0.056466 0.000749 -0.031378 -0.052436 -0.051415 -0.093034 -0.084485 -0.094927 -0.102476 -0.090968 -0.078808 -0.063102 -0.021516 0.000299 0.001089 -0.000423 -0.012162 -0.013861 0.008808 0.013711 -0.008440 -0.060024 -0.071432 -0.071432 -0.071432 -0.071432 -0.071432 -0.056021 -0.056021 -0.056021 -0.056021 -0.056021 -0.056021 -0.056021 -0.056021 -0.056021 -0.012054 -0.012054 -0.012054 -0.012054 -0.012054 -0.012054 -0.012054 -0.012054 -0.012054 -0.012054 -0.012054 -0.012054 -0.012054 -0.012054 -0.012054 -0.012054 -0.012054
0.000000 0.000000 0.000000 0.000000 0.000000 0.000000 0.000000 0.000000 0.000000 0.000000 0.000000 0.000000 0.000000 0.000000 0.000000 0.000000 0.000000 0.000000 0.000000 0.000000 0.000000 0.000000 0.000000 0.000000 0.000000 0.000000 0.000000 0.000000 0.000000 0.000000 0.000000 0.000000 0.000000 0.000000 0.000000 0.000000 0.000000 0.000000 0.000000 0.000000 0.000000 0.000000 0.000000 0.000000 0.000000 0.000000 0.000000 0.000000 0.000000 0.000000 0.000000 0.000000 0.180334 0.180334 0.180334 0.199007 0.199007 0.199007 0.199007 0.199007 0.199007 0.199007 0.199007 0.199007 0.199007 0.199007 0.199007 0.199007 0.199007 0.199007 0.199007 0.199007 0.199007 0.199007 0.199007 0.199007 0.199007 0.199007 0.199007 0.199007 0.199007 0.199007 0.199007 0.199007 0.199007 0.199007 0.199007 0.199007 0.199007 0.199007 0.199007 0.199007 0.199007 0.199007 0.199007 0.199007 0.230940 0.230940 0.230940 0.230940 0.230940 0.230940 0.230940 0.230940 0.230940 0.230940 0.230940 0.230940 0.230940 0.230940 0.230940 0.230940 0.230940 0.230940 0.230940 0.230940 0.230940 0.230940 0.230940 0.230940 0.230940 0.230940 0.230940 0.230940 0.248069 0.248069 0.248069 0.248069 0.248069 0.248069 0.248069 0.248069 0.248069 0.248069 0.248069 0.248069 0.248069 0.248069 0.248069 0.248069 0.248069 0.248069 0.248069 0.248069 0.248069 0.248069 0.251976 0.251976 0.251976 0.251976 0.251976 0.251976 0.251976 0.251976 0.251976 0.251976 0.251976 0.251976 0.251976 0.251976 0.251976 0.251976 0.251976 0.251976 0.251976 0.251976 0.264906 0.264906 0.264906 0.264906 0.264906 0.264906 0.264906 0.264906 0.264906 0.264906 0.264906 0.264906 0.264906 0.264906 0.264906 0.264906 0.264906 0.256074 0.256074 0.256074 0.256074 0.256074 0.256074 0.256074 0.256074 0.256074 0.256074 0.256074 0.256074 0.256074 0.256074 0.256074 0.256074 0.256074 0.269680 0.269680 0.269680 0.269680 0.269680 0.269680 0.269680 0.269680 0.269680 0.269680 0.269680 0.269680 0.269680 0.269680 0.264906 0.264906 0.264906 0.264906 0.264906 0.264906 0.264906 0.264906 0.264906 0.264906 0.264906 0.264906 0.264906 0.264906 0.264906 0.264906 0.264906 0.264906 0.264906 0.264906 0.264906 0.264906 0.264906 0.264906 0.264906 0.264906 0.264906 0.260378 0.260378 0.260378 0.260378 0.260378 0.260378 0.260378 0.260378 0.260378 0.260378 0.260378 0.260378 0.260378 0.274721 0.274721 0.274721 0.274721 0.274721 0.274721 0.274721 0.274721 0.274721 0.274721 0.274721 0.260378 0.260378 0.260378 0.260378 0.260378 0.260378 0.260378 0.260378 0.260378 0.260378 0.260378 0.260378 0.264906 0.264906 0.264906 0.264906 0.264906 0.264906 0.264906 0.264906 0.264906 0.264906 0.264906 0.269680 0.269680 0.269680 0.269680 0.269680 0.269680 0.269680 0.269680 0.269680 0.269680 0.264906 0.264906 0.264906 0.264906 0.264906 0.264906 0.264906 0.264906 0.264906 0.264906 0.260378 0.260378 0.260378 0.260378 0.260378 0.260378 0.260378 0.260378 0.260378 0.260378 0.264906 0.264906 0.264906 0.264906 0.264906 0.264906 0.264906 0.264906 0.264906 0.251976 0.251976 0.251976 0.251976 0.251976 0.251976 0.251976 0.251976 0.251976 0.251976 0.256074 0.256074 0.256074 0.256074 0.256074 0.256074 0.256074 0.256074 0.256074 0.269680 0.269680 0.269680 0.269680 0.269680 0.269680 0.269680 0.269680 0.269680 0.269680 0.269680 0.269680 0.269680 0.269680 0.269680 0.269680 0.269680
