# Output from CTFFind version 4.1.9, run on 2019-10-31 12:59:06
# Input file: bm3d_ub_stacked.mrc ; Number of micrographs: 1
# Pixel size: 1.500 Angstroms ; acceleration voltage: 300.0 keV ; spherical aberration: 0.00 mm ; amplitude contrast: 0.07
# Box size: 512 pixels ; min. res.: 30.0 Angstroms ; max. res.: 5.0 Angstroms ; min. def.: 5000.0 um; max. def. 50000.0 um; num. frames averaged: 50
# 6 lines per micrograph: #1 - spatial frequency (1/Angstroms); #2 - 1D rotational average of spectrum (assuming no astigmatism); #3 - 1D rotational average of spectrum; #4 - CTF fit; #5 - cross-correlation between spectrum and CTF fit; #6 - 2sigma of expected cross correlation of noise
0.000000 0.001302 0.002604 0.003906 0.005208 0.006510 0.007812 0.009115 0.010417 0.011719 0.013021 0.014323 0.015625 0.016927 0.018229 0.019531 0.020833 0.022135 0.023438 0.024740 0.026042 0.027344 0.028646 0.029948 0.031250 0.032552 0.033854 0.035156 0.036458 0.037760 0.039062 0.040365 0.041667 0.042969 0.044271 0.045573 0.046875 0.048177 0.049479 0.050781 0.052083 0.053385 0.054688 0.055990 0.057292 0.058594 0.059896 0.061198 0.062500 0.063802 0.065104 0.066406 0.067708 0.069010 0.070312 0.071615 0.072917 0.074219 0.075521 0.076823 0.078125 0.079427 0.080729 0.082031 0.083333 0.084635 0.085938 0.087240 0.088542 0.089844 0.091146 0.092448 0.093750 0.095052 0.096354 0.097656 0.098958 0.100260 0.101562 0.102865 0.104167 0.105469 0.106771 0.108073 0.109375 0.110677 0.111979 0.113281 0.114583 0.115885 0.117188 0.118490 0.119792 0.121094 0.122396 0.123698 0.125000 0.126302 0.127604 0.128906 0.130208 0.131510 0.132812 0.134115 0.135417 0.136719 0.138021 0.139323 0.140625 0.141927 0.143229 0.144531 0.145833 0.147135 0.148438 0.149740 0.151042 0.152344 0.153646 0.154948 0.156250 0.157552 0.158854 0.160156 0.161458 0.162760 0.164062 0.165365 0.166667 0.167969 0.169271 0.170573 0.171875 0.173177 0.174479 0.175781 0.177083 0.178385 0.179688 0.180990 0.182292 0.183594 0.184896 0.186198 0.187500 0.188802 0.190104 0.191406 0.192708 0.194010 0.195312 0.196615 0.197917 0.199219 0.200521 0.201823 0.203125 0.204427 0.205729 0.207031 0.208333 0.209635 0.210938 0.212240 0.213542 0.214844 0.216146 0.217448 0.218750 0.220052 0.221354 0.222656 0.223958 0.225260 0.226562 0.227865 0.229167 0.230469 0.231771 0.233073 0.234375 0.235677 0.236979 0.238281 0.239583 0.240885 0.242188 0.243490 0.244792 0.246094 0.247396 0.248698 0.250000 0.251302 0.252604 0.253906 0.255208 0.256510 0.257812 0.259115 0.260417 0.261719 0.263021 0.264323 0.265625 0.266927 0.268229 0.269531 0.270833 0.272135 0.273438 0.274740 0.276042 0.277344 0.278646 0.279948 0.281250 0.282552 0.283854 0.285156 0.286458 0.287760 0.289062 0.290365 0.291667 0.292969 0.294271 0.295573 0.296875 0.298177 0.299479 0.300781 0.302083 0.303385 0.304688 0.305990 0.307292 0.308594 0.309896 0.311198 0.312500 0.313802 0.315104 0.316406 0.317708 0.319010 0.320312 0.321615 0.322917 0.324219 0.325521 0.326823 0.328125 0.329427 0.330729 0.332031 0.333333 0.334635 0.335938 0.337240 0.338542 0.339844 0.341146 0.342448 0.343750 0.345052 0.346354 0.347656 0.348958 0.350260 0.351562 0.352865 0.354167 0.355469 0.356771 0.358073 0.359375 0.360677 0.361979 0.363281 0.364583 0.365885 0.367188 0.368490 0.369792 0.371094 0.372396 0.373698 0.375000 0.376302 0.377604 0.378906 0.380208 0.381510 0.382812 0.384115 0.385417 0.386719 0.388021 0.389323 0.390625 0.391927 0.393229 0.394531 0.395833 0.397135 0.398438 0.399740 0.401042 0.402344 0.403646 0.404948 0.406250 0.407552 0.408854 0.410156 0.411458 0.412760 0.414062 0.415365 0.416667 0.417969 0.419271 0.420573 0.421875 0.423177 0.424479 0.425781 0.427083 0.428385 0.429688 0.430990 0.432292 0.433594 0.434896 0.436198 0.437500 0.438802 0.440104 0.441406 0.442708 0.444010 0.445312 0.446615 0.447917 0.449219 0.450521 0.451823 0.453125 0.454427 0.455729 0.457031 0.458333 0.459635 0.460938 0.462240 0.463542 0.464844 0.466146 0.467448 0.468750 0.470052 0.471354
       0.03033        0.03033        0.03033        0.03033        0.03033        0.03033        0.03033        0.03033        0.03033        0.03033        0.03033        0.03033        0.03033        0.03033        0.03033        0.03033        0.03033        0.03033        0.03033        0.03033        0.03033        0.03033        0.03033        0.03033        0.03033        0.16507        0.88594       -0.18569       -0.76603       -0.66046       -0.64856       -0.67394       -0.67058       -0.95823       -1.41933       -1.48917       -1.37458       -1.52400       -1.52436       -1.35093       -1.18597       -0.94489       -0.61496       -0.42728       -0.03134        0.25291        0.39258        0.59809        0.58255        0.51046        0.39803        0.09749       -0.09878       -0.17148       -0.51811       -0.56912       -0.55340       -0.34910       -0.10491        0.16391        0.44205        0.58669        0.62006        0.53101        0.36231        0.01695       -0.27905       -0.41263       -0.42397       -0.28538       -0.06231        0.18871        0.40534        0.42319        0.37662        0.18307       -0.10765       -0.21379       -0.35105       -0.24590       -0.03330        0.14769        0.24275        0.24440        0.19942        0.08107       -0.04198       -0.21851       -0.23068       -0.08086        0.03715        0.16237        0.21453        0.15697       -0.01594       -0.13556       -0.11040       -0.06082        0.04605        0.16682        0.17252        0.13807       -0.04966       -0.09660       -0.09215        0.03977        0.04225        0.09966        0.16006        0.01712       -0.04082       -0.03874       -0.07625        0.09214        0.03383        0.03909       -0.02958       -0.05292        0.01811        0.05259        0.06308        0.04034       -0.06197       -0.06352        0.06475        0.02710        0.06397        0.03663        0.01662        0.00748        0.04591        0.05502        0.10203        0.07578        0.02529        0.01820       -0.01771        0.04625        0.09763        0.10885       -0.01286        0.02485        0.05244        0.04983        0.03965        0.00795        0.11578        0.01364        0.05016        0.07771        0.00037        0.02270        0.06458       -0.01251        0.02607       -0.01084        0.02228        0.02932        0.04750        0.09180        0.08373        0.07897        0.00550       -0.02267        0.03538        0.02442        0.06181       -0.03288       -0.00360        0.06671        0.04648        0.07854        0.00070        0.04541        0.10204        0.07274        0.03773        0.02421        0.01229        0.04522        0.09040       -0.00600        0.01299        0.05100        0.05225        0.02420       -0.02573        0.03430        0.03553        0.01885        0.01817        0.06215        0.06009        0.05118        0.01566        0.00334        0.11182        0.10032        0.03136        0.00830        0.08063        0.04126        0.02440        0.06315        0.09054        0.03504        0.04075        0.08460        0.06314        0.05393        0.06159        0.03339        0.03826        0.02421        0.05152        0.04310        0.02420        0.03230        0.04762        0.03684        0.00831        0.06428        0.05547       -0.01019       -0.01048        0.01982        0.01146        0.00472        0.03790        0.02821        0.04436        0.06976        0.05078        0.00890        0.00968       -0.00070       -0.01433        0.02144        0.05568        0.02052        0.03330        0.02197        0.02789        0.02185        0.00930       -0.00860        0.03319        0.03775        0.01731        0.03133       -0.00006        0.00145        0.01157       -0.00260       -0.00216        0.03521        0.03471        0.01172        0.00133        0.02158        0.03481        0.01713       -0.00868       -0.02289        0.03172        0.05110        0.01777        0.04628        0.01947        0.01891        0.02638       -0.00665       -0.00059        0.00956       -0.04065        0.02147        0.02688        0.01447        0.06437        0.00778        0.01706       -0.00518        0.03229        0.03245        0.03264        0.03364        0.00546        0.01088        0.02567        0.06067        0.06239        0.04820        0.01933        0.00434       -0.00770       -0.00210       -0.01314        0.02325       -0.01354        0.02620        0.00877       -0.00482        0.02037        0.00368        0.00304        0.04309        0.02361        0.06787        0.04323        0.02252       -0.00374        0.02296        0.01023        0.00159        0.00741       -0.01325        0.00911        0.00356        0.01733        0.00634        0.01278       -0.01273       -0.03020        0.01179        0.04996       -0.01367        0.01913        0.01651       -0.01004        0.03123        0.01160       -0.04667       -0.02194        0.04506        0.04529       -0.01211        0.00243       -0.00381        0.00478        0.03431        0.01486        0.03127        0.03375        0.01199       -0.02606       -0.01102       -0.00781        0.01889       -0.01606       -0.10391       -0.01434        0.00045       -0.01652       -0.03562       -0.08108        0.07696        0.06077       -0.00008        0.02646        0.10237       -0.05536        0.02038       -0.04775
2.444116 2.395862 2.348113 2.300869 2.254130 2.207896 2.162167 2.116943 2.072224 2.028010 1.984301 1.941097 1.898398 1.856203 1.814514 1.773330 1.732651 1.692476 1.652807 1.613642 1.574983 1.536828 1.499179 1.462034 1.425395 1.389260 1.817511 1.029524 0.688097 0.719028 0.731943 0.662718 0.686636 0.426288 0.039455 -0.049866 -0.005510 -0.100898 -0.195875 -0.053850 -0.037055 0.172452 0.372076 0.442553 0.745186 0.907332 1.020876 1.098006 1.110486 1.002641 0.960376 0.672118 0.521133 0.497433 0.134243 0.116383 0.086254 0.191616 0.381615 0.494902 0.715005 0.773964 0.872837 0.752229 0.633214 0.381158 0.158662 -0.013874 -0.024106 0.034931 0.202934 0.386831 0.482927 0.555351 0.526331 0.374873 0.172008 0.074475 -0.079193 -0.054283 0.164359 0.213381 0.347307 0.366941 0.371631 0.268785 0.182541 0.018568 -0.014946 0.064478 0.183508 0.204865 0.263779 0.277764 0.132244 0.000212 0.021299 0.033892 0.058596 0.207349 0.180046 0.192078 0.040155 -0.004241 -0.056738 0.057735 0.070301 0.129871 0.196412 0.080367 0.040204 -0.005325 0.003657 0.070028 0.109791 0.056925 0.073351 -0.031227 0.041799 0.073569 0.107436 0.068797 0.023039 -0.035663 0.056091 0.071939 0.072916 0.080680 0.027400 0.040660 0.043988 0.067287 0.106606 0.097666 0.053351 -0.009621 -0.140206 -0.045200 0.281314 0.761867 -1.229066 -9.404308 -0.279954 0.329489 0.169154 -0.656600 27.579146 -0.187775 0.336875 -0.632868 0.426634 0.300272 -0.169672 0.064152 0.167512 0.036080 0.036404 0.060630 0.043609 -0.090585 -0.115585 -0.113666 -0.095134 0.118642 0.097113 0.035091 0.098862 0.067465 0.280204 -0.050588 -0.006638 0.193482 -0.570245 0.563345 0.110531 0.243127 0.098094 -0.073983 0.021040 -0.063634 0.132493 0.051055 -0.165547 15.855339 -5.562372 0.040697 -0.205258 -0.291470 0.213798 0.031129 0.074608 0.133992 0.176019 0.082635 0.053195 -0.047895 0.150314 0.141626 0.109680 -0.000810 0.000693 0.100775 -0.030083 0.030955 0.057262 0.086771 -0.052796 0.098470 0.170494 0.046812 0.006057 -0.006056 0.001471 -0.018603 -0.008821 0.003389 -0.022702 0.007172 -0.017770 0.033123 -0.014814 0.017480 0.019246 0.022476 -0.017696 -0.007334 0.026662 -0.022678 0.027957 0.015824 0.026260 0.038500 0.056939 0.037713 -0.003496 -0.001987 0.009149 -0.023483 0.028636 0.046120 0.004481 0.019763 -0.008084 -0.004626 0.002304 -0.020099 -0.027359 0.011669 0.012199 -0.016833 -0.000588 -0.019728 -0.007044 -0.021950 -0.008952 -0.007609 0.016039 0.018547 -0.001393 0.002584 0.006952 0.021225 0.002225 -0.025114 -0.020301 0.041856 0.004462 0.015246 0.022917 0.000947 0.004680 -0.001934 -0.021933 -0.019202 -0.006502 -0.040180 0.019682 0.014170 -0.005672 0.027456 -0.013146 -0.015215 -0.014303 0.005441 0.019470 0.008941 0.001751 -0.009411 -0.013411 -0.001549 0.023300 0.057340 0.005614 0.011232 -0.000287 -0.011567 -0.029321 -0.011491 0.018645 -0.025525 0.018244 -0.014003 -0.009441 0.003168 -0.007529 0.001692 0.038529 -0.004775 0.052129 0.010984 -0.000451 -0.009207 0.016011 0.009928 -0.019776 -0.017318 0.000629 0.003083 -0.012064 0.016788 0.016897 0.012908 -0.019924 0.011351 0.002021 0.027986 0.002554 0.018048 0.026578 0.009075 0.022473 0.001078 -0.020941 -0.035529 0.019249 0.040060 0.003693 -0.016744 -0.020319 0.010753 0.005999 0.006125 -0.004368 0.026844 0.007658 -0.017735 -0.005372 0.002624 0.029339 -0.014518 -0.042317 0.014464 0.088507 0.025575 0.115985 -0.060298 0.130529 0.022467 -0.066033 0.015115 0.136672 -0.041791 -0.034716
0.072396 0.074456 0.080632 0.090920 0.105305 0.123768 0.146276 0.172777 0.203200 0.237442 0.275364 0.316782 0.361458 0.409092 0.459308 0.511649 0.565567 0.620412 0.675429 0.729749 0.782389 0.832254 0.878140 0.918744 0.952684 0.978516 0.994768 0.999975 0.992726 0.971718 0.935813 0.884111 0.816018 0.731322 0.630267 0.513627 0.382763 0.239678 0.087043 0.071796 0.232843 0.391509 0.542721 0.681057 0.800942 0.896878 0.963714 0.996947 0.993044 0.949758 0.866436 0.744273 0.586509 0.398525 0.187822 0.036142 0.262271 0.478309 0.671486 0.829285 0.940321 0.995265 0.987754 0.915200 0.779419 0.586996 0.349294 0.082069 0.195360 0.461372 0.693681 0.871260 0.976391 0.996663 0.926693 0.769348 0.536253 0.247438 0.069996 0.384135 0.661352 0.869949 0.984006 0.986963 0.874439 0.655829 0.354286 0.004892 0.348994 0.660900 0.887397 0.994456 0.963085 0.793291 0.505554 0.139269 0.251962 0.607785 0.870373 0.994172 0.954465 0.753111 0.420111 0.010224 0.405245 0.750521 0.959319 0.988219 0.826665 0.501240 0.072714 0.374266 0.747386 0.965865 0.978706 0.777797 0.402384 0.066995 0.524680 0.863297 0.999371 0.895070 0.570220 0.100658 0.397919 0.797688 0.991690 0.923589 0.605778 0.119727 0.403043 0.815637 0.997274 0.890025 0.519294 0.009483 0.538893 0.905641 0.991563 0.763540 0.288462 0.283717 0.765673 0.993938 0.885829 0.471924 0.109251 0.655268 0.969636 0.933669 0.553921 0.034516 0.613310 0.960862 0.938243 0.547526 0.062792 0.651232 0.977803 0.903238 0.451544 0.193178 0.758767 0.999270 0.803849 0.251593 0.416157 0.898741 0.971836 0.594762 0.063051 0.694187 0.995473 0.815462 0.234733 0.465121 0.935126 0.933483 0.453686 0.263193 0.845607 0.983412 0.596211 0.114727 0.766176 0.997947 0.674704 0.029711 0.720222 0.999930 0.700627 0.010521 0.718368 0.999669 0.678629 0.057389 0.761011 0.994424 0.604742 0.169574 0.838413 0.968498 0.467885 0.342391 0.928349 0.894373 0.255418 0.560179 0.992906 0.737150 0.036421 0.786937 0.978330 0.465831 0.386854 0.958910 0.823983 0.074157 0.733925 0.987899 0.486864 0.391452 0.967977 0.786789 0.017497 0.810334 0.953764 0.324076 0.572522 0.999847 0.597514 0.306588 0.954428 0.791701 0.050783 0.851755 0.912605 0.171968 0.722965 0.975385 0.351608 0.592389 0.998161 0.486930 0.476896 0.997962 0.581598 0.387020 0.988594 0.640872 0.328616 0.979797 0.669404 0.304541 0.977116 0.669850 0.315748 0.981973 0.642256 0.361806 0.991715 0.584042 0.440660 0.999541 0.490609 0.547730 0.994449 0.356677 0.674376 0.961532 0.178482 0.806235 0.883131 0.042965 0.921757 0.741483 0.297989 0.992044 0.523460 0.564103 0.983313 0.227344 0.803585 0.863180 0.129018 0.964729 0.611557 0.501439 0.989951 0.235127 0.818233 0.832413 0.218718 0.989903 0.480145 0.656010 0.934059 0.018979 0.948260 0.613934 0.544632 0.969828 0.079201 0.920786 0.657874 0.513824 0.973525 0.074224 0.930488 0.622314 0.570073 0.949798 0.033950 0.969855 0.498750 0.700996 0.873207 0.243004 0.999902 0.266101 0.867540 0.694431 0.531361 0.948795 0.086596 0.989671 0.361869 0.829507 0.724796 0.519283 0.944043 0.129972 0.997458 0.265609 0.895064 0.606357 0.669990 0.850848 0.367519 0.979345 0.034987 0.991630 0.285786 0.902162 0.563091 0.734365 0.777003 0.515165 0.918848 0.270788 0.989228 0.023730 0.995461 0.208692 0.948917 0.414748 0.862721 0.588001 0.749924 0.726327 0.622426 0.830960 0.490105
1.000000 1.000000 1.000000 1.000000 1.000000 1.000000 1.000000 1.000000 1.000000 1.000000 1.000000 1.000000 1.000000 1.000000 1.000000 1.000000 1.000000 1.000000 1.000000 1.000000 1.000000 1.000000 1.000000 1.000000 1.000000 1.000000 0.932731 0.926525 0.926525 0.926525 0.926525 0.926525 0.926525 0.926525 0.926525 0.926525 0.926525 0.926525 0.926525 0.926525 0.926525 0.926525 0.926525 0.926525 0.926525 0.926525 0.926525 0.926525 0.915262 0.916481 0.911645 0.908487 0.910928 0.912134 0.924326 0.944116 0.943686 0.941301 0.939392 0.974749 0.973997 0.973210 0.972563 0.972161 0.970662 0.969624 0.970144 0.965588 0.965692 0.965154 0.965335 0.970888 0.973229 0.971677 0.972037 0.957689 0.958559 0.951180 0.952849 0.953716 0.953081 0.930546 0.888309 0.890791 0.883085 0.876352 0.882733 0.883713 0.874327 0.865620 0.826905 0.813729 0.812634 0.806711 0.788493 0.790313 0.793844 0.750846 0.743947 0.748522 0.743263 0.741661 0.682995 0.710450 0.709117 0.707468 0.722988 0.727191 0.736793 0.717599 0.722151 0.707999 0.701358 0.689997 0.686022 0.717086 0.717220 0.715128 0.712259 0.693407 0.669353 0.720562 0.709702 0.645659 0.647104 0.631700 0.640809 0.655932 0.671060 0.663833 0.646494 0.535130 0.555536 0.505643 0.476371 0.421451 0.446531 0.390368 0.429221 0.406678 0.302980 0.314051 0.247318 0.247819 0.224349 0.175713 0.116750 0.105905 0.008055 -0.030878 -0.073482 -0.094974 -0.101387 -0.120566 -0.162751 -0.182588 -0.152726 -0.227806 -0.269050 -0.271056 -0.225573 -0.262500 -0.292986 -0.187873 -0.277168 -0.230375 -0.302401 -0.278816 -0.154405 -0.083081 -0.147848 -0.185431 -0.217217 -0.107299 -0.110412 -0.140463 -0.185311 -0.158162 -0.120055 -0.044986 0.020233 0.066079 0.108707 0.161715 0.141475 0.186647 0.241099 0.254950 0.333649 0.364181 0.328101 0.389130 0.369697 0.401172 0.428168 0.418627 0.467581 0.482434 0.428449 0.338214 0.322086 0.352058 0.350232 0.410268 0.411918 0.454315 0.448714 0.432184 0.448189 0.587786 0.604465 0.617820 0.502516 0.506021 0.533921 0.535911 0.427209 0.446743 0.463855 0.554710 0.553420 0.480919 0.494900 0.523630 0.498065 0.447932 0.401582 0.391861 0.376138 0.352274 0.334364 0.304837 0.291626 0.286950 0.269989 0.327645 0.268733 0.301945 0.328922 0.300389 0.304699 0.278494 0.166964 0.223828 0.196829 0.184056 0.118091 0.096313 0.068971 0.046670 0.098367 0.113309 0.112243 0.162346 0.124843 0.077125 0.064698 0.067210 0.030503 0.036367 -0.012592 -0.010375 -0.098952 -0.088320 -0.000706 0.019251 -0.113904 -0.111864 -0.077721 -0.028536 -0.000707 0.035952 0.015183 -0.054599 -0.026712 -0.022720 -0.037770 -0.062293 -0.046698 -0.069926 -0.007892 0.020898 0.082612 0.078750 0.080011 0.069610 0.050229 0.073706 0.053007 0.037501 0.076135 0.042033 0.025237 0.021874 0.088519 0.071848 0.051114 0.059439 0.069167 0.020112 0.006784 0.088272 0.088785 0.109428 0.067901 0.087115 0.134077 0.115386 0.096620 0.156684 0.146399 0.139268 0.136579 0.160545 0.195691 0.152368 0.166228 0.171155 0.182943 0.158764 0.199423 0.240699 0.212869 0.235202 0.236604 0.221430 0.220459 0.176507 0.181150 0.206763 0.188630 0.188630 0.188630 0.189159 0.175772 0.176496 0.159946 0.190863 0.168605 0.209644 0.209644 0.209644 0.168034 0.168034 0.168034 0.168034 0.209679 0.209679 0.209679 0.209679 0.207412 0.207412 0.207412 0.209679 0.209679 0.230967 0.230967 0.230967 0.230967 0.230967 0.230967 0.230967 0.230967
0.000000 0.000000 0.000000 0.000000 0.000000 0.000000 0.000000 0.000000 4.000000 0.000000 0.000000 0.000000 0.000000 0.000000 0.000000 0.000000 0.000000 0.000000 0.000000 0.000000 0.000000 0.000000 0.000000 0.000000 0.000000 0.000000 0.256074 0.274721 0.274721 0.274721 0.274721 0.274721 0.274721 0.274721 0.274721 0.274721 0.274721 0.274721 0.274721 0.274721 0.274721 0.274721 0.274721 0.274721 0.274721 0.274721 0.274721 0.274721 0.320256 0.320256 0.320256 0.320256 0.320256 0.320256 0.320256 0.320256 0.320256 0.320256 0.320256 0.320256 0.320256 0.320256 0.348155 0.348155 0.348155 0.348155 0.348155 0.348155 0.348155 0.348155 0.348155 0.348155 0.348155 0.348155 0.348155 0.348155 0.348155 0.348155 0.348155 0.348155 0.348155 0.348155 0.348155 0.348155 0.348155 0.348155 0.348155 0.348155 0.348155 0.348155 0.348155 0.348155 0.359211 0.359211 0.359211 0.359211 0.359211 0.359211 0.359211 0.359211 0.371391 0.371391 0.371391 0.371391 0.371391 0.371391 0.371391 0.359211 0.359211 0.359211 0.359211 0.359211 0.359211 0.359211 0.348155 0.348155 0.348155 0.348155 0.348155 0.348155 0.348155 0.371391 0.371391 0.371391 0.371391 0.371391 0.371391 0.359211 0.359211 0.359211 0.359211 0.359211 0.359211 0.384900 0.384900 0.384900 0.384900 0.384900 0.348155 0.348155 0.348155 0.348155 0.348155 0.348155 0.359211 0.359211 0.359211 0.359211 0.359211 0.359211 0.359211 0.359211 0.359211 0.359211 0.348155 0.348155 0.348155 0.348155 0.348155 0.348155 0.348155 0.348155 0.348155 0.348155 0.371391 0.371391 0.371391 0.371391 0.328798 0.328798 0.328798 0.328798 0.328798 0.359211 0.359211 0.359211 0.359211 0.348155 0.348155 0.348155 0.348155 0.348155 0.348155 0.348155 0.348155 0.338062 0.338062 0.338062 0.338062 0.338062 0.338062 0.338062 0.338062 0.328798 0.328798 0.328798 0.328798 0.328798 0.328798 0.328798 0.328798 0.320256 0.320256 0.320256 0.320256 0.320256 0.320256 0.320256 0.320256 0.348155 0.348155 0.348155 0.312348 0.312348 0.312348 0.312348 0.348155 0.348155 0.348155 0.304997 0.304997 0.304997 0.304997 0.338062 0.338062 0.338062 0.298142 0.298142 0.298142 0.298142 0.328798 0.328798 0.328798 0.328798 0.328798 0.328798 0.320256 0.320256 0.320256 0.320256 0.320256 0.320256 0.280056 0.280056 0.280056 0.280056 0.312348 0.312348 0.312348 0.312348 0.312348 0.312348 0.304997 0.304997 0.304997 0.304997 0.304997 0.304997 0.298142 0.298142 0.298142 0.298142 0.298142 0.298142 0.338062 0.338062 0.291730 0.291730 0.291730 0.291730 0.291730 0.291730 0.285714 0.285714 0.285714 0.285714 0.285714 0.285714 0.328798 0.328798 0.280056 0.280056 0.280056 0.280056 0.280056 0.280056 0.320256 0.320256 0.274721 0.274721 0.274721 0.274721 0.274721 0.274721 0.312348 0.312348 0.269680 0.269680 0.269680 0.304997 0.304997 0.264906 0.264906 0.264906 0.304997 0.304997 0.260378 0.260378 0.260378 0.298142 0.298142 0.256074 0.256074 0.256074 0.298142 0.298142 0.256074 0.256074 0.256074 0.291730 0.291730 0.291730 0.291730 0.248069 0.248069 0.248069 0.285714 0.285714 0.285714 0.285714 0.244339 0.244339 0.244339 0.280056 0.280056 0.280056 0.280056 0.280056 0.280056 0.240772 0.240772 0.240772 0.274721 0.274721 0.274721 0.274721 0.269680 0.269680 0.269680 0.269680 0.234082 0.234082 0.234082 0.269680 0.269680 0.264906 0.264906 0.264906 0.264906 0.264906 0.264906 0.264906 0.264906
