# Output from CTFFind version 4.1.9, run on 2019-11-01 21:22:08
# Input file: bm3d_averaged_0.5_1.7_0.33_250_full.mrc ; Number of micrographs: 1
# Pixel size: 3.000 Angstroms ; acceleration voltage: 300.0 keV ; spherical aberration: 0.00 mm ; amplitude contrast: 0.07
# Box size: 512 pixels ; min. res.: 30.0 Angstroms ; max. res.: 5.0 Angstroms ; min. def.: 5000.0 um; max. def. 50000.0 um; num. frames averaged: 1
# 6 lines per micrograph: #1 - spatial frequency (1/Angstroms); #2 - 1D rotational average of spectrum (assuming no astigmatism); #3 - 1D rotational average of spectrum; #4 - CTF fit; #5 - cross-correlation between spectrum and CTF fit; #6 - 2sigma of expected cross correlation of noise
0.000000 0.000651 0.001302 0.001953 0.002604 0.003255 0.003906 0.004557 0.005208 0.005859 0.006510 0.007161 0.007812 0.008464 0.009115 0.009766 0.010417 0.011068 0.011719 0.012370 0.013021 0.013672 0.014323 0.014974 0.015625 0.016276 0.016927 0.017578 0.018229 0.018880 0.019531 0.020182 0.020833 0.021484 0.022135 0.022786 0.023438 0.024089 0.024740 0.025391 0.026042 0.026693 0.027344 0.027995 0.028646 0.029297 0.029948 0.030599 0.031250 0.031901 0.032552 0.033203 0.033854 0.034505 0.035156 0.035807 0.036458 0.037109 0.037760 0.038411 0.039062 0.039714 0.040365 0.041016 0.041667 0.042318 0.042969 0.043620 0.044271 0.044922 0.045573 0.046224 0.046875 0.047526 0.048177 0.048828 0.049479 0.050130 0.050781 0.051432 0.052083 0.052734 0.053385 0.054036 0.054688 0.055339 0.055990 0.056641 0.057292 0.057943 0.058594 0.059245 0.059896 0.060547 0.061198 0.061849 0.062500 0.063151 0.063802 0.064453 0.065104 0.065755 0.066406 0.067057 0.067708 0.068359 0.069010 0.069661 0.070312 0.070964 0.071615 0.072266 0.072917 0.073568 0.074219 0.074870 0.075521 0.076172 0.076823 0.077474 0.078125 0.078776 0.079427 0.080078 0.080729 0.081380 0.082031 0.082682 0.083333 0.083984 0.084635 0.085286 0.085938 0.086589 0.087240 0.087891 0.088542 0.089193 0.089844 0.090495 0.091146 0.091797 0.092448 0.093099 0.093750 0.094401 0.095052 0.095703 0.096354 0.097005 0.097656 0.098307 0.098958 0.099609 0.100260 0.100911 0.101562 0.102214 0.102865 0.103516 0.104167 0.104818 0.105469 0.106120 0.106771 0.107422 0.108073 0.108724 0.109375 0.110026 0.110677 0.111328 0.111979 0.112630 0.113281 0.113932 0.114583 0.115234 0.115885 0.116536 0.117188 0.117839 0.118490 0.119141 0.119792 0.120443 0.121094 0.121745 0.122396 0.123047 0.123698 0.124349 0.125000 0.125651 0.126302 0.126953 0.127604 0.128255 0.128906 0.129557 0.130208 0.130859 0.131510 0.132161 0.132812 0.133464 0.134115 0.134766 0.135417 0.136068 0.136719 0.137370 0.138021 0.138672 0.139323 0.139974 0.140625 0.141276 0.141927 0.142578 0.143229 0.143880 0.144531 0.145182 0.145833 0.146484 0.147135 0.147786 0.148438 0.149089 0.149740 0.150391 0.151042 0.151693 0.152344 0.152995 0.153646 0.154297 0.154948 0.155599 0.156250 0.156901 0.157552 0.158203 0.158854 0.159505 0.160156 0.160807 0.161458 0.162109 0.162760 0.163411 0.164062 0.164714 0.165365 0.166016 0.166667 0.167318 0.167969 0.168620 0.169271 0.169922 0.170573 0.171224 0.171875 0.172526 0.173177 0.173828 0.174479 0.175130 0.175781 0.176432 0.177083 0.177734 0.178385 0.179036 0.179688 0.180339 0.180990 0.181641 0.182292 0.182943 0.183594 0.184245 0.184896 0.185547 0.186198 0.186849 0.187500 0.188151 0.188802 0.189453 0.190104 0.190755 0.191406 0.192057 0.192708 0.193359 0.194010 0.194661 0.195312 0.195964 0.196615 0.197266 0.197917 0.198568 0.199219 0.199870 0.200521 0.201172 0.201823 0.202474 0.203125 0.203776 0.204427 0.205078 0.205729 0.206380 0.207031 0.207682 0.208333 0.208984 0.209635 0.210286 0.210938 0.211589 0.212240 0.212891 0.213542 0.214193 0.214844 0.215495 0.216146 0.216797 0.217448 0.218099 0.218750 0.219401 0.220052 0.220703 0.221354 0.222005 0.222656 0.223307 0.223958 0.224609 0.225260 0.225911 0.226562 0.227214 0.227865 0.228516 0.229167 0.229818 0.230469 0.231120 0.231771 0.232422 0.233073 0.233724 0.234375 0.235026 0.235677
       0.33209        0.33209        0.33209        0.33209        0.33209        0.33209        0.33209        0.33209        0.33209        0.33209        0.33209        0.33209        0.33209        0.33209        0.33209        0.33209        0.33209        0.33209        0.33209        0.33209        0.33209        0.33209        0.33209        0.33209        0.33209        0.33209        0.33209        0.33209        0.33209        0.33209        0.33209        0.33209        0.33209        0.33209        0.33209        0.33209        0.33209        0.33209        0.33209        0.33209        0.33209        0.33209        0.33209        0.33209        0.33209        0.33209        0.33209        0.33209        0.33209        0.33209        0.33209        0.50281        0.71940        0.42952        0.18823       -0.08181       -0.25999       -0.06786       -0.13466       -0.05094       -0.00462       -0.14888       -0.09065       -0.05710       -0.00622       -0.15428       -0.22330       -0.34893       -0.46035       -0.55389       -0.51394       -0.44415       -0.37042       -0.54458       -0.45223       -0.62224       -0.50422       -0.47431       -0.38946       -0.38887       -0.33970       -0.25342       -0.16164       -0.13959        0.03170       -0.01346        0.11787        0.16422        0.30655        0.41134        0.46139        0.50111        0.54260        0.55051        0.68642        0.64262        0.67477        0.58997        0.55442        0.65186        0.52669        0.42406        0.37987        0.32110        0.22859        0.25950        0.24989        0.10548        0.08052       -0.00039       -0.00395        0.04047       -0.00750        0.07291        0.10431        0.23236        0.28475        0.29826        0.37725        0.56269        0.53266        0.57886        0.66684        0.70352        0.62931        0.63762        0.63180        0.55895        0.57605        0.40223        0.34348        0.26349        0.18309        0.07334        0.14248        0.11859        0.09124        0.10453        0.20822        0.21439        0.31692        0.36218        0.41175        0.49228        0.58229        0.54240        0.55620        0.60472        0.53371        0.45885        0.48323        0.32831        0.24492        0.25959        0.23867        0.14044        0.14170        0.15350        0.21758        0.23916        0.33062        0.36566        0.38963        0.46825        0.44380        0.48247        0.45327        0.46706        0.44792        0.40859        0.38595        0.35079        0.31260        0.29191        0.20405        0.18999        0.21860        0.26755        0.26642        0.34862        0.37351        0.35675        0.41120        0.44756        0.44151        0.42562        0.44361        0.38121        0.33458        0.28289        0.25934        0.29222        0.26736        0.29256        0.29968        0.34390        0.34214        0.39170        0.40323        0.42949        0.40741        0.43391        0.40147        0.35786        0.28041        0.29129        0.30646        0.26893        0.25243        0.32051        0.36897        0.34138        0.35168        0.35899        0.35751        0.40970        0.40623        0.36427        0.33761        0.30426        0.31151        0.31800        0.31923        0.30010        0.28032        0.33606        0.36007        0.37900        0.33289        0.32920        0.33563        0.34457        0.30875        0.28354        0.30211        0.30926        0.33896        0.31677        0.32487        0.35818        0.32643        0.31314        0.32464        0.29960        0.26488        0.25485        0.26678        0.30882        0.32139        0.35339        0.30287        0.30824        0.32878        0.29417        0.31371        0.28347        0.28342        0.29210        0.29461        0.30625        0.34363        0.33282        0.33231        0.34067        0.31300        0.33697        0.32068        0.31929        0.30690        0.28065        0.29052        0.30558        0.29265        0.32469        0.33320        0.33279        0.32753        0.34202        0.32054        0.28115        0.24766        0.26505        0.32790        0.35239        0.33875        0.31051        0.29002        0.29464        0.31055        0.25123        0.29994        0.31134        0.34110        0.29824        0.30908        0.28426        0.33507        0.33641        0.33969        0.31314        0.29120        0.31752        0.39889        0.32371        0.30942        0.31569        0.28350        0.28103        0.30491        0.27348        0.32220        0.23306        0.26911        0.29658        0.31256        0.29441        0.26100        0.29216        0.23967        0.22090        0.26496        0.29681        0.30829        0.27021        0.28036        0.33076        0.26286        0.22314        0.30124        0.27035        0.26121        0.28464        0.38673        0.29294        0.28579        0.24987        0.24667        0.27124        0.25316        0.23836        0.18066        0.26505        0.23236        0.24327        0.31678        0.25867        0.35845        0.30702        0.22572        0.21619        0.21110        0.23485        0.32537        0.23774        0.13775        0.17234        0.23034        0.24623        0.26013        0.21871        0.02065       -0.46349       -0.94495
2.701924 2.673359 2.644947 2.616689 2.588583 2.560632 2.532833 2.505188 2.477696 2.450358 2.423173 2.396141 2.369262 2.342537 2.315965 2.289547 2.263282 2.237170 2.211211 2.185406 2.159754 2.134255 2.108910 2.083718 2.058680 2.033794 2.009063 1.984484 1.960059 1.935787 1.911668 1.887703 1.863891 1.840232 1.816727 1.793375 1.770176 1.747131 1.724239 1.701500 1.678915 1.656483 1.634204 1.612079 1.590107 1.568288 1.546623 1.525111 1.503752 1.482547 1.461495 1.532771 1.836625 1.532423 1.159912 0.941208 0.547891 0.915232 0.632686 0.879198 0.927022 0.589125 0.715338 0.773268 0.817549 0.629394 0.534771 0.345346 0.103537 0.082521 0.047139 0.088079 0.303648 -0.036127 0.079254 -0.138017 -0.015156 -0.018144 0.084110 0.052207 0.103132 0.172301 0.280345 0.246759 0.481506 0.395861 0.548770 0.523462 0.768713 0.794167 0.879390 0.927507 0.944249 0.948161 1.103423 0.951077 1.141021 0.944903 0.853294 1.015895 0.848877 0.755531 0.615267 0.593874 0.460991 0.410684 0.509247 0.264315 0.192698 0.153922 0.013958 0.214009 -0.005798 0.113211 0.184375 0.261590 0.333869 0.342293 0.422010 0.544180 0.657946 0.542156 0.736145 0.874866 0.641632 0.698261 0.669011 0.598970 0.537909 0.472418 0.297651 0.212302 0.113628 -0.042907 -0.022934 0.056035 -0.100865 -0.059519 0.048098 0.052050 0.109814 0.224235 0.238921 0.310127 0.434554 0.438895 0.437492 0.483345 0.441061 0.318573 0.338123 0.246300 0.042177 0.061334 0.019862 -0.060971 -0.096652 -0.105427 -0.014765 -0.063439 0.066986 0.125178 0.123871 0.255855 0.223861 0.242176 0.291061 0.254052 0.244760 0.209144 0.180748 0.106966 0.101355 0.030897 0.012542 -0.127007 -0.058964 -0.001105 0.002452 0.014552 0.097798 0.082378 0.137346 0.176908 0.248589 0.167227 0.192112 0.113547 0.146651 0.014441 -0.029725 0.016099 -0.017682 -0.008755 -0.004940 0.031255 0.074329 0.055040 0.139442 0.118900 0.160228 0.065041 0.150391 0.085966 -0.015944 -0.060044 -0.016546 -0.035245 -0.081177 -0.067624 0.040652 0.065291 -0.010063 0.056357 0.054268 0.073903 0.147219 0.074785 0.064870 0.039851 -0.027589 0.027819 0.005788 0.012321 0.003342 -0.014568 0.035319 0.070067 0.072804 0.029669 0.045739 0.019533 0.062361 -0.009873 -0.019227 0.016205 0.006861 0.064743 0.028424 0.036830 0.075469 0.025485 0.014703 0.030857 -0.004358 -0.042018 -0.027746 -0.028174 0.027459 0.044778 0.096911 0.000382 0.049766 0.063486 -0.003078 0.062187 0.016260 0.018967 0.044511 0.049750 0.043868 0.102674 0.067702 0.078272 0.085225 0.083265 0.073669 0.069921 0.084613 0.031737 -0.001713 0.044802 0.033572 0.059469 0.063557 0.091466 -0.000021 0.070740 0.070460 0.008648 0.012742 -0.075468 -0.028519 0.103080 0.068763 0.038825 0.028033 -0.017639 0.032861 0.017664 -0.064417 0.043546 0.046556 0.073925 0.026956 0.002798 -0.000816 0.055567 0.041822 0.019838 0.031948 -0.033851 0.065500 0.119879 0.007152 -0.009012 0.011356 -0.016146 -0.036579 -0.009282 -0.049386 0.017407 -0.100727 -0.027036 -0.029660 0.021784 -0.033815 -0.036630 -0.010912 -0.072963 -0.062298 -0.056957 0.039803 0.013880 -0.001848 -0.002639 0.090413 -0.042149 -0.036167 0.040666 -0.007724 0.029645 0.015547 0.191459 -0.005280 0.019570 0.027686 -0.015979 0.002249 -0.002838 -0.012165 -0.138112 0.032417 -0.030193 0.002284 0.045267 -0.017300 0.155140 0.042526 -0.032773 -0.055673 -0.025754 -0.068357 0.099076 0.285016 0.163005 0.220093 0.217933 0.341791 0.292880 0.257173 0.027058 -1.112251
0.072396 0.072910 0.074451 0.077018 0.080612 0.085231 0.090874 0.097540 0.105225 0.113927 0.123643 0.134368 0.146096 0.158821 0.172533 0.187225 0.202883 0.219495 0.237044 0.255512 0.274878 0.295117 0.316202 0.338101 0.360780 0.384199 0.408313 0.433074 0.458428 0.484316 0.510672 0.537426 0.564500 0.591811 0.619267 0.646772 0.674221 0.701504 0.728501 0.755087 0.781129 0.806488 0.831017 0.854563 0.876968 0.898065 0.917686 0.935656 0.951796 0.965925 0.977860 0.987418 0.994413 0.998665 0.999994 0.998227 0.993195 0.984740 0.972712 0.956975 0.937406 0.913899 0.886369 0.854749 0.818997 0.779097 0.735062 0.686934 0.634789 0.578738 0.518926 0.455539 0.388802 0.318982 0.246385 0.171363 0.094306 0.015650 0.064132 0.144524 0.224976 0.304901 0.383683 0.460676 0.535216 0.606618 0.674189 0.737231 0.795049 0.846962 0.892308 0.930453 0.960806 0.982821 0.996014 0.999968 0.994346 0.978902 0.953484 0.918049 0.872671 0.817542 0.752982 0.679444 0.597515 0.507914 0.411497 0.309245 0.202267 0.091786 0.020870 0.134282 0.246954 0.357334 0.463834 0.564853 0.658800 0.744122 0.819333 0.883041 0.933979 0.971031 0.993263 0.999950 0.990597 0.964967 0.923095 0.865302 0.792213 0.704749 0.604137 0.491895 0.369823 0.239976 0.104642 0.033696 0.172405 0.308740 0.439907 0.563116 0.675645 0.774900 0.858483 0.924256 0.970402 0.995484 0.998499 0.978920 0.936732 0.872462 0.787184 0.682526 0.560645 0.424209 0.276337 0.120549 0.039315 0.199181 0.354846 0.502084 0.636764 0.754972 0.853132 0.928123 0.977390 0.999049 0.991965 0.955822 0.891170 0.799438 0.682934 0.544802 0.388963 0.220013 0.043106 0.136193 0.312084 0.478708 0.630356 0.761658 0.867800 0.944699 0.989190 0.999168 0.973709 0.913150 0.819122 0.694540 0.543542 0.371378 0.184248 0.010912 0.206660 0.395341 0.569377 0.721581 0.845474 0.935563 0.987620 0.998899 0.968309 0.896520 0.785993 0.640941 0.467195 0.272004 0.063764 0.148341 0.354724 0.545828 0.712578 0.846824 0.941762 0.992311 0.995412 0.950249 0.858361 0.723644 0.552231 0.352256 0.133494 0.093091 0.315872 0.523159 0.703821 0.847894 0.947162 0.995657 0.990062 0.929972 0.818013 0.659783 0.463625 0.240230 0.002094 0.237163 0.463564 0.663594 0.825022 0.937683 0.994151 0.990284 0.925569 0.803265 0.630307 0.416970 0.176314 0.076585 0.325545 0.554322 0.747664 0.892364 0.978199 0.998706 0.951723 0.839664 0.669467 0.452256 0.202651 0.062154 0.323556 0.562829 0.762489 0.907599 0.986930 0.993892 0.927154 0.790878 0.594557 0.352421 0.082471 0.194799 0.457965 0.686295 0.861436 0.968921 0.999429 0.949674 0.822825 0.628407 0.381682 0.102514 0.186161 0.460213 0.696309 0.873956 0.977308 0.996668 0.929483 0.780742 0.562711 0.294030 0.001807 0.298469 0.569090 0.788727 0.936708 0.998633 0.967879 0.846405 0.644758 0.381285 0.080548 0.228895 0.517180 0.756008 0.921476 0.996538 0.972863 0.851868 0.644792 0.371784 0.060044 0.258820 0.551958 0.788675 0.943693 0.999938 0.950531 0.799751 0.562818 0.264486 0.063437 0.385417 0.666027 0.873871 0.985173 0.986601 0.877001 0.667781 0.381881 0.051388 0.285990 0.591178 0.828279 0.968856 0.995458 0.903922 0.704148 0.419199 0.082774 0.264659 0.580709 0.826228 0.970233 0.993930 0.893326 0.680019 0.380058 0.030895 0.323185 0.636624 0.868498 0.987926 0.978331 0.839899 0.589891 0.260682 0.104314 0.456241 0.747346 0.937500 0.999857
1.000000 1.000000 1.000000 1.000000 1.000000 1.000000 1.000000 1.000000 1.000000 1.000000 1.000000 1.000000 1.000000 1.000000 1.000000 1.000000 1.000000 1.000000 1.000000 1.000000 1.000000 1.000000 1.000000 1.000000 1.000000 1.000000 1.000000 1.000000 1.000000 1.000000 1.000000 1.000000 1.000000 1.000000 1.000000 1.000000 1.000000 1.000000 1.000000 1.000000 1.000000 1.000000 1.000000 1.000000 1.000000 1.000000 1.000000 1.000000 1.000000 1.000000 1.000000 1.000000 0.920564 0.920564 0.907248 0.907248 0.907248 0.907248 0.907248 0.907248 0.907248 0.907248 0.907248 0.907248 0.907248 0.907248 0.907248 0.907248 0.907248 0.907248 0.907248 0.907248 0.907248 0.907248 0.907248 0.907248 0.907248 0.907248 0.907248 0.907248 0.907248 0.907248 0.907248 0.907248 0.907248 0.907248 0.907248 0.907248 0.907248 0.907248 0.907248 0.907248 0.907248 0.907248 0.907248 0.904370 0.908910 0.910730 0.908973 0.912527 0.912614 0.911922 0.912259 0.911892 0.912172 0.913523 0.924069 0.935153 0.946493 0.946591 0.951664 0.956142 0.958478 0.959516 0.961089 0.967349 0.966133 0.965579 0.966296 0.967896 0.970141 0.968695 0.968510 0.971634 0.972367 0.970590 0.968555 0.967931 0.967304 0.967379 0.966965 0.966860 0.966761 0.967259 0.967482 0.967702 0.967840 0.967871 0.968895 0.970050 0.972282 0.973240 0.973015 0.971808 0.969736 0.973777 0.974591 0.974243 0.974134 0.973595 0.973902 0.962801 0.957185 0.957135 0.953357 0.952600 0.950235 0.948092 0.945166 0.945128 0.944418 0.944976 0.940397 0.927809 0.914005 0.902466 0.924101 0.908887 0.897023 0.874105 0.873862 0.873529 0.874175 0.867718 0.861145 0.857103 0.854063 0.855236 0.851407 0.854058 0.851675 0.841100 0.843395 0.841538 0.814525 0.799114 0.779734 0.780409 0.778130 0.779453 0.779182 0.777788 0.785841 0.776207 0.774769 0.767069 0.748628 0.711808 0.695106 0.705137 0.714696 0.712029 0.708479 0.693227 0.661893 0.673615 0.694340 0.694977 0.698073 0.688629 0.679987 0.677942 0.681965 0.671067 0.661740 0.660793 0.659144 0.668680 0.672805 0.670560 0.658749 0.642732 0.629387 0.616266 0.627976 0.635154 0.602182 0.596267 0.580856 0.572671 0.559199 0.537401 0.535966 0.510727 0.502004 0.507231 0.512881 0.515182 0.523869 0.525680 0.506514 0.523561 0.535392 0.560129 0.539550 0.538824 0.539575 0.544849 0.532194 0.514639 0.512180 0.512984 0.522829 0.547882 0.587529 0.577285 0.563737 0.551018 0.559467 0.532375 0.536939 0.555407 0.532705 0.473964 0.414754 0.412221 0.374237 0.376180 0.356517 0.353235 0.357948 0.348719 0.338528 0.325582 0.312062 0.252987 0.213052 0.196871 0.180790 0.183176 0.197039 0.195634 0.191000 0.208845 0.257486 0.260354 0.252772 0.244524 0.235037 0.202102 0.202151 0.221730 0.176560 0.165533 0.157597 0.132350 0.115353 0.062484 0.091043 -0.004003 -0.025299 -0.029309 -0.009464 0.002974 0.001487 0.004292 -0.029577 -0.012878 0.029378 0.032966 0.021333 -0.048742 -0.034709 -0.024801 -0.024179 -0.041684 -0.054643 -0.056406 -0.068446 -0.071230 -0.054897 0.017463 0.073663 0.075580 0.054064 0.083934 0.080490 0.064650 0.079313 0.060503 0.059202 0.039647 0.031828 -0.012448 -0.044579 -0.044579 -0.042244 -0.042244 -0.042244 -0.042244 -0.042244 -0.042244 -0.042244 -0.042244 -0.042244 -0.045261 -0.045261 -0.045261 -0.045261 -0.045261 -0.045261 -0.045261 -0.045261 -0.045261 -0.014983 -0.014983 -0.014983 -0.014983 -0.014983 -0.014983 -0.014983 -0.014983 -0.014983
0.000000 0.000000 0.000000 0.000000 0.000000 0.000000 0.000000 0.000000 0.000000 0.000000 0.000000 0.000000 0.000000 0.000000 0.000000 0.000000 0.000000 0.000000 0.000000 0.000000 0.000000 0.000000 0.000000 0.000000 0.000000 0.000000 0.000000 0.000000 0.000000 0.000000 0.000000 0.000000 0.000000 0.000000 0.000000 0.000000 0.000000 0.000000 0.000000 0.000000 0.000000 0.000000 0.000000 0.000000 0.000000 0.000000 0.000000 0.000000 0.000000 0.000000 0.000000 0.000000 0.181818 0.181818 0.199007 0.199007 0.199007 0.199007 0.199007 0.199007 0.199007 0.199007 0.199007 0.199007 0.199007 0.199007 0.199007 0.199007 0.199007 0.199007 0.199007 0.199007 0.199007 0.199007 0.199007 0.199007 0.199007 0.199007 0.199007 0.199007 0.199007 0.199007 0.199007 0.199007 0.199007 0.199007 0.199007 0.199007 0.199007 0.199007 0.199007 0.199007 0.199007 0.199007 0.199007 0.230940 0.230940 0.230940 0.230940 0.230940 0.230940 0.230940 0.230940 0.230940 0.230940 0.230940 0.230940 0.230940 0.230940 0.230940 0.230940 0.230940 0.230940 0.230940 0.230940 0.230940 0.230940 0.230940 0.230940 0.230940 0.230940 0.230940 0.230940 0.244339 0.244339 0.244339 0.244339 0.244339 0.244339 0.244339 0.244339 0.244339 0.244339 0.244339 0.244339 0.244339 0.244339 0.244339 0.244339 0.244339 0.244339 0.244339 0.244339 0.244339 0.244339 0.244339 0.251976 0.251976 0.251976 0.251976 0.251976 0.251976 0.251976 0.251976 0.251976 0.251976 0.251976 0.251976 0.251976 0.251976 0.251976 0.251976 0.251976 0.251976 0.251976 0.251976 0.264906 0.264906 0.264906 0.264906 0.264906 0.264906 0.264906 0.264906 0.264906 0.264906 0.264906 0.264906 0.264906 0.264906 0.264906 0.264906 0.264906 0.264906 0.264906 0.264906 0.264906 0.264906 0.264906 0.264906 0.264906 0.264906 0.264906 0.264906 0.264906 0.264906 0.264906 0.264906 0.264906 0.264906 0.264906 0.264906 0.264906 0.264906 0.264906 0.264906 0.264906 0.264906 0.264906 0.264906 0.264906 0.264906 0.264906 0.264906 0.264906 0.264906 0.264906 0.264906 0.264906 0.264906 0.264906 0.264906 0.264906 0.264906 0.264906 0.264906 0.264906 0.264906 0.264906 0.264906 0.264906 0.264906 0.264906 0.264906 0.264906 0.264906 0.264906 0.264906 0.264906 0.264906 0.264906 0.269680 0.269680 0.269680 0.269680 0.269680 0.269680 0.269680 0.269680 0.269680 0.269680 0.269680 0.269680 0.264906 0.264906 0.264906 0.264906 0.264906 0.264906 0.264906 0.264906 0.264906 0.264906 0.264906 0.264906 0.269680 0.269680 0.269680 0.269680 0.269680 0.269680 0.269680 0.269680 0.269680 0.269680 0.269680 0.264906 0.264906 0.264906 0.264906 0.264906 0.264906 0.264906 0.264906 0.264906 0.264906 0.264906 0.256074 0.256074 0.256074 0.256074 0.256074 0.256074 0.256074 0.256074 0.256074 0.256074 0.256074 0.264906 0.264906 0.264906 0.264906 0.264906 0.264906 0.264906 0.264906 0.264906 0.264906 0.260378 0.260378 0.260378 0.260378 0.260378 0.260378 0.260378 0.260378 0.260378 0.260378 0.264906 0.264906 0.264906 0.264906 0.264906 0.264906 0.264906 0.264906 0.264906 0.260378 0.260378 0.260378 0.260378 0.260378 0.260378 0.260378 0.260378 0.260378 0.256074 0.256074 0.256074 0.256074 0.256074 0.256074 0.256074 0.256074 0.256074 0.251976 0.251976 0.251976 0.251976 0.251976 0.251976 0.251976 0.251976 0.251976 0.264906 0.264906 0.264906 0.264906 0.264906 0.264906 0.264906 0.264906 0.264906
