# Output from CTFFind version 4.1.9, run on 2019-11-01 21:23:08
# Input file: bm3d_averaged_0.5_1.7_0.33_3000_full.mrc ; Number of micrographs: 1
# Pixel size: 3.000 Angstroms ; acceleration voltage: 300.0 keV ; spherical aberration: 0.00 mm ; amplitude contrast: 0.07
# Box size: 512 pixels ; min. res.: 30.0 Angstroms ; max. res.: 5.0 Angstroms ; min. def.: 5000.0 um; max. def. 50000.0 um; num. frames averaged: 1
# 6 lines per micrograph: #1 - spatial frequency (1/Angstroms); #2 - 1D rotational average of spectrum (assuming no astigmatism); #3 - 1D rotational average of spectrum; #4 - CTF fit; #5 - cross-correlation between spectrum and CTF fit; #6 - 2sigma of expected cross correlation of noise
0.000000 0.000651 0.001302 0.001953 0.002604 0.003255 0.003906 0.004557 0.005208 0.005859 0.006510 0.007161 0.007812 0.008464 0.009115 0.009766 0.010417 0.011068 0.011719 0.012370 0.013021 0.013672 0.014323 0.014974 0.015625 0.016276 0.016927 0.017578 0.018229 0.018880 0.019531 0.020182 0.020833 0.021484 0.022135 0.022786 0.023438 0.024089 0.024740 0.025391 0.026042 0.026693 0.027344 0.027995 0.028646 0.029297 0.029948 0.030599 0.031250 0.031901 0.032552 0.033203 0.033854 0.034505 0.035156 0.035807 0.036458 0.037109 0.037760 0.038411 0.039062 0.039714 0.040365 0.041016 0.041667 0.042318 0.042969 0.043620 0.044271 0.044922 0.045573 0.046224 0.046875 0.047526 0.048177 0.048828 0.049479 0.050130 0.050781 0.051432 0.052083 0.052734 0.053385 0.054036 0.054688 0.055339 0.055990 0.056641 0.057292 0.057943 0.058594 0.059245 0.059896 0.060547 0.061198 0.061849 0.062500 0.063151 0.063802 0.064453 0.065104 0.065755 0.066406 0.067057 0.067708 0.068359 0.069010 0.069661 0.070312 0.070964 0.071615 0.072266 0.072917 0.073568 0.074219 0.074870 0.075521 0.076172 0.076823 0.077474 0.078125 0.078776 0.079427 0.080078 0.080729 0.081380 0.082031 0.082682 0.083333 0.083984 0.084635 0.085286 0.085938 0.086589 0.087240 0.087891 0.088542 0.089193 0.089844 0.090495 0.091146 0.091797 0.092448 0.093099 0.093750 0.094401 0.095052 0.095703 0.096354 0.097005 0.097656 0.098307 0.098958 0.099609 0.100260 0.100911 0.101562 0.102214 0.102865 0.103516 0.104167 0.104818 0.105469 0.106120 0.106771 0.107422 0.108073 0.108724 0.109375 0.110026 0.110677 0.111328 0.111979 0.112630 0.113281 0.113932 0.114583 0.115234 0.115885 0.116536 0.117188 0.117839 0.118490 0.119141 0.119792 0.120443 0.121094 0.121745 0.122396 0.123047 0.123698 0.124349 0.125000 0.125651 0.126302 0.126953 0.127604 0.128255 0.128906 0.129557 0.130208 0.130859 0.131510 0.132161 0.132812 0.133464 0.134115 0.134766 0.135417 0.136068 0.136719 0.137370 0.138021 0.138672 0.139323 0.139974 0.140625 0.141276 0.141927 0.142578 0.143229 0.143880 0.144531 0.145182 0.145833 0.146484 0.147135 0.147786 0.148438 0.149089 0.149740 0.150391 0.151042 0.151693 0.152344 0.152995 0.153646 0.154297 0.154948 0.155599 0.156250 0.156901 0.157552 0.158203 0.158854 0.159505 0.160156 0.160807 0.161458 0.162109 0.162760 0.163411 0.164062 0.164714 0.165365 0.166016 0.166667 0.167318 0.167969 0.168620 0.169271 0.169922 0.170573 0.171224 0.171875 0.172526 0.173177 0.173828 0.174479 0.175130 0.175781 0.176432 0.177083 0.177734 0.178385 0.179036 0.179688 0.180339 0.180990 0.181641 0.182292 0.182943 0.183594 0.184245 0.184896 0.185547 0.186198 0.186849 0.187500 0.188151 0.188802 0.189453 0.190104 0.190755 0.191406 0.192057 0.192708 0.193359 0.194010 0.194661 0.195312 0.195964 0.196615 0.197266 0.197917 0.198568 0.199219 0.199870 0.200521 0.201172 0.201823 0.202474 0.203125 0.203776 0.204427 0.205078 0.205729 0.206380 0.207031 0.207682 0.208333 0.208984 0.209635 0.210286 0.210938 0.211589 0.212240 0.212891 0.213542 0.214193 0.214844 0.215495 0.216146 0.216797 0.217448 0.218099 0.218750 0.219401 0.220052 0.220703 0.221354 0.222005 0.222656 0.223307 0.223958 0.224609 0.225260 0.225911 0.226562 0.227214 0.227865 0.228516 0.229167 0.229818 0.230469 0.231120 0.231771 0.232422 0.233073 0.233724 0.234375 0.235026 0.235677
       0.33559        0.33559        0.33559        0.33559        0.33559        0.33559        0.33559        0.33559        0.33559        0.33559        0.33559        0.33559        0.33559        0.33559        0.33559        0.33559        0.33559        0.33559        0.33559        0.33559        0.33559        0.33559        0.33559        0.33559        0.33559        0.33559        0.33559        0.33559        0.33559        0.33559        0.33559        0.33559        0.33559        0.33559        0.33559        0.33559        0.33559        0.33559        0.33559        0.33559        0.33559        0.33559        0.33559        0.33559        0.33559        0.33559        0.33559        0.33559        0.33559        0.33559        0.33559        0.50366        0.71967        0.43147        0.19041       -0.07993       -0.26314       -0.06837       -0.13211       -0.05218       -0.00058       -0.14372       -0.08857       -0.04774        0.00001       -0.14841       -0.21626       -0.34396       -0.46009       -0.55565       -0.51427       -0.44568       -0.36998       -0.54372       -0.44484       -0.61781       -0.49789       -0.47184       -0.38742       -0.38203       -0.34081       -0.24768       -0.15651       -0.13435        0.03513       -0.00818        0.12149        0.17134        0.30576        0.40937        0.46608        0.49654        0.54190        0.55089        0.69613        0.64808        0.67999        0.59198        0.55664        0.65704        0.52985        0.42797        0.38496        0.32535        0.23048        0.26863        0.25550        0.11023        0.08662        0.00133       -0.00386        0.03922       -0.00017        0.07956        0.10120        0.23460        0.28430        0.30927        0.38158        0.55924        0.53872        0.58195        0.67286        0.70030        0.63286        0.63777        0.63285        0.55468        0.57860        0.39709        0.34728        0.26898        0.18780        0.07386        0.14686        0.12264        0.09118        0.10658        0.21156        0.21747        0.31884        0.36048        0.41646        0.49907        0.58975        0.54403        0.55649        0.61100        0.54645        0.46765        0.47915        0.32750        0.25420        0.25794        0.24471        0.14716        0.15038        0.15623        0.22189        0.24985        0.32970        0.36483        0.39052        0.47134        0.44970        0.48275        0.45876        0.46992        0.44614        0.41098        0.38481        0.35268        0.31150        0.28753        0.20457        0.19877        0.22303        0.27032        0.27257        0.35384        0.37926        0.36131        0.41261        0.46066        0.45369        0.42538        0.43998        0.37240        0.33989        0.28852        0.26717        0.29347        0.27363        0.29831        0.30277        0.35262        0.34548        0.40384        0.41145        0.43003        0.41136        0.42866        0.40398        0.36651        0.28647        0.29658        0.31402        0.27833        0.25878        0.33230        0.37317        0.34420        0.35571        0.36098        0.35730        0.40852        0.40329        0.36066        0.34190        0.31372        0.31183        0.31637        0.31824        0.29881        0.28811        0.33838        0.35874        0.38184        0.33610        0.32708        0.33704        0.34555        0.30773        0.28439        0.30886        0.31756        0.33958        0.32498        0.33478        0.36086        0.33303        0.31618        0.33161        0.30614        0.26854        0.25630        0.26798        0.30670        0.32480        0.34959        0.30269        0.31929        0.34289        0.29752        0.32120        0.28930        0.28854        0.29611        0.30396        0.30971        0.34626        0.32506        0.33205        0.33842        0.31418        0.33827        0.31911        0.32006        0.30787        0.28598        0.29984        0.32088        0.29718        0.33268        0.34324        0.33364        0.31741        0.33795        0.31714        0.27468        0.25645        0.27475        0.33514        0.36122        0.35034        0.31724        0.29546        0.29672        0.31652        0.24883        0.29988        0.30337        0.32921        0.30210        0.32712        0.29002        0.33890        0.34534        0.35001        0.33060        0.29623        0.32188        0.39881        0.32789        0.31787        0.31641        0.28969        0.28499        0.30089        0.26507        0.30912        0.24207        0.28292        0.29769        0.31743        0.29757        0.28056        0.30304        0.24096        0.23245        0.26343        0.30962        0.30605        0.28893        0.28738        0.33719        0.25732        0.21373        0.31771        0.27987        0.25642        0.28246        0.39841        0.30583        0.28724        0.25210        0.24993        0.26204        0.23361        0.23199        0.15985        0.25850        0.23698        0.24808        0.32128        0.28570        0.34746        0.28635        0.26791        0.24736        0.22379        0.23581        0.29192        0.23146        0.11912        0.13674        0.24591        0.24505        0.33478        0.30248        0.02254       -0.43823       -0.91551
2.730643 2.701670 2.672853 2.644193 2.615689 2.587342 2.559151 2.531116 2.503238 2.475516 2.447950 2.420541 2.393288 2.366192 2.339252 2.312468 2.285841 2.259370 2.233055 2.206897 2.180895 2.155050 2.129361 2.103828 2.078452 2.053232 2.028169 2.003262 1.978511 1.953917 1.929479 1.905197 1.881072 1.857103 1.833290 1.809634 1.786135 1.762791 1.739604 1.716574 1.693699 1.670982 1.648420 1.626015 1.603766 1.581674 1.559738 1.537959 1.516335 1.494869 1.473558 1.542902 1.842287 1.537339 1.199954 0.950372 0.548743 0.920744 0.640310 0.884104 0.936791 0.599610 0.720560 0.791963 0.828311 0.639448 0.549107 0.351384 0.109041 0.084536 0.048540 0.087154 0.305371 -0.030260 0.088728 -0.132568 -0.006463 -0.016019 0.085814 0.067505 0.097406 0.180131 0.288175 0.255778 0.485925 0.403146 0.552791 0.529514 0.772707 0.791780 0.884825 0.920555 0.945649 0.947569 1.127663 0.949928 1.135694 0.950962 0.852848 1.021480 0.851322 0.762696 0.615488 0.599946 0.456553 0.422159 0.514927 0.265985 0.201760 0.156295 0.009608 0.209686 -0.004185 0.121701 0.183326 0.257655 0.329719 0.352588 0.426525 0.533940 0.664458 0.539638 0.743897 0.858665 0.641336 0.700617 0.663801 0.592054 0.542987 0.460803 0.296620 0.216474 0.116059 -0.046455 -0.019146 0.056667 -0.101164 -0.061305 0.043900 0.053584 0.116952 0.215599 0.239937 0.311385 0.450830 0.451788 0.426168 0.483396 0.454347 0.339430 0.330853 0.241425 0.057687 0.059662 0.015016 -0.042171 -0.094789 -0.097283 -0.012086 -0.052732 0.069911 0.126838 0.110404 0.264570 0.232332 0.239408 0.285673 0.242813 0.229414 0.211990 0.166225 0.104414 0.095845 0.021264 -0.001240 -0.123953 -0.055433 -0.003445 -0.002411 0.026323 0.094101 0.084296 0.116117 0.215080 0.266047 0.185952 0.178444 0.110589 0.144626 0.028394 -0.028576 0.029210 -0.022702 0.014703 -0.003682 0.040333 0.091067 0.056576 0.164208 0.114396 0.179307 0.072365 0.155071 0.100112 0.004208 -0.052792 0.002854 -0.021351 -0.057487 -0.057441 0.068178 0.073698 0.001631 0.087634 0.074484 0.079054 0.155988 0.078660 0.071239 0.065993 -0.011619 0.032228 0.011536 0.022943 0.007188 0.006515 0.050692 0.085709 0.080404 0.041331 0.052308 0.037459 0.069694 0.001797 -0.006719 0.034382 0.025219 0.072329 0.048016 0.067426 0.082941 0.048868 0.023146 0.038944 0.008241 -0.037600 -0.024301 -0.018534 0.029394 0.044531 0.093303 0.007727 0.066037 0.057458 -0.013904 0.064579 0.004731 0.007152 0.032351 0.048071 0.025408 0.088666 0.038693 0.063848 0.074772 0.067578 0.068605 0.061928 0.081670 0.027686 -0.006697 0.053540 0.047084 0.045857 0.074021 0.082650 0.017337 0.053323 0.071647 0.001073 -0.006458 -0.060295 -0.022139 0.110848 0.077926 0.059423 0.028302 -0.023728 0.049497 0.017752 -0.074395 0.052403 0.022607 0.060372 0.034033 0.019177 0.041746 0.008915 0.055206 0.026201 0.040542 -0.054080 0.071813 0.110629 -0.006368 -0.004314 0.014734 -0.014769 -0.047313 -0.023412 -0.059343 -0.017636 -0.091117 -0.019355 -0.041537 0.016975 -0.029964 -0.053468 0.022034 -0.060175 -0.052893 -0.078606 0.050516 0.012233 0.014325 -0.010099 0.089159 -0.050711 -0.085139 0.064978 -0.014445 -0.002939 -0.000616 0.194752 -0.013367 0.019137 -0.002926 -0.017706 -0.015394 -0.046208 -0.016982 -0.186306 0.026755 -0.024891 -0.039188 0.078474 0.033426 0.125972 0.008446 0.033296 0.005899 0.020418 -0.042282 0.358073 0.277371 0.144362 0.180185 0.253980 0.328115 0.365771 0.368900 0.028989 -1.078593
0.072396 0.072911 0.074454 0.077025 0.080624 0.085250 0.090901 0.097576 0.105272 0.113987 0.123717 0.134457 0.146202 0.158944 0.172677 0.187389 0.203069 0.219704 0.237278 0.255771 0.275164 0.295430 0.316543 0.338471 0.361179 0.384627 0.408771 0.433562 0.458946 0.484862 0.511247 0.538028 0.565128 0.592462 0.619941 0.647466 0.674932 0.702228 0.729235 0.755827 0.781870 0.807226 0.831745 0.855276 0.877657 0.898726 0.918309 0.936233 0.952319 0.966385 0.978247 0.987721 0.994623 0.998770 0.999984 0.998090 0.992921 0.984317 0.972129 0.956221 0.936471 0.912774 0.885044 0.853215 0.817248 0.777126 0.732865 0.684508 0.632133 0.575851 0.515812 0.452204 0.385253 0.315229 0.242443 0.167246 0.090036 0.011248 0.068639 0.149108 0.229604 0.309538 0.388289 0.465211 0.539635 0.610875 0.678235 0.741017 0.798524 0.850075 0.895007 0.932689 0.962529 0.983986 0.996578 0.999892 0.993597 0.977450 0.951310 0.915140 0.869021 0.813156 0.747876 0.673644 0.591056 0.500846 0.403878 0.301149 0.193777 0.082997 0.029852 0.143342 0.255969 0.366173 0.472362 0.572929 0.666284 0.750874 0.825217 0.887927 0.937746 0.973571 0.994483 0.999774 0.988971 0.961858 0.918497 0.859237 0.784730 0.695929 0.594089 0.480761 0.357771 0.227204 0.091374 0.047219 0.185916 0.321965 0.452562 0.574914 0.686303 0.784146 0.866065 0.929946 0.974005 0.996845 0.997507 0.975516 0.930915 0.864288 0.776772 0.670054 0.546358 0.408404 0.259370 0.102821 0.057364 0.217083 0.372115 0.518230 0.651306 0.767454 0.863136 0.935286 0.981418 0.999726 0.989169 0.949530 0.881467 0.786518 0.667102 0.526468 0.368633 0.198282 0.020637 0.158685 0.333851 0.499002 0.648444 0.776858 0.879503 0.952396 0.992497 0.997844 0.967675 0.902497 0.804117 0.675626 0.521328 0.346624 0.157838 0.037991 0.233361 0.420592 0.592125 0.740840 0.860361 0.945351 0.991767 0.997087 0.960464 0.882828 0.766903 0.617156 0.439653 0.241849 0.032292 0.179725 0.384572 0.572714 0.735166 0.863940 0.952458 0.995917 0.991584 0.939000 0.840076 0.699075 0.522475 0.318709 0.097797 0.129131 0.350374 0.554265 0.729794 0.867220 0.958643 0.998490 0.983897 0.914955 0.794794 0.629497 0.427851 0.200913 0.038555 0.276791 0.499803 0.694209 0.848054 0.951574 0.997860 0.983368 0.908236 0.776386 0.595381 0.376057 0.131918 0.121659 0.368372 0.592037 0.777667 0.912492 0.986900 0.995161 0.935931 0.812470 0.632539 0.407986 0.154022 0.111772 0.370623 0.603901 0.794464 0.927958 0.993945 0.986789 0.906198 0.757390 0.550849 0.301650 0.028431 0.247973 0.506085 0.725473 0.888395 0.981278 0.995920 0.930295 0.788875 0.582420 0.327257 0.044048 0.243822 0.512167 0.738024 0.901662 0.988363 0.989818 0.905018 0.740513 0.510022 0.233390 0.065074 0.358663 0.620658 0.826779 0.957489 0.999913 0.949209 0.809212 0.592273 0.318275 0.012912 0.294674 0.574649 0.799384 0.946236 0.999912 0.954166 0.812624 0.588651 0.304212 0.012204 0.328341 0.611474 0.831794 0.965607 0.997988 0.924550 0.752151 0.498404 0.189997 0.140006 0.455673 0.722090 0.909275 0.995632 0.970553 0.835859 0.605861 0.305982 0.029937 0.363371 0.655511 0.871800 0.986106 0.983991 0.864684 0.641453 0.340292 0.002969 0.346833 0.649140 0.872228 0.987742 0.980340 0.849899 0.611836 0.295455 0.059511 0.407810 0.704413 0.910366 0.998014 0.954859 0.785507 0.511402 0.168282 0.198349 0.539185 0.807728 0.966736 0.993482
1.000000 1.000000 1.000000 1.000000 1.000000 1.000000 1.000000 1.000000 1.000000 1.000000 1.000000 1.000000 1.000000 1.000000 1.000000 1.000000 1.000000 1.000000 1.000000 1.000000 1.000000 1.000000 1.000000 1.000000 1.000000 1.000000 1.000000 1.000000 1.000000 1.000000 1.000000 1.000000 1.000000 1.000000 1.000000 1.000000 1.000000 1.000000 1.000000 1.000000 1.000000 1.000000 1.000000 1.000000 1.000000 1.000000 1.000000 1.000000 1.000000 1.000000 1.000000 1.000000 0.918926 0.918926 0.906244 0.906244 0.906244 0.906244 0.906244 0.906244 0.906244 0.906244 0.906244 0.906244 0.906244 0.906244 0.906244 0.906244 0.906244 0.906244 0.906244 0.906244 0.906244 0.906244 0.906244 0.906244 0.906244 0.906244 0.906244 0.906244 0.906244 0.906244 0.906244 0.906244 0.906244 0.906244 0.906244 0.906244 0.906244 0.906244 0.906244 0.906244 0.906244 0.906244 0.906244 0.901510 0.906612 0.908494 0.907108 0.910595 0.910638 0.910002 0.910374 0.910065 0.910431 0.911824 0.922255 0.933182 0.944322 0.944822 0.950018 0.954325 0.957793 0.958697 0.960405 0.970775 0.969358 0.968929 0.969542 0.970777 0.972747 0.971625 0.970955 0.974260 0.974807 0.973374 0.970947 0.970375 0.969083 0.968437 0.968105 0.967982 0.967827 0.968347 0.968528 0.968617 0.968763 0.968827 0.969826 0.970968 0.973476 0.974485 0.974400 0.973424 0.971687 0.975677 0.976658 0.976468 0.976460 0.976054 0.976277 0.958050 0.955800 0.955687 0.952850 0.951391 0.948298 0.946646 0.945512 0.946187 0.945079 0.944319 0.941148 0.926370 0.911860 0.900365 0.921490 0.905294 0.893913 0.867706 0.868410 0.864461 0.864846 0.856247 0.850429 0.845948 0.843433 0.845358 0.840556 0.843984 0.840474 0.824773 0.828153 0.824830 0.793875 0.777489 0.762022 0.761460 0.758342 0.759406 0.760849 0.754079 0.762792 0.757220 0.754980 0.745408 0.721682 0.688530 0.674379 0.685899 0.696382 0.694622 0.690660 0.674960 0.643797 0.656679 0.677427 0.674889 0.676465 0.669382 0.662427 0.672001 0.673774 0.670793 0.664073 0.663352 0.663347 0.673977 0.678481 0.672842 0.664003 0.649283 0.639544 0.630789 0.645842 0.654098 0.625054 0.618713 0.609298 0.603387 0.589661 0.559251 0.561631 0.541300 0.527415 0.531944 0.534927 0.533748 0.544941 0.545602 0.525322 0.550196 0.560210 0.588990 0.563575 0.560026 0.561379 0.571962 0.553739 0.532153 0.523136 0.524445 0.541938 0.577409 0.619052 0.613338 0.602063 0.593701 0.607093 0.583859 0.591323 0.608680 0.588230 0.511716 0.474550 0.472057 0.439346 0.431051 0.418101 0.399205 0.383801 0.384162 0.379642 0.365055 0.354564 0.285592 0.250474 0.236423 0.224724 0.225325 0.229864 0.218387 0.213380 0.248363 0.294643 0.293188 0.283048 0.285233 0.287152 0.292797 0.263618 0.266378 0.230221 0.226275 0.253502 0.198126 0.200872 0.153308 0.143760 0.154530 0.181886 0.183712 0.137018 0.132817 0.158275 0.175431 0.171588 0.161805 0.117465 0.086107 0.073361 0.086132 0.073472 0.032136 0.042280 0.057032 0.047892 0.032290 0.056283 0.047755 0.053416 0.042154 0.041384 0.085383 0.113512 0.101423 0.103325 0.119300 0.112522 0.089572 0.082308 0.071516 0.067487 0.011417 -0.013707 -0.013707 -0.013756 -0.013756 -0.013756 -0.013756 -0.013756 -0.013756 -0.013756 -0.013756 -0.013756 -0.014621 -0.014621 -0.014621 -0.014621 -0.014621 -0.014621 -0.014621 -0.014621 -0.014621 0.010048 0.010048 0.010048 0.010048 0.010048 0.010048 0.010048 0.010048 0.010048
0.000000 0.000000 0.000000 0.000000 0.000000 0.000000 0.000000 0.000000 0.000000 0.000000 0.000000 0.000000 0.000000 0.000000 0.000000 0.000000 0.000000 0.000000 2.000000 0.000000 0.000000 0.000000 0.000000 0.000000 0.000000 0.000000 0.000000 0.000000 0.000000 0.000000 0.000000 0.000000 0.000000 0.000000 0.000000 0.000000 0.000000 0.000000 0.000000 0.000000 0.000000 0.000000 0.000000 0.000000 0.000000 0.000000 0.000000 0.000000 0.000000 0.000000 0.000000 0.000000 0.181818 0.181818 0.199007 0.199007 0.199007 0.199007 0.199007 0.199007 0.199007 0.199007 0.199007 0.199007 0.199007 0.199007 0.199007 0.199007 0.199007 0.199007 0.199007 0.199007 0.199007 0.199007 0.199007 0.199007 0.199007 0.199007 0.199007 0.199007 0.199007 0.199007 0.199007 0.199007 0.199007 0.199007 0.199007 0.199007 0.199007 0.199007 0.199007 0.199007 0.199007 0.199007 0.199007 0.230940 0.230940 0.230940 0.230940 0.230940 0.230940 0.230940 0.230940 0.230940 0.230940 0.230940 0.230940 0.230940 0.230940 0.230940 0.230940 0.230940 0.230940 0.230940 0.230940 0.230940 0.230940 0.230940 0.230940 0.230940 0.230940 0.230940 0.230940 0.244339 0.244339 0.244339 0.244339 0.244339 0.244339 0.244339 0.244339 0.244339 0.244339 0.244339 0.244339 0.244339 0.244339 0.244339 0.244339 0.244339 0.244339 0.244339 0.244339 0.244339 0.244339 0.244339 0.251976 0.251976 0.251976 0.251976 0.251976 0.251976 0.251976 0.251976 0.251976 0.251976 0.251976 0.251976 0.251976 0.251976 0.251976 0.251976 0.251976 0.251976 0.251976 0.251976 0.264906 0.264906 0.264906 0.264906 0.264906 0.264906 0.264906 0.264906 0.264906 0.264906 0.264906 0.264906 0.264906 0.264906 0.264906 0.264906 0.264906 0.264906 0.264906 0.264906 0.264906 0.264906 0.264906 0.264906 0.264906 0.264906 0.264906 0.264906 0.264906 0.264906 0.264906 0.264906 0.264906 0.264906 0.264906 0.264906 0.264906 0.264906 0.264906 0.264906 0.264906 0.264906 0.264906 0.264906 0.264906 0.264906 0.264906 0.264906 0.264906 0.264906 0.264906 0.264906 0.264906 0.264906 0.264906 0.264906 0.264906 0.264906 0.264906 0.264906 0.264906 0.264906 0.264906 0.264906 0.264906 0.264906 0.264906 0.264906 0.264906 0.264906 0.264906 0.264906 0.264906 0.264906 0.264906 0.269680 0.269680 0.269680 0.269680 0.269680 0.269680 0.269680 0.269680 0.269680 0.269680 0.269680 0.269680 0.264906 0.264906 0.264906 0.264906 0.264906 0.264906 0.264906 0.264906 0.264906 0.264906 0.264906 0.264906 0.269680 0.269680 0.269680 0.269680 0.269680 0.269680 0.269680 0.269680 0.269680 0.269680 0.269680 0.264906 0.264906 0.264906 0.264906 0.264906 0.264906 0.264906 0.264906 0.264906 0.264906 0.264906 0.269680 0.269680 0.269680 0.269680 0.269680 0.269680 0.269680 0.269680 0.269680 0.269680 0.251976 0.251976 0.251976 0.251976 0.251976 0.251976 0.251976 0.251976 0.251976 0.251976 0.251976 0.269680 0.269680 0.269680 0.269680 0.269680 0.269680 0.269680 0.269680 0.269680 0.256074 0.256074 0.256074 0.256074 0.256074 0.256074 0.256074 0.256074 0.256074 0.256074 0.260378 0.260378 0.260378 0.260378 0.260378 0.260378 0.260378 0.260378 0.260378 0.256074 0.256074 0.256074 0.256074 0.256074 0.256074 0.256074 0.256074 0.256074 0.251976 0.251976 0.251976 0.251976 0.251976 0.251976 0.251976 0.251976 0.251976 0.264906 0.264906 0.264906 0.264906 0.264906 0.264906 0.264906 0.264906 0.264906
