# Output from CTFFind version 4.1.9, run on 2019-11-01 21:24:28
# Input file: bm3d_averaged_1_1.7_0.33_3000_full.mrc ; Number of micrographs: 1
# Pixel size: 3.000 Angstroms ; acceleration voltage: 300.0 keV ; spherical aberration: 0.00 mm ; amplitude contrast: 0.07
# Box size: 512 pixels ; min. res.: 30.0 Angstroms ; max. res.: 5.0 Angstroms ; min. def.: 5000.0 um; max. def. 50000.0 um; num. frames averaged: 1
# 6 lines per micrograph: #1 - spatial frequency (1/Angstroms); #2 - 1D rotational average of spectrum (assuming no astigmatism); #3 - 1D rotational average of spectrum; #4 - CTF fit; #5 - cross-correlation between spectrum and CTF fit; #6 - 2sigma of expected cross correlation of noise
0.000000 0.000651 0.001302 0.001953 0.002604 0.003255 0.003906 0.004557 0.005208 0.005859 0.006510 0.007161 0.007812 0.008464 0.009115 0.009766 0.010417 0.011068 0.011719 0.012370 0.013021 0.013672 0.014323 0.014974 0.015625 0.016276 0.016927 0.017578 0.018229 0.018880 0.019531 0.020182 0.020833 0.021484 0.022135 0.022786 0.023438 0.024089 0.024740 0.025391 0.026042 0.026693 0.027344 0.027995 0.028646 0.029297 0.029948 0.030599 0.031250 0.031901 0.032552 0.033203 0.033854 0.034505 0.035156 0.035807 0.036458 0.037109 0.037760 0.038411 0.039062 0.039714 0.040365 0.041016 0.041667 0.042318 0.042969 0.043620 0.044271 0.044922 0.045573 0.046224 0.046875 0.047526 0.048177 0.048828 0.049479 0.050130 0.050781 0.051432 0.052083 0.052734 0.053385 0.054036 0.054688 0.055339 0.055990 0.056641 0.057292 0.057943 0.058594 0.059245 0.059896 0.060547 0.061198 0.061849 0.062500 0.063151 0.063802 0.064453 0.065104 0.065755 0.066406 0.067057 0.067708 0.068359 0.069010 0.069661 0.070312 0.070964 0.071615 0.072266 0.072917 0.073568 0.074219 0.074870 0.075521 0.076172 0.076823 0.077474 0.078125 0.078776 0.079427 0.080078 0.080729 0.081380 0.082031 0.082682 0.083333 0.083984 0.084635 0.085286 0.085938 0.086589 0.087240 0.087891 0.088542 0.089193 0.089844 0.090495 0.091146 0.091797 0.092448 0.093099 0.093750 0.094401 0.095052 0.095703 0.096354 0.097005 0.097656 0.098307 0.098958 0.099609 0.100260 0.100911 0.101562 0.102214 0.102865 0.103516 0.104167 0.104818 0.105469 0.106120 0.106771 0.107422 0.108073 0.108724 0.109375 0.110026 0.110677 0.111328 0.111979 0.112630 0.113281 0.113932 0.114583 0.115234 0.115885 0.116536 0.117188 0.117839 0.118490 0.119141 0.119792 0.120443 0.121094 0.121745 0.122396 0.123047 0.123698 0.124349 0.125000 0.125651 0.126302 0.126953 0.127604 0.128255 0.128906 0.129557 0.130208 0.130859 0.131510 0.132161 0.132812 0.133464 0.134115 0.134766 0.135417 0.136068 0.136719 0.137370 0.138021 0.138672 0.139323 0.139974 0.140625 0.141276 0.141927 0.142578 0.143229 0.143880 0.144531 0.145182 0.145833 0.146484 0.147135 0.147786 0.148438 0.149089 0.149740 0.150391 0.151042 0.151693 0.152344 0.152995 0.153646 0.154297 0.154948 0.155599 0.156250 0.156901 0.157552 0.158203 0.158854 0.159505 0.160156 0.160807 0.161458 0.162109 0.162760 0.163411 0.164062 0.164714 0.165365 0.166016 0.166667 0.167318 0.167969 0.168620 0.169271 0.169922 0.170573 0.171224 0.171875 0.172526 0.173177 0.173828 0.174479 0.175130 0.175781 0.176432 0.177083 0.177734 0.178385 0.179036 0.179688 0.180339 0.180990 0.181641 0.182292 0.182943 0.183594 0.184245 0.184896 0.185547 0.186198 0.186849 0.187500 0.188151 0.188802 0.189453 0.190104 0.190755 0.191406 0.192057 0.192708 0.193359 0.194010 0.194661 0.195312 0.195964 0.196615 0.197266 0.197917 0.198568 0.199219 0.199870 0.200521 0.201172 0.201823 0.202474 0.203125 0.203776 0.204427 0.205078 0.205729 0.206380 0.207031 0.207682 0.208333 0.208984 0.209635 0.210286 0.210938 0.211589 0.212240 0.212891 0.213542 0.214193 0.214844 0.215495 0.216146 0.216797 0.217448 0.218099 0.218750 0.219401 0.220052 0.220703 0.221354 0.222005 0.222656 0.223307 0.223958 0.224609 0.225260 0.225911 0.226562 0.227214 0.227865 0.228516 0.229167 0.229818 0.230469 0.231120 0.231771 0.232422 0.233073 0.233724 0.234375 0.235026 0.235677
       0.33568        0.33568        0.33568        0.33568        0.33568        0.33568        0.33568        0.33568        0.33568        0.33568        0.33568        0.33568        0.33568        0.33568        0.33568        0.33568        0.33568        0.33568        0.33568        0.33568        0.33568        0.33568        0.33568        0.33568        0.33568        0.33568        0.33568        0.33568        0.33568        0.33568        0.33568        0.33568        0.33568        0.33568        0.33568        0.33568        0.33568        0.33568        0.33568        0.33568        0.33568        0.33568        0.33568        0.33568        0.33568        0.33568        0.33568        0.33568        0.33568        0.33568        0.33568        0.50358        0.71975        0.43136        0.19057       -0.07956       -0.26298       -0.06819       -0.13179       -0.05264       -0.00059       -0.14390       -0.08869       -0.04770       -0.00010       -0.14824       -0.21619       -0.34373       -0.46015       -0.55574       -0.51361       -0.44548       -0.36954       -0.54363       -0.44438       -0.61748       -0.49768       -0.47151       -0.38711       -0.38162       -0.34080       -0.24726       -0.15646       -0.13427        0.03537       -0.00795        0.12208        0.17149        0.30556        0.40920        0.46607        0.49687        0.54233        0.55110        0.69638        0.64799        0.68005        0.59211        0.55651        0.65685        0.52985        0.42830        0.38520        0.32523        0.23095        0.26884        0.25584        0.10998        0.08613        0.00095       -0.00397        0.03953       -0.00038        0.07975        0.10153        0.23498        0.28471        0.30938        0.38194        0.55942        0.53873        0.58190        0.67308        0.70032        0.63294        0.63824        0.63313        0.55469        0.57854        0.39738        0.34762        0.26892        0.18755        0.07405        0.14680        0.12254        0.09215        0.10674        0.21099        0.21723        0.31894        0.36030        0.41692        0.49952        0.58970        0.54422        0.55627        0.61052        0.54564        0.46755        0.47931        0.32749        0.25447        0.25789        0.24488        0.14707        0.15072        0.15593        0.22178        0.24990        0.32984        0.36580        0.39124        0.47133        0.44980        0.48253        0.45841        0.47041        0.44601        0.41048        0.38506        0.35287        0.31174        0.28740        0.20502        0.19914        0.22324        0.27084        0.27257        0.35395        0.38005        0.36118        0.41260        0.46101        0.45395        0.42551        0.44045        0.37270        0.33987        0.28868        0.26721        0.29341        0.27359        0.29873        0.30305        0.35242        0.34552        0.40418        0.41132        0.42935        0.41141        0.42900        0.40408        0.36684        0.28678        0.29617        0.31384        0.27868        0.25836        0.33243        0.37291        0.34424        0.35593        0.36117        0.35708        0.40855        0.40318        0.36099        0.34216        0.31394        0.31206        0.31706        0.31870        0.29855        0.28790        0.33820        0.35875        0.38169        0.33649        0.32746        0.33704        0.34568        0.30788        0.28393        0.30897        0.31773        0.33999        0.32514        0.33515        0.36091        0.33269        0.31626        0.33173        0.30614        0.26879        0.25631        0.26763        0.30660        0.32494        0.34979        0.30242        0.31909        0.34317        0.29760        0.32136        0.28944        0.28888        0.29626        0.30384        0.31021        0.34703        0.32517        0.33234        0.33845        0.31484        0.33821        0.31896        0.31965        0.30752        0.28529        0.29908        0.32150        0.29742        0.33248        0.34369        0.33401        0.31773        0.33926        0.31743        0.27438        0.25677        0.27581        0.33583        0.36116        0.35033        0.31777        0.29540        0.29691        0.31610        0.24933        0.29986        0.30279        0.32893        0.30256        0.32677        0.28903        0.33876        0.34529        0.35063        0.33051        0.29589        0.32223        0.39887        0.32842        0.31839        0.31635        0.29010        0.28493        0.30079        0.26551        0.30880        0.24179        0.28200        0.29761        0.31756        0.29847        0.28082        0.30263        0.24062        0.23229        0.26380        0.30913        0.30605        0.28892        0.28750        0.33765        0.25670        0.21412        0.31752        0.27976        0.25639        0.28283        0.39930        0.30601        0.28854        0.25300        0.25023        0.26270        0.23523        0.23101        0.15927        0.25839        0.23634        0.24667        0.32086        0.28497        0.34790        0.28767        0.26886        0.24688        0.22476        0.23855        0.29070        0.23079        0.11924        0.13700        0.24713        0.24377        0.33604        0.30045        0.02010       -0.43586       -0.90929
2.727309 2.698388 2.669622 2.641013 2.612560 2.584263 2.556122 2.528136 2.500307 2.472634 2.445117 2.417756 2.390551 2.363502 2.336609 2.309873 2.283292 2.256867 2.230598 2.204486 2.178529 2.152728 2.127084 2.101595 2.076263 2.051086 2.026066 2.001201 1.976493 1.951941 1.927544 1.903304 1.879220 1.855292 1.831520 1.807903 1.784443 1.761139 1.737991 1.714999 1.692163 1.669484 1.646960 1.624592 1.602380 1.580324 1.558425 1.536681 1.515093 1.493662 1.472386 1.541627 1.841183 1.535992 1.199123 0.949740 0.547765 0.920003 0.639635 0.882674 0.935784 0.598628 0.719425 0.791215 0.827303 0.638782 0.548319 0.351000 0.108563 0.083484 0.048801 0.086648 0.305590 -0.030851 0.088654 -0.132631 -0.006836 -0.015885 0.085622 0.067696 0.096912 0.180339 0.287861 0.255500 0.485833 0.403361 0.553275 0.529526 0.772382 0.791184 0.884508 0.920904 0.945692 0.948088 1.127774 0.949781 1.135725 0.950970 0.853095 1.020987 0.851326 0.763140 0.615815 0.599892 0.457242 0.422715 0.515028 0.266190 0.201445 0.156038 0.009477 0.210318 -0.004215 0.122192 0.183762 0.258379 0.330480 0.353210 0.427268 0.534549 0.664597 0.539960 0.744443 0.859037 0.641412 0.701737 0.664546 0.592520 0.543415 0.461430 0.297507 0.216751 0.116403 -0.046011 -0.018407 0.056311 -0.099521 -0.060356 0.044030 0.053310 0.117657 0.215730 0.240457 0.313032 0.451208 0.452405 0.426730 0.482783 0.453713 0.339246 0.331343 0.241769 0.058360 0.059770 0.015436 -0.041607 -0.094436 -0.096995 -0.012355 -0.052176 0.070411 0.127850 0.111893 0.265170 0.232671 0.239801 0.285346 0.243076 0.229848 0.211926 0.166268 0.104867 0.096519 0.021205 -0.000945 -0.123193 -0.055117 -0.002297 -0.002021 0.026161 0.094923 0.085254 0.122686 0.205371 0.266804 0.185604 0.179029 0.111159 0.145032 0.028197 -0.028620 0.029176 -0.022757 0.014679 -0.002911 0.040533 0.090378 0.057299 0.164510 0.113942 0.179149 0.072983 0.155824 0.099994 0.005428 -0.052423 0.002364 -0.020615 -0.057348 -0.057484 0.068687 0.073948 0.001698 0.089092 0.074644 0.079069 0.156331 0.079329 0.072349 0.066653 -0.010983 0.032792 0.013227 0.023594 0.007304 0.006879 0.051065 0.085942 0.080760 0.042780 0.052579 0.037811 0.070451 0.002247 -0.007207 0.035498 0.025794 0.073446 0.048715 0.067993 0.083343 0.049089 0.023945 0.039514 0.008853 -0.037049 -0.023913 -0.018408 0.029740 0.045096 0.093791 0.008018 0.065681 0.059303 -0.013527 0.065193 0.005793 0.007782 0.032874 0.048340 0.026646 0.090067 0.038866 0.065197 0.075866 0.068134 0.068546 0.062229 0.081154 0.027609 -0.007207 0.053121 0.048312 0.045911 0.074314 0.083428 0.017299 0.054503 0.073246 0.001290 -0.006568 -0.059861 -0.020434 0.111491 0.077784 0.059826 0.031090 -0.025426 0.049868 0.017088 -0.073614 0.052085 0.022214 0.059880 0.034875 0.018981 0.040865 -0.001966 0.062515 0.027806 0.039791 -0.053778 0.072506 0.110411 -0.005062 -0.004051 0.014918 -0.013833 -0.047575 -0.023013 -0.058926 -0.017922 -0.091765 -0.019756 -0.041524 0.017454 -0.028981 -0.053853 0.022781 -0.060934 -0.052030 -0.078094 0.050439 0.011956 0.015499 -0.010051 0.090222 -0.050550 -0.083972 0.065388 -0.014173 -0.001784 0.000127 0.196150 -0.012927 0.020983 -0.001950 -0.016247 -0.014866 -0.043704 -0.018200 -0.186695 0.025834 -0.025059 -0.040604 0.077400 0.031412 0.126174 0.010111 0.033446 0.004205 0.019106 -0.039390 0.355150 0.276557 0.144841 0.180618 0.256374 0.323310 0.367873 0.366309 0.026083 -1.071251
0.072396 0.072911 0.074454 0.077025 0.080624 0.085250 0.090901 0.097577 0.105273 0.113988 0.123718 0.134459 0.146204 0.158947 0.172680 0.187393 0.203074 0.219709 0.237283 0.255777 0.275170 0.295437 0.316550 0.338479 0.361188 0.384636 0.408781 0.433573 0.458957 0.484874 0.511260 0.538041 0.565142 0.592477 0.619956 0.647481 0.674947 0.702244 0.729251 0.755843 0.781887 0.807242 0.831761 0.855291 0.877673 0.898740 0.918323 0.936246 0.952331 0.966395 0.978256 0.987728 0.994628 0.998773 0.999984 0.998087 0.992915 0.984308 0.972116 0.956205 0.936451 0.912749 0.885014 0.853181 0.817209 0.777083 0.732817 0.684455 0.632074 0.575787 0.515744 0.452130 0.385175 0.315147 0.242356 0.167156 0.089942 0.011151 0.068738 0.149209 0.229706 0.309639 0.388390 0.465310 0.539732 0.610968 0.678324 0.741100 0.798600 0.850143 0.895066 0.932738 0.962567 0.984011 0.996589 0.999889 0.993580 0.977418 0.951261 0.915075 0.868940 0.813059 0.747763 0.673516 0.590914 0.500690 0.403710 0.300971 0.193591 0.082804 0.030049 0.143541 0.256167 0.366367 0.472549 0.573106 0.666448 0.751021 0.825345 0.888033 0.937828 0.973626 0.994509 0.999769 0.988933 0.961788 0.918394 0.859103 0.784565 0.695734 0.593868 0.480516 0.357506 0.226923 0.091081 0.047515 0.186213 0.322255 0.452839 0.575172 0.686535 0.784348 0.866229 0.930068 0.974082 0.996872 0.997482 0.975439 0.930784 0.864105 0.776540 0.669778 0.546042 0.408055 0.258996 0.102431 0.057760 0.217475 0.372493 0.518582 0.651623 0.767725 0.863352 0.935439 0.981502 0.999737 0.989103 0.949387 0.881249 0.786231 0.666750 0.526062 0.368184 0.197803 0.020143 0.159177 0.334327 0.499445 0.648837 0.777187 0.879754 0.952559 0.992563 0.997808 0.967536 0.902256 0.803781 0.675206 0.520836 0.346076 0.157256 0.038588 0.233947 0.421144 0.592620 0.741256 0.860681 0.945557 0.991849 0.997038 0.960282 0.882518 0.766475 0.616626 0.439043 0.241183 0.031600 0.180414 0.385224 0.573297 0.735654 0.864306 0.952682 0.995984 0.991487 0.938740 0.839662 0.698525 0.521812 0.317967 0.097011 0.129921 0.351127 0.554941 0.730353 0.867631 0.958880 0.998536 0.983745 0.914609 0.794270 0.628821 0.427058 0.200046 0.039449 0.277656 0.500589 0.694869 0.848543 0.951860 0.997921 0.983195 0.907836 0.775778 0.594601 0.375150 0.130939 0.122647 0.369305 0.592852 0.778307 0.912913 0.987067 0.995058 0.935560 0.811852 0.631711 0.407004 0.152948 0.112860 0.371646 0.604786 0.795144 0.928376 0.994069 0.986602 0.905709 0.756632 0.549872 0.300526 0.027241 0.249133 0.507125 0.726310 0.888957 0.981514 0.995807 0.929835 0.788098 0.581387 0.326046 0.042760 0.245080 0.513287 0.738911 0.902234 0.988565 0.989626 0.904441 0.739597 0.508844 0.232047 0.066463 0.359970 0.621764 0.827576 0.957900 0.999893 0.948753 0.808355 0.591089 0.316875 0.011425 0.296106 0.575885 0.800296 0.946728 0.999931 0.953701 0.811714 0.587383 0.302707 0.013791 0.329850 0.612747 0.832691 0.966029 0.997883 0.923919 0.751056 0.496954 0.188345 0.141683 0.457187 0.723274 0.909992 0.995792 0.970130 0.834895 0.604455 0.304290 0.031725 0.365048 0.656875 0.872690 0.986408 0.983661 0.863753 0.640021 0.338527 0.004854 0.348614 0.650589 0.873167 0.988041 0.979955 0.848868 0.610281 0.293570 0.061495 0.409634 0.705839 0.911201 0.998141 0.954249 0.784235 0.509624 0.166236 0.200397 0.540951 0.808972 0.967278 0.993236
1.000000 1.000000 1.000000 1.000000 1.000000 1.000000 1.000000 1.000000 1.000000 1.000000 1.000000 1.000000 1.000000 1.000000 1.000000 1.000000 1.000000 1.000000 1.000000 1.000000 1.000000 1.000000 1.000000 1.000000 1.000000 1.000000 1.000000 1.000000 1.000000 1.000000 1.000000 1.000000 1.000000 1.000000 1.000000 1.000000 1.000000 1.000000 1.000000 1.000000 1.000000 1.000000 1.000000 1.000000 1.000000 1.000000 1.000000 1.000000 1.000000 1.000000 1.000000 1.000000 0.919291 0.919291 0.906694 0.906694 0.906694 0.906694 0.906694 0.906694 0.906694 0.906694 0.906694 0.906694 0.906694 0.906694 0.906694 0.906694 0.906694 0.906694 0.906694 0.906694 0.906694 0.906694 0.906694 0.906694 0.906694 0.906694 0.906694 0.906694 0.906694 0.906694 0.906694 0.906694 0.906694 0.906694 0.906694 0.906694 0.906694 0.906694 0.906694 0.906694 0.906694 0.906694 0.906694 0.901649 0.906733 0.908611 0.907233 0.910703 0.910740 0.910034 0.910409 0.910101 0.910468 0.911862 0.922289 0.933212 0.944347 0.944847 0.950044 0.954347 0.957819 0.958722 0.960435 0.970821 0.969397 0.968970 0.969581 0.970809 0.972772 0.971657 0.970976 0.974285 0.974829 0.973403 0.970966 0.970394 0.969107 0.968458 0.968128 0.968004 0.967849 0.968369 0.968549 0.968635 0.968780 0.968845 0.969843 0.970985 0.973498 0.974507 0.974424 0.973453 0.971723 0.975710 0.976695 0.976509 0.976503 0.976099 0.976320 0.959665 0.956252 0.956132 0.953231 0.951793 0.948735 0.947084 0.945936 0.946594 0.945516 0.944705 0.941485 0.926803 0.912255 0.900552 0.921975 0.905725 0.894098 0.868013 0.868799 0.864809 0.865183 0.856749 0.850787 0.846291 0.843845 0.845796 0.841140 0.844514 0.840924 0.825056 0.828487 0.825193 0.794160 0.778104 0.762509 0.761806 0.758637 0.759705 0.761062 0.754219 0.762970 0.757447 0.755167 0.745566 0.721531 0.688138 0.673899 0.685452 0.695955 0.694847 0.690861 0.675066 0.643189 0.655711 0.676549 0.673248 0.674703 0.667264 0.660409 0.668946 0.671656 0.668456 0.661811 0.661066 0.661072 0.671708 0.676322 0.670880 0.662045 0.647345 0.637818 0.628796 0.643629 0.652340 0.623236 0.616862 0.607690 0.601780 0.588402 0.559157 0.561405 0.541289 0.527119 0.531340 0.534409 0.533170 0.544321 0.544970 0.525611 0.550316 0.560615 0.589712 0.565269 0.561447 0.562823 0.573418 0.555145 0.533170 0.524451 0.525797 0.543683 0.579356 0.621105 0.615609 0.604446 0.596041 0.609300 0.584526 0.591966 0.609846 0.589708 0.512974 0.476886 0.474625 0.441556 0.432850 0.419949 0.400764 0.379098 0.381954 0.377856 0.363161 0.352793 0.283029 0.248186 0.234210 0.222671 0.223741 0.228403 0.217872 0.212479 0.247355 0.293483 0.292097 0.281904 0.283085 0.285347 0.291382 0.262104 0.264961 0.228680 0.224888 0.252511 0.197736 0.200255 0.152864 0.143712 0.154718 0.181524 0.183263 0.136901 0.131882 0.157435 0.174330 0.170559 0.160796 0.116727 0.085153 0.072997 0.085528 0.072496 0.033047 0.041474 0.057271 0.047733 0.028350 0.053191 0.045114 0.051394 0.039757 0.039389 0.082785 0.110783 0.099079 0.100956 0.121220 0.110988 0.089020 0.081602 0.070751 0.067525 0.012074 -0.013127 -0.013127 -0.013849 -0.013849 -0.013849 -0.013849 -0.013849 -0.013849 -0.013849 -0.013849 -0.013849 -0.014437 -0.014437 -0.014437 -0.014437 -0.014437 -0.014437 -0.014437 -0.014437 -0.014437 0.010837 0.010837 0.010837 0.010837 0.010837 0.010837 0.010837 0.010837 0.010837
0.000000 0.000000 0.000000 0.000000 0.000000 0.000000 0.000000 0.000000 0.000000 0.000000 0.000000 0.000000 0.000000 0.000000 0.000000 0.000000 0.000000 0.000000 0.000000 0.000000 0.000000 0.000000 0.000000 0.000000 0.000000 0.000000 0.000000 0.000000 0.000000 0.000000 0.000000 0.000000 0.000000 0.000000 0.000000 0.000000 0.000000 0.000000 0.000000 0.000000 0.000000 0.000000 0.000000 0.000000 0.000000 0.000000 0.000000 0.000000 0.000000 0.000000 0.000000 0.000000 0.181818 0.181818 0.199007 0.199007 0.199007 0.199007 0.199007 0.199007 0.199007 0.199007 0.199007 0.199007 0.199007 0.199007 0.199007 0.199007 0.199007 0.199007 0.199007 0.199007 0.199007 0.199007 0.199007 0.199007 0.199007 0.199007 0.199007 0.199007 0.199007 0.199007 0.199007 0.199007 0.199007 0.199007 0.199007 0.199007 0.199007 0.199007 0.199007 0.199007 0.199007 0.199007 0.199007 0.230940 0.230940 0.230940 0.230940 0.230940 0.230940 0.230940 0.230940 0.230940 0.230940 0.230940 0.230940 0.230940 0.230940 0.230940 0.230940 0.230940 0.230940 0.230940 0.230940 0.230940 0.230940 0.230940 0.230940 0.230940 0.230940 0.230940 0.230940 0.244339 0.244339 0.244339 0.244339 0.244339 0.244339 0.244339 0.244339 0.244339 0.244339 0.244339 0.244339 0.244339 0.244339 0.244339 0.244339 0.244339 0.244339 0.244339 0.244339 0.244339 0.244339 0.244339 0.251976 0.251976 0.251976 0.251976 0.251976 0.251976 0.251976 0.251976 0.251976 0.251976 0.251976 0.251976 0.251976 0.251976 0.251976 0.251976 0.251976 0.251976 0.251976 0.251976 0.264906 0.264906 0.264906 0.264906 0.264906 0.264906 0.264906 0.264906 0.264906 0.264906 0.264906 0.264906 0.264906 0.264906 0.264906 0.264906 0.264906 0.264906 0.264906 0.264906 0.264906 0.264906 0.264906 0.264906 0.264906 0.264906 0.264906 0.264906 0.264906 0.264906 0.264906 0.264906 0.264906 0.264906 0.264906 0.264906 0.264906 0.264906 0.264906 0.264906 0.264906 0.264906 0.264906 0.264906 0.264906 0.264906 0.264906 0.264906 0.264906 0.264906 0.264906 0.264906 0.264906 0.264906 0.264906 0.264906 0.264906 0.264906 0.264906 0.264906 0.264906 0.264906 0.264906 0.264906 0.264906 0.264906 0.264906 0.264906 0.264906 0.264906 0.264906 0.264906 0.264906 0.264906 0.264906 0.269680 0.269680 0.269680 0.269680 0.269680 0.269680 0.269680 0.269680 0.269680 0.269680 0.269680 0.269680 0.264906 0.264906 0.264906 0.264906 0.264906 0.264906 0.264906 0.264906 0.264906 0.264906 0.264906 0.264906 0.269680 0.269680 0.269680 0.269680 0.269680 0.269680 0.269680 0.269680 0.269680 0.269680 0.269680 0.264906 0.264906 0.264906 0.264906 0.264906 0.264906 0.264906 0.264906 0.264906 0.264906 0.264906 0.269680 0.269680 0.269680 0.269680 0.269680 0.269680 0.269680 0.269680 0.269680 0.269680 0.251976 0.251976 0.251976 0.251976 0.251976 0.251976 0.251976 0.251976 0.251976 0.251976 0.251976 0.269680 0.269680 0.269680 0.269680 0.269680 0.269680 0.269680 0.269680 0.269680 0.256074 0.256074 0.256074 0.256074 0.256074 0.256074 0.256074 0.256074 0.256074 0.256074 0.260378 0.260378 0.260378 0.260378 0.260378 0.260378 0.260378 0.260378 0.260378 0.256074 0.256074 0.256074 0.256074 0.256074 0.256074 0.256074 0.256074 0.256074 0.251976 0.251976 0.251976 0.251976 0.251976 0.251976 0.251976 0.251976 0.251976 0.264906 0.264906 0.264906 0.264906 0.264906 0.264906 0.264906 0.264906 0.264906
