# Output from CTFFind version 4.1.9, run on 2019-10-31 21:33:16
# Input file: bm3d_af_stacked.mrc ; Number of micrographs: 1
# Pixel size: 1.500 Angstroms ; acceleration voltage: 300.0 keV ; spherical aberration: 0.00 mm ; amplitude contrast: 0.07
# Box size: 512 pixels ; min. res.: 30.0 Angstroms ; max. res.: 5.0 Angstroms ; min. def.: 5000.0 um; max. def. 50000.0 um; num. frames averaged: 50
# 6 lines per micrograph: #1 - spatial frequency (1/Angstroms); #2 - 1D rotational average of spectrum (assuming no astigmatism); #3 - 1D rotational average of spectrum; #4 - CTF fit; #5 - cross-correlation between spectrum and CTF fit; #6 - 2sigma of expected cross correlation of noise
0.000000 0.001302 0.002604 0.003906 0.005208 0.006510 0.007812 0.009115 0.010417 0.011719 0.013021 0.014323 0.015625 0.016927 0.018229 0.019531 0.020833 0.022135 0.023438 0.024740 0.026042 0.027344 0.028646 0.029948 0.031250 0.032552 0.033854 0.035156 0.036458 0.037760 0.039062 0.040365 0.041667 0.042969 0.044271 0.045573 0.046875 0.048177 0.049479 0.050781 0.052083 0.053385 0.054688 0.055990 0.057292 0.058594 0.059896 0.061198 0.062500 0.063802 0.065104 0.066406 0.067708 0.069010 0.070312 0.071615 0.072917 0.074219 0.075521 0.076823 0.078125 0.079427 0.080729 0.082031 0.083333 0.084635 0.085938 0.087240 0.088542 0.089844 0.091146 0.092448 0.093750 0.095052 0.096354 0.097656 0.098958 0.100260 0.101562 0.102865 0.104167 0.105469 0.106771 0.108073 0.109375 0.110677 0.111979 0.113281 0.114583 0.115885 0.117188 0.118490 0.119792 0.121094 0.122396 0.123698 0.125000 0.126302 0.127604 0.128906 0.130208 0.131510 0.132812 0.134115 0.135417 0.136719 0.138021 0.139323 0.140625 0.141927 0.143229 0.144531 0.145833 0.147135 0.148438 0.149740 0.151042 0.152344 0.153646 0.154948 0.156250 0.157552 0.158854 0.160156 0.161458 0.162760 0.164062 0.165365 0.166667 0.167969 0.169271 0.170573 0.171875 0.173177 0.174479 0.175781 0.177083 0.178385 0.179688 0.180990 0.182292 0.183594 0.184896 0.186198 0.187500 0.188802 0.190104 0.191406 0.192708 0.194010 0.195312 0.196615 0.197917 0.199219 0.200521 0.201823 0.203125 0.204427 0.205729 0.207031 0.208333 0.209635 0.210938 0.212240 0.213542 0.214844 0.216146 0.217448 0.218750 0.220052 0.221354 0.222656 0.223958 0.225260 0.226562 0.227865 0.229167 0.230469 0.231771 0.233073 0.234375 0.235677 0.236979 0.238281 0.239583 0.240885 0.242188 0.243490 0.244792 0.246094 0.247396 0.248698 0.250000 0.251302 0.252604 0.253906 0.255208 0.256510 0.257812 0.259115 0.260417 0.261719 0.263021 0.264323 0.265625 0.266927 0.268229 0.269531 0.270833 0.272135 0.273438 0.274740 0.276042 0.277344 0.278646 0.279948 0.281250 0.282552 0.283854 0.285156 0.286458 0.287760 0.289062 0.290365 0.291667 0.292969 0.294271 0.295573 0.296875 0.298177 0.299479 0.300781 0.302083 0.303385 0.304688 0.305990 0.307292 0.308594 0.309896 0.311198 0.312500 0.313802 0.315104 0.316406 0.317708 0.319010 0.320312 0.321615 0.322917 0.324219 0.325521 0.326823 0.328125 0.329427 0.330729 0.332031 0.333333 0.334635 0.335938 0.337240 0.338542 0.339844 0.341146 0.342448 0.343750 0.345052 0.346354 0.347656 0.348958 0.350260 0.351562 0.352865 0.354167 0.355469 0.356771 0.358073 0.359375 0.360677 0.361979 0.363281 0.364583 0.365885 0.367188 0.368490 0.369792 0.371094 0.372396 0.373698 0.375000 0.376302 0.377604 0.378906 0.380208 0.381510 0.382812 0.384115 0.385417 0.386719 0.388021 0.389323 0.390625 0.391927 0.393229 0.394531 0.395833 0.397135 0.398438 0.399740 0.401042 0.402344 0.403646 0.404948 0.406250 0.407552 0.408854 0.410156 0.411458 0.412760 0.414062 0.415365 0.416667 0.417969 0.419271 0.420573 0.421875 0.423177 0.424479 0.425781 0.427083 0.428385 0.429688 0.430990 0.432292 0.433594 0.434896 0.436198 0.437500 0.438802 0.440104 0.441406 0.442708 0.444010 0.445312 0.446615 0.447917 0.449219 0.450521 0.451823 0.453125 0.454427 0.455729 0.457031 0.458333 0.459635 0.460938 0.462240 0.463542 0.464844 0.466146 0.467448 0.468750 0.470052 0.471354
       0.01714        0.01714        0.01714        0.01714        0.01714        0.01714        0.01714        0.01714        0.01714        0.01714        0.01714        0.01714        0.01714        0.01714        0.01714        0.01714        0.01714        0.01714        0.01714        0.01714        0.01714        0.01714        0.01714        0.01714        0.01714        0.14142        0.71026        0.16255       -1.08888       -1.97971       -2.27035       -1.65882       -1.13885       -0.14114        0.25350        1.02687        1.65092        1.63263        1.81001        1.51044        0.93857        0.03335       -0.42179       -0.75056       -0.88333       -0.78144       -0.35401        0.05329        0.16187        0.29928        0.47667        0.58893        0.24927        0.02297       -0.15068       -0.34180       -0.43663       -0.19359       -0.20166       -0.10265       -0.02811       -0.11994       -0.02843        0.01041        0.09550       -0.03376       -0.07113       -0.16734       -0.27861       -0.36523       -0.32041       -0.24337       -0.20344       -0.36650       -0.27737       -0.47893       -0.39961       -0.39124       -0.33153       -0.34852       -0.33730       -0.28532       -0.20367       -0.21141       -0.05010       -0.13078       -0.02138        0.01534        0.13392        0.20749        0.24371        0.26389        0.28620        0.29400        0.39350        0.35531        0.37354        0.28908        0.24683        0.31122        0.19095        0.07144        0.03697       -0.02264       -0.11194       -0.08233       -0.08477       -0.24262       -0.27458       -0.34353       -0.35585       -0.29442       -0.33605       -0.22971       -0.20233       -0.08007       -0.02945        0.01507        0.07569        0.23781        0.21406        0.26102        0.35082        0.37589        0.31041        0.32592        0.29590        0.23241        0.24577        0.05791        0.01794       -0.08969       -0.18468       -0.25097       -0.19233       -0.21428       -0.25147       -0.25151       -0.12971       -0.11901       -0.03050        0.01990        0.08596        0.16140        0.23746        0.19868        0.21448        0.25693        0.21927        0.14206        0.14864        0.01356       -0.04145       -0.05262       -0.06578       -0.15254       -0.16129       -0.14744       -0.09939       -0.08736        0.01444        0.03985        0.05331        0.12408        0.10461        0.13385        0.12164        0.12753        0.10731        0.08006        0.06158        0.03449       -0.01345       -0.01825       -0.08592       -0.10054       -0.08169       -0.05253       -0.02182        0.04178        0.04507        0.02652        0.04451        0.11606        0.11503        0.09233        0.09512        0.05226        0.02445       -0.01493       -0.04406       -0.02378       -0.04309       -0.01872       -0.01701       -0.00108       -0.00067        0.06466        0.06219        0.07974        0.05794        0.07321        0.04596        0.02664       -0.01476       -0.00953       -0.01112       -0.03371       -0.05053        0.00555        0.03513        0.01903        0.03965        0.03995        0.01768        0.06516        0.06715        0.04217        0.02609        0.00214        0.00016        0.01264        0.00565       -0.00176       -0.02031        0.00839        0.03127        0.03746        0.01930       -0.00855        0.00918        0.01871        0.00476       -0.01673       -0.00743        0.02875        0.02906        0.00908        0.01896        0.02297        0.02374        0.00359        0.00742       -0.00012       -0.00494       -0.00729       -0.01634       -0.01416        0.00926        0.04093        0.01859        0.00936        0.01386        0.00742        0.02167        0.00367        0.01982        0.00588       -0.00713        0.01508        0.00440        0.00055        0.01470        0.01397        0.01363        0.00652        0.00495       -0.00950       -0.01830       -0.01626        0.00858        0.02915       -0.00381        0.01508        0.02955        0.02760        0.01046        0.02365        0.03013        0.01060       -0.01080       -0.00647        0.01340        0.01113        0.02727        0.01198        0.02497        0.01952        0.00840       -0.01314        0.02149        0.00989       -0.01415       -0.01468       -0.00165       -0.00552        0.01082        0.00416        0.01286       -0.00226       -0.01740        0.01729        0.04191        0.00166        0.01864        0.01256       -0.01493        0.00676        0.00931        0.01617        0.01128        0.00514        0.01561        0.00112        0.00090        0.00261        0.00469        0.00903       -0.01356       -0.03153        0.00563        0.00853        0.02983        0.01529       -0.02054       -0.00175       -0.01756       -0.01377        0.01791        0.00154        0.01152        0.00081        0.02301        0.00618        0.00372        0.03031       -0.00061       -0.02479        0.02862        0.00252       -0.02888        0.01603        0.01047       -0.01952        0.01980       -0.01498        0.02495        0.02627        0.04207        0.01509       -0.04141        0.00659        0.01807        0.00685       -0.03261       -0.05489       -0.03908       -0.01705        0.10554        0.11770       -0.11839       -0.11076        0.00414
-0.063436 0.627518 0.628236 0.628920 0.629572 0.630190 0.630775 0.631326 0.631845 0.632330 0.632782 0.633201 0.633587 0.633939 0.634259 0.634545 0.634798 0.635017 0.635204 0.635357 0.635477 0.635564 0.635618 0.635638 0.635625 0.635579 2.193107 0.818247 -0.958039 -2.960879 -3.480155 -2.195939 -1.682546 0.355294 0.918402 2.131279 3.715357 3.518717 3.578066 3.495172 2.324041 0.686970 -0.037499 -0.624925 -1.030703 -0.842194 -0.126387 0.740426 0.840717 0.880654 1.382819 1.806274 1.003380 0.876180 0.329234 0.079286 -0.329398 0.344037 0.062354 0.473814 0.606336 0.249081 0.533916 0.611490 0.790768 0.565112 0.510015 0.297127 -0.003146 -0.015911 -0.039120 0.073358 0.361315 -0.101836 0.083933 -0.262487 -0.121793 -0.145275 -0.026185 -0.053236 -0.040348 0.030298 0.202958 0.124412 0.447260 0.306588 0.510927 0.465594 0.806667 0.826415 0.918842 1.003464 1.018400 1.007072 1.208114 1.098431 1.232349 1.023743 0.908001 1.090831 0.852833 0.718992 0.523175 0.526313 0.347142 0.305861 0.430450 0.109172 -0.006852 -0.027654 -0.240083 0.087499 -0.211195 0.031166 0.152125 0.250160 0.371522 0.468878 0.566984 0.710949 0.910788 0.747255 1.108840 1.087233 0.949305 1.031553 0.927378 0.880525 0.820660 0.661900 0.458683 0.320961 0.139179 -0.049665 0.029696 0.120922 -0.076586 -0.064316 0.107471 0.186005 0.233799 0.412670 0.446834 0.595360 0.728620 0.786771 0.709279 0.728856 0.762871 0.622119 0.582122 0.475220 0.256111 0.255422 0.199964 0.083121 0.041596 -0.000606 0.180908 0.036798 0.241850 0.373404 0.302629 0.475814 0.450932 0.450453 0.543859 0.459986 0.458391 0.431404 0.380942 0.310842 0.284774 0.179597 0.174482 0.013539 0.096736 0.137769 0.137992 0.231923 0.260136 0.266031 0.277928 0.332604 0.349600 0.390822 0.277527 0.209256 0.265490 0.143933 0.026995 0.104614 0.031611 0.068400 0.066313 0.075486 0.075563 0.133055 0.222924 0.179992 0.252765 0.149986 0.199818 0.122403 0.066279 -0.002567 0.046233 0.019533 -0.026477 -0.052188 0.095013 0.106461 0.041662 0.114197 0.065822 0.095683 0.166278 0.080521 0.073735 0.072817 -0.023348 0.025339 -0.006126 0.024593 -0.030429 -0.020818 0.020333 0.043086 0.047494 -0.008062 -0.027938 0.013539 0.037103 -0.004718 -0.064055 -0.005438 0.049874 0.023401 -0.008342 0.029128 0.038810 -0.005205 -0.008163 -0.018239 -0.038961 -0.046418 -0.021864 -0.083784 -0.045925 -0.017929 0.071942 -0.032366 0.004165 -0.045140 -0.016599 0.003603 -0.016717 -0.004561 -0.033268 -0.050909 -0.002499 -0.026331 -0.058829 0.033922 -0.041254 0.026337 -0.023360 -0.017395 -0.047813 -0.054626 -0.060524 0.028045 0.019508 -0.034662 0.024646 0.033563 0.030020 0.013306 0.038139 0.012271 -0.017023 -0.062674 -0.018844 0.010140 -0.006355 0.026903 0.016568 0.011803 0.024324 0.007960 -0.055212 0.090872 -0.022660 0.007091 -0.024729 0.001520 0.008226 0.022138 0.037166 0.017616 0.028575 -0.021126 0.079717 0.088534 0.016122 0.071365 0.019630 0.005191 0.019856 0.042878 0.031372 0.050828 0.003532 0.056657 -0.025159 0.023948 0.007875 0.014216 0.007586 -0.048818 -0.073513 -0.012781 -0.024234 0.010794 -0.008503 -0.077694 -0.004607 -0.087432 -0.075715 0.056819 -0.033272 0.054182 -0.009012 0.067944 -0.024588 -0.025407 0.072333 -0.036230 -0.069953 0.052803 -0.024037 -0.123030 0.016767 -0.005888 -0.091638 -0.034378 -0.062261 -0.023317 -0.043268 0.004972 -0.069279 -0.173387 -0.098900 -0.045957 -0.115802 -0.243591 -0.037422 -0.088522 0.004749 0.229891 0.285188 -0.203407 0.007181
0.072396 0.072903 0.074424 0.076959 0.080506 0.085066 0.090637 0.097217 0.104803 0.113394 0.122986 0.133574 0.145152 0.157715 0.171254 0.185760 0.201222 0.217627 0.234958 0.253199 0.272329 0.292324 0.313159 0.334801 0.357219 0.380373 0.404221 0.428716 0.453806 0.479434 0.505537 0.532047 0.558888 0.585980 0.613236 0.640561 0.667856 0.695012 0.721914 0.748443 0.774467 0.799854 0.824460 0.848138 0.870732 0.892084 0.912027 0.930391 0.947003 0.961686 0.974261 0.984546 0.992363 0.997531 0.999874 0.999219 0.995400 0.988257 0.977641 0.963411 0.945444 0.923627 0.897870 0.868099 0.834263 0.796336 0.754319 0.708239 0.658157 0.604167 0.546396 0.485008 0.420208 0.352235 0.281375 0.207948 0.132322 0.054901 0.023869 0.103501 0.183475 0.263231 0.342180 0.419704 0.495160 0.567887 0.637208 0.702440 0.762900 0.817911 0.866811 0.908963 0.943760 0.970639 0.989089 0.998660 0.998973 0.989729 0.970721 0.941839 0.903082 0.854562 0.796513 0.729292 0.653389 0.569420 0.478136 0.380415 0.277262 0.169797 0.059253 0.053040 0.165667 0.277144 0.385937 0.490482 0.589209 0.680565 0.763040 0.835196 0.895696 0.943326 0.977031 0.995935 0.999374 0.986912 0.958366 0.913825 0.853657 0.778525 0.689386 0.587489 0.474370 0.351831 0.221925 0.086923 0.050718 0.188395 0.323412 0.453024 0.574501 0.685179 0.782532 0.864227 0.928189 0.972664 0.996268 0.998045 0.977504 0.934657 0.870042 0.784732 0.680338 0.558990 0.423308 0.276358 0.121594 0.037220 0.196090 0.350895 0.497488 0.631815 0.750025 0.848595 0.924441 0.975023 0.998449 0.993555 0.959970 0.898161 0.809457 0.696041 0.560917 0.407852 0.241287 0.066217 0.111942 0.287520 0.454769 0.608052 0.742045 0.851920 0.933547 0.983655 0.999985 0.981411 0.928022 0.841169 0.723458 0.578703 0.411828 0.228724 0.036047 0.158994 0.348918 0.526245 0.683799 0.815013 0.914213 0.976890 0.999921 0.981758 0.922542 0.824163 0.690233 0.525992 0.338136 0.134565 0.075932 0.284037 0.480315 0.655650 0.801673 0.911185 0.978536 0.999945 0.973747 0.900545 0.783249 0.627011 0.439040 0.228301 0.005121 0.219313 0.433486 0.626164 0.786983 0.907040 0.979409 0.999578 0.965771 0.879130 0.743742 0.566502 0.356799 0.126071 0.112800 0.346189 0.560499 0.742964 0.882430 0.970074 1.000000 0.969686 0.880236 0.736417 0.546471 0.321688 0.075789 0.175885 0.417314 0.632820 0.808091 0.931182 0.993348 0.989742 0.919833 0.787567 0.601227 0.372962 0.118072 0.145994 0.400811 0.628252 0.811797 0.937772 0.996416 0.982700 0.896821 0.744330 0.535846 0.286406 0.014423 0.259637 0.514762 0.731034 0.891186 0.982059 0.995730 0.930282 0.790114 0.585739 0.333083 0.052312 0.233735 0.501374 0.728050 0.894262 0.985296 0.992611 0.914715 0.757473 0.533765 0.262528 0.032773 0.326140 0.591303 0.804092 0.944685 0.999530 0.962734 0.836792 0.632550 0.368383 0.068626 0.238601 0.524006 0.759917 0.923014 0.996698 0.972884 0.852987 0.648002 0.377617 0.068411 0.248673 0.541398 0.779525 0.937970 0.999543 0.956910 0.813585 0.583801 0.291214 0.033421 0.355424 0.639869 0.855389 0.977717 0.992506 0.897148 0.701304 0.426093 0.101915 0.234787 0.545601 0.794529 0.952204 0.999464 0.929806 0.750417 0.481602 0.154634 0.191788 0.516061 0.778654 0.947016 0.999679 0.929164 0.743173 0.463944 0.125732 0.229272 0.556145 0.812931 0.966085 0.994977 0.894827 0.677640 0.370957 0.014514 0.344806 0.659079
1.000000 1.000000 1.000000 1.000000 1.000000 1.000000 1.000000 1.000000 1.000000 1.000000 1.000000 1.000000 1.000000 1.000000 1.000000 1.000000 1.000000 1.000000 1.000000 1.000000 1.000000 1.000000 1.000000 1.000000 1.000000 1.000000 0.349856 0.349856 0.349856 0.349856 0.349856 0.349856 0.349856 0.349856 0.349856 0.349856 0.349856 0.349856 0.349856 0.349856 0.349856 0.349856 0.349856 0.349856 0.349856 0.349856 0.349856 0.349856 0.349856 0.349856 0.349856 0.349856 0.349856 0.349856 0.349856 0.308326 0.308326 0.308326 0.308326 0.308326 0.308326 0.308326 0.308326 0.308326 0.308326 0.308326 0.308326 0.308326 0.308326 0.308326 0.308326 0.308326 0.308326 0.308326 0.308326 0.308326 0.305035 0.316644 0.315618 0.306735 0.300792 0.303828 0.306164 0.318507 0.323698 0.325855 0.343717 0.364933 0.377743 0.387137 0.393434 0.392094 0.401572 0.426830 0.473669 0.548584 0.914509 0.915783 0.912023 0.918110 0.919085 0.919413 0.919806 0.920645 0.922147 0.922678 0.925572 0.930502 0.935612 0.938154 0.953041 0.954080 0.965400 0.966130 0.965168 0.962291 0.973210 0.972131 0.971765 0.972290 0.974412 0.973376 0.972589 0.972740 0.975999 0.974647 0.972712 0.972320 0.970338 0.968911 0.967184 0.966741 0.966853 0.967183 0.967231 0.967601 0.968371 0.968442 0.968937 0.969359 0.971306 0.971571 0.972554 0.972129 0.970507 0.973314 0.971537 0.971343 0.970514 0.969998 0.969872 0.970056 0.963562 0.962172 0.962182 0.956905 0.946723 0.945585 0.940360 0.928959 0.929869 0.933051 0.934826 0.934342 0.929005 0.917385 0.905984 0.928085 0.913645 0.902945 0.901029 0.891073 0.892885 0.885386 0.884547 0.878946 0.871094 0.861973 0.860632 0.859736 0.864443 0.865514 0.866239 0.866367 0.837723 0.832360 0.834101 0.825189 0.813353 0.815688 0.809158 0.811256 0.820465 0.819868 0.818901 0.804267 0.791519 0.779591 0.779029 0.761584 0.735497 0.770957 0.753801 0.717157 0.715466 0.714579 0.720949 0.735077 0.712922 0.615034 0.575946 0.567232 0.552552 0.545028 0.530758 0.513608 0.499900 0.491581 0.491531 0.497245 0.496363 0.464703 0.409107 0.398783 0.398601 0.387168 0.386728 0.388886 0.383768 0.363894 0.356153 0.353522 0.320478 0.323055 0.331681 0.318263 0.292245 0.282149 0.252545 0.256359 0.238441 0.231155 0.190567 0.125369 0.142220 0.123569 0.101018 0.119251 0.128595 0.157401 0.156300 0.142795 0.109460 0.100024 0.058438 0.063042 0.064919 0.030080 0.042019 0.067654 0.073615 0.060469 0.031496 0.015569 0.020719 0.078483 0.128100 0.123569 0.111884 0.117352 0.122623 0.137133 0.137965 0.140540 0.115767 0.086862 0.031872 0.042391 0.019412 0.034051 0.028238 0.043444 0.064431 0.081542 0.071358 0.050559 0.097421 0.089773 0.074229 0.076219 0.035715 0.051332 0.035947 -0.017222 -0.042769 -0.010277 -0.028996 -0.043372 -0.071598 -0.044379 -0.031978 0.016499 -0.026548 -0.015154 -0.010649 -0.066942 -0.052273 -0.084554 -0.081223 -0.079833 -0.067651 -0.072495 -0.062064 -0.074453 -0.093662 -0.081463 -0.080725 -0.091392 -0.088094 -0.076473 -0.065425 -0.060377 -0.070918 -0.057980 -0.065815 -0.071657 -0.071333 -0.107661 -0.128495 -0.148463 -0.129425 -0.077958 -0.051458 -0.033756 -0.052959 -0.052959 -0.052959 -0.052959 -0.065676 -0.065676 -0.065676 -0.065676 -0.065676 -0.065676 -0.065676 -0.065676 -0.065676 -0.071080 -0.071080 -0.071080 -0.071080 -0.071080 -0.071080 -0.071080 -0.071080 -0.071080 -0.071080 -0.071080 -0.071080 -0.071080 -0.071080 -0.071080 -0.071080
0.000000 0.000000 0.000000 0.000000 0.000000 0.000000 0.000000 0.000000 0.000000 0.000000 934.000000 930.000000 0.000000 0.000000 0.000000 0.000000 0.000000 0.000000 0.000000 0.000000 0.000000 0.000000 0.000000 0.000000 0.000000 0.000000 0.180334 0.180334 0.180334 0.180334 0.180334 0.180334 0.180334 0.180334 0.180334 0.180334 0.180334 0.180334 0.180334 0.180334 0.180334 0.180334 0.180334 0.180334 0.180334 0.180334 0.180334 0.180334 0.180334 0.180334 0.180334 0.180334 0.180334 0.180334 0.180334 0.199007 0.199007 0.199007 0.199007 0.199007 0.199007 0.199007 0.199007 0.199007 0.199007 0.199007 0.199007 0.199007 0.199007 0.199007 0.199007 0.199007 0.199007 0.199007 0.199007 0.199007 0.199007 0.199007 0.199007 0.199007 0.199007 0.199007 0.199007 0.199007 0.199007 0.199007 0.199007 0.199007 0.199007 0.199007 0.199007 0.199007 0.199007 0.199007 0.199007 0.199007 0.230940 0.230940 0.230940 0.230940 0.230940 0.230940 0.230940 0.230940 0.230940 0.230940 0.230940 0.230940 0.230940 0.230940 0.230940 0.230940 0.230940 0.230940 0.230940 0.230940 0.230940 0.230940 0.230940 0.230940 0.230940 0.230940 0.230940 0.230940 0.244339 0.244339 0.244339 0.244339 0.244339 0.244339 0.244339 0.244339 0.244339 0.244339 0.244339 0.244339 0.244339 0.244339 0.244339 0.244339 0.244339 0.244339 0.244339 0.244339 0.244339 0.244339 0.244339 0.251976 0.251976 0.251976 0.251976 0.251976 0.251976 0.251976 0.251976 0.251976 0.251976 0.251976 0.251976 0.251976 0.251976 0.251976 0.251976 0.251976 0.251976 0.251976 0.251976 0.264906 0.264906 0.264906 0.264906 0.264906 0.264906 0.264906 0.264906 0.264906 0.264906 0.264906 0.264906 0.264906 0.264906 0.264906 0.264906 0.264906 0.256074 0.256074 0.256074 0.256074 0.256074 0.256074 0.256074 0.256074 0.256074 0.256074 0.256074 0.256074 0.256074 0.256074 0.256074 0.256074 0.256074 0.269680 0.269680 0.269680 0.269680 0.269680 0.269680 0.269680 0.269680 0.269680 0.269680 0.269680 0.269680 0.269680 0.269680 0.264906 0.264906 0.264906 0.264906 0.264906 0.264906 0.264906 0.264906 0.264906 0.264906 0.264906 0.264906 0.264906 0.264906 0.264906 0.264906 0.264906 0.264906 0.264906 0.264906 0.264906 0.264906 0.264906 0.264906 0.264906 0.264906 0.264906 0.260378 0.260378 0.260378 0.260378 0.260378 0.260378 0.260378 0.260378 0.260378 0.260378 0.260378 0.260378 0.260378 0.264906 0.264906 0.264906 0.264906 0.264906 0.264906 0.264906 0.264906 0.264906 0.264906 0.264906 0.264906 0.269680 0.269680 0.269680 0.269680 0.269680 0.269680 0.269680 0.269680 0.269680 0.269680 0.269680 0.264906 0.264906 0.264906 0.264906 0.264906 0.264906 0.264906 0.264906 0.264906 0.264906 0.264906 0.256074 0.256074 0.256074 0.256074 0.256074 0.256074 0.256074 0.256074 0.256074 0.256074 0.256074 0.264906 0.264906 0.264906 0.264906 0.264906 0.264906 0.264906 0.264906 0.264906 0.264906 0.260378 0.260378 0.260378 0.260378 0.260378 0.260378 0.260378 0.260378 0.260378 0.260378 0.264906 0.264906 0.264906 0.264906 0.264906 0.264906 0.264906 0.264906 0.264906 0.260378 0.260378 0.260378 0.260378 0.260378 0.260378 0.260378 0.260378 0.260378 0.256074 0.256074 0.256074 0.256074 0.256074 0.256074 0.256074 0.256074 0.256074 0.251976 0.251976 0.251976 0.251976 0.251976 0.251976 0.251976 0.251976 0.251976 0.251976 0.251976 0.251976 0.251976 0.251976 0.251976 0.251976
