# Output from CTFFind version 4.1.9, run on 2019-11-01 21:25:28
# Input file: bm3d_averaged_3_1.7_0.33_1500_full.mrc ; Number of micrographs: 1
# Pixel size: 3.000 Angstroms ; acceleration voltage: 300.0 keV ; spherical aberration: 0.00 mm ; amplitude contrast: 0.07
# Box size: 512 pixels ; min. res.: 30.0 Angstroms ; max. res.: 5.0 Angstroms ; min. def.: 5000.0 um; max. def. 50000.0 um; num. frames averaged: 1
# 6 lines per micrograph: #1 - spatial frequency (1/Angstroms); #2 - 1D rotational average of spectrum (assuming no astigmatism); #3 - 1D rotational average of spectrum; #4 - CTF fit; #5 - cross-correlation between spectrum and CTF fit; #6 - 2sigma of expected cross correlation of noise
0.000000 0.000651 0.001302 0.001953 0.002604 0.003255 0.003906 0.004557 0.005208 0.005859 0.006510 0.007161 0.007812 0.008464 0.009115 0.009766 0.010417 0.011068 0.011719 0.012370 0.013021 0.013672 0.014323 0.014974 0.015625 0.016276 0.016927 0.017578 0.018229 0.018880 0.019531 0.020182 0.020833 0.021484 0.022135 0.022786 0.023438 0.024089 0.024740 0.025391 0.026042 0.026693 0.027344 0.027995 0.028646 0.029297 0.029948 0.030599 0.031250 0.031901 0.032552 0.033203 0.033854 0.034505 0.035156 0.035807 0.036458 0.037109 0.037760 0.038411 0.039062 0.039714 0.040365 0.041016 0.041667 0.042318 0.042969 0.043620 0.044271 0.044922 0.045573 0.046224 0.046875 0.047526 0.048177 0.048828 0.049479 0.050130 0.050781 0.051432 0.052083 0.052734 0.053385 0.054036 0.054688 0.055339 0.055990 0.056641 0.057292 0.057943 0.058594 0.059245 0.059896 0.060547 0.061198 0.061849 0.062500 0.063151 0.063802 0.064453 0.065104 0.065755 0.066406 0.067057 0.067708 0.068359 0.069010 0.069661 0.070312 0.070964 0.071615 0.072266 0.072917 0.073568 0.074219 0.074870 0.075521 0.076172 0.076823 0.077474 0.078125 0.078776 0.079427 0.080078 0.080729 0.081380 0.082031 0.082682 0.083333 0.083984 0.084635 0.085286 0.085938 0.086589 0.087240 0.087891 0.088542 0.089193 0.089844 0.090495 0.091146 0.091797 0.092448 0.093099 0.093750 0.094401 0.095052 0.095703 0.096354 0.097005 0.097656 0.098307 0.098958 0.099609 0.100260 0.100911 0.101562 0.102214 0.102865 0.103516 0.104167 0.104818 0.105469 0.106120 0.106771 0.107422 0.108073 0.108724 0.109375 0.110026 0.110677 0.111328 0.111979 0.112630 0.113281 0.113932 0.114583 0.115234 0.115885 0.116536 0.117188 0.117839 0.118490 0.119141 0.119792 0.120443 0.121094 0.121745 0.122396 0.123047 0.123698 0.124349 0.125000 0.125651 0.126302 0.126953 0.127604 0.128255 0.128906 0.129557 0.130208 0.130859 0.131510 0.132161 0.132812 0.133464 0.134115 0.134766 0.135417 0.136068 0.136719 0.137370 0.138021 0.138672 0.139323 0.139974 0.140625 0.141276 0.141927 0.142578 0.143229 0.143880 0.144531 0.145182 0.145833 0.146484 0.147135 0.147786 0.148438 0.149089 0.149740 0.150391 0.151042 0.151693 0.152344 0.152995 0.153646 0.154297 0.154948 0.155599 0.156250 0.156901 0.157552 0.158203 0.158854 0.159505 0.160156 0.160807 0.161458 0.162109 0.162760 0.163411 0.164062 0.164714 0.165365 0.166016 0.166667 0.167318 0.167969 0.168620 0.169271 0.169922 0.170573 0.171224 0.171875 0.172526 0.173177 0.173828 0.174479 0.175130 0.175781 0.176432 0.177083 0.177734 0.178385 0.179036 0.179688 0.180339 0.180990 0.181641 0.182292 0.182943 0.183594 0.184245 0.184896 0.185547 0.186198 0.186849 0.187500 0.188151 0.188802 0.189453 0.190104 0.190755 0.191406 0.192057 0.192708 0.193359 0.194010 0.194661 0.195312 0.195964 0.196615 0.197266 0.197917 0.198568 0.199219 0.199870 0.200521 0.201172 0.201823 0.202474 0.203125 0.203776 0.204427 0.205078 0.205729 0.206380 0.207031 0.207682 0.208333 0.208984 0.209635 0.210286 0.210938 0.211589 0.212240 0.212891 0.213542 0.214193 0.214844 0.215495 0.216146 0.216797 0.217448 0.218099 0.218750 0.219401 0.220052 0.220703 0.221354 0.222005 0.222656 0.223307 0.223958 0.224609 0.225260 0.225911 0.226562 0.227214 0.227865 0.228516 0.229167 0.229818 0.230469 0.231120 0.231771 0.232422 0.233073 0.233724 0.234375 0.235026 0.235677
       0.32970        0.32970        0.32970        0.32970        0.32970        0.32970        0.32970        0.32970        0.32970        0.32970        0.32970        0.32970        0.32970        0.32970        0.32970        0.32970        0.32970        0.32970        0.32970        0.32970        0.32970        0.32970        0.32970        0.32970        0.32970        0.32970        0.32970        0.32970        0.32970        0.32970        0.32970        0.32970        0.32970        0.32970        0.32970        0.32970        0.32970        0.32970        0.32970        0.32970        0.32970        0.32970        0.32970        0.32970        0.32970        0.32970        0.32970        0.32970        0.32970        0.32970        0.32970        0.48201        0.71239        0.39127        0.18214       -0.06269       -0.26707       -0.07703       -0.13941       -0.12698       -0.03109       -0.17939       -0.14123       -0.07305       -0.03023       -0.15511       -0.23413       -0.33476       -0.48488       -0.57867       -0.48442       -0.45218       -0.36568       -0.55469       -0.42406       -0.60294       -0.48219       -0.45038       -0.38133       -0.34814       -0.33824       -0.22425       -0.16051       -0.12642        0.03098       -0.00167        0.15713        0.17763        0.28092        0.37400        0.45976        0.50393        0.54831        0.57104        0.69056        0.61606        0.64251        0.57980        0.55377        0.59847        0.50879        0.45415        0.40198        0.30056        0.25891        0.27754        0.27315        0.08648        0.04608       -0.01181        0.01112        0.04554       -0.00441        0.09579        0.10356        0.22704        0.29800        0.29244        0.38951        0.53168        0.49934        0.53733        0.65973        0.64867        0.60300        0.63602        0.61722        0.53596        0.55579        0.43519        0.36505        0.24891        0.18524        0.10545        0.13642        0.07584        0.15525        0.14119        0.18638        0.18814        0.31055        0.34438        0.42461        0.47684        0.52831        0.51127        0.49509        0.56489        0.45560        0.45324        0.47892        0.33603        0.27687        0.26435        0.28378        0.16053        0.20910        0.17145        0.19780        0.22545        0.27861        0.38483        0.40804        0.41893        0.45159        0.46214        0.45405        0.51225        0.41583        0.34533        0.35015        0.36181        0.33301        0.27527        0.24288        0.25921        0.25668        0.28254        0.26125        0.33604        0.41704        0.35862        0.39662        0.45565        0.43027        0.43175        0.46772        0.34823        0.30475        0.31729        0.26332        0.29206        0.26605        0.29809        0.28714        0.29408        0.34604        0.42198        0.39598        0.39450        0.38161        0.40482        0.33851        0.38083        0.30099        0.28748        0.26562        0.26048        0.25451        0.31863        0.33350        0.34990        0.35898        0.38425        0.33143        0.41003        0.39859        0.35650        0.34196        0.30164        0.31261        0.33451        0.31360        0.31439        0.30931        0.30142        0.31960        0.37754        0.33966        0.33851        0.34031        0.36208        0.34585        0.29411        0.32538        0.31288        0.31642        0.30186        0.32421        0.34315        0.33784        0.35054        0.33407        0.30612        0.29310        0.26899        0.27054        0.31871        0.30082        0.32035        0.30074        0.29318        0.32888        0.32050        0.29356        0.28146        0.28622        0.30091        0.28177        0.28650        0.31424        0.26836        0.34099        0.32314        0.34502        0.33379        0.30553        0.33219        0.30131        0.23267        0.24915        0.31638        0.30336        0.29467        0.33148        0.28639        0.30377        0.33975        0.36987        0.29139        0.27375        0.23810        0.29078        0.34211        0.38424        0.35849        0.31859        0.30072        0.30623        0.25632        0.31214        0.29710        0.33543        0.31101        0.29112        0.26595        0.29545        0.35217        0.28817        0.29206        0.25753        0.32537        0.35196        0.37301        0.31918        0.33592        0.29295        0.31028        0.31111        0.29794        0.27335        0.24508        0.25223        0.27517        0.30530        0.28365        0.29280        0.27732        0.23761        0.25543        0.24296        0.32415        0.30308        0.27183        0.28840        0.32316        0.31029        0.26235        0.21800        0.25890        0.27275        0.30131        0.33593        0.24006        0.28262        0.30715        0.23873        0.27605        0.24629        0.23368        0.21483        0.28335        0.21704        0.20026        0.29616        0.26109        0.32434        0.24641        0.22923        0.20440        0.08737        0.20906        0.31871        0.21614        0.17765        0.16988        0.31583        0.25152        0.26237        0.08524        0.06076       -0.47239       -0.72924
2.384807 2.360686 2.336690 2.312820 2.289075 2.265456 2.241962 2.218594 2.195351 2.172234 2.149242 2.126376 2.103635 2.081019 2.058529 2.036165 2.013926 1.991812 1.969824 1.947961 1.926224 1.904612 1.883126 1.861765 1.840529 1.819420 1.798435 1.777576 1.756842 1.736234 1.715752 1.695395 1.675163 1.655057 1.635076 1.615221 1.595491 1.575886 1.556407 1.537054 1.517826 1.498723 1.479746 1.460895 1.442168 1.423568 1.405092 1.386743 1.368518 1.350420 1.332446 1.386672 1.718969 1.365071 1.072632 0.831516 0.430488 0.813427 0.527992 0.698704 0.784544 0.496890 0.555027 0.667246 0.699867 0.545618 0.431181 0.292143 0.038832 -0.032570 0.035502 0.007292 0.274048 -0.122058 0.061293 -0.164266 -0.049017 -0.021224 0.033433 0.074096 0.055970 0.162558 0.249601 0.220106 0.439785 0.392689 0.567666 0.514344 0.723538 0.699412 0.828853 0.942221 0.878232 0.979366 1.022768 1.056485 1.023497 0.901106 0.878234 0.927579 0.812151 0.773086 0.640205 0.563909 0.500886 0.445652 0.494476 0.276906 0.171708 0.148223 0.047249 0.205007 0.018645 0.168224 0.175506 0.275399 0.362930 0.378065 0.455735 0.541982 0.625253 0.514638 0.744115 0.822850 0.653402 0.719868 0.686511 0.586654 0.551789 0.520831 0.355132 0.238553 0.135380 0.041596 0.023201 -0.009073 0.020544 0.015422 0.102337 0.037353 0.141556 0.228524 0.286321 0.360573 0.417525 0.429248 0.389353 0.446186 0.353858 0.323965 0.345130 0.273257 0.095503 0.090054 0.062751 0.020455 -0.026301 -0.031496 -0.034406 -0.008786 0.030440 0.110297 0.215475 0.236396 0.198292 0.300597 0.280627 0.304956 0.271510 0.202292 0.114047 0.133792 0.166154 0.050644 0.004744 -0.000744 0.020249 0.050314 0.047505 0.008112 0.162575 0.150420 0.133079 0.195487 0.277046 0.128277 0.257526 0.137764 0.086510 0.042847 -0.005038 0.020464 -0.007053 0.002583 0.028892 0.003958 0.005988 0.118413 0.141722 0.137135 0.136849 0.116832 0.092726 0.083621 0.085798 -0.016981 0.004915 -0.041450 -0.062428 -0.012199 0.049405 0.077696 0.031331 0.105209 0.071289 0.072387 0.162830 0.075316 0.082382 0.057146 -0.011663 0.027205 0.076203 -0.014879 0.052584 0.021678 0.004250 0.063667 0.086358 0.049163 0.060492 0.067102 0.078424 0.049139 -0.001487 0.047341 0.022505 0.043116 0.024612 0.041578 0.047968 0.087326 0.047045 0.038349 -0.005771 -0.014337 -0.032236 -0.014713 0.025716 0.000077 0.042916 -0.003632 0.005693 0.056261 0.039503 0.034271 0.015854 0.000190 0.021965 0.015422 0.029297 0.036112 -0.021421 0.092071 0.076593 0.053999 0.059775 0.052747 0.057924 0.010732 -0.078964 0.003224 0.041409 0.030191 0.015213 0.063854 0.000217 0.010797 0.073530 0.057378 0.012145 -0.070067 -0.041160 0.004653 0.051120 0.100761 0.076108 0.039255 0.002781 0.007646 -0.065724 0.031541 0.027333 0.042916 0.029259 -0.042660 -0.045119 0.001355 0.026951 -0.046624 -0.030182 -0.077061 0.074334 0.037796 0.044629 -0.031615 0.037978 -0.047962 -0.018808 -0.022513 -0.093125 -0.077673 -0.113961 -0.088177 -0.081310 -0.021496 -0.052637 -0.057497 -0.060258 -0.078825 -0.075101 -0.127844 0.071320 -0.026558 -0.037943 -0.025804 0.037293 -0.017591 -0.053735 -0.092016 -0.026052 0.025711 0.023485 0.066186 -0.061290 0.019053 0.007203 -0.010272 0.053591 -0.054675 -0.000151 -0.066851 0.060161 -0.029366 -0.162904 0.074893 0.026539 0.109974 -0.023392 0.019068 -0.056012 -0.190069 -0.075556 0.087658 0.276697 0.191175 0.207032 0.447610 0.275512 0.313962 -0.028648 0.077720 -0.851098
0.072396 0.072909 0.074446 0.077008 0.080594 0.085202 0.090833 0.097483 0.105151 0.113834 0.123528 0.134228 0.145930 0.158627 0.172309 0.186968 0.202592 0.219167 0.236678 0.255107 0.274431 0.294627 0.315668 0.337523 0.360156 0.383528 0.407595 0.432310 0.457618 0.483461 0.509773 0.536484 0.563518 0.590790 0.618211 0.645685 0.673108 0.700369 0.727350 0.753927 0.779967 0.805331 0.829875 0.853445 0.875884 0.897027 0.916706 0.934746 0.950971 0.965199 0.977248 0.986935 0.994076 0.998491 1.000000 0.998430 0.993613 0.985390 0.973612 0.958141 0.938855 0.915646 0.888429 0.857134 0.821719 0.782166 0.738485 0.690717 0.638933 0.583242 0.523786 0.460747 0.394347 0.324846 0.252549 0.177801 0.100988 0.022540 0.057073 0.137342 0.217722 0.297629 0.376454 0.453555 0.528270 0.599921 0.667815 0.731258 0.789558 0.842032 0.888018 0.926884 0.958032 0.980916 0.995045 0.999997 0.995427 0.981078 0.956789 0.922506 0.878288 0.824312 0.760884 0.688441 0.607549 0.518911 0.423364 0.321872 0.215525 0.105528 0.006807 0.120077 0.232799 0.343434 0.450400 0.552103 0.646953 0.733399 0.809947 0.875197 0.927867 0.966824 0.991110 0.999972 0.992884 0.969573 0.930033 0.874547 0.803689 0.718339 0.619673 0.509163 0.388562 0.259883 0.125374 0.012520 0.151190 0.287917 0.419922 0.544418 0.658676 0.760088 0.846228 0.914921 0.964300 0.992867 0.999549 0.983740 0.945340 0.884780 0.803042 0.701653 0.582678 0.448688 0.302721 0.148220 0.011038 0.171027 0.327572 0.476459 0.613543 0.734876 0.836824 0.916185 0.970304 0.997169 0.995507 0.964847 0.905570 0.818937 0.707082 0.572983 0.420406 0.253808 0.078231 0.100850 0.277683 0.446428 0.601346 0.737004 0.848475 0.931529 0.982812 0.999998 0.981917 0.928639 0.841519 0.723201 0.577558 0.409599 0.225315 0.031485 0.164560 0.355213 0.532880 0.690288 0.820795 0.918686 0.979449 1.000000 0.978870 0.916327 0.814420 0.676957 0.509398 0.318667 0.112892 0.098924 0.307278 0.502601 0.675695 0.818179 0.922918 0.984408 0.999093 0.965606 0.884907 0.760317 0.597418 0.403855 0.189005 0.036450 0.261031 0.473053 0.661218 0.815248 0.926463 0.988300 0.996747 0.950640 0.851813 0.705092 0.518113 0.300965 0.065691 0.174359 0.405272 0.613374 0.786056 0.912563 0.984699 0.997409 0.949176 0.842222 0.682479 0.479319 0.245059 0.005746 0.257178 0.492954 0.697491 0.856953 0.960220 0.999724 0.972045 0.878276 0.724057 0.519327 0.277734 0.015774 0.248286 0.495687 0.708495 0.870951 0.970653 0.999581 0.954800 0.838816 0.659535 0.429793 0.166522 0.110465 0.379920 0.620793 0.813897 0.943464 0.998502 0.973798 0.870488 0.696121 0.464209 0.193248 0.094681 0.375693 0.626065 0.824248 0.952785 0.999901 0.960674 0.837629 0.640702 0.386531 0.097142 0.201906 0.483747 0.722620 0.896263 0.988040 0.988633 0.897077 0.721050 0.476346 0.185564 0.123910 0.422439 0.680955 0.873831 0.981475 0.992416 0.904633 0.725974 0.473582 0.172359 0.147389 0.452984 0.712684 0.899033 0.991822 0.980400 0.865007 0.656986 0.377820 0.057004 0.270964 0.570285 0.807757 0.956527 0.999216 0.930080 0.755903 0.495499 0.177806 0.161216 0.482606 0.748875 0.928417 0.999356 0.952352 0.791959 0.536376 0.215533 0.132303 0.465012 0.741722 0.927865 0.999605 0.947024 0.775651 0.506070 0.171617 0.185623 0.520052 0.788364 0.955220 0.998023 0.910123 0.702022 0.400316 0.044445 0.318326 0.639169 0.874256 0.990850
1.000000 1.000000 1.000000 1.000000 1.000000 1.000000 1.000000 1.000000 1.000000 1.000000 1.000000 1.000000 1.000000 1.000000 1.000000 1.000000 1.000000 1.000000 1.000000 1.000000 1.000000 1.000000 1.000000 1.000000 1.000000 1.000000 1.000000 1.000000 1.000000 1.000000 1.000000 1.000000 1.000000 1.000000 1.000000 1.000000 1.000000 1.000000 1.000000 1.000000 1.000000 1.000000 1.000000 1.000000 1.000000 1.000000 1.000000 1.000000 1.000000 1.000000 1.000000 1.000000 0.915114 0.915114 0.912123 0.912123 0.912123 0.912123 0.912123 0.912123 0.912123 0.912123 0.912123 0.912123 0.912123 0.912123 0.912123 0.912123 0.912123 0.912123 0.912123 0.912123 0.912123 0.912123 0.912123 0.912123 0.912123 0.912123 0.912123 0.912123 0.912123 0.912123 0.912123 0.912123 0.912123 0.912123 0.912123 0.912123 0.912123 0.912123 0.912123 0.912123 0.912123 0.912123 0.912123 0.912123 0.906333 0.908747 0.912024 0.915651 0.916091 0.913518 0.913378 0.913072 0.913202 0.914489 0.928634 0.943683 0.947738 0.951364 0.956089 0.960070 0.961937 0.963062 0.966341 0.976956 0.975818 0.976504 0.976850 0.978028 0.979682 0.979896 0.980831 0.980817 0.980648 0.981051 0.980936 0.980533 0.980006 0.979511 0.978600 0.978514 0.977676 0.977950 0.978006 0.978349 0.978476 0.979233 0.969971 0.971771 0.967398 0.966961 0.966999 0.965321 0.962985 0.950648 0.950304 0.949437 0.938825 0.938155 0.938647 0.915578 0.907780 0.908691 0.890098 0.887748 0.882793 0.876708 0.873427 0.874559 0.878662 0.882170 0.879856 0.873033 0.850891 0.818136 0.852968 0.833774 0.800024 0.791684 0.796196 0.799319 0.800703 0.799413 0.795800 0.790245 0.777700 0.778680 0.773789 0.780315 0.782880 0.782466 0.782310 0.781720 0.767435 0.754488 0.734066 0.721545 0.724701 0.724764 0.725044 0.724964 0.732900 0.727839 0.710663 0.698916 0.688688 0.665535 0.628434 0.639652 0.651443 0.660551 0.657092 0.638517 0.610987 0.610753 0.650629 0.636048 0.642124 0.639590 0.623941 0.628525 0.624829 0.625683 0.634759 0.633323 0.627487 0.629197 0.636638 0.632129 0.611874 0.597932 0.590149 0.573149 0.568255 0.598236 0.599016 0.585631 0.568595 0.557021 0.546366 0.539076 0.534333 0.544780 0.515716 0.523850 0.520870 0.519090 0.526694 0.530760 0.519266 0.534967 0.520233 0.492243 0.496875 0.505651 0.509172 0.488855 0.482137 0.487876 0.466191 0.452708 0.484089 0.497413 0.501112 0.508640 0.527014 0.522314 0.519889 0.543579 0.565020 0.550957 0.565562 0.561102 0.546449 0.392716 0.377884 0.359087 0.354407 0.362735 0.340324 0.315381 0.317374 0.265785 0.243471 0.226067 0.194687 0.153583 0.155132 0.146725 0.185899 0.219750 0.207513 0.216784 0.258624 0.283123 0.285539 0.280452 0.257418 0.253462 0.257509 0.228043 0.192124 0.175349 0.181152 0.114173 0.114717 0.117059 0.138604 0.094722 0.079594 0.081413 0.086027 0.060931 0.019783 0.022041 0.017482 0.010738 0.042902 0.052582 0.051059 -0.005783 -0.033711 -0.052561 -0.051862 -0.093233 -0.087731 -0.101092 -0.108221 -0.097381 -0.084145 -0.067499 -0.022073 0.000529 0.000049 0.000182 -0.010360 -0.013126 0.010596 0.016369 -0.010884 -0.063162 -0.072910 -0.072910 -0.072910 -0.072910 -0.072910 -0.060111 -0.060111 -0.060111 -0.060111 -0.060111 -0.060111 -0.060111 -0.060111 -0.060111 -0.013910 -0.013910 -0.013910 -0.013910 -0.013910 -0.013910 -0.013910 -0.013910 -0.013910 -0.013910 -0.013910 -0.013910 -0.013910 -0.013910 -0.013910 -0.013910 -0.013910
0.000000 0.000000 0.000000 0.000000 0.000000 0.000000 0.000000 0.000000 0.000000 0.000000 0.000000 0.000000 0.000000 0.000000 0.000000 0.000000 0.000000 0.000000 0.000000 0.000000 0.000000 0.000000 0.000000 0.000000 0.000000 0.000000 0.000000 0.000000 0.000000 0.000000 0.000000 0.000000 0.000000 0.000000 0.000000 0.000000 0.000000 0.000000 0.000000 0.000000 0.000000 0.000000 0.000000 0.000000 0.000000 0.000000 0.000000 0.000000 0.000000 0.000000 0.000000 0.000000 0.181818 0.181818 0.197066 0.197066 0.197066 0.197066 0.197066 0.197066 0.197066 0.197066 0.197066 0.197066 0.197066 0.197066 0.197066 0.197066 0.197066 0.197066 0.197066 0.197066 0.197066 0.197066 0.197066 0.197066 0.197066 0.197066 0.197066 0.197066 0.197066 0.197066 0.197066 0.197066 0.197066 0.197066 0.197066 0.197066 0.197066 0.197066 0.197066 0.197066 0.197066 0.197066 0.197066 0.197066 0.230940 0.230940 0.230940 0.230940 0.230940 0.230940 0.230940 0.230940 0.230940 0.230940 0.230940 0.230940 0.230940 0.230940 0.230940 0.230940 0.230940 0.230940 0.230940 0.230940 0.230940 0.230940 0.230940 0.230940 0.230940 0.230940 0.230940 0.230940 0.248069 0.248069 0.248069 0.248069 0.248069 0.248069 0.248069 0.248069 0.248069 0.248069 0.248069 0.248069 0.248069 0.248069 0.248069 0.248069 0.248069 0.248069 0.248069 0.248069 0.248069 0.248069 0.251976 0.251976 0.251976 0.251976 0.251976 0.251976 0.251976 0.251976 0.251976 0.251976 0.251976 0.251976 0.251976 0.251976 0.251976 0.251976 0.251976 0.251976 0.251976 0.251976 0.264906 0.264906 0.264906 0.264906 0.264906 0.264906 0.264906 0.264906 0.264906 0.264906 0.264906 0.264906 0.264906 0.264906 0.264906 0.264906 0.264906 0.264906 0.264906 0.264906 0.264906 0.264906 0.264906 0.264906 0.264906 0.264906 0.264906 0.264906 0.264906 0.264906 0.264906 0.264906 0.264906 0.264906 0.264906 0.264906 0.264906 0.264906 0.264906 0.264906 0.264906 0.264906 0.264906 0.264906 0.264906 0.264906 0.264906 0.264906 0.264906 0.264906 0.264906 0.264906 0.264906 0.264906 0.264906 0.264906 0.264906 0.264906 0.264906 0.264906 0.264906 0.264906 0.264906 0.264906 0.264906 0.264906 0.264906 0.264906 0.264906 0.264906 0.264906 0.264906 0.264906 0.264906 0.264906 0.260378 0.260378 0.260378 0.260378 0.260378 0.260378 0.260378 0.260378 0.260378 0.260378 0.260378 0.260378 0.260378 0.274721 0.274721 0.274721 0.274721 0.274721 0.274721 0.274721 0.274721 0.274721 0.274721 0.274721 0.260378 0.260378 0.260378 0.260378 0.260378 0.260378 0.260378 0.260378 0.260378 0.260378 0.260378 0.260378 0.264906 0.264906 0.264906 0.264906 0.264906 0.264906 0.264906 0.264906 0.264906 0.264906 0.264906 0.269680 0.269680 0.269680 0.269680 0.269680 0.269680 0.269680 0.269680 0.269680 0.269680 0.264906 0.264906 0.264906 0.264906 0.264906 0.264906 0.264906 0.264906 0.264906 0.264906 0.260378 0.260378 0.260378 0.260378 0.260378 0.260378 0.260378 0.260378 0.260378 0.260378 0.264906 0.264906 0.264906 0.264906 0.264906 0.264906 0.264906 0.264906 0.264906 0.251976 0.251976 0.251976 0.251976 0.251976 0.251976 0.251976 0.251976 0.251976 0.251976 0.256074 0.256074 0.256074 0.256074 0.256074 0.256074 0.256074 0.256074 0.256074 0.269680 0.269680 0.269680 0.269680 0.269680 0.269680 0.269680 0.269680 0.269680 0.269680 0.269680 0.269680 0.269680 0.269680 0.269680 0.269680 0.269680
