# Output from CTFFind version 4.1.9, run on 2019-11-01 21:23:28
# Input file: bm3d_averaged_1_1.7_0.33_250_full.mrc ; Number of micrographs: 1
# Pixel size: 3.000 Angstroms ; acceleration voltage: 300.0 keV ; spherical aberration: 0.00 mm ; amplitude contrast: 0.07
# Box size: 512 pixels ; min. res.: 30.0 Angstroms ; max. res.: 5.0 Angstroms ; min. def.: 5000.0 um; max. def. 50000.0 um; num. frames averaged: 1
# 6 lines per micrograph: #1 - spatial frequency (1/Angstroms); #2 - 1D rotational average of spectrum (assuming no astigmatism); #3 - 1D rotational average of spectrum; #4 - CTF fit; #5 - cross-correlation between spectrum and CTF fit; #6 - 2sigma of expected cross correlation of noise
0.000000 0.000651 0.001302 0.001953 0.002604 0.003255 0.003906 0.004557 0.005208 0.005859 0.006510 0.007161 0.007812 0.008464 0.009115 0.009766 0.010417 0.011068 0.011719 0.012370 0.013021 0.013672 0.014323 0.014974 0.015625 0.016276 0.016927 0.017578 0.018229 0.018880 0.019531 0.020182 0.020833 0.021484 0.022135 0.022786 0.023438 0.024089 0.024740 0.025391 0.026042 0.026693 0.027344 0.027995 0.028646 0.029297 0.029948 0.030599 0.031250 0.031901 0.032552 0.033203 0.033854 0.034505 0.035156 0.035807 0.036458 0.037109 0.037760 0.038411 0.039062 0.039714 0.040365 0.041016 0.041667 0.042318 0.042969 0.043620 0.044271 0.044922 0.045573 0.046224 0.046875 0.047526 0.048177 0.048828 0.049479 0.050130 0.050781 0.051432 0.052083 0.052734 0.053385 0.054036 0.054688 0.055339 0.055990 0.056641 0.057292 0.057943 0.058594 0.059245 0.059896 0.060547 0.061198 0.061849 0.062500 0.063151 0.063802 0.064453 0.065104 0.065755 0.066406 0.067057 0.067708 0.068359 0.069010 0.069661 0.070312 0.070964 0.071615 0.072266 0.072917 0.073568 0.074219 0.074870 0.075521 0.076172 0.076823 0.077474 0.078125 0.078776 0.079427 0.080078 0.080729 0.081380 0.082031 0.082682 0.083333 0.083984 0.084635 0.085286 0.085938 0.086589 0.087240 0.087891 0.088542 0.089193 0.089844 0.090495 0.091146 0.091797 0.092448 0.093099 0.093750 0.094401 0.095052 0.095703 0.096354 0.097005 0.097656 0.098307 0.098958 0.099609 0.100260 0.100911 0.101562 0.102214 0.102865 0.103516 0.104167 0.104818 0.105469 0.106120 0.106771 0.107422 0.108073 0.108724 0.109375 0.110026 0.110677 0.111328 0.111979 0.112630 0.113281 0.113932 0.114583 0.115234 0.115885 0.116536 0.117188 0.117839 0.118490 0.119141 0.119792 0.120443 0.121094 0.121745 0.122396 0.123047 0.123698 0.124349 0.125000 0.125651 0.126302 0.126953 0.127604 0.128255 0.128906 0.129557 0.130208 0.130859 0.131510 0.132161 0.132812 0.133464 0.134115 0.134766 0.135417 0.136068 0.136719 0.137370 0.138021 0.138672 0.139323 0.139974 0.140625 0.141276 0.141927 0.142578 0.143229 0.143880 0.144531 0.145182 0.145833 0.146484 0.147135 0.147786 0.148438 0.149089 0.149740 0.150391 0.151042 0.151693 0.152344 0.152995 0.153646 0.154297 0.154948 0.155599 0.156250 0.156901 0.157552 0.158203 0.158854 0.159505 0.160156 0.160807 0.161458 0.162109 0.162760 0.163411 0.164062 0.164714 0.165365 0.166016 0.166667 0.167318 0.167969 0.168620 0.169271 0.169922 0.170573 0.171224 0.171875 0.172526 0.173177 0.173828 0.174479 0.175130 0.175781 0.176432 0.177083 0.177734 0.178385 0.179036 0.179688 0.180339 0.180990 0.181641 0.182292 0.182943 0.183594 0.184245 0.184896 0.185547 0.186198 0.186849 0.187500 0.188151 0.188802 0.189453 0.190104 0.190755 0.191406 0.192057 0.192708 0.193359 0.194010 0.194661 0.195312 0.195964 0.196615 0.197266 0.197917 0.198568 0.199219 0.199870 0.200521 0.201172 0.201823 0.202474 0.203125 0.203776 0.204427 0.205078 0.205729 0.206380 0.207031 0.207682 0.208333 0.208984 0.209635 0.210286 0.210938 0.211589 0.212240 0.212891 0.213542 0.214193 0.214844 0.215495 0.216146 0.216797 0.217448 0.218099 0.218750 0.219401 0.220052 0.220703 0.221354 0.222005 0.222656 0.223307 0.223958 0.224609 0.225260 0.225911 0.226562 0.227214 0.227865 0.228516 0.229167 0.229818 0.230469 0.231120 0.231771 0.232422 0.233073 0.233724 0.234375 0.235026 0.235677
       0.33209        0.33209        0.33209        0.33209        0.33209        0.33209        0.33210        0.33209        0.33209        0.33209        0.33210        0.33209        0.33209        0.33209        0.33210        0.33209        0.33210        0.33209        0.33209        0.33209        0.33209        0.33209        0.33210        0.33210        0.33209        0.33209        0.33209        0.33209        0.33210        0.33210        0.33209        0.33209        0.33209        0.33209        0.33209        0.33209        0.33210        0.33209        0.33210        0.33209        0.33210        0.33209        0.33209        0.33210        0.33209        0.33209        0.33210        0.33209        0.33209        0.33210        0.33209        0.50262        0.71934        0.42934        0.18824       -0.08163       -0.26003       -0.06782       -0.13448       -0.05148       -0.00476       -0.14905       -0.09089       -0.05714       -0.00641       -0.15416       -0.22329       -0.34876       -0.46050       -0.55405       -0.51353       -0.44416       -0.37026       -0.54465       -0.45195       -0.62206       -0.50417       -0.47415       -0.38938       -0.38857       -0.33979       -0.25313       -0.16165       -0.13957        0.03184       -0.01330        0.11824        0.16426        0.30627        0.41118        0.46136        0.50122        0.54272        0.55060        0.68673        0.64256        0.67488        0.59006        0.55424        0.65162        0.52663        0.42427        0.37999        0.32097        0.22902        0.25958        0.25018        0.10530        0.08004       -0.00084       -0.00413        0.04055       -0.00772        0.07304        0.10452        0.23260        0.28502        0.29837        0.37754        0.56268        0.53250        0.57873        0.66697        0.70342        0.62932        0.63796        0.63198        0.55884        0.57590        0.40234        0.34377        0.26353        0.18272        0.07340        0.14229        0.11847        0.09196        0.10463        0.20774        0.21421        0.31693        0.36189        0.41197        0.49261        0.58212        0.54239        0.55590        0.60437        0.53316        0.45875        0.48317        0.32813        0.24511        0.25937        0.23872        0.14022        0.14207        0.15317        0.21736        0.23912        0.33074        0.36642        0.39022        0.46819        0.44390        0.48230        0.45288        0.46737        0.44778        0.40811        0.38602        0.35077        0.31272        0.29168        0.20412        0.19013        0.21860        0.26791        0.26631        0.34891        0.37420        0.35662        0.41104        0.44788        0.44174        0.42573        0.44387        0.38132        0.33450        0.28303        0.25925        0.29190        0.26711        0.29292        0.29980        0.34380        0.34202        0.39198        0.40323        0.42892        0.40727        0.43398        0.40144        0.35811        0.28058        0.29094        0.30630        0.26917        0.25213        0.32057        0.36871        0.34141        0.35185        0.35918        0.35727        0.40968        0.40596        0.36452        0.33778        0.30424        0.31149        0.31848        0.31951        0.29984        0.27997        0.33580        0.36000        0.37895        0.33341        0.32944        0.33548        0.34439        0.30870        0.28310        0.30214        0.30930        0.33915        0.31685        0.32528        0.35806        0.32613        0.31325        0.32488        0.29961        0.26502        0.25486        0.26628        0.30856        0.32143        0.35338        0.30235        0.30801        0.32899        0.29419        0.31374        0.28344        0.28363        0.29223        0.29467        0.30645        0.34406        0.33272        0.33234        0.34065        0.31358        0.33704        0.32058        0.31886        0.30662        0.27996        0.28988        0.30634        0.29290        0.32433        0.33345        0.33280        0.32768        0.34297        0.32081        0.28077        0.24781        0.26582        0.32850        0.35232        0.33879        0.31075        0.29001        0.29488        0.31027        0.25154        0.29991        0.31072        0.34054        0.29886        0.30909        0.28361        0.33508        0.33645        0.34017        0.31298        0.29051        0.31800        0.39893        0.32367        0.30994        0.31577        0.28361        0.28082        0.30459        0.27351        0.32187        0.23302        0.26854        0.29651        0.31262        0.29505        0.26092        0.29172        0.23948        0.22067        0.26479        0.29620        0.30818        0.27027        0.28021        0.33068        0.26248        0.22333        0.30120        0.27057        0.26107        0.28459        0.38765        0.29310        0.28670        0.25097        0.24657        0.27185        0.25445        0.23777        0.17990        0.26470        0.23183        0.24195        0.31603        0.25811        0.35876        0.30843        0.22684        0.21604        0.21119        0.23635        0.32390        0.23720        0.13804        0.17223        0.23200        0.24567        0.26091        0.21756        0.01787       -0.46147       -0.94110
2.715677 2.686980 2.658437 2.630048 2.601813 2.573732 2.545805 2.518032 2.490413 2.462948 2.435637 2.408480 2.381477 2.354627 2.327932 2.301391 2.275004 2.248771 2.222692 2.196766 2.170995 2.145378 2.119915 2.094606 2.069450 2.044449 2.019602 1.994908 1.970369 1.945984 1.921752 1.897675 1.873752 1.849982 1.826367 1.802906 1.779598 1.756445 1.733445 1.710600 1.687909 1.665371 1.642988 1.620758 1.598683 1.576761 1.554994 1.533380 1.511921 1.490615 1.469463 1.541020 1.846871 1.540668 1.166280 0.946331 0.550290 0.920164 0.635906 0.883327 0.931757 0.591938 0.718630 0.777462 0.821578 0.632755 0.537419 0.347152 0.103714 0.082096 0.047540 0.088091 0.305435 -0.036964 0.079689 -0.138990 -0.015740 -0.018172 0.084310 0.052660 0.103294 0.173559 0.281777 0.248052 0.484408 0.398541 0.552478 0.526590 0.773069 0.798656 0.884596 0.933325 0.949968 0.954284 1.110582 0.956642 1.148229 0.950842 0.858755 1.021710 0.854061 0.760651 0.619282 0.597426 0.464505 0.413755 0.512553 0.266152 0.193734 0.154533 0.013998 0.215732 -0.005934 0.114431 0.185984 0.263737 0.336501 0.345070 0.425344 0.547913 0.662076 0.545735 0.747906 0.864778 0.645615 0.703658 0.673675 0.603075 0.541586 0.475778 0.300236 0.214122 0.114638 -0.042879 -0.022440 0.056072 -0.100083 -0.059031 0.048610 0.052231 0.111225 0.225720 0.240720 0.313355 0.437542 0.442026 0.440710 0.486058 0.443517 0.320658 0.340504 0.247999 0.043103 0.061744 0.020332 -0.060855 -0.096745 -0.105706 -0.015041 -0.063414 0.067910 0.127134 0.125836 0.258002 0.225616 0.244281 0.292639 0.255984 0.246687 0.210526 0.181927 0.108054 0.102560 0.031176 0.012662 -0.127223 -0.059053 0.000002 0.002721 0.014725 0.099492 0.084675 0.136069 0.179389 0.249798 0.169956 0.193820 0.114675 0.147956 0.014696 -0.029775 0.016003 -0.018125 -0.008618 -0.004096 0.031769 0.074304 0.055877 0.143913 0.114864 0.161076 0.065829 0.152018 0.086412 -0.014794 -0.060122 -0.016727 -0.034912 -0.081406 -0.067824 0.041462 0.065999 -0.009892 0.054627 0.058466 0.074325 0.148375 0.075725 0.066171 0.040643 -0.027454 0.028396 0.007146 0.012898 0.003485 -0.014601 0.035708 0.070908 0.073750 0.031121 0.046172 0.019756 0.063117 -0.009735 -0.019748 0.017049 0.007406 0.065887 0.029171 0.039394 0.075080 0.025931 0.015325 0.031737 -0.003803 -0.041815 -0.027709 -0.028350 0.027755 0.045365 0.097742 0.000370 0.051539 0.062817 -0.002763 0.065659 0.014808 0.019553 0.045283 0.050359 0.044851 0.104217 0.068115 0.079386 0.093993 0.075425 0.074280 0.070720 0.084767 0.031679 -0.001993 0.044943 0.035158 0.059932 0.064031 0.093463 -0.001116 0.072171 0.072295 0.008999 0.012576 -0.075650 -0.027164 0.104419 0.069031 0.039708 0.030699 -0.020050 0.033217 0.017324 -0.064047 0.043589 0.046121 0.073866 0.028223 0.003131 -0.001713 0.055774 0.042252 0.021282 0.031124 -0.034242 0.066836 0.120334 0.007580 -0.008525 0.011770 -0.015875 -0.037025 -0.009499 -0.049697 0.017364 -0.101639 -0.027341 -0.029805 0.022317 -0.032683 -0.031065 -0.014072 -0.073557 -0.062034 -0.057502 0.039711 0.013777 -0.000892 -0.002783 0.091309 -0.043078 -0.035791 0.040983 -0.007504 0.030090 0.015802 0.194123 -0.005466 0.020824 0.029593 -0.016185 0.003258 -0.000869 -0.012788 -0.139553 0.032137 -0.029811 0.011600 0.025501 -0.017931 0.157277 0.045864 -0.030994 -0.055132 -0.025551 -0.065491 0.097542 0.286120 0.164976 0.221471 0.222291 0.341383 0.295861 0.257971 0.023868 -1.114534
0.072396 0.072910 0.074451 0.077019 0.080613 0.085233 0.090876 0.097542 0.105228 0.113931 0.123648 0.134374 0.146103 0.158829 0.172543 0.187236 0.202896 0.219510 0.237060 0.255530 0.274898 0.295139 0.316226 0.338127 0.360808 0.384228 0.408345 0.433108 0.458464 0.484354 0.510713 0.537468 0.564544 0.591856 0.619314 0.646820 0.674271 0.701554 0.728552 0.755139 0.781181 0.806540 0.831068 0.854613 0.877016 0.898111 0.917730 0.935696 0.951832 0.965957 0.977887 0.987439 0.994428 0.998672 0.999994 0.998217 0.993176 0.984710 0.972671 0.956922 0.937341 0.913821 0.886276 0.854642 0.818875 0.778960 0.734909 0.686765 0.634604 0.578536 0.518708 0.455306 0.388555 0.318720 0.246110 0.171076 0.094008 0.015342 0.064447 0.144844 0.225299 0.305225 0.384005 0.460994 0.535525 0.606916 0.674472 0.737496 0.795293 0.847181 0.892497 0.930611 0.960928 0.982904 0.996055 0.999964 0.994296 0.978802 0.953333 0.917848 0.872417 0.817237 0.752627 0.679041 0.597066 0.507422 0.410965 0.308680 0.201674 0.091172 0.021498 0.134915 0.247584 0.357953 0.464432 0.565419 0.659325 0.744596 0.819746 0.883385 0.934245 0.971212 0.993352 0.999941 0.990488 0.964754 0.922777 0.864883 0.791694 0.704136 0.603438 0.491120 0.368983 0.239085 0.103716 0.034641 0.173349 0.309666 0.440794 0.563944 0.676394 0.775551 0.859019 0.924660 0.970661 0.995587 0.998438 0.978690 0.936334 0.871899 0.786464 0.681661 0.559653 0.423109 0.275154 0.119312 0.040576 0.200434 0.356057 0.503218 0.637787 0.755854 0.853842 0.928635 0.977684 0.999110 0.991783 0.955396 0.890505 0.798547 0.681838 0.543530 0.387549 0.218499 0.041538 0.137767 0.313609 0.480134 0.631630 0.762735 0.868634 0.945254 0.989440 0.999095 0.973308 0.912425 0.818091 0.693234 0.542003 0.369658 0.182407 0.012804 0.208530 0.397115 0.570980 0.722945 0.846537 0.936273 0.987937 0.998800 0.967788 0.895589 0.784683 0.639298 0.465284 0.269907 0.061567 0.150538 0.356820 0.547725 0.714181 0.848049 0.942543 0.992600 0.995182 0.949500 0.857117 0.721957 0.550175 0.349927 0.131004 0.095613 0.318296 0.525355 0.705667 0.849283 0.948008 0.995903 0.989679 0.928969 0.816433 0.657700 0.461149 0.237495 0.000746 0.239945 0.466121 0.665770 0.826679 0.938708 0.994469 0.989861 0.924415 0.801437 0.627906 0.414139 0.173223 0.079737 0.328559 0.556993 0.749811 0.893833 0.978877 0.998531 0.950691 0.837825 0.666938 0.449198 0.199269 0.065625 0.326872 0.565745 0.764787 0.909101 0.987506 0.993483 0.925773 0.788611 0.591556 0.348906 0.078703 0.198536 0.461369 0.689100 0.863407 0.969884 0.999287 0.948420 0.820540 0.625262 0.377920 0.098441 0.190215 0.463897 0.699306 0.875995 0.978197 0.996310 0.927889 0.778027 0.559101 0.289830 0.006232 0.302715 0.572770 0.791496 0.938289 0.998862 0.966711 0.843925 0.641182 0.376936 0.075832 0.233530 0.521278 0.759158 0.923352 0.996933 0.971713 0.849262 0.640973 0.367123 0.055002 0.263725 0.556213 0.791828 0.945393 0.999982 0.948889 0.796573 0.558421 0.259328 0.068800 0.390402 0.670077 0.876521 0.986104 0.985681 0.874305 0.663591 0.376657 0.045715 0.291461 0.595808 0.831507 0.970281 0.994884 0.901387 0.699929 0.413778 0.076800 0.270470 0.585637 0.829651 0.971701 0.993232 0.890517 0.675427 0.374243 0.024581 0.329189 0.641538 0.871665 0.988907 0.976964 0.836332 0.584574 0.254291 0.110920 0.462178 0.751795 0.939830 0.999718
1.000000 1.000000 1.000000 1.000000 1.000000 1.000000 1.000000 1.000000 1.000000 1.000000 1.000000 1.000000 1.000000 1.000000 1.000000 1.000000 1.000000 1.000000 1.000000 1.000000 1.000000 1.000000 1.000000 1.000000 1.000000 1.000000 1.000000 1.000000 1.000000 1.000000 1.000000 1.000000 1.000000 1.000000 1.000000 1.000000 1.000000 1.000000 1.000000 1.000000 1.000000 1.000000 1.000000 1.000000 1.000000 1.000000 1.000000 1.000000 1.000000 1.000000 1.000000 1.000000 0.920671 0.920671 0.907363 0.907363 0.907363 0.907363 0.907363 0.907363 0.907363 0.907363 0.907363 0.907363 0.907363 0.907363 0.907363 0.907363 0.907363 0.907363 0.907363 0.907363 0.907363 0.907363 0.907363 0.907363 0.907363 0.907363 0.907363 0.907363 0.907363 0.907363 0.907363 0.907363 0.907363 0.907363 0.907363 0.907363 0.907363 0.907363 0.907363 0.907363 0.907363 0.907363 0.907363 0.904461 0.909030 0.910849 0.909114 0.912659 0.912743 0.912053 0.912398 0.912036 0.912322 0.913673 0.924208 0.935279 0.946604 0.946700 0.951780 0.956245 0.958601 0.959626 0.961218 0.967528 0.966297 0.965752 0.966465 0.968043 0.970272 0.968850 0.968632 0.971762 0.972484 0.970732 0.968670 0.968050 0.967428 0.967507 0.967099 0.966994 0.966890 0.967390 0.967609 0.967820 0.967959 0.967994 0.969017 0.970172 0.972425 0.973387 0.973173 0.971985 0.969942 0.973983 0.974809 0.974474 0.974374 0.973844 0.974144 0.962552 0.957200 0.957145 0.953618 0.952865 0.950594 0.948387 0.945531 0.945533 0.944892 0.945363 0.940714 0.928188 0.914354 0.902624 0.924475 0.909210 0.897146 0.874294 0.874482 0.873554 0.874180 0.867805 0.861057 0.856993 0.854064 0.855299 0.851473 0.854119 0.851616 0.840877 0.843200 0.841342 0.814256 0.798066 0.780120 0.780646 0.778314 0.779610 0.779218 0.777722 0.785804 0.776275 0.774749 0.766977 0.748302 0.711142 0.694317 0.704411 0.713984 0.711825 0.708202 0.692894 0.661291 0.672844 0.693603 0.693824 0.696764 0.687252 0.678653 0.677944 0.681751 0.670753 0.661337 0.660461 0.658879 0.668651 0.672894 0.670842 0.659128 0.643218 0.630168 0.616678 0.628637 0.635179 0.602143 0.596140 0.580696 0.572626 0.559192 0.538295 0.536986 0.512174 0.503385 0.508496 0.514210 0.511820 0.519371 0.521269 0.505792 0.523092 0.534315 0.559122 0.542250 0.541742 0.543254 0.548069 0.536001 0.518893 0.517316 0.518147 0.528214 0.552944 0.592472 0.580353 0.566408 0.553851 0.562540 0.533856 0.538864 0.559144 0.536681 0.475823 0.415889 0.414034 0.373537 0.373010 0.353073 0.349039 0.353924 0.345189 0.335855 0.322632 0.309286 0.247118 0.205408 0.189792 0.174471 0.177621 0.192087 0.189695 0.185398 0.201594 0.249955 0.252583 0.244557 0.243610 0.232880 0.200412 0.201292 0.221780 0.175090 0.163395 0.154968 0.128967 0.121712 0.071538 0.099930 0.004446 -0.020588 -0.025198 -0.004769 0.010469 0.008486 0.012398 -0.021753 -0.004440 0.038215 0.041541 0.028793 -0.041685 -0.027638 -0.017668 -0.016911 -0.032794 -0.052995 -0.054027 -0.065865 -0.069392 -0.053051 0.019380 0.074977 0.076522 0.054737 0.084964 0.081617 0.066251 0.080269 0.061687 0.060217 0.040275 0.032872 -0.011618 -0.043299 -0.043299 -0.041333 -0.041333 -0.041333 -0.041333 -0.041333 -0.041333 -0.041333 -0.041333 -0.041333 -0.044061 -0.044061 -0.044061 -0.044061 -0.044061 -0.044061 -0.044061 -0.044061 -0.044061 -0.013982 -0.013982 -0.013982 -0.013982 -0.013982 -0.013982 -0.013982 -0.013982 -0.013982
0.000000 0.000000 0.000000 0.000000 0.000000 0.000000 0.000000 0.000000 0.000000 0.000000 0.000000 0.000000 0.000000 0.000000 0.000000 0.000000 0.000000 0.000000 0.000000 0.000000 0.000000 0.000000 0.000000 0.000000 0.000000 0.000000 0.000000 0.000000 0.000000 0.000000 0.000000 0.000000 0.000000 0.000000 0.000000 0.000000 0.000000 0.000000 0.000000 0.000000 0.000000 0.000000 0.000000 0.000000 0.000000 0.000000 0.000000 0.000000 0.000000 0.000000 0.000000 0.000000 0.181818 0.181818 0.199007 0.199007 0.199007 0.199007 0.199007 0.199007 0.199007 0.199007 0.199007 0.199007 0.199007 0.199007 0.199007 0.199007 0.199007 0.199007 0.199007 0.199007 0.199007 0.199007 0.199007 0.199007 0.199007 0.199007 0.199007 0.199007 0.199007 0.199007 0.199007 0.199007 0.199007 0.199007 0.199007 0.199007 0.199007 0.199007 0.199007 0.199007 0.199007 0.199007 0.199007 0.230940 0.230940 0.230940 0.230940 0.230940 0.230940 0.230940 0.230940 0.230940 0.230940 0.230940 0.230940 0.230940 0.230940 0.230940 0.230940 0.230940 0.230940 0.230940 0.230940 0.230940 0.230940 0.230940 0.230940 0.230940 0.230940 0.230940 0.230940 0.244339 0.244339 0.244339 0.244339 0.244339 0.244339 0.244339 0.244339 0.244339 0.244339 0.244339 0.244339 0.244339 0.244339 0.244339 0.244339 0.244339 0.244339 0.244339 0.244339 0.244339 0.244339 0.244339 0.251976 0.251976 0.251976 0.251976 0.251976 0.251976 0.251976 0.251976 0.251976 0.251976 0.251976 0.251976 0.251976 0.251976 0.251976 0.251976 0.251976 0.251976 0.251976 0.251976 0.264906 0.264906 0.264906 0.264906 0.264906 0.264906 0.264906 0.264906 0.264906 0.264906 0.264906 0.264906 0.264906 0.264906 0.264906 0.264906 0.264906 0.264906 0.264906 0.264906 0.264906 0.264906 0.264906 0.264906 0.264906 0.264906 0.264906 0.264906 0.264906 0.264906 0.264906 0.264906 0.264906 0.264906 0.264906 0.264906 0.264906 0.264906 0.264906 0.264906 0.264906 0.264906 0.264906 0.264906 0.264906 0.264906 0.264906 0.264906 0.264906 0.264906 0.264906 0.264906 0.264906 0.264906 0.264906 0.264906 0.264906 0.264906 0.264906 0.264906 0.264906 0.264906 0.264906 0.264906 0.264906 0.264906 0.264906 0.264906 0.264906 0.264906 0.264906 0.264906 0.264906 0.264906 0.264906 0.269680 0.269680 0.269680 0.269680 0.269680 0.269680 0.269680 0.269680 0.269680 0.269680 0.269680 0.269680 0.264906 0.264906 0.264906 0.264906 0.264906 0.264906 0.264906 0.264906 0.264906 0.264906 0.264906 0.264906 0.269680 0.269680 0.269680 0.269680 0.269680 0.269680 0.269680 0.269680 0.269680 0.269680 0.269680 0.264906 0.264906 0.264906 0.264906 0.264906 0.264906 0.264906 0.264906 0.264906 0.264906 0.264906 0.256074 0.256074 0.256074 0.256074 0.256074 0.256074 0.256074 0.256074 0.256074 0.256074 0.256074 0.264906 0.264906 0.264906 0.264906 0.264906 0.264906 0.264906 0.264906 0.264906 0.264906 0.260378 0.260378 0.260378 0.260378 0.260378 0.260378 0.260378 0.260378 0.260378 0.260378 0.264906 0.264906 0.264906 0.264906 0.264906 0.264906 0.264906 0.264906 0.264906 0.260378 0.260378 0.260378 0.260378 0.260378 0.260378 0.260378 0.260378 0.260378 0.256074 0.256074 0.256074 0.256074 0.256074 0.256074 0.256074 0.256074 0.256074 0.251976 0.251976 0.251976 0.251976 0.251976 0.251976 0.251976 0.251976 0.251976 0.264906 0.264906 0.264906 0.264906 0.264906 0.264906 0.264906 0.264906 0.264906
