# Output from CTFFind version 4.1.9, run on 2019-10-31 21:07:53
# Input file: bm3d_stacked.mrc ; Number of micrographs: 1
# Pixel size: 1.500 Angstroms ; acceleration voltage: 300.0 keV ; spherical aberration: 0.00 mm ; amplitude contrast: 0.07
# Box size: 512 pixels ; min. res.: 30.0 Angstroms ; max. res.: 5.0 Angstroms ; min. def.: 5000.0 um; max. def. 50000.0 um; num. frames averaged: 50
# 6 lines per micrograph: #1 - spatial frequency (1/Angstroms); #2 - 1D rotational average of spectrum (assuming no astigmatism); #3 - 1D rotational average of spectrum; #4 - CTF fit; #5 - cross-correlation between spectrum and CTF fit; #6 - 2sigma of expected cross correlation of noise
0.000000 0.001302 0.002604 0.003906 0.005208 0.006510 0.007812 0.009115 0.010417 0.011719 0.013021 0.014323 0.015625 0.016927 0.018229 0.019531 0.020833 0.022135 0.023438 0.024740 0.026042 0.027344 0.028646 0.029948 0.031250 0.032552 0.033854 0.035156 0.036458 0.037760 0.039062 0.040365 0.041667 0.042969 0.044271 0.045573 0.046875 0.048177 0.049479 0.050781 0.052083 0.053385 0.054688 0.055990 0.057292 0.058594 0.059896 0.061198 0.062500 0.063802 0.065104 0.066406 0.067708 0.069010 0.070312 0.071615 0.072917 0.074219 0.075521 0.076823 0.078125 0.079427 0.080729 0.082031 0.083333 0.084635 0.085938 0.087240 0.088542 0.089844 0.091146 0.092448 0.093750 0.095052 0.096354 0.097656 0.098958 0.100260 0.101562 0.102865 0.104167 0.105469 0.106771 0.108073 0.109375 0.110677 0.111979 0.113281 0.114583 0.115885 0.117188 0.118490 0.119792 0.121094 0.122396 0.123698 0.125000 0.126302 0.127604 0.128906 0.130208 0.131510 0.132812 0.134115 0.135417 0.136719 0.138021 0.139323 0.140625 0.141927 0.143229 0.144531 0.145833 0.147135 0.148438 0.149740 0.151042 0.152344 0.153646 0.154948 0.156250 0.157552 0.158854 0.160156 0.161458 0.162760 0.164062 0.165365 0.166667 0.167969 0.169271 0.170573 0.171875 0.173177 0.174479 0.175781 0.177083 0.178385 0.179688 0.180990 0.182292 0.183594 0.184896 0.186198 0.187500 0.188802 0.190104 0.191406 0.192708 0.194010 0.195312 0.196615 0.197917 0.199219 0.200521 0.201823 0.203125 0.204427 0.205729 0.207031 0.208333 0.209635 0.210938 0.212240 0.213542 0.214844 0.216146 0.217448 0.218750 0.220052 0.221354 0.222656 0.223958 0.225260 0.226562 0.227865 0.229167 0.230469 0.231771 0.233073 0.234375 0.235677 0.236979 0.238281 0.239583 0.240885 0.242188 0.243490 0.244792 0.246094 0.247396 0.248698 0.250000 0.251302 0.252604 0.253906 0.255208 0.256510 0.257812 0.259115 0.260417 0.261719 0.263021 0.264323 0.265625 0.266927 0.268229 0.269531 0.270833 0.272135 0.273438 0.274740 0.276042 0.277344 0.278646 0.279948 0.281250 0.282552 0.283854 0.285156 0.286458 0.287760 0.289062 0.290365 0.291667 0.292969 0.294271 0.295573 0.296875 0.298177 0.299479 0.300781 0.302083 0.303385 0.304688 0.305990 0.307292 0.308594 0.309896 0.311198 0.312500 0.313802 0.315104 0.316406 0.317708 0.319010 0.320312 0.321615 0.322917 0.324219 0.325521 0.326823 0.328125 0.329427 0.330729 0.332031 0.333333 0.334635 0.335938 0.337240 0.338542 0.339844 0.341146 0.342448 0.343750 0.345052 0.346354 0.347656 0.348958 0.350260 0.351562 0.352865 0.354167 0.355469 0.356771 0.358073 0.359375 0.360677 0.361979 0.363281 0.364583 0.365885 0.367188 0.368490 0.369792 0.371094 0.372396 0.373698 0.375000 0.376302 0.377604 0.378906 0.380208 0.381510 0.382812 0.384115 0.385417 0.386719 0.388021 0.389323 0.390625 0.391927 0.393229 0.394531 0.395833 0.397135 0.398438 0.399740 0.401042 0.402344 0.403646 0.404948 0.406250 0.407552 0.408854 0.410156 0.411458 0.412760 0.414062 0.415365 0.416667 0.417969 0.419271 0.420573 0.421875 0.423177 0.424479 0.425781 0.427083 0.428385 0.429688 0.430990 0.432292 0.433594 0.434896 0.436198 0.437500 0.438802 0.440104 0.441406 0.442708 0.444010 0.445312 0.446615 0.447917 0.449219 0.450521 0.451823 0.453125 0.454427 0.455729 0.457031 0.458333 0.459635 0.460938 0.462240 0.463542 0.464844 0.466146 0.467448 0.468750 0.470052 0.471354
       0.02605        0.02605        0.02605        0.02605        0.02605        0.02605        0.02605        0.02605        0.02605        0.02605        0.02605        0.02605        0.02605        0.02605        0.02605        0.02605        0.02605        0.02605        0.02605        0.02605        0.02605        0.02605        0.02605        0.02605        0.02605        0.14749        0.70989        0.16641       -1.09691       -1.97742       -2.26288       -1.64531       -1.12917       -0.13634        0.25246        1.02651        1.65439        1.63565        1.81782        1.51516        0.94083        0.04310       -0.39480       -0.73423       -0.87222       -0.77009       -0.34401        0.05706        0.17710        0.31294        0.49732        0.60610        0.25874        0.04835       -0.13571       -0.33472       -0.43406       -0.18816       -0.20338       -0.07776       -0.00483       -0.10096       -0.01226        0.03929        0.10325       -0.01883       -0.06663       -0.16997       -0.26397       -0.35808       -0.31444       -0.25453       -0.18828       -0.36113       -0.27614       -0.46684       -0.38378       -0.38264       -0.32931       -0.35807       -0.33215       -0.26919       -0.19704       -0.19332       -0.05096       -0.11662       -0.01331        0.02122        0.13920        0.21023        0.24137        0.26691        0.30761        0.29952        0.42272        0.37526        0.38575        0.28607        0.25239        0.33601        0.20270        0.08976        0.04829       -0.01016       -0.10678       -0.07023       -0.09010       -0.23581       -0.26161       -0.34073       -0.33518       -0.28642       -0.32544       -0.23209       -0.20432       -0.07664       -0.02810        0.01662        0.08416        0.25654        0.23961        0.27664        0.37191        0.39151        0.32406        0.32679        0.31158        0.23488        0.24388        0.06336        0.01464       -0.07190       -0.15840       -0.25488       -0.19239       -0.21613       -0.25176       -0.23151       -0.13039       -0.11608       -0.00697        0.03008        0.08607        0.17836        0.25963        0.21514        0.22858        0.27643        0.22555        0.16293        0.16704        0.02234       -0.04670       -0.04775       -0.06096       -0.16045       -0.15524       -0.14536       -0.08838       -0.05954        0.01064        0.04685        0.05960        0.13641        0.12540        0.16263        0.14026        0.14514        0.11906        0.08722        0.06314        0.03724        0.00466       -0.02033       -0.09551       -0.09999       -0.08305       -0.03810       -0.03245        0.03834        0.05703        0.03631        0.08297        0.13427        0.12397        0.09215        0.10190        0.05005        0.02704       -0.01066       -0.03924       -0.01427       -0.03577       -0.01709       -0.01295        0.02584        0.02729        0.08802        0.08317        0.09088        0.07369        0.08526        0.06015        0.03034       -0.02203       -0.00594        0.00472       -0.02272       -0.05065        0.01692        0.05286        0.02823        0.04138        0.04717        0.03101        0.07652        0.07049        0.02984        0.02262        0.01252        0.01503        0.01151        0.00941        0.00440       -0.01104        0.02322        0.04315        0.05667        0.02301        0.01120        0.01830        0.03683        0.00641       -0.01414        0.00881        0.02618        0.03857        0.01605        0.02406        0.04179        0.01979        0.01343        0.03965        0.01957       -0.00239       -0.00929       -0.01389        0.00069        0.01709        0.03624        0.02374        0.01985        0.03346        0.01894        0.01113        0.00253        0.00806        0.01791        0.00756        0.00993        0.04085        0.02021        0.03815        0.03751        0.02437        0.02747        0.02105        0.02361        0.02117       -0.00190       -0.00202        0.04250        0.00532        0.01865        0.03558        0.02588        0.02690        0.01242        0.03040        0.00437       -0.00404       -0.01555        0.00937        0.03226        0.03610        0.01135        0.01680        0.01365        0.01519       -0.00026        0.02435        0.00329        0.01269        0.01366        0.01969       -0.00028        0.02190        0.02852        0.03534        0.02193        0.01261        0.03234        0.06515        0.00170        0.03096        0.03482        0.00189        0.01395        0.01621        0.01086        0.00589       -0.01009        0.01840       -0.00365       -0.00284        0.01385        0.00480        0.02068        0.01175       -0.00472       -0.01018        0.02326        0.02835        0.04425       -0.01454        0.01277       -0.00190       -0.00095        0.04085        0.02546        0.00937       -0.00553        0.03920        0.03530        0.00946        0.01001        0.00788        0.00618        0.01966        0.00659       -0.01009        0.02551       -0.00776       -0.02977        0.00609       -0.02436        0.02584        0.03391        0.04110        0.03289       -0.00139        0.05083        0.05892        0.00414       -0.00917       -0.05109       -0.07020        0.01105        0.12404        0.04924       -0.04860       -0.22221       -0.46581
-0.053815 0.554114 0.555731 0.557309 0.558848 0.560350 0.561813 0.563237 0.564623 0.565971 0.567281 0.568552 0.569784 0.570979 0.572135 0.573252 0.574331 0.575372 0.576375 0.577339 0.578264 0.579152 0.580001 0.580811 0.581583 0.582317 2.064021 0.749758 -0.977473 -2.899190 -3.376987 -2.135299 -1.645836 0.317933 0.846143 2.004634 3.551677 3.366261 3.424235 3.341379 2.205440 0.649453 -0.032882 -0.595575 -1.018034 -0.825798 -0.128645 0.696623 0.799679 0.843592 1.341386 1.734042 0.949858 0.878744 0.324050 0.059649 -0.327215 0.308699 0.034260 0.476414 0.607951 0.249497 0.501065 0.640979 0.746679 0.553954 0.481517 0.271809 -0.013477 -0.016541 -0.035385 0.041413 0.340413 -0.103813 0.069943 -0.244335 -0.105729 -0.139389 -0.026695 -0.084494 -0.043535 0.048713 0.187997 0.134472 0.432011 0.294569 0.501218 0.446353 0.788218 0.789616 0.875815 0.953029 1.015584 0.969955 1.194962 1.093645 1.212051 0.976184 0.867423 1.077488 0.843700 0.721932 0.526562 0.527279 0.321770 0.304614 0.429004 0.094892 0.025675 -0.041796 -0.199647 0.094797 -0.171191 0.017143 0.149729 0.247654 0.356772 0.442874 0.552708 0.726908 0.905529 0.759087 1.095941 1.068853 0.959190 0.984570 0.937233 0.848193 0.781399 0.651599 0.442299 0.321669 0.178844 -0.021386 0.014679 0.126568 -0.090725 -0.021308 0.118596 0.165775 0.271424 0.407092 0.454161 0.569279 0.768689 0.775488 0.703872 0.728498 0.768336 0.622609 0.593283 0.489387 0.239413 0.238564 0.183817 0.091574 0.027740 0.018809 0.163864 0.081728 0.260125 0.348380 0.298494 0.476681 0.460527 0.473351 0.575955 0.460723 0.459306 0.425911 0.376835 0.286528 0.288534 0.189504 0.148607 0.004210 0.080896 0.151261 0.141859 0.199841 0.259561 0.250292 0.311881 0.325410 0.394069 0.336250 0.263997 0.199100 0.237891 0.129183 0.030159 0.094954 0.029380 0.066210 0.050608 0.089795 0.104683 0.153265 0.266846 0.170996 0.229791 0.180011 0.197455 0.121871 0.070246 -0.019168 0.064832 0.034229 -0.018534 -0.047760 0.104310 0.132905 0.043875 0.115185 0.082933 0.072523 0.190434 0.060434 0.037201 0.053031 0.011852 0.016164 -0.005334 0.013966 -0.006178 -0.023153 0.035806 0.058205 0.063415 -0.013918 0.023417 0.015928 0.054688 -0.008201 -0.027493 0.005826 0.036707 0.037006 0.014592 0.052828 0.030543 0.013395 -0.018167 0.036615 -0.033072 -0.028255 -0.034525 -0.078160 -0.030228 -0.009638 0.060315 -0.028975 0.006769 0.006447 -0.013550 -0.012273 -0.030640 -0.021968 -0.009160 -0.031307 -0.020726 0.044525 -0.035141 0.044523 0.002599 0.020377 -0.014002 -0.012579 0.024768 -0.034519 -0.072545 -0.019737 0.032884 -0.044276 -0.002049 0.019833 -0.006068 -0.002035 0.011786 -0.027029 -0.031546 -0.094789 -0.052351 -0.000741 0.002132 0.014316 -0.012648 -0.042630 -0.007226 0.029526 -0.046007 0.071748 -0.047168 0.044170 0.007570 0.015614 -0.016204 0.035604 0.039302 0.089105 0.047928 0.000089 0.107899 0.102249 -0.011103 0.081633 0.057759 0.014553 0.017356 0.002903 0.000887 0.001238 -0.085073 0.050533 -0.063394 -0.010403 0.004189 -0.027650 0.020059 -0.001339 -0.047631 -0.059274 0.003339 0.015662 0.057997 -0.086253 0.027419 -0.069918 -0.064726 0.099126 -0.039792 0.008485 -0.060335 0.060842 0.008616 -0.043993 0.009854 -0.027623 -0.025092 0.049425 -0.021117 -0.052366 0.057918 -0.063405 -0.060465 -0.018770 -0.036881 0.072860 0.011270 0.053943 0.040873 -0.024843 0.047034 0.140987 -0.022849 -0.092200 -0.040572 -0.176009 0.066266 0.244906 0.071083 -0.081567 -0.779139
0.072396 0.072903 0.074423 0.076957 0.080503 0.085061 0.090629 0.097207 0.104790 0.113378 0.122966 0.133549 0.145123 0.157681 0.171215 0.185715 0.201171 0.217569 0.234894 0.253128 0.272251 0.292239 0.313065 0.334700 0.357109 0.380255 0.404095 0.428582 0.453664 0.479284 0.505379 0.531881 0.558715 0.585800 0.613050 0.640370 0.667659 0.694811 0.721711 0.748237 0.774261 0.799649 0.824257 0.847938 0.870538 0.891897 0.911850 0.930226 0.946852 0.961552 0.974146 0.984453 0.992295 0.997490 0.999864 0.999243 0.995461 0.988358 0.977784 0.963601 0.945682 0.923917 0.898214 0.868500 0.834723 0.796856 0.754900 0.708884 0.658866 0.604939 0.547231 0.485906 0.421165 0.353251 0.282444 0.209068 0.133487 0.056106 0.022630 0.102238 0.182194 0.261942 0.340894 0.418431 0.493912 0.566675 0.636047 0.701343 0.761880 0.816982 0.865988 0.908259 0.943189 0.970214 0.988823 0.998563 0.999056 0.990001 0.971188 0.942508 0.903955 0.855639 0.797792 0.730769 0.655054 0.571263 0.480144 0.382570 0.279542 0.172180 0.061712 0.050535 0.163148 0.274645 0.383495 0.488134 0.586994 0.678520 0.761205 0.833608 0.894388 0.942333 0.976381 0.995653 0.999480 0.987420 0.959284 0.915153 0.855389 0.780646 0.691874 0.590313 0.477489 0.355200 0.225488 0.090619 0.046956 0.184642 0.319741 0.449515 0.571230 0.682225 0.779970 0.862125 0.926610 0.971661 0.995885 0.998310 0.978435 0.936255 0.872291 0.787601 0.683777 0.562935 0.427677 0.281055 0.126510 0.032205 0.191105 0.346071 0.492961 0.627715 0.746481 0.845722 0.922339 0.973777 0.998121 0.994183 0.961563 0.900702 0.812898 0.700302 0.565892 0.413408 0.247263 0.072436 0.105673 0.281406 0.449015 0.602861 0.737607 0.848409 0.931109 0.982405 0.999999 0.982724 0.930623 0.844997 0.728406 0.584618 0.418514 0.235946 0.043546 0.151504 0.341728 0.519646 0.678072 0.810410 0.910950 0.975135 0.999786 0.983288 0.925716 0.828884 0.696337 0.533248 0.346254 0.143202 0.067147 0.275500 0.472422 0.648780 0.796171 0.907342 0.976572 0.999999 0.975865 0.904671 0.789227 0.634587 0.447872 0.237970 0.015153 0.209426 0.424259 0.618094 0.780525 0.902574 0.977218 0.999831 0.968508 0.884255 0.751023 0.575574 0.367190 0.137215 0.101528 0.335439 0.550913 0.735130 0.876853 0.967135 0.999932 0.972553 0.885922 0.744630 0.556747 0.333421 0.088266 0.163447 0.405720 0.622838 0.800408 0.926352 0.991750 0.991546 0.924984 0.795781 0.611999 0.385598 0.131728 0.132262 0.387971 0.617236 0.803431 0.932712 0.995094 0.985284 0.903193 0.754085 0.548319 0.300701 0.029479 0.244956 0.501601 0.720442 0.884045 0.978994 0.997059 0.935978 0.799796 0.598692 0.348304 0.068586 0.217741 0.487001 0.716535 0.886631 0.982271 0.994531 0.921499 0.768614 0.548361 0.279349 0.015185 0.309343 0.576825 0.793285 0.938602 0.998807 0.967526 0.846748 0.646820 0.385692 0.087382 0.220170 0.507677 0.747306 0.915411 0.994932 0.977222 0.863098 0.662968 0.396007 0.088418 0.229059 0.524196 0.766548 0.930634 0.998703 0.962755 0.825602 0.600806 0.311466 0.012057 0.335248 0.623092 0.843912 0.972884 0.994957 0.906718 0.717028 0.446284 0.124345 0.212651 0.526315 0.780365 0.944889 0.999955 0.938161 0.765762 0.502213 0.178113 0.168231 0.495279 0.763226 0.938907 1.000000 0.937994 0.759534 0.485888 0.150568 0.204651 0.534885 0.797811 0.959142 0.997228 0.906108 0.696595 0.395192 0.040886 0.319787 0.638781
1.000000 1.000000 1.000000 1.000000 1.000000 1.000000 1.000000 1.000000 1.000000 1.000000 1.000000 1.000000 1.000000 1.000000 1.000000 1.000000 1.000000 1.000000 1.000000 1.000000 1.000000 1.000000 1.000000 1.000000 1.000000 1.000000 0.352169 0.352169 0.352169 0.352169 0.352169 0.352169 0.352169 0.352169 0.352169 0.352169 0.352169 0.352169 0.352169 0.352169 0.352169 0.352169 0.352169 0.352169 0.352169 0.352169 0.352169 0.352169 0.352169 0.352169 0.352169 0.352169 0.352169 0.352169 0.352169 0.310585 0.310585 0.310585 0.310585 0.310585 0.310585 0.310585 0.310585 0.310585 0.310585 0.310585 0.310585 0.310585 0.310585 0.310585 0.310585 0.310585 0.310585 0.310585 0.310585 0.310585 0.307299 0.318844 0.317826 0.308967 0.303321 0.306753 0.309347 0.321904 0.327144 0.329376 0.347332 0.368954 0.382153 0.391962 0.398615 0.397277 0.406566 0.431358 0.477535 0.553003 0.908601 0.909914 0.906285 0.912661 0.913747 0.914083 0.914427 0.915198 0.916642 0.917172 0.920119 0.925126 0.930327 0.932087 0.946978 0.949157 0.960392 0.961065 0.960719 0.957561 0.968422 0.967134 0.966693 0.967319 0.969749 0.968657 0.968112 0.968262 0.971230 0.969831 0.968066 0.967604 0.965444 0.963925 0.962811 0.962354 0.962659 0.962928 0.963004 0.963436 0.964245 0.964291 0.962065 0.962210 0.964104 0.964799 0.965942 0.965831 0.960988 0.968073 0.966745 0.965690 0.965574 0.964387 0.963999 0.964343 0.964987 0.965249 0.963555 0.956535 0.944438 0.942169 0.934886 0.923730 0.924991 0.928457 0.930409 0.929287 0.925771 0.918855 0.910619 0.912434 0.910381 0.897079 0.899295 0.899726 0.901462 0.899715 0.895935 0.885642 0.882495 0.877454 0.878404 0.876901 0.870211 0.866388 0.857690 0.858057 0.840104 0.855369 0.824802 0.804577 0.804576 0.788608 0.779492 0.777646 0.779867 0.782074 0.785238 0.783753 0.777610 0.756542 0.744336 0.736099 0.743134 0.747692 0.697763 0.677688 0.666993 0.678465 0.677563 0.690175 0.685057 0.633464 0.600628 0.586281 0.567012 0.559549 0.553676 0.555019 0.545137 0.541416 0.541920 0.546652 0.533149 0.493892 0.436002 0.425232 0.426260 0.434171 0.413700 0.384873 0.351559 0.356714 0.365578 0.268369 0.260353 0.231199 0.226614 0.240122 0.245658 0.255462 0.267655 0.242272 0.223284 0.224033 0.148844 0.236402 0.197626 0.121535 0.138312 0.133410 0.132194 0.121441 0.100086 0.110126 0.101356 0.101562 0.110134 0.071146 0.043948 0.000108 0.035715 0.034912 0.044997 0.047680 0.016571 0.002518 -0.004346 -0.004884 0.013009 0.006381 -0.001870 -0.000131 0.014802 0.010105 0.044201 0.046251 0.025372 -0.003237 -0.043680 0.009013 -0.011202 0.002139 -0.010612 -0.006061 -0.005423 0.016514 0.031503 0.037813 0.085228 0.084310 0.063885 0.090007 0.052820 0.007966 0.048719 0.013108 -0.034188 -0.001264 -0.009030 -0.026625 -0.059902 -0.049715 -0.089190 -0.012002 -0.052376 -0.050425 -0.033927 -0.059233 -0.069681 -0.096432 -0.105409 -0.107726 -0.096156 -0.105196 -0.100642 -0.106210 -0.038333 -0.014881 -0.019899 -0.040756 -0.039044 -0.060086 -0.053153 -0.060423 -0.041317 -0.009014 -0.007354 -0.019541 -0.035128 -0.076119 -0.129868 -0.151510 -0.144825 -0.094190 -0.075337 -0.055030 -0.073732 -0.073732 -0.073732 -0.073732 -0.078542 -0.078542 -0.078542 -0.078542 -0.078542 -0.078542 -0.078542 -0.078542 -0.078542 -0.046214 -0.046214 -0.046214 -0.046214 -0.046214 -0.046214 -0.046214 -0.046214 -0.046214 -0.046214 -0.046214 -0.046214 -0.046214 -0.046214 -0.046214 -0.046214
0.000000 0.000000 0.000000 0.000000 0.000000 0.000000 0.000000 0.000000 0.000000 0.000000 0.000000 0.000000 0.000000 0.000000 0.000000 0.000000 0.000000 0.000000 0.000000 0.000000 0.000000 0.000000 0.000000 0.000000 2.000000 0.000000 0.180334 0.180334 0.180334 0.180334 0.180334 0.180334 0.180334 0.180334 0.180334 0.180334 0.180334 0.180334 0.180334 0.180334 0.180334 0.180334 0.180334 0.180334 0.180334 0.180334 0.180334 0.180334 0.180334 0.180334 0.180334 0.180334 0.180334 0.180334 0.180334 0.199007 0.199007 0.199007 0.199007 0.199007 0.199007 0.199007 0.199007 0.199007 0.199007 0.199007 0.199007 0.199007 0.199007 0.199007 0.199007 0.199007 0.199007 0.199007 0.199007 0.199007 0.199007 0.199007 0.199007 0.199007 0.199007 0.199007 0.199007 0.199007 0.199007 0.199007 0.199007 0.199007 0.199007 0.199007 0.199007 0.199007 0.199007 0.199007 0.199007 0.199007 0.230940 0.230940 0.230940 0.230940 0.230940 0.230940 0.230940 0.230940 0.230940 0.230940 0.230940 0.230940 0.230940 0.230940 0.230940 0.230940 0.230940 0.230940 0.230940 0.230940 0.230940 0.230940 0.230940 0.230940 0.230940 0.230940 0.230940 0.230940 0.244339 0.244339 0.244339 0.244339 0.244339 0.244339 0.244339 0.244339 0.244339 0.244339 0.244339 0.244339 0.244339 0.244339 0.244339 0.244339 0.244339 0.244339 0.244339 0.244339 0.244339 0.244339 0.244339 0.251976 0.251976 0.251976 0.251976 0.251976 0.251976 0.251976 0.251976 0.251976 0.251976 0.251976 0.251976 0.251976 0.251976 0.251976 0.251976 0.251976 0.251976 0.251976 0.251976 0.256074 0.256074 0.256074 0.256074 0.256074 0.256074 0.256074 0.256074 0.256074 0.256074 0.256074 0.256074 0.256074 0.256074 0.256074 0.256074 0.256074 0.256074 0.264906 0.264906 0.264906 0.264906 0.264906 0.264906 0.264906 0.264906 0.264906 0.264906 0.264906 0.264906 0.264906 0.264906 0.264906 0.264906 0.269680 0.269680 0.269680 0.269680 0.269680 0.269680 0.269680 0.269680 0.269680 0.269680 0.269680 0.269680 0.269680 0.269680 0.264906 0.264906 0.264906 0.264906 0.264906 0.264906 0.264906 0.264906 0.264906 0.264906 0.264906 0.264906 0.264906 0.264906 0.256074 0.256074 0.256074 0.256074 0.256074 0.256074 0.256074 0.256074 0.256074 0.256074 0.256074 0.256074 0.256074 0.256074 0.269680 0.269680 0.269680 0.269680 0.269680 0.269680 0.269680 0.269680 0.269680 0.269680 0.269680 0.269680 0.264906 0.264906 0.264906 0.264906 0.264906 0.264906 0.264906 0.264906 0.264906 0.264906 0.264906 0.264906 0.269680 0.269680 0.269680 0.269680 0.269680 0.269680 0.269680 0.269680 0.269680 0.269680 0.269680 0.264906 0.264906 0.264906 0.264906 0.264906 0.264906 0.264906 0.264906 0.264906 0.264906 0.264906 0.256074 0.256074 0.256074 0.256074 0.256074 0.256074 0.256074 0.256074 0.256074 0.256074 0.256074 0.264906 0.264906 0.264906 0.264906 0.264906 0.264906 0.264906 0.264906 0.264906 0.264906 0.260378 0.260378 0.260378 0.260378 0.260378 0.260378 0.260378 0.260378 0.260378 0.260378 0.264906 0.264906 0.264906 0.264906 0.264906 0.264906 0.264906 0.264906 0.264906 0.260378 0.260378 0.260378 0.260378 0.260378 0.260378 0.260378 0.260378 0.260378 0.256074 0.256074 0.256074 0.256074 0.256074 0.256074 0.256074 0.256074 0.256074 0.251976 0.251976 0.251976 0.251976 0.251976 0.251976 0.251976 0.251976 0.251976 0.251976 0.251976 0.251976 0.251976 0.251976 0.251976 0.251976
