# Output from CTFFind version 4.1.9, run on 2019-11-01 13:30:55
# Input file: bm3d_1st_stacked.mrc ; Number of micrographs: 1
# Pixel size: 1.500 Angstroms ; acceleration voltage: 300.0 keV ; spherical aberration: 0.00 mm ; amplitude contrast: 0.07
# Box size: 512 pixels ; min. res.: 30.0 Angstroms ; max. res.: 5.0 Angstroms ; min. def.: 5000.0 um; max. def. 50000.0 um; num. frames averaged: 50
# 6 lines per micrograph: #1 - spatial frequency (1/Angstroms); #2 - 1D rotational average of spectrum (assuming no astigmatism); #3 - 1D rotational average of spectrum; #4 - CTF fit; #5 - cross-correlation between spectrum and CTF fit; #6 - 2sigma of expected cross correlation of noise
0.000000 0.001302 0.002604 0.003906 0.005208 0.006510 0.007812 0.009115 0.010417 0.011719 0.013021 0.014323 0.015625 0.016927 0.018229 0.019531 0.020833 0.022135 0.023438 0.024740 0.026042 0.027344 0.028646 0.029948 0.031250 0.032552 0.033854 0.035156 0.036458 0.037760 0.039062 0.040365 0.041667 0.042969 0.044271 0.045573 0.046875 0.048177 0.049479 0.050781 0.052083 0.053385 0.054688 0.055990 0.057292 0.058594 0.059896 0.061198 0.062500 0.063802 0.065104 0.066406 0.067708 0.069010 0.070312 0.071615 0.072917 0.074219 0.075521 0.076823 0.078125 0.079427 0.080729 0.082031 0.083333 0.084635 0.085938 0.087240 0.088542 0.089844 0.091146 0.092448 0.093750 0.095052 0.096354 0.097656 0.098958 0.100260 0.101562 0.102865 0.104167 0.105469 0.106771 0.108073 0.109375 0.110677 0.111979 0.113281 0.114583 0.115885 0.117188 0.118490 0.119792 0.121094 0.122396 0.123698 0.125000 0.126302 0.127604 0.128906 0.130208 0.131510 0.132812 0.134115 0.135417 0.136719 0.138021 0.139323 0.140625 0.141927 0.143229 0.144531 0.145833 0.147135 0.148438 0.149740 0.151042 0.152344 0.153646 0.154948 0.156250 0.157552 0.158854 0.160156 0.161458 0.162760 0.164062 0.165365 0.166667 0.167969 0.169271 0.170573 0.171875 0.173177 0.174479 0.175781 0.177083 0.178385 0.179688 0.180990 0.182292 0.183594 0.184896 0.186198 0.187500 0.188802 0.190104 0.191406 0.192708 0.194010 0.195312 0.196615 0.197917 0.199219 0.200521 0.201823 0.203125 0.204427 0.205729 0.207031 0.208333 0.209635 0.210938 0.212240 0.213542 0.214844 0.216146 0.217448 0.218750 0.220052 0.221354 0.222656 0.223958 0.225260 0.226562 0.227865 0.229167 0.230469 0.231771 0.233073 0.234375 0.235677 0.236979 0.238281 0.239583 0.240885 0.242188 0.243490 0.244792 0.246094 0.247396 0.248698 0.250000 0.251302 0.252604 0.253906 0.255208 0.256510 0.257812 0.259115 0.260417 0.261719 0.263021 0.264323 0.265625 0.266927 0.268229 0.269531 0.270833 0.272135 0.273438 0.274740 0.276042 0.277344 0.278646 0.279948 0.281250 0.282552 0.283854 0.285156 0.286458 0.287760 0.289062 0.290365 0.291667 0.292969 0.294271 0.295573 0.296875 0.298177 0.299479 0.300781 0.302083 0.303385 0.304688 0.305990 0.307292 0.308594 0.309896 0.311198 0.312500 0.313802 0.315104 0.316406 0.317708 0.319010 0.320312 0.321615 0.322917 0.324219 0.325521 0.326823 0.328125 0.329427 0.330729 0.332031 0.333333 0.334635 0.335938 0.337240 0.338542 0.339844 0.341146 0.342448 0.343750 0.345052 0.346354 0.347656 0.348958 0.350260 0.351562 0.352865 0.354167 0.355469 0.356771 0.358073 0.359375 0.360677 0.361979 0.363281 0.364583 0.365885 0.367188 0.368490 0.369792 0.371094 0.372396 0.373698 0.375000 0.376302 0.377604 0.378906 0.380208 0.381510 0.382812 0.384115 0.385417 0.386719 0.388021 0.389323 0.390625 0.391927 0.393229 0.394531 0.395833 0.397135 0.398438 0.399740 0.401042 0.402344 0.403646 0.404948 0.406250 0.407552 0.408854 0.410156 0.411458 0.412760 0.414062 0.415365 0.416667 0.417969 0.419271 0.420573 0.421875 0.423177 0.424479 0.425781 0.427083 0.428385 0.429688 0.430990 0.432292 0.433594 0.434896 0.436198 0.437500 0.438802 0.440104 0.441406 0.442708 0.444010 0.445312 0.446615 0.447917 0.449219 0.450521 0.451823 0.453125 0.454427 0.455729 0.457031 0.458333 0.459635 0.460938 0.462240 0.463542 0.464844 0.466146 0.467448 0.468750 0.470052 0.471354
       0.01726        0.01726        0.01726        0.01726        0.01726        0.01726        0.01726        0.01726        0.01726        0.01726        0.01726        0.01726        0.01726        0.01726        0.01726        0.01726        0.01726        0.01726        0.01726        0.01726        0.01726        0.01726        0.01726        0.01726        0.01726        0.13887        0.70620        0.16241       -1.09891       -1.98818       -2.26974       -1.65857       -1.14092       -0.14838        0.24915        1.02049        1.64602        1.62947        1.81021        1.50657        0.93078        0.03615       -0.40301       -0.73891       -0.88636       -0.78172       -0.34960        0.05036        0.16986        0.30719        0.50070        0.60230        0.25626        0.03515       -0.13996       -0.34015       -0.43441       -0.19268       -0.20794       -0.09116       -0.00886       -0.11100       -0.03301        0.03626        0.09220       -0.02954       -0.07818       -0.17008       -0.27335       -0.37717       -0.33057       -0.27006       -0.19713       -0.38144       -0.29340       -0.47687       -0.39562       -0.39422       -0.34025       -0.36069       -0.32949       -0.27396       -0.21390       -0.20638       -0.05951       -0.13163       -0.03097        0.01076        0.13788        0.21106        0.23441        0.26386        0.30092        0.29418        0.41672        0.36618        0.38224        0.28259        0.24997        0.32978        0.19870        0.08453        0.04479       -0.03105       -0.11313       -0.08499       -0.10056       -0.25343       -0.27257       -0.34570       -0.35148       -0.30174       -0.33919       -0.24913       -0.22347       -0.09381       -0.03047       -0.00074        0.09067        0.26058        0.23813        0.26565        0.36712        0.38299        0.31627        0.31619        0.30775        0.21933        0.23195        0.05569        0.01249       -0.07887       -0.16465       -0.26066       -0.20328       -0.23211       -0.24513       -0.23065       -0.13988       -0.14133       -0.01755        0.02292        0.07951        0.16070        0.23562        0.21159        0.22220        0.26896        0.21150        0.15678        0.16738        0.01168       -0.06074       -0.05695       -0.06746       -0.17679       -0.17327       -0.16321       -0.09503       -0.06439        0.00623        0.04923        0.05791        0.12373        0.11838        0.14733        0.11959        0.14293        0.11426        0.06629        0.04815        0.04153        0.00865       -0.02747       -0.09813       -0.09775       -0.08302       -0.04345       -0.05332        0.02444        0.04885        0.02316        0.07600        0.12091        0.10890        0.09048        0.10126        0.03115        0.00964       -0.02318       -0.04813       -0.02405       -0.05576       -0.02637       -0.02040        0.01433        0.01085        0.07909        0.06015        0.07951        0.06554        0.09343        0.06039        0.03493       -0.02849       -0.02068       -0.01884       -0.03162       -0.05361        0.00748        0.04194        0.01618        0.04166        0.04625        0.01729        0.07005        0.05603        0.02189        0.01808        0.00590        0.00612        0.00681       -0.00150        0.00299       -0.02058        0.01615        0.03123        0.04135        0.01844        0.01199        0.01526        0.03520        0.00095       -0.02256       -0.00294        0.01883        0.02225        0.00109        0.01881        0.03244        0.00946        0.00758        0.02812        0.01178       -0.01564       -0.02183       -0.02827       -0.00125        0.01316        0.03759        0.01803        0.00624        0.01940        0.01547        0.00577       -0.00502       -0.00407        0.00315       -0.00547        0.01074        0.03171        0.00614        0.01763        0.01157        0.01971        0.01941        0.02062        0.01836        0.01709       -0.02039       -0.01567        0.02449       -0.00785        0.01031        0.01992        0.02440        0.02655        0.01345        0.02888        0.00603       -0.00864       -0.01827       -0.00162        0.01668        0.03130        0.01166        0.01022        0.00847        0.00264       -0.00885        0.00982       -0.00632        0.00105        0.00479       -0.00265       -0.01607        0.00901        0.02741        0.02602        0.01385       -0.00237        0.00965        0.05101        0.00735        0.02241        0.02474        0.01470        0.00541       -0.00028        0.01757        0.00402       -0.01559        0.00198        0.00440       -0.00707       -0.00989       -0.00991        0.00909       -0.01237       -0.02453       -0.01051        0.02217        0.02974        0.02899       -0.01857        0.00948       -0.02102       -0.01721        0.02383       -0.00617        0.00210       -0.01298        0.02315        0.00942        0.01971        0.01453        0.00110       -0.01308        0.00821        0.00604       -0.02034       -0.00569       -0.01425       -0.02993       -0.00348       -0.02124        0.02545        0.02955        0.04121        0.00458       -0.03519        0.05353        0.03546       -0.01886        0.00933       -0.03509       -0.03297        0.00438        0.06484        0.06236       -0.07385       -0.21442       -0.34023
-0.073319 0.636016 0.636501 0.636955 0.637377 0.637767 0.638126 0.638453 0.638749 0.639014 0.639246 0.639448 0.639617 0.639756 0.639862 0.639937 0.639981 0.639993 0.639974 0.639923 0.639840 0.639726 0.639581 0.639404 0.639195 0.638955 2.120118 0.812239 -0.903017 -2.833539 -3.302937 -2.080929 -1.589863 0.365650 0.901125 2.050069 3.582305 3.402616 3.456998 3.375089 2.236291 0.695349 0.010007 -0.543309 -0.973752 -0.790290 -0.077006 0.731408 0.838730 0.882797 1.396289 1.765060 0.996540 0.891958 0.372438 0.094067 -0.276068 0.345855 0.080741 0.491037 0.641085 0.283892 0.500947 0.672810 0.771881 0.564789 0.496771 0.318463 0.010193 -0.008019 -0.017308 0.041678 0.359124 -0.093913 0.069341 -0.222103 -0.094144 -0.120557 -0.020389 -0.058748 -0.002832 0.068781 0.193915 0.135307 0.444603 0.304604 0.490628 0.459226 0.806774 0.802391 0.885408 0.981956 1.010007 0.981639 1.206545 1.099048 1.213556 0.995297 0.877837 1.084627 0.853710 0.724846 0.546547 0.508390 0.328342 0.296705 0.418850 0.089577 0.022081 -0.030172 -0.204157 0.074126 -0.181084 0.015039 0.122298 0.234670 0.369112 0.425952 0.566145 0.744030 0.920028 0.744837 1.084446 1.067522 0.950814 0.968017 0.943462 0.828052 0.765258 0.644125 0.452209 0.308451 0.179804 -0.014382 0.003972 0.100487 -0.073076 -0.025460 0.133389 0.139767 0.232108 0.407899 0.445732 0.558882 0.723221 0.760270 0.714251 0.699776 0.767892 0.600116 0.597382 0.492388 0.210945 0.232764 0.172646 0.084523 -0.005909 0.013037 0.121160 0.099674 0.265099 0.336539 0.316164 0.458559 0.451608 0.467899 0.517398 0.449946 0.464860 0.406747 0.336492 0.287012 0.301336 0.173247 0.151973 0.003075 0.081818 0.154290 0.125579 0.157750 0.256711 0.228244 0.292326 0.351074 0.335588 0.312137 0.286760 0.198273 0.208938 0.111269 0.018684 0.078503 0.029290 0.044522 0.049565 0.075108 0.084257 0.159607 0.248411 0.130025 0.232560 0.184737 0.215923 0.149376 0.059979 -0.016095 0.026882 0.016635 -0.018412 -0.052097 0.105349 0.120083 0.030331 0.137964 0.070119 0.100051 0.160209 0.051858 0.044733 0.052998 0.003507 0.026750 -0.003218 0.007598 0.002697 -0.026409 0.033944 0.046462 0.057973 -0.010534 0.039794 0.003250 0.061974 -0.007850 -0.036650 -0.001747 0.029861 0.019592 0.003925 0.044257 0.028392 0.004408 -0.018785 0.026063 -0.039381 -0.028471 -0.054916 -0.081653 -0.028862 -0.000900 0.072648 -0.028498 -0.000658 -0.017220 0.008329 -0.013674 -0.022166 -0.023833 -0.028732 -0.018052 -0.004311 0.037446 -0.041331 0.024816 -0.012677 0.032076 -0.017053 0.013006 0.039516 -0.024452 -0.083065 -0.017445 0.019628 -0.035673 0.009787 0.000254 0.024556 0.031621 0.011766 0.000149 -0.009803 -0.074387 -0.041608 -0.008267 0.008536 0.026133 0.006114 -0.036641 -0.000215 0.010199 -0.036076 0.024369 -0.032693 0.015073 0.006628 -0.028170 -0.019343 -0.000777 0.063582 0.055741 0.025791 -0.023651 0.050687 0.087117 -0.004636 0.051049 0.034805 0.037198 -0.003255 -0.025364 0.024178 0.012726 -0.097171 0.025694 -0.029052 -0.017465 -0.038022 -0.047141 0.003477 -0.039487 -0.081821 -0.061621 0.006062 0.012315 0.016103 -0.095761 0.028524 -0.104203 -0.072078 0.055509 -0.054539 0.020681 -0.052516 0.052736 -0.019008 -0.011008 0.028184 -0.023782 -0.047679 0.034588 -0.030992 -0.062754 -0.010351 -0.059088 -0.060591 -0.045365 -0.057891 0.123586 -0.040467 0.046993 -0.051270 -0.105629 0.045966 0.064715 -0.089294 -0.080330 -0.021113 -0.078237 0.034590 0.105448 0.149007 -0.121633 -0.566318
0.072396 0.072903 0.074424 0.076958 0.080504 0.085063 0.090632 0.097210 0.104794 0.113383 0.122971 0.133556 0.145132 0.157691 0.171227 0.185729 0.201186 0.217586 0.234913 0.253149 0.272274 0.292264 0.313093 0.334730 0.357141 0.380290 0.404132 0.428622 0.453706 0.479328 0.505426 0.531930 0.558766 0.585854 0.613105 0.640427 0.667718 0.694871 0.721771 0.748298 0.774322 0.799709 0.824317 0.847997 0.870596 0.891953 0.911902 0.930275 0.946897 0.961592 0.974180 0.984481 0.992315 0.997502 0.999867 0.999236 0.995443 0.988328 0.977742 0.963545 0.945611 0.923832 0.898113 0.868381 0.834587 0.796702 0.754728 0.708693 0.658656 0.604711 0.546984 0.485640 0.420882 0.352950 0.282127 0.208737 0.133142 0.055749 0.022997 0.102612 0.182573 0.262324 0.341275 0.418808 0.494282 0.567034 0.636391 0.701668 0.762182 0.817258 0.866232 0.908467 0.943358 0.970340 0.988902 0.998592 0.999032 0.989921 0.971050 0.942310 0.903697 0.855321 0.797414 0.730332 0.654561 0.570718 0.479550 0.381932 0.278867 0.171475 0.060984 0.051277 0.163894 0.275385 0.384218 0.488830 0.587650 0.679126 0.761749 0.834079 0.894776 0.942628 0.976574 0.995738 0.999450 0.987271 0.959014 0.914761 0.854877 0.780020 0.691138 0.589478 0.476567 0.354203 0.224433 0.089524 0.048070 0.185753 0.320828 0.450554 0.572199 0.683101 0.780730 0.862749 0.927080 0.971960 0.996000 0.998234 0.978161 0.935784 0.871627 0.786753 0.682760 0.561768 0.426384 0.279665 0.125055 0.033690 0.192581 0.347500 0.494303 0.628931 0.747532 0.846575 0.922964 0.974149 0.998222 0.994000 0.961095 0.899953 0.811882 0.699043 0.564421 0.411764 0.245495 0.070595 0.107530 0.283217 0.450720 0.604401 0.738923 0.849452 0.931835 0.982779 1.000000 0.982340 0.929857 0.843868 0.726944 0.582869 0.416536 0.233810 0.041326 0.153723 0.343858 0.521603 0.679771 0.811777 0.911922 0.975661 0.999833 0.982842 0.924783 0.827493 0.694535 0.531104 0.343854 0.140646 0.069750 0.278029 0.474763 0.650820 0.797807 0.908488 0.977162 0.999992 0.975247 0.903458 0.787464 0.632350 0.445262 0.235111 0.012181 0.212355 0.426996 0.620490 0.782445 0.903907 0.977878 0.999768 0.967709 0.882748 0.748876 0.572894 0.364119 0.133918 0.104867 0.338627 0.553759 0.737460 0.878517 0.968020 0.999967 0.971719 0.884252 0.742210 0.553712 0.329954 0.084574 0.167132 0.409158 0.625803 0.802698 0.927798 0.992241 0.991030 0.923476 0.793366 0.608820 0.381864 0.127688 0.136330 0.391782 0.620508 0.805925 0.934229 0.995507 0.984541 0.901328 0.751214 0.544639 0.296474 0.025022 0.249307 0.505509 0.723596 0.886180 0.979927 0.996691 0.934316 0.796950 0.594872 0.343809 0.063771 0.222481 0.491270 0.719967 0.888917 0.983196 0.993992 0.919519 0.765339 0.544057 0.274379 0.020391 0.314326 0.581130 0.796512 0.940435 0.999055 0.966142 0.843829 0.642618 0.380583 0.081833 0.225633 0.512529 0.751068 0.917698 0.995494 0.975977 0.860140 0.658564 0.390578 0.082501 0.234874 0.529313 0.770424 0.932848 0.998996 0.961068 0.822082 0.595800 0.305482 0.018385 0.341236 0.628092 0.847351 0.974364 0.994282 0.903932 0.712410 0.440327 0.117711 0.219217 0.532053 0.784602 0.947107 0.999866 0.935740 0.761264 0.496141 0.171171 0.175217 0.501460 0.767840 0.941366 0.999967 0.935438 0.754739 0.479423 0.143226 0.211952 0.541216 0.802342 0.961264 0.996630 0.902831 0.691035 0.388045 0.033079 0.327215 0.644843
1.000000 1.000000 1.000000 1.000000 1.000000 1.000000 1.000000 1.000000 1.000000 1.000000 1.000000 1.000000 1.000000 1.000000 1.000000 1.000000 1.000000 1.000000 1.000000 1.000000 1.000000 1.000000 1.000000 1.000000 1.000000 1.000000 0.352492 0.352492 0.352492 0.352492 0.352492 0.352492 0.352492 0.352492 0.352492 0.352492 0.352492 0.352492 0.352492 0.352492 0.352492 0.352492 0.352492 0.352492 0.352492 0.352492 0.352492 0.352492 0.352492 0.352492 0.352492 0.352492 0.352492 0.352492 0.352492 0.312009 0.312009 0.312009 0.312009 0.312009 0.312009 0.312009 0.312009 0.312009 0.312009 0.312009 0.312009 0.312009 0.312009 0.312009 0.312009 0.312009 0.312009 0.312009 0.312009 0.312009 0.308728 0.320221 0.319201 0.310387 0.304872 0.308449 0.311258 0.324012 0.329215 0.331336 0.349096 0.370449 0.383488 0.393122 0.399631 0.398283 0.407667 0.432683 0.478917 0.554866 0.913780 0.915027 0.911282 0.917411 0.918419 0.918768 0.919169 0.920008 0.921942 0.922472 0.925344 0.930254 0.935352 0.936712 0.951322 0.953484 0.964066 0.964914 0.964675 0.961716 0.972685 0.971575 0.971197 0.971060 0.972010 0.970923 0.970288 0.970437 0.973986 0.972584 0.970760 0.970338 0.968256 0.966780 0.965711 0.965272 0.965567 0.965826 0.965881 0.966276 0.966448 0.966428 0.964231 0.964352 0.966262 0.966568 0.967668 0.967197 0.960292 0.963406 0.961190 0.960653 0.959768 0.957269 0.957451 0.957738 0.957846 0.958169 0.957900 0.957157 0.950611 0.948909 0.942400 0.930807 0.931976 0.934727 0.936722 0.936249 0.932949 0.926346 0.922388 0.932349 0.923170 0.920392 0.921693 0.906698 0.908169 0.906874 0.906247 0.904040 0.896153 0.884197 0.884546 0.883620 0.886319 0.887267 0.885423 0.884662 0.854894 0.849022 0.850599 0.827795 0.813809 0.814784 0.811300 0.813999 0.823225 0.826854 0.827719 0.809274 0.798877 0.786173 0.785665 0.747282 0.746216 0.778741 0.740057 0.730595 0.716840 0.724678 0.724668 0.736734 0.733040 0.684697 0.663952 0.653840 0.638708 0.632311 0.619750 0.610594 0.593413 0.588828 0.588113 0.592981 0.581248 0.545353 0.489194 0.480201 0.479070 0.475915 0.477340 0.452758 0.435476 0.428825 0.415585 0.320703 0.313810 0.288723 0.277042 0.298825 0.300840 0.310847 0.315069 0.290622 0.270300 0.269608 0.216142 0.270815 0.234283 0.182523 0.190359 0.183015 0.178123 0.182533 0.173240 0.171268 0.168617 0.171478 0.178273 0.167270 0.144684 0.102333 0.133905 0.112000 0.119582 0.105121 0.070169 0.046065 0.039650 0.061173 0.076784 0.070221 0.085636 0.088266 0.093603 0.111485 0.138605 0.137268 0.109420 0.082358 0.038234 0.074666 0.059941 0.083698 0.066846 0.068914 0.099185 0.107469 0.117254 0.111183 0.117719 0.109842 0.100741 0.116482 0.083844 0.070998 0.111767 0.065367 0.025343 0.055243 0.035834 0.015515 -0.028995 -0.022911 -0.060028 -0.002279 -0.038230 -0.031507 -0.013725 -0.067962 -0.085048 -0.107960 -0.112284 -0.114809 -0.109627 -0.118932 -0.114988 -0.109074 -0.055505 -0.035146 -0.043195 -0.053790 -0.024785 -0.034679 -0.015708 -0.019124 -0.011402 0.022662 -0.016477 -0.025113 -0.031106 -0.083363 -0.124515 -0.144169 -0.127388 -0.076837 -0.053390 -0.035560 -0.053901 -0.053901 -0.053901 -0.053901 -0.065589 -0.065589 -0.065589 -0.065589 -0.065589 -0.065589 -0.065589 -0.065589 -0.065589 -0.048459 -0.048459 -0.048459 -0.048459 -0.048459 -0.048459 -0.048459 -0.048459 -0.048459 -0.048459 -0.048459 -0.048459 -0.048459 -0.048459 -0.048459 -0.048459
0.000000 0.000000 0.000000 0.000000 0.000000 0.000000 0.000000 0.000000 0.000000 0.000000 0.000000 0.000000 0.000000 0.000000 0.000000 0.000000 0.000000 0.000000 0.000000 0.000000 0.000000 0.000000 0.000000 0.000000 0.000000 0.000000 0.180334 0.180334 0.180334 0.180334 0.180334 0.180334 0.180334 0.180334 0.180334 0.180334 0.180334 0.180334 0.180334 0.180334 0.180334 0.180334 0.180334 0.180334 0.180334 0.180334 0.180334 0.180334 0.180334 0.180334 0.180334 0.180334 0.180334 0.180334 0.180334 0.199007 0.199007 0.199007 0.199007 0.199007 0.199007 0.199007 0.199007 0.199007 0.199007 0.199007 0.199007 0.199007 0.199007 0.199007 0.199007 0.199007 0.199007 0.199007 0.199007 0.199007 0.199007 0.199007 0.199007 0.199007 0.199007 0.199007 0.199007 0.199007 0.199007 0.199007 0.199007 0.199007 0.199007 0.199007 0.199007 0.199007 0.199007 0.199007 0.199007 0.199007 0.230940 0.230940 0.230940 0.230940 0.230940 0.230940 0.230940 0.230940 0.230940 0.230940 0.230940 0.230940 0.230940 0.230940 0.230940 0.230940 0.230940 0.230940 0.230940 0.230940 0.230940 0.230940 0.230940 0.230940 0.230940 0.230940 0.230940 0.230940 0.244339 0.244339 0.244339 0.244339 0.244339 0.244339 0.244339 0.244339 0.244339 0.244339 0.244339 0.244339 0.244339 0.244339 0.244339 0.244339 0.244339 0.244339 0.244339 0.244339 0.244339 0.244339 0.244339 0.251976 0.251976 0.251976 0.251976 0.251976 0.251976 0.251976 0.251976 0.251976 0.251976 0.251976 0.251976 0.251976 0.251976 0.251976 0.251976 0.251976 0.251976 0.251976 0.251976 0.264906 0.264906 0.264906 0.264906 0.264906 0.264906 0.264906 0.264906 0.264906 0.264906 0.264906 0.264906 0.264906 0.264906 0.264906 0.264906 0.264906 0.256074 0.256074 0.256074 0.256074 0.256074 0.256074 0.256074 0.256074 0.256074 0.256074 0.256074 0.256074 0.256074 0.256074 0.256074 0.256074 0.256074 0.269680 0.269680 0.269680 0.269680 0.269680 0.269680 0.269680 0.269680 0.269680 0.269680 0.269680 0.269680 0.269680 0.269680 0.264906 0.264906 0.264906 0.264906 0.264906 0.264906 0.264906 0.264906 0.264906 0.264906 0.264906 0.264906 0.264906 0.264906 0.256074 0.256074 0.256074 0.256074 0.256074 0.256074 0.256074 0.256074 0.256074 0.256074 0.256074 0.256074 0.256074 0.256074 0.269680 0.269680 0.269680 0.269680 0.269680 0.269680 0.269680 0.269680 0.269680 0.269680 0.269680 0.269680 0.264906 0.264906 0.264906 0.264906 0.264906 0.264906 0.264906 0.264906 0.264906 0.264906 0.264906 0.264906 0.269680 0.269680 0.269680 0.269680 0.269680 0.269680 0.269680 0.269680 0.269680 0.269680 0.269680 0.264906 0.264906 0.264906 0.264906 0.264906 0.264906 0.264906 0.264906 0.264906 0.264906 0.264906 0.256074 0.256074 0.256074 0.256074 0.256074 0.256074 0.256074 0.256074 0.256074 0.256074 0.256074 0.264906 0.264906 0.264906 0.264906 0.264906 0.264906 0.264906 0.264906 0.264906 0.264906 0.260378 0.260378 0.260378 0.260378 0.260378 0.260378 0.260378 0.260378 0.260378 0.260378 0.264906 0.264906 0.264906 0.264906 0.264906 0.264906 0.264906 0.264906 0.264906 0.260378 0.260378 0.260378 0.260378 0.260378 0.260378 0.260378 0.260378 0.260378 0.256074 0.256074 0.256074 0.256074 0.256074 0.256074 0.256074 0.256074 0.256074 0.251976 0.251976 0.251976 0.251976 0.251976 0.251976 0.251976 0.251976 0.251976 0.251976 0.251976 0.251976 0.251976 0.251976 0.251976 0.251976
