# Output from CTFFind version 4.1.9, run on 2019-11-01 21:26:08
# Input file: bm3d_averaged_5_1.7_0.33_250_full.mrc ; Number of micrographs: 1
# Pixel size: 3.000 Angstroms ; acceleration voltage: 300.0 keV ; spherical aberration: 0.00 mm ; amplitude contrast: 0.07
# Box size: 512 pixels ; min. res.: 30.0 Angstroms ; max. res.: 5.0 Angstroms ; min. def.: 5000.0 um; max. def. 50000.0 um; num. frames averaged: 1
# 6 lines per micrograph: #1 - spatial frequency (1/Angstroms); #2 - 1D rotational average of spectrum (assuming no astigmatism); #3 - 1D rotational average of spectrum; #4 - CTF fit; #5 - cross-correlation between spectrum and CTF fit; #6 - 2sigma of expected cross correlation of noise
0.000000 0.000651 0.001302 0.001953 0.002604 0.003255 0.003906 0.004557 0.005208 0.005859 0.006510 0.007161 0.007812 0.008464 0.009115 0.009766 0.010417 0.011068 0.011719 0.012370 0.013021 0.013672 0.014323 0.014974 0.015625 0.016276 0.016927 0.017578 0.018229 0.018880 0.019531 0.020182 0.020833 0.021484 0.022135 0.022786 0.023438 0.024089 0.024740 0.025391 0.026042 0.026693 0.027344 0.027995 0.028646 0.029297 0.029948 0.030599 0.031250 0.031901 0.032552 0.033203 0.033854 0.034505 0.035156 0.035807 0.036458 0.037109 0.037760 0.038411 0.039062 0.039714 0.040365 0.041016 0.041667 0.042318 0.042969 0.043620 0.044271 0.044922 0.045573 0.046224 0.046875 0.047526 0.048177 0.048828 0.049479 0.050130 0.050781 0.051432 0.052083 0.052734 0.053385 0.054036 0.054688 0.055339 0.055990 0.056641 0.057292 0.057943 0.058594 0.059245 0.059896 0.060547 0.061198 0.061849 0.062500 0.063151 0.063802 0.064453 0.065104 0.065755 0.066406 0.067057 0.067708 0.068359 0.069010 0.069661 0.070312 0.070964 0.071615 0.072266 0.072917 0.073568 0.074219 0.074870 0.075521 0.076172 0.076823 0.077474 0.078125 0.078776 0.079427 0.080078 0.080729 0.081380 0.082031 0.082682 0.083333 0.083984 0.084635 0.085286 0.085938 0.086589 0.087240 0.087891 0.088542 0.089193 0.089844 0.090495 0.091146 0.091797 0.092448 0.093099 0.093750 0.094401 0.095052 0.095703 0.096354 0.097005 0.097656 0.098307 0.098958 0.099609 0.100260 0.100911 0.101562 0.102214 0.102865 0.103516 0.104167 0.104818 0.105469 0.106120 0.106771 0.107422 0.108073 0.108724 0.109375 0.110026 0.110677 0.111328 0.111979 0.112630 0.113281 0.113932 0.114583 0.115234 0.115885 0.116536 0.117188 0.117839 0.118490 0.119141 0.119792 0.120443 0.121094 0.121745 0.122396 0.123047 0.123698 0.124349 0.125000 0.125651 0.126302 0.126953 0.127604 0.128255 0.128906 0.129557 0.130208 0.130859 0.131510 0.132161 0.132812 0.133464 0.134115 0.134766 0.135417 0.136068 0.136719 0.137370 0.138021 0.138672 0.139323 0.139974 0.140625 0.141276 0.141927 0.142578 0.143229 0.143880 0.144531 0.145182 0.145833 0.146484 0.147135 0.147786 0.148438 0.149089 0.149740 0.150391 0.151042 0.151693 0.152344 0.152995 0.153646 0.154297 0.154948 0.155599 0.156250 0.156901 0.157552 0.158203 0.158854 0.159505 0.160156 0.160807 0.161458 0.162109 0.162760 0.163411 0.164062 0.164714 0.165365 0.166016 0.166667 0.167318 0.167969 0.168620 0.169271 0.169922 0.170573 0.171224 0.171875 0.172526 0.173177 0.173828 0.174479 0.175130 0.175781 0.176432 0.177083 0.177734 0.178385 0.179036 0.179688 0.180339 0.180990 0.181641 0.182292 0.182943 0.183594 0.184245 0.184896 0.185547 0.186198 0.186849 0.187500 0.188151 0.188802 0.189453 0.190104 0.190755 0.191406 0.192057 0.192708 0.193359 0.194010 0.194661 0.195312 0.195964 0.196615 0.197266 0.197917 0.198568 0.199219 0.199870 0.200521 0.201172 0.201823 0.202474 0.203125 0.203776 0.204427 0.205078 0.205729 0.206380 0.207031 0.207682 0.208333 0.208984 0.209635 0.210286 0.210938 0.211589 0.212240 0.212891 0.213542 0.214193 0.214844 0.215495 0.216146 0.216797 0.217448 0.218099 0.218750 0.219401 0.220052 0.220703 0.221354 0.222005 0.222656 0.223307 0.223958 0.224609 0.225260 0.225911 0.226562 0.227214 0.227865 0.228516 0.229167 0.229818 0.230469 0.231120 0.231771 0.232422 0.233073 0.233724 0.234375 0.235026 0.235677
       0.33972        0.33972        0.33972        0.33972        0.33972        0.33972        0.33972        0.33972        0.33972        0.33972        0.33972        0.33972        0.33972        0.33972        0.33972        0.33972        0.33972        0.33972        0.33972        0.33972        0.33972        0.33972        0.33972        0.33972        0.33972        0.33972        0.33972        0.33972        0.33972        0.33972        0.33972        0.33972        0.33972        0.33972        0.33972        0.33972        0.33972        0.33972        0.33972        0.33972        0.33972        0.33972        0.33972        0.33972        0.33972        0.33972        0.33972        0.33972        0.33972        0.33972        0.33972        0.41661        0.59845        0.29787        0.14268       -0.03775       -0.27237       -0.11261       -0.19717       -0.25341       -0.04801       -0.19898       -0.17178       -0.10052       -0.06804       -0.13419       -0.25050       -0.31720       -0.42763       -0.57436       -0.41928       -0.40218       -0.30400       -0.47118       -0.35169       -0.45014       -0.33901       -0.37412       -0.28562       -0.24864       -0.26728       -0.13993       -0.09818       -0.10783        0.01621        0.01265        0.21165        0.19730        0.31778        0.34800        0.43929        0.44805        0.50109        0.58098        0.62991        0.57332        0.53380        0.53564        0.52080        0.51083        0.47367        0.45103        0.41234        0.31323        0.33433        0.33764        0.35335        0.20203        0.12462        0.10550        0.14265        0.11104        0.14396        0.12657        0.18055        0.25882        0.31282        0.29464        0.34786        0.42323        0.38150        0.48243        0.58302        0.54846        0.52195        0.57178        0.56797        0.44467        0.53097        0.40747        0.29199        0.26316        0.22617        0.17964        0.20069        0.19427        0.14066        0.21011        0.26883        0.25471        0.34089        0.32556        0.40313        0.43681        0.46530        0.45661        0.47857        0.50110        0.44574        0.41503        0.36438        0.33471        0.35519        0.35790        0.29777        0.24543        0.25211        0.22078        0.22866        0.22874        0.28858        0.41754        0.41397        0.39380        0.43271        0.50526        0.47386        0.46519        0.46734        0.39188        0.38696        0.39250        0.35113        0.31166        0.27629        0.29668        0.25997        0.30727        0.29055        0.32791        0.39005        0.39019        0.40807        0.39511        0.36991        0.42147        0.37511        0.39598        0.32135        0.34533        0.29711        0.27904        0.32688        0.29980        0.28864        0.34412        0.34656        0.38717        0.42061        0.39817        0.41219        0.41900        0.36545        0.35625        0.33361        0.32646        0.32258        0.29052        0.34195        0.34338        0.36857        0.36038        0.31289        0.34057        0.38233        0.45330        0.42555        0.34276        0.31806        0.30678        0.33458        0.34547        0.36860        0.36585        0.33024        0.34829        0.32510        0.42476        0.35463        0.30868        0.36049        0.37178        0.34865        0.31182        0.31018        0.27998        0.33438        0.31453        0.28734        0.33661        0.33437        0.36435        0.30389        0.31278        0.29876        0.29406        0.27387        0.31310        0.33750        0.32164        0.32797        0.33680        0.34154        0.33030        0.31798        0.31719        0.32888        0.31817        0.30807        0.32890        0.32457        0.30362        0.29362        0.31355        0.34112        0.32951        0.32977        0.31925        0.28734        0.32175        0.33245        0.31442        0.29762        0.28991        0.35554        0.28370        0.29051        0.31757        0.34906        0.32614        0.30222        0.30719        0.28942        0.32574        0.38371        0.33503        0.30546        0.27409        0.27460        0.33147        0.35739        0.35673        0.29281        0.24970        0.22560        0.29752        0.28413        0.30669        0.32259        0.25636        0.29633        0.31182        0.31023        0.31279        0.32199        0.31365        0.28916        0.28143        0.32846        0.31316        0.28074        0.29949        0.32185        0.23964        0.27929        0.30957        0.32792        0.33265        0.29865        0.31540        0.28786        0.31101        0.33397        0.24948        0.27010        0.29950        0.35788        0.28816        0.26100        0.25538        0.33440        0.32997        0.30142        0.26420        0.29672        0.23774        0.25865        0.25038        0.24391        0.22518        0.29150        0.27890        0.25735        0.22708        0.20707        0.34542        0.30010        0.19025        0.21877        0.25965        0.19365        0.25909        0.16051        0.39996        0.27063        0.20397        0.29057        0.42179        0.17547        0.08115       -0.08873       -0.62391       -0.98454
2.889224 2.858820 2.828580 2.798504 2.768592 2.738845 2.709262 2.679843 2.650588 2.621497 2.592570 2.563808 2.535209 2.506775 2.478505 2.450399 2.422458 2.394680 2.367067 2.339618 2.312333 2.285212 2.258255 2.231463 2.204834 2.178370 2.152070 2.125934 2.099963 2.074155 2.048512 2.023033 1.997717 1.972567 1.947580 1.922757 1.898099 1.873605 1.849275 1.825109 1.801107 1.777270 1.753596 1.730087 1.706742 1.683561 1.660544 1.637692 1.615004 1.592479 1.570119 1.559964 2.018093 1.600361 1.214449 0.865844 0.233020 0.766508 0.293902 0.442723 0.677850 0.443577 0.356748 0.571672 0.556010 0.511703 0.198562 0.106370 -0.120429 -0.419857 -0.146503 -0.256751 0.183140 -0.391546 -0.107129 -0.322026 -0.098360 -0.237058 -0.068617 -0.047782 -0.089180 0.063143 0.216146 0.074406 0.315907 0.310764 0.679084 0.537081 0.822794 0.750812 0.911085 1.112791 0.901251 1.172664 1.309724 1.061694 1.106687 1.059134 1.059677 0.915084 0.920079 0.903053 0.746740 0.577739 0.675268 0.538043 0.584924 0.441673 0.196046 0.178598 0.156941 0.079685 0.220235 0.083534 0.130673 0.328974 0.360172 0.403646 0.491952 0.444995 0.555906 0.433605 0.825784 0.793740 0.710975 0.714921 0.786046 0.580163 0.577514 0.583899 0.226673 0.210515 0.105919 0.067732 -0.012214 0.041784 -0.045174 -0.103358 0.189894 0.052715 0.151509 0.260355 0.251774 0.340442 0.469000 0.383462 0.401882 0.467112 0.372947 0.365638 0.193606 0.200731 0.165641 0.260152 0.043486 0.059551 -0.013697 -0.042004 -0.075170 -0.039241 -0.110590 0.154158 0.325104 0.228012 0.217849 0.296590 0.486946 0.341831 0.465608 0.314477 0.235585 0.206930 0.296732 0.027091 0.095881 0.008058 0.080992 0.014140 0.117146 0.032816 0.180217 0.158087 0.214929 0.235102 0.146738 0.249834 0.140200 0.172544 0.115298 0.102557 0.024977 -0.006049 -0.012684 0.035210 0.015478 -0.060695 0.083672 0.119237 0.219044 0.161091 0.157661 0.225532 0.121926 0.101657 0.063747 0.010170 0.033398 -0.000553 -0.014935 0.038893 0.099649 0.097358 0.065178 -0.059320 0.069894 0.196302 0.265107 0.118573 0.018806 -0.006690 -0.044202 0.064814 0.058922 0.099746 0.082110 0.000360 0.042814 0.016094 0.164326 -0.047960 0.022642 0.098644 0.019006 0.045071 -0.015280 -0.041412 -0.063144 0.037014 -0.057762 -0.002980 -0.008772 0.068896 -0.021998 -0.024720 -0.023593 -0.056037 -0.040833 -0.066968 -0.021113 0.066765 -0.011021 0.049930 0.006549 0.055410 0.008175 -0.000276 0.029015 0.022649 -0.001163 -0.019944 0.039303 0.036904 -0.009810 -0.042186 0.026215 0.063330 0.030402 0.060860 -0.017932 -0.053415 0.046339 0.064070 -0.014964 -0.017261 -0.021428 0.116368 -0.080492 0.004287 0.039807 0.086519 0.013055 0.021823 -0.021534 0.010385 0.123367 0.124374 0.049319 0.001519 -0.020320 -0.004433 0.074898 0.166006 0.119463 0.008598 -0.034719 -0.111912 0.072206 0.021003 0.086217 0.045697 -0.045267 0.111097 0.104622 0.106457 0.054666 0.170921 0.059291 0.045567 0.007194 0.169522 0.119708 -0.026846 0.135093 0.112124 -0.029947 0.057515 0.075385 0.150137 0.127367 -0.006841 0.148342 -0.038926 0.104606 0.101826 -0.055929 -0.007823 0.088520 0.156778 0.038562 -0.095209 0.041279 0.129463 0.071707 0.046012 -0.013847 0.109835 -0.071701 -0.005958 -0.048495 -0.032930 -0.028158 0.065151 0.068383 0.075940 0.014137 -0.060505 0.293510 -0.005960 -0.077777 0.106298 0.074586 0.026063 0.170985 -0.191253 0.428885 0.123929 0.352727 0.549465 0.684579 0.256274 0.116012 -0.144975 -1.703864
0.072396 0.072904 0.074426 0.076963 0.080514 0.085079 0.090655 0.097241 0.104835 0.113435 0.123036 0.133634 0.145224 0.157799 0.171351 0.185872 0.201348 0.217768 0.235117 0.253375 0.272522 0.292536 0.313389 0.335052 0.357489 0.380663 0.404531 0.429047 0.454157 0.479805 0.505927 0.532455 0.559314 0.586423 0.613694 0.641034 0.668340 0.695506 0.722416 0.748949 0.774976 0.800360 0.824961 0.848629 0.871210 0.892543 0.912462 0.930797 0.947374 0.962016 0.974543 0.984774 0.992529 0.997629 0.999896 0.999158 0.995248 0.988007 0.977284 0.962941 0.944853 0.922909 0.897019 0.867108 0.833127 0.795051 0.752881 0.706646 0.656407 0.602260 0.544333 0.482793 0.417844 0.349729 0.278734 0.205184 0.129446 0.051927 0.026923 0.106618 0.186633 0.266408 0.345351 0.422842 0.498236 0.570870 0.640066 0.705141 0.765409 0.820193 0.868833 0.910689 0.945157 0.971675 0.989733 0.998884 0.998752 0.989042 0.969551 0.940173 0.900914 0.851891 0.793343 0.725637 0.649267 0.564859 0.473172 0.375092 0.271629 0.163914 0.053186 0.059218 0.171877 0.283300 0.391950 0.496260 0.594656 0.685586 0.767541 0.839087 0.898888 0.945741 0.978596 0.996591 0.999071 0.985616 0.956059 0.910505 0.849342 0.773252 0.683213 0.580493 0.466648 0.343501 0.213123 0.077801 0.059992 0.197644 0.332448 0.461654 0.582530 0.692418 0.788797 0.869348 0.932014 0.975062 0.997135 0.997308 0.975124 0.930635 0.864416 0.777583 0.671788 0.549203 0.412487 0.264742 0.109453 0.049588 0.208369 0.362756 0.508600 0.641851 0.758678 0.855579 0.929507 0.977969 0.999124 0.991870 0.955903 0.891762 0.800849 0.685421 0.548554 0.394082 0.226503 0.050863 0.127387 0.302555 0.468882 0.620749 0.752854 0.860421 0.939381 0.986544 0.999746 0.977967 0.921409 0.831542 0.711089 0.563980 0.395239 0.210850 0.017539 0.177437 0.366569 0.542388 0.697748 0.826151 0.922015 0.980947 0.999972 0.977698 0.914441 0.812265 0.674958 0.507925 0.318003 0.113210 0.097578 0.305001 0.499622 0.672368 0.814962 0.920336 0.983016 0.999431 0.968146 0.890012 0.768188 0.608067 0.417073 0.204354 0.019632 0.243611 0.456057 0.645783 0.802549 0.917632 0.984346 0.998466 0.958539 0.866043 0.725404 0.543824 0.330978 0.098511 0.140547 0.372515 0.583830 0.761858 0.895668 0.976743 0.999559 0.962014 0.865655 0.715692 0.520769 0.292528 0.044957 0.206449 0.445631 0.656997 0.826465 0.942418 0.996557 0.984549 0.906423 0.766698 0.574181 0.341496 0.084297 0.179749 0.432153 0.654893 0.831735 0.949433 0.998792 0.975441 0.880283 0.719574 0.504581 0.250880 0.022734 0.295592 0.546717 0.756415 0.907885 0.988595 0.991398 0.915234 0.765372 0.553145 0.295168 0.012110 0.272919 0.536244 0.755592 0.912005 0.991557 0.986649 0.896836 0.729030 0.497074 0.220692 0.076120 0.367134 0.626205 0.829631 0.958369 0.999899 0.949529 0.811019 0.596420 0.325138 0.022264 0.283697 0.563466 0.789824 0.940292 0.999445 0.960591 0.826637 0.610007 0.331615 0.018945 0.296614 0.582866 0.810131 0.954363 0.999782 0.940716 0.782420 0.540750 0.240709 0.086043 0.404488 0.679956 0.881960 0.987627 0.984400 0.871658 0.661039 0.375384 0.046385 0.288851 0.591944 0.827665 0.968070 0.995942 0.907027 0.710799 0.429630 0.096364 0.249412 0.566027 0.814750 0.964604 0.996322 0.904975 0.700878 0.408596 0.064143 0.289361 0.607035 0.847950 0.980483 0.986594 0.864439 0.628933 0.310112 0.050558 0.405462 0.707117
1.000000 1.000000 1.000000 1.000000 1.000000 1.000000 1.000000 1.000000 1.000000 1.000000 1.000000 1.000000 1.000000 1.000000 1.000000 1.000000 1.000000 1.000000 1.000000 1.000000 1.000000 1.000000 1.000000 1.000000 1.000000 1.000000 1.000000 1.000000 1.000000 1.000000 1.000000 1.000000 1.000000 1.000000 1.000000 1.000000 1.000000 1.000000 1.000000 1.000000 1.000000 1.000000 1.000000 1.000000 1.000000 1.000000 1.000000 1.000000 1.000000 1.000000 1.000000 1.000000 0.838563 0.838563 0.838563 0.818839 0.818839 0.818839 0.818839 0.818839 0.818839 0.818839 0.818839 0.818839 0.818839 0.818839 0.818839 0.818839 0.818839 0.818839 0.818839 0.818839 0.818839 0.818839 0.818839 0.818839 0.818839 0.818839 0.818839 0.818839 0.818839 0.818839 0.818839 0.818839 0.818839 0.818839 0.818839 0.818839 0.818839 0.818839 0.818839 0.818839 0.818839 0.818839 0.818839 0.818839 0.837091 0.840706 0.841316 0.846757 0.850083 0.844765 0.842937 0.841177 0.840380 0.841045 0.852962 0.878462 0.883993 0.894418 0.906323 0.912508 0.915016 0.909760 0.919378 0.922439 0.948342 0.946360 0.943660 0.944749 0.948050 0.947588 0.946586 0.939595 0.948344 0.947634 0.945912 0.937480 0.936181 0.931910 0.930985 0.927994 0.927730 0.929969 0.930160 0.930832 0.931442 0.933434 0.930977 0.929027 0.927811 0.927351 0.929686 0.915267 0.911753 0.903771 0.904452 0.905714 0.901796 0.900368 0.902429 0.903364 0.902516 0.891555 0.891561 0.883220 0.881364 0.877402 0.875266 0.876847 0.879710 0.884003 0.884421 0.885123 0.866335 0.863327 0.858136 0.852498 0.849978 0.848653 0.852217 0.850070 0.846141 0.847148 0.839398 0.831800 0.824014 0.817408 0.816726 0.823023 0.828305 0.830072 0.838433 0.837455 0.831622 0.763757 0.724288 0.725421 0.734147 0.729076 0.712725 0.710646 0.710439 0.706020 0.692608 0.676471 0.667173 0.647470 0.628812 0.600118 0.613296 0.574774 0.557912 0.561633 0.533795 0.556349 0.555108 0.586337 0.605207 0.606152 0.594399 0.578154 0.549419 0.557464 0.528484 0.509169 0.496075 0.483689 0.488577 0.499075 0.483316 0.404664 0.404935 0.395502 0.396242 0.409629 0.413041 0.402325 0.399911 0.388275 0.364563 0.360184 0.288421 0.243551 0.242921 0.231220 0.223493 0.228027 0.233888 0.254740 0.250280 0.245532 0.205521 0.236810 0.249227 0.232787 0.211915 0.179232 0.171321 0.173939 0.176308 0.167070 0.162551 0.193931 0.212951 0.219553 0.188215 0.145246 0.177223 0.160086 0.144962 0.143289 0.153825 0.146838 0.102403 0.062004 0.080894 0.083158 0.119875 0.089492 0.100942 0.127344 0.131103 0.104734 0.106113 0.072409 0.036637 0.082059 0.046287 0.036759 0.017635 0.050308 0.046678 0.021742 0.018979 -0.006389 0.044239 0.047772 0.037085 0.101252 0.106533 0.122920 0.098734 0.097755 0.079882 0.059148 0.047078 0.101020 0.114049 0.090438 0.097326 0.093698 0.087771 0.113233 0.098301 0.071275 0.077055 0.066534 0.089800 0.106775 0.081083 0.039909 0.073373 0.085716 0.064767 0.043041 0.024066 0.034458 0.006288 0.009703 0.019179 0.026216 0.013520 0.019942 0.030702 -0.012891 -0.058622 -0.065737 -0.062477 -0.066741 -0.015457 0.023958 0.044697 0.028405 0.019880 0.019880 0.019880 0.019880 0.025643 0.025643 0.025643 0.025643 0.025643 0.025643 0.025643 0.025643 0.025643 0.000428 0.000428 0.000428 0.000428 0.000428 0.000428 0.000428 0.000428 0.000428 0.000428 0.000428 0.000428 0.000428 0.000428 0.000428 0.000428
0.000000 0.000000 0.000000 0.000000 0.000000 0.000000 0.000000 0.000000 0.000000 0.000000 0.000000 0.000000 0.000000 0.000000 0.000000 0.000000 0.000000 0.000000 0.000000 0.000000 0.000000 0.000000 0.000000 0.000000 0.000000 0.000000 0.000000 0.000000 0.000000 0.000000 0.000000 0.000000 0.000000 0.000000 0.000000 0.000000 0.000000 0.000000 0.000000 0.000000 0.000000 0.000000 0.000000 0.000000 0.000000 0.000000 0.000000 0.000000 0.000000 0.000000 0.000000 0.000000 0.180334 0.180334 0.180334 0.199007 0.199007 0.199007 0.199007 0.199007 0.199007 0.199007 0.199007 0.199007 0.199007 0.199007 0.199007 0.199007 0.199007 0.199007 0.199007 0.199007 0.199007 0.199007 0.199007 0.199007 0.199007 0.199007 0.199007 0.199007 0.199007 0.199007 0.199007 0.199007 0.199007 0.199007 0.199007 0.199007 0.199007 0.199007 0.199007 0.199007 0.199007 0.199007 0.199007 0.199007 0.230940 0.230940 0.230940 0.230940 0.230940 0.230940 0.230940 0.230940 0.230940 0.230940 0.230940 0.230940 0.230940 0.230940 0.230940 0.230940 0.230940 0.230940 0.230940 0.230940 0.230940 0.230940 0.230940 0.230940 0.230940 0.230940 0.230940 0.230940 0.244339 0.244339 0.244339 0.244339 0.244339 0.244339 0.244339 0.244339 0.244339 0.244339 0.244339 0.244339 0.244339 0.244339 0.244339 0.244339 0.244339 0.244339 0.244339 0.244339 0.244339 0.244339 0.244339 0.251976 0.251976 0.251976 0.251976 0.251976 0.251976 0.251976 0.251976 0.251976 0.251976 0.251976 0.251976 0.251976 0.251976 0.251976 0.251976 0.251976 0.251976 0.251976 0.251976 0.264906 0.264906 0.264906 0.264906 0.264906 0.264906 0.264906 0.264906 0.264906 0.264906 0.264906 0.264906 0.264906 0.264906 0.264906 0.264906 0.264906 0.264906 0.264906 0.264906 0.264906 0.264906 0.264906 0.264906 0.264906 0.264906 0.264906 0.264906 0.264906 0.264906 0.264906 0.264906 0.264906 0.264906 0.264906 0.264906 0.264906 0.264906 0.264906 0.264906 0.264906 0.264906 0.264906 0.264906 0.264906 0.264906 0.264906 0.264906 0.264906 0.264906 0.264906 0.264906 0.264906 0.264906 0.264906 0.264906 0.264906 0.264906 0.264906 0.264906 0.264906 0.264906 0.264906 0.264906 0.264906 0.264906 0.264906 0.264906 0.264906 0.264906 0.264906 0.264906 0.264906 0.264906 0.264906 0.260378 0.260378 0.260378 0.260378 0.260378 0.260378 0.260378 0.260378 0.260378 0.260378 0.260378 0.260378 0.260378 0.264906 0.264906 0.264906 0.264906 0.264906 0.264906 0.264906 0.264906 0.264906 0.264906 0.264906 0.264906 0.269680 0.269680 0.269680 0.269680 0.269680 0.269680 0.269680 0.269680 0.269680 0.269680 0.269680 0.264906 0.264906 0.264906 0.264906 0.264906 0.264906 0.264906 0.264906 0.264906 0.264906 0.264906 0.269680 0.269680 0.269680 0.269680 0.269680 0.269680 0.269680 0.269680 0.269680 0.269680 0.251976 0.251976 0.251976 0.251976 0.251976 0.251976 0.251976 0.251976 0.251976 0.251976 0.251976 0.269680 0.269680 0.269680 0.269680 0.269680 0.269680 0.269680 0.269680 0.269680 0.256074 0.256074 0.256074 0.256074 0.256074 0.256074 0.256074 0.256074 0.256074 0.256074 0.260378 0.260378 0.260378 0.260378 0.260378 0.260378 0.260378 0.260378 0.260378 0.256074 0.256074 0.256074 0.256074 0.256074 0.256074 0.256074 0.256074 0.256074 0.251976 0.251976 0.251976 0.251976 0.251976 0.251976 0.251976 0.251976 0.251976 0.251976 0.251976 0.251976 0.251976 0.251976 0.251976 0.251976
