# Output from CTFFind version 4.1.9, run on 2019-11-01 21:25:48
# Input file: bm3d_averaged_3_1.7_0.33_3000_full.mrc ; Number of micrographs: 1
# Pixel size: 3.000 Angstroms ; acceleration voltage: 300.0 keV ; spherical aberration: 0.00 mm ; amplitude contrast: 0.07
# Box size: 512 pixels ; min. res.: 30.0 Angstroms ; max. res.: 5.0 Angstroms ; min. def.: 5000.0 um; max. def. 50000.0 um; num. frames averaged: 1
# 6 lines per micrograph: #1 - spatial frequency (1/Angstroms); #2 - 1D rotational average of spectrum (assuming no astigmatism); #3 - 1D rotational average of spectrum; #4 - CTF fit; #5 - cross-correlation between spectrum and CTF fit; #6 - 2sigma of expected cross correlation of noise
0.000000 0.000651 0.001302 0.001953 0.002604 0.003255 0.003906 0.004557 0.005208 0.005859 0.006510 0.007161 0.007812 0.008464 0.009115 0.009766 0.010417 0.011068 0.011719 0.012370 0.013021 0.013672 0.014323 0.014974 0.015625 0.016276 0.016927 0.017578 0.018229 0.018880 0.019531 0.020182 0.020833 0.021484 0.022135 0.022786 0.023438 0.024089 0.024740 0.025391 0.026042 0.026693 0.027344 0.027995 0.028646 0.029297 0.029948 0.030599 0.031250 0.031901 0.032552 0.033203 0.033854 0.034505 0.035156 0.035807 0.036458 0.037109 0.037760 0.038411 0.039062 0.039714 0.040365 0.041016 0.041667 0.042318 0.042969 0.043620 0.044271 0.044922 0.045573 0.046224 0.046875 0.047526 0.048177 0.048828 0.049479 0.050130 0.050781 0.051432 0.052083 0.052734 0.053385 0.054036 0.054688 0.055339 0.055990 0.056641 0.057292 0.057943 0.058594 0.059245 0.059896 0.060547 0.061198 0.061849 0.062500 0.063151 0.063802 0.064453 0.065104 0.065755 0.066406 0.067057 0.067708 0.068359 0.069010 0.069661 0.070312 0.070964 0.071615 0.072266 0.072917 0.073568 0.074219 0.074870 0.075521 0.076172 0.076823 0.077474 0.078125 0.078776 0.079427 0.080078 0.080729 0.081380 0.082031 0.082682 0.083333 0.083984 0.084635 0.085286 0.085938 0.086589 0.087240 0.087891 0.088542 0.089193 0.089844 0.090495 0.091146 0.091797 0.092448 0.093099 0.093750 0.094401 0.095052 0.095703 0.096354 0.097005 0.097656 0.098307 0.098958 0.099609 0.100260 0.100911 0.101562 0.102214 0.102865 0.103516 0.104167 0.104818 0.105469 0.106120 0.106771 0.107422 0.108073 0.108724 0.109375 0.110026 0.110677 0.111328 0.111979 0.112630 0.113281 0.113932 0.114583 0.115234 0.115885 0.116536 0.117188 0.117839 0.118490 0.119141 0.119792 0.120443 0.121094 0.121745 0.122396 0.123047 0.123698 0.124349 0.125000 0.125651 0.126302 0.126953 0.127604 0.128255 0.128906 0.129557 0.130208 0.130859 0.131510 0.132161 0.132812 0.133464 0.134115 0.134766 0.135417 0.136068 0.136719 0.137370 0.138021 0.138672 0.139323 0.139974 0.140625 0.141276 0.141927 0.142578 0.143229 0.143880 0.144531 0.145182 0.145833 0.146484 0.147135 0.147786 0.148438 0.149089 0.149740 0.150391 0.151042 0.151693 0.152344 0.152995 0.153646 0.154297 0.154948 0.155599 0.156250 0.156901 0.157552 0.158203 0.158854 0.159505 0.160156 0.160807 0.161458 0.162109 0.162760 0.163411 0.164062 0.164714 0.165365 0.166016 0.166667 0.167318 0.167969 0.168620 0.169271 0.169922 0.170573 0.171224 0.171875 0.172526 0.173177 0.173828 0.174479 0.175130 0.175781 0.176432 0.177083 0.177734 0.178385 0.179036 0.179688 0.180339 0.180990 0.181641 0.182292 0.182943 0.183594 0.184245 0.184896 0.185547 0.186198 0.186849 0.187500 0.188151 0.188802 0.189453 0.190104 0.190755 0.191406 0.192057 0.192708 0.193359 0.194010 0.194661 0.195312 0.195964 0.196615 0.197266 0.197917 0.198568 0.199219 0.199870 0.200521 0.201172 0.201823 0.202474 0.203125 0.203776 0.204427 0.205078 0.205729 0.206380 0.207031 0.207682 0.208333 0.208984 0.209635 0.210286 0.210938 0.211589 0.212240 0.212891 0.213542 0.214193 0.214844 0.215495 0.216146 0.216797 0.217448 0.218099 0.218750 0.219401 0.220052 0.220703 0.221354 0.222005 0.222656 0.223307 0.223958 0.224609 0.225260 0.225911 0.226562 0.227214 0.227865 0.228516 0.229167 0.229818 0.230469 0.231120 0.231771 0.232422 0.233073 0.233724 0.234375 0.235026 0.235677
       0.32912        0.32912        0.32912        0.32912        0.32912        0.32912        0.32912        0.32912        0.32912        0.32912        0.32912        0.32912        0.32912        0.32912        0.32912        0.32912        0.32912        0.32912        0.32912        0.32912        0.32912        0.32912        0.32912        0.32912        0.32912        0.32912        0.32912        0.32912        0.32912        0.32912        0.32912        0.32912        0.32912        0.32912        0.32912        0.32912        0.32912        0.32912        0.32912        0.32912        0.32912        0.32912        0.32912        0.32912        0.32912        0.32912        0.32912        0.32912        0.32912        0.32912        0.32912        0.48055        0.71088        0.39045        0.18048       -0.06365       -0.26822       -0.07760       -0.14261       -0.12827       -0.03237       -0.17956       -0.14269       -0.07410       -0.03139       -0.15609       -0.23359       -0.33588       -0.48662       -0.58098       -0.48652       -0.45360       -0.36536       -0.55456       -0.42404       -0.60388       -0.48255       -0.45142       -0.38051       -0.34816       -0.34037       -0.22508       -0.16127       -0.12699        0.02953       -0.00426        0.15596        0.17648        0.28045        0.37146        0.46028        0.50210        0.54708        0.57071        0.69164        0.61668        0.64223        0.57833        0.55258        0.59945        0.50916        0.45442        0.40206        0.29965        0.25815        0.27766        0.27122        0.08659        0.04620       -0.01269        0.01074        0.04586       -0.00557        0.09632        0.10137        0.22617        0.29565        0.29228        0.38668        0.52978        0.49888        0.53640        0.65791        0.64771        0.60034        0.63584        0.61599        0.53265        0.55319        0.43195        0.36396        0.24867        0.18325        0.10528        0.13742        0.07456        0.15514        0.14155        0.18691        0.18739        0.30919        0.34430        0.42321        0.47537        0.52842        0.51135        0.49558        0.56567        0.45560        0.45518        0.47969        0.33734        0.27566        0.26480        0.28489        0.16097        0.21097        0.17126        0.19738        0.22465        0.27946        0.38409        0.40581        0.41670        0.44971        0.46175        0.45168        0.51021        0.41510        0.34588        0.34830        0.36001        0.33320        0.27545        0.24256        0.26052        0.25316        0.28028        0.26047        0.33375        0.41433        0.36055        0.39717        0.45508        0.43158        0.43165        0.46854        0.34656        0.30534        0.31630        0.26306        0.29260        0.26432        0.29688        0.28846        0.29341        0.34544        0.41986        0.39637        0.39445        0.37938        0.40234        0.33688        0.37933        0.29970        0.28622        0.26547        0.25986        0.25578        0.32091        0.33392        0.34943        0.35803        0.38484        0.32933        0.40874        0.39900        0.35596        0.34224        0.30142        0.31190        0.33432        0.31191        0.31389        0.30738        0.29968        0.31776        0.37339        0.33910        0.33893        0.34021        0.36197        0.34546        0.29389        0.32593        0.31218        0.31714        0.29988        0.32553        0.34309        0.33629        0.35036        0.33463        0.30667        0.29179        0.26907        0.27141        0.31839        0.29985        0.31869        0.29985        0.29041        0.32809        0.31882        0.29202        0.28140        0.28557        0.30020        0.28121        0.28620        0.31390        0.26850        0.34113        0.32519        0.34664        0.33430        0.30661        0.33271        0.30101        0.23263        0.24844        0.31513        0.30106        0.29328        0.32968        0.28392        0.30138        0.33837        0.37002        0.28811        0.27241        0.23856        0.29320        0.34301        0.38419        0.35610        0.31770        0.29887        0.30249        0.25626        0.31137        0.29383        0.33091        0.31213        0.29195        0.26154        0.29495        0.34932        0.29100        0.29440        0.25565        0.32230        0.35193        0.37336        0.31810        0.33783        0.29424        0.30814        0.31121        0.30042        0.27359        0.24450        0.25233        0.27642        0.30559        0.28121        0.29159        0.27222        0.23551        0.25531        0.24552        0.32408        0.30080        0.27163        0.28598        0.32746        0.30977        0.26298        0.21946        0.25882        0.27324        0.30072        0.33597        0.23593        0.27853        0.30869        0.23902        0.27955        0.24411        0.23388        0.21009        0.27770        0.21663        0.20237        0.29548        0.25469        0.32803        0.24868        0.23324        0.19978        0.08646        0.20850        0.32689        0.21192        0.17349        0.16869        0.31083        0.24222        0.26300        0.08815        0.05270       -0.47372       -0.73010
2.385171 2.361035 2.337025 2.313140 2.289381 2.265747 2.242238 2.218855 2.195598 2.172466 2.149460 2.126579 2.103824 2.081194 2.058689 2.036311 2.014057 1.991930 1.969927 1.948051 1.926299 1.904674 1.883173 1.861799 1.840550 1.819426 1.798428 1.777555 1.756808 1.736187 1.715691 1.695320 1.675075 1.654955 1.634961 1.615093 1.595350 1.575732 1.556240 1.536874 1.517633 1.498518 1.479528 1.460663 1.441924 1.423311 1.404823 1.386461 1.368224 1.350113 1.332127 1.385995 1.715573 1.364277 1.071842 0.831338 0.430486 0.814468 0.524889 0.698588 0.783529 0.498227 0.554282 0.667194 0.700015 0.544495 0.433926 0.292144 0.039119 -0.033250 0.035138 0.006276 0.275673 -0.119482 0.062271 -0.162857 -0.048060 -0.020818 0.035401 0.076933 0.054318 0.162041 0.249927 0.221703 0.438193 0.390291 0.565588 0.513800 0.723256 0.695919 0.829175 0.940295 0.876301 0.978081 1.021934 1.057864 1.022640 0.899248 0.874775 0.929029 0.811768 0.772707 0.640739 0.562257 0.499606 0.445995 0.492892 0.275178 0.174096 0.147128 0.046303 0.206713 0.017162 0.168937 0.174755 0.273011 0.360565 0.377214 0.453259 0.536686 0.623973 0.513678 0.740271 0.821943 0.649339 0.719138 0.685269 0.581139 0.548982 0.514541 0.353662 0.237708 0.132906 0.040544 0.024356 -0.008788 0.017901 0.017640 0.100973 0.037258 0.140366 0.226711 0.285557 0.357253 0.415751 0.428009 0.390796 0.444210 0.354043 0.325840 0.344605 0.273955 0.094523 0.089504 0.063962 0.019682 -0.025723 -0.029807 -0.035675 -0.010366 0.031047 0.109507 0.212485 0.234352 0.193507 0.295924 0.278041 0.301543 0.267097 0.203799 0.110439 0.130134 0.164120 0.049567 0.003282 -0.001154 0.017557 0.045666 0.043949 0.006262 0.156363 0.149645 0.132738 0.194213 0.277544 0.126702 0.256978 0.136183 0.084491 0.042240 -0.007653 0.021858 -0.010458 0.001222 0.026691 0.003270 0.005398 0.116753 0.139893 0.136446 0.133825 0.112990 0.089710 0.080031 0.086514 -0.020895 0.002435 -0.041027 -0.062675 -0.010888 0.051390 0.075822 0.030496 0.104350 0.070505 0.069703 0.161372 0.075514 0.080401 0.058533 -0.013075 0.025843 0.075165 -0.016906 0.051041 0.019071 0.002074 0.060715 0.082065 0.050700 0.060837 0.066998 0.077730 0.050542 -0.001391 0.048212 0.021697 0.044480 0.023728 0.043106 0.052532 0.078494 0.048752 0.039685 -0.004577 -0.016427 -0.030309 -0.014012 0.026026 -0.002379 0.042548 -0.005473 0.002647 0.056525 0.036656 0.034278 0.014872 0.000002 0.020281 0.015014 0.028454 0.035444 -0.021718 0.092805 0.078628 0.055462 0.062071 0.054375 0.058671 0.012093 -0.079944 0.003168 0.039935 0.027511 0.015940 0.062543 -0.002698 0.008203 0.073979 0.057654 0.009620 -0.069737 -0.039737 0.009057 0.050622 0.101767 0.075317 0.038529 0.000956 0.002824 -0.063333 0.029018 0.024349 0.038605 0.031032 -0.041059 -0.050345 0.001073 0.027030 -0.044793 -0.026267 -0.080972 0.069986 0.039722 0.045352 -0.031090 0.037975 -0.044659 -0.021782 -0.021141 -0.091490 -0.075794 -0.114222 -0.087404 -0.080349 -0.019229 -0.054404 -0.058748 -0.065963 -0.075911 -0.073915 -0.122885 0.070543 -0.029196 -0.035891 -0.028017 0.043379 -0.021877 -0.053545 -0.089450 -0.027216 0.026114 0.021699 0.065310 -0.065221 0.012173 0.011695 -0.009623 0.062324 -0.056149 0.001078 -0.068467 0.054925 -0.029183 -0.160251 0.094502 0.015782 0.122513 -0.019508 0.030062 -0.059303 -0.180101 -0.069506 0.101139 0.275243 0.184191 0.205344 0.440631 0.256127 0.314489 -0.019069 0.068060 -0.850626
0.072396 0.072909 0.074446 0.077008 0.080593 0.085202 0.090832 0.097483 0.105151 0.113833 0.123527 0.134228 0.145930 0.158626 0.172308 0.186967 0.202591 0.219166 0.236677 0.255105 0.274429 0.294625 0.315666 0.337520 0.360153 0.383525 0.407593 0.432307 0.457615 0.483457 0.509769 0.536480 0.563514 0.590786 0.618207 0.645681 0.673104 0.700364 0.727346 0.753922 0.779962 0.805327 0.829870 0.853441 0.875880 0.897023 0.916702 0.934743 0.950968 0.965196 0.977246 0.986933 0.994075 0.998490 1.000000 0.998431 0.993615 0.985393 0.973615 0.958145 0.938860 0.915653 0.888437 0.857144 0.821730 0.782178 0.738499 0.690732 0.638950 0.583260 0.523805 0.460768 0.394369 0.324870 0.252574 0.177827 0.101015 0.022568 0.057045 0.137314 0.217692 0.297600 0.376425 0.453526 0.528242 0.599894 0.667790 0.731234 0.789535 0.842012 0.888001 0.926869 0.958021 0.980908 0.995041 0.999997 0.995431 0.981086 0.956802 0.922524 0.878310 0.824339 0.760916 0.688477 0.607589 0.518955 0.423412 0.321923 0.215578 0.105583 0.006751 0.120020 0.232742 0.343377 0.450346 0.552051 0.646905 0.733355 0.809909 0.875165 0.927842 0.966806 0.991100 0.999971 0.992892 0.969591 0.930061 0.874583 0.803735 0.718393 0.619735 0.509232 0.388638 0.259963 0.125457 0.012434 0.151105 0.287833 0.419841 0.544342 0.658607 0.760027 0.846178 0.914883 0.964274 0.992856 0.999552 0.983758 0.945373 0.884829 0.803105 0.701729 0.582766 0.448786 0.302826 0.148331 0.010924 0.170913 0.327462 0.476355 0.613448 0.734794 0.836757 0.916135 0.970273 0.997160 0.995520 0.964881 0.905626 0.819014 0.707177 0.573096 0.420531 0.253943 0.078372 0.100706 0.277544 0.446296 0.601227 0.736902 0.848395 0.931474 0.982783 0.999999 0.981947 0.928698 0.841607 0.723314 0.577692 0.409750 0.225480 0.031657 0.164391 0.355051 0.532731 0.690159 0.820691 0.918615 0.979412 1.000000 0.978908 0.916402 0.814531 0.677099 0.509566 0.318853 0.113089 0.098725 0.307086 0.502425 0.675543 0.818059 0.922837 0.984371 0.999102 0.965662 0.885010 0.760460 0.597597 0.404061 0.189228 0.036221 0.260808 0.472846 0.661042 0.815110 0.926372 0.988263 0.996767 0.950716 0.851942 0.705269 0.518328 0.301207 0.065946 0.174106 0.405033 0.613167 0.785892 0.912453 0.984652 0.997428 0.949262 0.842371 0.682682 0.479565 0.245332 0.005460 0.256900 0.492701 0.697280 0.856800 0.960137 0.999716 0.972116 0.878420 0.724268 0.519591 0.278034 0.016087 0.247979 0.495409 0.708269 0.870792 0.970574 0.999590 0.954898 0.838997 0.659787 0.430099 0.166856 0.110124 0.379599 0.620521 0.813693 0.943346 0.998483 0.973881 0.870666 0.696384 0.464533 0.193611 0.094309 0.375347 0.625770 0.824032 0.952668 0.999895 0.960782 0.837844 0.641004 0.386897 0.097540 0.201513 0.483393 0.722338 0.896080 0.987976 0.988696 0.897262 0.721341 0.476718 0.185983 0.123486 0.422048 0.680636 0.873618 0.981391 0.992471 0.904825 0.726283 0.473978 0.172810 0.146936 0.452572 0.712358 0.898827 0.991762 0.980493 0.865246 0.657348 0.378265 0.057491 0.270493 0.569880 0.807467 0.956382 0.999236 0.930264 0.756235 0.495943 0.178313 0.160704 0.482152 0.748529 0.928221 0.999337 0.952514 0.792285 0.536830 0.216059 0.131762 0.464529 0.741353 0.927658 0.999589 0.947204 0.776007 0.506560 0.172181 0.185060 0.519560 0.788007 0.955049 0.998059 0.910366 0.702445 0.400868 0.045048 0.317755 0.638705 0.873959 0.990766
1.000000 1.000000 1.000000 1.000000 1.000000 1.000000 1.000000 1.000000 1.000000 1.000000 1.000000 1.000000 1.000000 1.000000 1.000000 1.000000 1.000000 1.000000 1.000000 1.000000 1.000000 1.000000 1.000000 1.000000 1.000000 1.000000 1.000000 1.000000 1.000000 1.000000 1.000000 1.000000 1.000000 1.000000 1.000000 1.000000 1.000000 1.000000 1.000000 1.000000 1.000000 1.000000 1.000000 1.000000 1.000000 1.000000 1.000000 1.000000 1.000000 1.000000 1.000000 1.000000 0.909557 0.909557 0.908309 0.908309 0.908309 0.908309 0.908309 0.908309 0.908309 0.908309 0.908309 0.908309 0.908309 0.908309 0.908309 0.908309 0.908309 0.908309 0.908309 0.908309 0.908309 0.908309 0.908309 0.908309 0.908309 0.908309 0.908309 0.908309 0.908309 0.908309 0.908309 0.908309 0.908309 0.908309 0.908309 0.908309 0.908309 0.908309 0.908309 0.908309 0.908309 0.908309 0.908309 0.908309 0.900986 0.903520 0.906977 0.910702 0.911154 0.908527 0.908321 0.907979 0.908113 0.909454 0.923630 0.938705 0.942832 0.946499 0.951299 0.955196 0.957037 0.957980 0.961129 0.971582 0.970201 0.970816 0.971204 0.972643 0.972110 0.970929 0.971888 0.971869 0.974989 0.973019 0.971326 0.970745 0.969990 0.969288 0.968296 0.968227 0.967358 0.967761 0.967956 0.968482 0.968714 0.969504 0.960258 0.962036 0.957554 0.957114 0.957264 0.955341 0.958264 0.952121 0.952392 0.948189 0.937592 0.936933 0.937435 0.914688 0.906740 0.907657 0.888953 0.886639 0.881599 0.875442 0.872302 0.873456 0.877244 0.880777 0.878592 0.871736 0.849970 0.817625 0.851340 0.832549 0.799256 0.790735 0.795269 0.798459 0.799807 0.798423 0.794749 0.789312 0.776246 0.777440 0.773121 0.779556 0.782136 0.781864 0.781774 0.781131 0.766795 0.753972 0.742609 0.725765 0.728836 0.729131 0.729456 0.728878 0.736713 0.731453 0.714121 0.702311 0.692202 0.668681 0.631232 0.642764 0.654441 0.665436 0.662339 0.643034 0.613129 0.609545 0.641110 0.628193 0.634479 0.631335 0.615449 0.621746 0.621888 0.622708 0.634050 0.633222 0.627838 0.629357 0.636836 0.632424 0.611256 0.597131 0.589161 0.570963 0.564006 0.593041 0.592407 0.578401 0.560777 0.549137 0.539991 0.533798 0.529709 0.540074 0.510948 0.518216 0.515401 0.512867 0.520311 0.524574 0.514366 0.530742 0.518230 0.493284 0.498899 0.508190 0.511057 0.488541 0.480029 0.486062 0.464672 0.452006 0.483153 0.496081 0.500589 0.508320 0.523962 0.517720 0.515984 0.541893 0.566162 0.552786 0.570820 0.565685 0.551375 0.394163 0.379705 0.357278 0.354189 0.361871 0.337805 0.314355 0.313467 0.260512 0.234007 0.215013 0.183955 0.144786 0.146989 0.141418 0.180800 0.216970 0.205569 0.215979 0.258174 0.282196 0.284412 0.278298 0.253354 0.248500 0.251113 0.218069 0.181960 0.165520 0.171830 0.106540 0.108943 0.111181 0.131778 0.084210 0.066926 0.067461 0.072685 0.050738 0.015193 0.019977 0.015551 0.004706 0.034558 0.044335 0.042726 -0.011859 -0.036499 -0.052331 -0.052122 -0.093206 -0.085284 -0.104314 -0.110672 -0.099692 -0.085592 -0.068383 -0.019066 0.004981 0.003882 0.007000 -0.005190 -0.007827 0.017736 0.021772 -0.007685 -0.061830 -0.069984 -0.069984 -0.069984 -0.069984 -0.069984 -0.059532 -0.059532 -0.059532 -0.059532 -0.059532 -0.059532 -0.059532 -0.059532 -0.059532 -0.008318 -0.008318 -0.008318 -0.008318 -0.008318 -0.008318 -0.008318 -0.008318 -0.008318 -0.008318 -0.008318 -0.008318 -0.008318 -0.008318 -0.008318 -0.008318 -0.008318
0.000000 0.000000 0.000000 0.000000 0.000000 0.000000 0.000000 0.000000 0.000000 0.000000 0.000000 0.000000 0.000000 0.000000 0.000000 0.000000 0.000000 0.000000 0.000000 0.000000 0.000000 0.000000 0.000000 0.000000 0.000000 0.000000 0.000000 0.000000 0.000000 0.000000 0.000000 0.000000 0.000000 0.000000 0.000000 0.000000 0.000000 0.000000 0.000000 0.000000 0.000000 0.000000 0.000000 0.000000 0.000000 0.000000 0.000000 0.000000 0.000000 0.000000 0.000000 0.000000 0.181818 0.181818 0.197066 0.197066 0.197066 0.197066 0.197066 0.197066 0.197066 0.197066 0.197066 0.197066 0.197066 0.197066 0.197066 0.197066 0.197066 0.197066 0.197066 0.197066 0.197066 0.197066 0.197066 0.197066 0.197066 0.197066 0.197066 0.197066 0.197066 0.197066 0.197066 0.197066 0.197066 0.197066 0.197066 0.197066 0.197066 0.197066 0.197066 0.197066 0.197066 0.197066 0.197066 0.197066 0.230940 0.230940 0.230940 0.230940 0.230940 0.230940 0.230940 0.230940 0.230940 0.230940 0.230940 0.230940 0.230940 0.230940 0.230940 0.230940 0.230940 0.230940 0.230940 0.230940 0.230940 0.230940 0.230940 0.230940 0.230940 0.230940 0.230940 0.230940 0.248069 0.248069 0.248069 0.248069 0.248069 0.248069 0.248069 0.248069 0.248069 0.248069 0.248069 0.248069 0.248069 0.248069 0.248069 0.248069 0.248069 0.248069 0.248069 0.248069 0.248069 0.248069 0.251976 0.251976 0.251976 0.251976 0.251976 0.251976 0.251976 0.251976 0.251976 0.251976 0.251976 0.251976 0.251976 0.251976 0.251976 0.251976 0.251976 0.251976 0.251976 0.251976 0.264906 0.264906 0.264906 0.264906 0.264906 0.264906 0.264906 0.264906 0.264906 0.264906 0.264906 0.264906 0.264906 0.264906 0.264906 0.264906 0.264906 0.264906 0.264906 0.264906 0.264906 0.264906 0.264906 0.264906 0.264906 0.264906 0.264906 0.264906 0.264906 0.264906 0.264906 0.264906 0.264906 0.264906 0.264906 0.264906 0.264906 0.264906 0.264906 0.264906 0.264906 0.264906 0.264906 0.264906 0.264906 0.264906 0.264906 0.264906 0.264906 0.264906 0.264906 0.264906 0.264906 0.264906 0.264906 0.264906 0.264906 0.264906 0.264906 0.264906 0.264906 0.264906 0.264906 0.264906 0.264906 0.264906 0.264906 0.264906 0.264906 0.264906 0.264906 0.264906 0.264906 0.264906 0.264906 0.260378 0.260378 0.260378 0.260378 0.260378 0.260378 0.260378 0.260378 0.260378 0.260378 0.260378 0.260378 0.260378 0.274721 0.274721 0.274721 0.274721 0.274721 0.274721 0.274721 0.274721 0.274721 0.274721 0.274721 0.260378 0.260378 0.260378 0.260378 0.260378 0.260378 0.260378 0.260378 0.260378 0.260378 0.260378 0.260378 0.264906 0.264906 0.264906 0.264906 0.264906 0.264906 0.264906 0.264906 0.264906 0.264906 0.264906 0.269680 0.269680 0.269680 0.269680 0.269680 0.269680 0.269680 0.269680 0.269680 0.269680 0.264906 0.264906 0.264906 0.264906 0.264906 0.264906 0.264906 0.264906 0.264906 0.264906 0.260378 0.260378 0.260378 0.260378 0.260378 0.260378 0.260378 0.260378 0.260378 0.260378 0.264906 0.264906 0.264906 0.264906 0.264906 0.264906 0.264906 0.264906 0.264906 0.251976 0.251976 0.251976 0.251976 0.251976 0.251976 0.251976 0.251976 0.251976 0.251976 0.256074 0.256074 0.256074 0.256074 0.256074 0.256074 0.256074 0.256074 0.256074 0.269680 0.269680 0.269680 0.269680 0.269680 0.269680 0.269680 0.269680 0.269680 0.269680 0.269680 0.269680 0.269680 0.269680 0.269680 0.269680 0.269680
