# Output from CTFFind version 4.1.9, run on 2019-11-01 21:26:28
# Input file: bm3d_averaged_5_1.7_0.33_750_full.mrc ; Number of micrographs: 1
# Pixel size: 3.000 Angstroms ; acceleration voltage: 300.0 keV ; spherical aberration: 0.00 mm ; amplitude contrast: 0.07
# Box size: 512 pixels ; min. res.: 30.0 Angstroms ; max. res.: 5.0 Angstroms ; min. def.: 5000.0 um; max. def. 50000.0 um; num. frames averaged: 1
# 6 lines per micrograph: #1 - spatial frequency (1/Angstroms); #2 - 1D rotational average of spectrum (assuming no astigmatism); #3 - 1D rotational average of spectrum; #4 - CTF fit; #5 - cross-correlation between spectrum and CTF fit; #6 - 2sigma of expected cross correlation of noise
0.000000 0.000651 0.001302 0.001953 0.002604 0.003255 0.003906 0.004557 0.005208 0.005859 0.006510 0.007161 0.007812 0.008464 0.009115 0.009766 0.010417 0.011068 0.011719 0.012370 0.013021 0.013672 0.014323 0.014974 0.015625 0.016276 0.016927 0.017578 0.018229 0.018880 0.019531 0.020182 0.020833 0.021484 0.022135 0.022786 0.023438 0.024089 0.024740 0.025391 0.026042 0.026693 0.027344 0.027995 0.028646 0.029297 0.029948 0.030599 0.031250 0.031901 0.032552 0.033203 0.033854 0.034505 0.035156 0.035807 0.036458 0.037109 0.037760 0.038411 0.039062 0.039714 0.040365 0.041016 0.041667 0.042318 0.042969 0.043620 0.044271 0.044922 0.045573 0.046224 0.046875 0.047526 0.048177 0.048828 0.049479 0.050130 0.050781 0.051432 0.052083 0.052734 0.053385 0.054036 0.054688 0.055339 0.055990 0.056641 0.057292 0.057943 0.058594 0.059245 0.059896 0.060547 0.061198 0.061849 0.062500 0.063151 0.063802 0.064453 0.065104 0.065755 0.066406 0.067057 0.067708 0.068359 0.069010 0.069661 0.070312 0.070964 0.071615 0.072266 0.072917 0.073568 0.074219 0.074870 0.075521 0.076172 0.076823 0.077474 0.078125 0.078776 0.079427 0.080078 0.080729 0.081380 0.082031 0.082682 0.083333 0.083984 0.084635 0.085286 0.085938 0.086589 0.087240 0.087891 0.088542 0.089193 0.089844 0.090495 0.091146 0.091797 0.092448 0.093099 0.093750 0.094401 0.095052 0.095703 0.096354 0.097005 0.097656 0.098307 0.098958 0.099609 0.100260 0.100911 0.101562 0.102214 0.102865 0.103516 0.104167 0.104818 0.105469 0.106120 0.106771 0.107422 0.108073 0.108724 0.109375 0.110026 0.110677 0.111328 0.111979 0.112630 0.113281 0.113932 0.114583 0.115234 0.115885 0.116536 0.117188 0.117839 0.118490 0.119141 0.119792 0.120443 0.121094 0.121745 0.122396 0.123047 0.123698 0.124349 0.125000 0.125651 0.126302 0.126953 0.127604 0.128255 0.128906 0.129557 0.130208 0.130859 0.131510 0.132161 0.132812 0.133464 0.134115 0.134766 0.135417 0.136068 0.136719 0.137370 0.138021 0.138672 0.139323 0.139974 0.140625 0.141276 0.141927 0.142578 0.143229 0.143880 0.144531 0.145182 0.145833 0.146484 0.147135 0.147786 0.148438 0.149089 0.149740 0.150391 0.151042 0.151693 0.152344 0.152995 0.153646 0.154297 0.154948 0.155599 0.156250 0.156901 0.157552 0.158203 0.158854 0.159505 0.160156 0.160807 0.161458 0.162109 0.162760 0.163411 0.164062 0.164714 0.165365 0.166016 0.166667 0.167318 0.167969 0.168620 0.169271 0.169922 0.170573 0.171224 0.171875 0.172526 0.173177 0.173828 0.174479 0.175130 0.175781 0.176432 0.177083 0.177734 0.178385 0.179036 0.179688 0.180339 0.180990 0.181641 0.182292 0.182943 0.183594 0.184245 0.184896 0.185547 0.186198 0.186849 0.187500 0.188151 0.188802 0.189453 0.190104 0.190755 0.191406 0.192057 0.192708 0.193359 0.194010 0.194661 0.195312 0.195964 0.196615 0.197266 0.197917 0.198568 0.199219 0.199870 0.200521 0.201172 0.201823 0.202474 0.203125 0.203776 0.204427 0.205078 0.205729 0.206380 0.207031 0.207682 0.208333 0.208984 0.209635 0.210286 0.210938 0.211589 0.212240 0.212891 0.213542 0.214193 0.214844 0.215495 0.216146 0.216797 0.217448 0.218099 0.218750 0.219401 0.220052 0.220703 0.221354 0.222005 0.222656 0.223307 0.223958 0.224609 0.225260 0.225911 0.226562 0.227214 0.227865 0.228516 0.229167 0.229818 0.230469 0.231120 0.231771 0.232422 0.233073 0.233724 0.234375 0.235026 0.235677
       0.33916        0.33916        0.33916        0.33916        0.33916        0.33916        0.33916        0.33916        0.33916        0.33916        0.33916        0.33916        0.33916        0.33916        0.33916        0.33916        0.33916        0.33916        0.33916        0.33916        0.33916        0.33916        0.33916        0.33916        0.33916        0.33916        0.33916        0.33916        0.33916        0.33916        0.33916        0.33916        0.33916        0.33916        0.33916        0.33916        0.33916        0.33916        0.33916        0.33916        0.33916        0.33916        0.33916        0.33916        0.33916        0.33916        0.33916        0.33916        0.33916        0.33916        0.33916        0.41662        0.59974        0.29771        0.14193       -0.03827       -0.27297       -0.11268       -0.19752       -0.25342       -0.04806       -0.19942       -0.17278       -0.10068       -0.06838       -0.13533       -0.24990       -0.31782       -0.42895       -0.57634       -0.42144       -0.40415       -0.30466       -0.47265       -0.35319       -0.45196       -0.34122       -0.37631       -0.28803       -0.25018       -0.26936       -0.14136       -0.09977       -0.10877        0.01540        0.01074        0.20965        0.19671        0.31763        0.34839        0.44078        0.44901        0.50180        0.58167        0.63151        0.57359        0.53427        0.53570        0.52176        0.51168        0.47360        0.45033        0.41163        0.31246        0.33404        0.33631        0.35301        0.20154        0.12410        0.10350        0.14093        0.11033        0.14269        0.12511        0.17730        0.25660        0.31181        0.29360        0.34726        0.42413        0.38163        0.48104        0.58270        0.54864        0.52130        0.57150        0.56826        0.44379        0.53079        0.40594        0.29062        0.26222        0.22481        0.17810        0.19944        0.19224        0.13942        0.20945        0.26877        0.25451        0.34027        0.32512        0.40190        0.43660        0.46539        0.45656        0.47780        0.50135        0.44617        0.41611        0.36568        0.33453        0.35447        0.35591        0.29740        0.24492        0.25167        0.22205        0.22895        0.22699        0.28726        0.41553        0.41172        0.39210        0.43197        0.50570        0.47425        0.46555        0.46643        0.39173        0.38672        0.39177        0.35073        0.31188        0.27544        0.29685        0.25922        0.30615        0.28880        0.32687        0.38953        0.39034        0.41001        0.39678        0.37050        0.42002        0.37407        0.39549        0.32012        0.34524        0.29806        0.27941        0.32642        0.29823        0.28575        0.34320        0.34737        0.38739        0.41978        0.39715        0.41163        0.41652        0.36365        0.35494        0.33168        0.32502        0.32312        0.28958        0.33936        0.34052        0.36664        0.36003        0.31275        0.34156        0.38229        0.45277        0.42533        0.34269        0.31791        0.30739        0.33355        0.34542        0.36864        0.36461        0.32888        0.34769        0.32443        0.42478        0.35469        0.30912        0.36044        0.36937        0.34793        0.31136        0.31065        0.27980        0.33536        0.31559        0.28663        0.33541        0.33394        0.36344        0.30391        0.31296        0.29750        0.29165        0.27275        0.31323        0.33675        0.32125        0.32942        0.33670        0.34164        0.32872        0.31781        0.31768        0.32857        0.31721        0.30712        0.32855        0.32310        0.30394        0.29329        0.31175        0.33978        0.32853        0.32893        0.31809        0.28618        0.31981        0.33016        0.31283        0.29600        0.28817        0.35449        0.28289        0.28982        0.31554        0.34847        0.32542        0.30306        0.30494        0.28865        0.32656        0.38283        0.33446        0.30685        0.27459        0.27472        0.33035        0.35552        0.35508        0.29131        0.24867        0.22736        0.29819        0.28405        0.30479        0.32272        0.25575        0.29568        0.31241        0.31097        0.31376        0.32036        0.31329        0.28738        0.28155        0.32757        0.31325        0.27896        0.29767        0.31913        0.23990        0.28101        0.31019        0.32816        0.33234        0.29758        0.31422        0.28643        0.31198        0.33565        0.25097        0.27033        0.29957        0.35862        0.28918        0.26180        0.25625        0.33359        0.32771        0.30137        0.26256        0.29568        0.23472        0.25639        0.25191        0.24340        0.22284        0.29251        0.27883        0.25465        0.22341        0.20635        0.34862        0.30165        0.19000        0.22145        0.25650        0.19060        0.26144        0.15656        0.39743        0.26866        0.19850        0.28449        0.41567        0.17415        0.08451       -0.08280       -0.62801       -0.99169
2.805659 2.776717 2.747928 2.719293 2.690810 2.662481 2.634305 2.606283 2.578414 2.550698 2.523135 2.495726 2.468469 2.441366 2.414416 2.387620 2.360977 2.334487 2.308150 2.281966 2.255936 2.230059 2.204335 2.178765 2.153348 2.128084 2.102973 2.078015 2.053211 2.028560 2.004062 1.979718 1.955527 1.931489 1.907604 1.883872 1.860294 1.836869 1.813597 1.790479 1.767513 1.744701 1.722043 1.699537 1.677185 1.654986 1.632940 1.611048 1.589308 1.567722 1.546290 1.537367 1.985770 1.578310 1.200011 0.863193 0.246462 0.767744 0.306564 0.453299 0.682030 0.452847 0.368049 0.579588 0.564106 0.519231 0.218097 0.127267 -0.095348 -0.387693 -0.121235 -0.229933 0.203247 -0.357893 -0.082657 -0.289510 -0.074872 -0.208061 -0.045479 -0.022364 -0.064420 0.085617 0.234325 0.096766 0.332937 0.326074 0.683659 0.548465 0.827051 0.757257 0.916699 1.111583 0.906124 1.169408 1.304008 1.110875 1.058412 1.057769 1.059774 0.919145 0.924101 0.904616 0.752313 0.588167 0.683204 0.549252 0.596809 0.454577 0.218105 0.197335 0.176895 0.103683 0.238295 0.107085 0.148666 0.342206 0.375055 0.416850 0.504020 0.459441 0.568067 0.446806 0.827246 0.781589 0.733755 0.719727 0.790891 0.587641 0.587588 0.589777 0.243083 0.227196 0.124170 0.088534 0.008608 0.061065 -0.023361 -0.079797 0.207356 0.073711 0.169132 0.272685 0.266179 0.350515 0.478065 0.393787 0.401129 0.484026 0.381390 0.372710 0.206485 0.212238 0.175493 0.265268 0.054392 0.071842 -0.001008 -0.025515 -0.056587 -0.027726 -0.098475 0.159739 0.326118 0.229525 0.220689 0.299831 0.476857 0.314625 0.459622 0.300563 0.224895 0.193972 0.282589 0.020207 0.085760 0.000482 0.071998 0.003635 0.105618 0.020547 0.166779 0.145138 0.201901 0.228431 0.132041 0.240020 0.136114 0.165932 0.111436 0.098672 0.026111 -0.004250 -0.012856 0.033558 0.010347 -0.062347 0.082335 0.115114 0.214401 0.133945 0.214211 0.172412 0.115468 0.095129 0.060171 0.006878 0.031679 0.000995 -0.017279 0.033353 0.091725 0.093484 0.062908 -0.057937 0.078739 0.211740 0.231778 0.113741 0.016929 -0.007856 -0.043112 0.059987 0.060743 0.091102 0.076326 0.002732 0.034355 0.015479 0.156139 -0.061532 0.022771 0.092378 0.013246 0.040412 -0.017088 -0.040888 -0.063087 0.035562 -0.058191 -0.005948 -0.007982 0.063466 -0.044937 -0.014587 -0.024582 -0.059735 -0.044569 -0.067903 -0.020489 0.061054 -0.011142 0.049113 0.004640 0.053724 -0.001355 0.007402 0.026878 0.023443 -0.005066 -0.021270 0.038609 0.034269 -0.007631 -0.038994 0.015870 0.076283 0.003771 0.071022 -0.019654 -0.051352 0.040682 0.061407 -0.016500 -0.017143 -0.022014 0.112344 -0.075702 -0.001157 0.059659 0.071200 0.014063 0.024969 -0.024494 0.012078 0.124020 0.119589 0.053611 0.006562 -0.025741 0.009115 0.061743 0.160017 0.115774 0.004116 -0.035198 -0.104225 0.071846 0.021186 0.050746 0.156520 -0.024115 0.105761 0.104312 0.103596 0.053073 0.163430 0.052272 0.040800 0.006228 0.166993 0.111323 -0.032556 0.127527 0.101772 -0.027879 0.071526 0.061542 0.142939 0.163305 0.037996 0.067062 -0.044827 0.099470 0.104296 -0.054775 -0.007935 0.082644 0.136797 0.053086 -0.091652 0.047216 0.106276 0.065221 0.045409 -0.027056 0.117453 -0.071702 0.015327 -0.095447 -0.032462 -0.033574 0.065874 0.066766 0.072637 0.006645 -0.046635 0.261186 0.022394 -0.079328 0.108355 0.064790 0.019350 0.172307 -0.197614 0.411831 0.119594 0.334242 0.519811 0.657794 0.245898 0.118537 -0.130880 -1.669907
0.072396 0.072903 0.074425 0.076960 0.080509 0.085070 0.090642 0.097223 0.104812 0.113405 0.122999 0.133590 0.145172 0.157738 0.171281 0.185791 0.201257 0.217666 0.235002 0.253247 0.272382 0.292382 0.313222 0.334870 0.357293 0.380452 0.404306 0.428806 0.453902 0.479536 0.505644 0.532159 0.559005 0.586101 0.613361 0.640691 0.667989 0.695147 0.722052 0.748581 0.774607 0.799993 0.824597 0.848273 0.870863 0.892210 0.912146 0.930502 0.947105 0.961777 0.974338 0.984609 0.992409 0.997558 0.999880 0.999203 0.995359 0.988189 0.977543 0.963283 0.945282 0.923431 0.897637 0.867828 0.833952 0.795985 0.753925 0.707803 0.657678 0.603645 0.545831 0.484402 0.419561 0.351549 0.280652 0.207192 0.131534 0.054087 0.024705 0.104355 0.184340 0.264101 0.343049 0.420564 0.496003 0.568704 0.637991 0.703181 0.763588 0.818537 0.867366 0.909437 0.944144 0.970925 0.989268 0.998724 0.998914 0.989543 0.970402 0.941385 0.902490 0.853833 0.795647 0.728293 0.652262 0.568173 0.476778 0.378959 0.275720 0.168186 0.057592 0.054732 0.167368 0.278831 0.387585 0.492067 0.590704 0.681943 0.764276 0.836266 0.896575 0.943992 0.977465 0.996121 0.999297 0.986563 0.957741 0.912921 0.852481 0.777086 0.687700 0.585577 0.472259 0.349553 0.219516 0.084425 0.053258 0.190930 0.325889 0.455392 0.576705 0.687169 0.784256 0.865638 0.929247 0.973332 0.996517 0.997855 0.976864 0.933567 0.868512 0.782784 0.678005 0.556316 0.420350 0.273181 0.118271 0.040608 0.199456 0.354150 0.500540 0.634574 0.752408 0.850523 0.925845 0.975848 0.998653 0.993113 0.958875 0.896427 0.807116 0.693147 0.557543 0.404090 0.237243 0.062013 0.116175 0.291644 0.458645 0.611546 0.745024 0.854271 0.935171 0.984474 0.999948 0.980496 0.926239 0.838558 0.720093 0.574689 0.407299 0.223835 0.030980 0.164052 0.353765 0.530685 0.687645 0.818093 0.916385 0.978040 0.999975 0.980686 0.920362 0.820939 0.686078 0.521067 0.332637 0.128722 0.081865 0.289792 0.485626 0.660262 0.805353 0.913739 0.979814 0.999857 0.972266 0.897710 0.779169 0.621858 0.433050 0.221756 0.001660 0.225983 0.439696 0.631577 0.791298 0.910002 0.980828 0.999343 0.963858 0.875609 0.738774 0.560333 0.349753 0.118531 0.120410 0.353428 0.566934 0.748200 0.886130 0.971983 0.999965 0.967669 0.876321 0.730808 0.539481 0.313730 0.067351 0.184274 0.425111 0.639504 0.813206 0.934354 0.994331 0.988424 0.916259 0.781937 0.593883 0.364385 0.108836 0.155256 0.409443 0.635626 0.817357 0.941083 0.997192 0.980837 0.892408 0.737644 0.527355 0.276714 0.004246 0.269521 0.523590 0.738090 0.895891 0.983995 0.994693 0.926301 0.783457 0.576903 0.322751 0.041308 0.244506 0.511010 0.735718 0.899275 0.987181 0.991152 0.909980 0.749816 0.523809 0.251114 0.044654 0.337432 0.600978 0.811244 0.948620 0.999831 0.959311 0.829904 0.622783 0.356612 0.055940 0.251006 0.534931 0.768279 0.927955 0.997679 0.969742 0.845969 0.637746 0.365103 0.054876 0.261870 0.552893 0.788107 0.942702 0.999868 0.952725 0.805264 0.572162 0.277455 0.047851 0.368968 0.651033 0.862915 0.980716 0.990576 0.890430 0.690484 0.412327 0.086732 0.249673 0.558471 0.803863 0.956859 0.998826 0.923872 0.739813 0.467527 0.138721 0.207643 0.529931 0.788823 0.952175 0.999123 0.922877 0.731859 0.448952 0.108900 0.245828 0.570307 0.822847 0.970415 0.993081 0.886863 0.664575 0.354441 0.003315 0.361579 0.672530
1.000000 1.000000 1.000000 1.000000 1.000000 1.000000 1.000000 1.000000 1.000000 1.000000 1.000000 1.000000 1.000000 1.000000 1.000000 1.000000 1.000000 1.000000 1.000000 1.000000 1.000000 1.000000 1.000000 1.000000 1.000000 1.000000 1.000000 1.000000 1.000000 1.000000 1.000000 1.000000 1.000000 1.000000 1.000000 1.000000 1.000000 1.000000 1.000000 1.000000 1.000000 1.000000 1.000000 1.000000 1.000000 1.000000 1.000000 1.000000 1.000000 1.000000 1.000000 1.000000 0.841577 0.841577 0.841577 0.823030 0.823030 0.823030 0.823030 0.823030 0.823030 0.823030 0.823030 0.823030 0.823030 0.823030 0.823030 0.823030 0.823030 0.823030 0.823030 0.823030 0.823030 0.823030 0.823030 0.823030 0.823030 0.823030 0.823030 0.823030 0.823030 0.823030 0.823030 0.823030 0.823030 0.823030 0.823030 0.823030 0.823030 0.823030 0.823030 0.823030 0.823030 0.823030 0.823030 0.823030 0.841130 0.844526 0.845138 0.850588 0.853947 0.848456 0.846795 0.845163 0.844802 0.846346 0.858294 0.883937 0.889461 0.899975 0.911700 0.918051 0.920496 0.915278 0.924832 0.927809 0.954294 0.952304 0.949894 0.950851 0.953991 0.953276 0.952098 0.945407 0.954524 0.953602 0.951748 0.943743 0.942567 0.937727 0.937182 0.934337 0.934089 0.935791 0.935935 0.936572 0.936942 0.937231 0.934816 0.931970 0.931455 0.930999 0.933241 0.918040 0.915737 0.906436 0.904745 0.906349 0.902486 0.900554 0.902510 0.903608 0.903378 0.890375 0.890385 0.881880 0.879428 0.875581 0.873313 0.874817 0.877489 0.881714 0.881794 0.882709 0.864879 0.862249 0.857309 0.850790 0.848543 0.847285 0.849332 0.845804 0.848070 0.847223 0.839395 0.831450 0.823317 0.815816 0.814992 0.821197 0.826723 0.828703 0.836365 0.835669 0.755513 0.759789 0.766203 0.754148 0.721142 0.710611 0.714956 0.712938 0.703800 0.700693 0.698258 0.687396 0.669084 0.635982 0.636004 0.571704 0.553084 0.622399 0.563793 0.527243 0.554443 0.540620 0.554887 0.562547 0.583884 0.599608 0.586322 0.567096 0.556682 0.525064 0.535445 0.499291 0.485571 0.471019 0.474564 0.484566 0.469066 0.392145 0.391699 0.380176 0.379640 0.393087 0.386901 0.375220 0.371818 0.351487 0.332104 0.330028 0.276682 0.242572 0.243696 0.234280 0.222494 0.226313 0.224001 0.249821 0.245143 0.238910 0.201628 0.232368 0.239092 0.213939 0.189318 0.155341 0.146629 0.160736 0.161352 0.155452 0.157228 0.190461 0.206820 0.211260 0.171175 0.124329 0.161633 0.147698 0.129877 0.132514 0.142971 0.139542 0.098294 0.056774 0.078784 0.078511 0.115838 0.083032 0.106123 0.116395 0.159058 0.133314 0.136050 0.106859 0.078293 0.131587 0.090573 0.080633 0.058838 0.090230 0.084948 0.067138 0.065235 0.047141 0.090302 0.087719 0.076456 0.120868 0.116348 0.125712 0.138488 0.105519 0.153063 0.164945 0.144104 0.163989 0.155028 0.132936 0.192789 0.146771 0.144078 0.139481 0.123161 0.134482 0.172333 0.161435 0.132802 0.154123 0.117538 0.113550 0.073375 0.008729 0.011768 0.023171 0.009859 0.047164 0.054260 0.048066 0.036013 0.042695 0.035296 0.018070 -0.018503 -0.010761 0.006989 -0.011732 -0.060844 -0.070257 -0.022437 0.020150 0.043845 0.033599 0.026923 0.026923 0.026923 0.026923 0.033003 0.033003 0.033003 0.033003 0.033003 0.033003 0.033003 0.033003 0.033003 0.034342 0.034342 0.034342 0.034342 0.034342 0.034342 0.034342 0.034342 0.034342 0.034342 0.034342 0.034342 0.034342 0.034342 0.034342 0.034342
0.000000 0.000000 0.000000 0.000000 0.000000 0.000000 0.000000 0.000000 0.000000 0.000000 0.000000 0.000000 0.000000 0.000000 0.000000 0.000000 0.000000 0.000000 0.000000 0.000000 0.000000 0.000000 0.000000 0.000000 0.000000 0.000000 0.000000 0.000000 0.000000 0.000000 0.000000 0.000000 0.000000 0.000000 0.000000 0.000000 0.000000 0.000000 0.000000 0.000000 0.000000 0.000000 0.000000 0.000000 0.000000 0.000000 0.000000 0.000000 0.000000 0.000000 0.000000 0.000000 0.180334 0.180334 0.180334 0.199007 0.199007 0.199007 0.199007 0.199007 0.199007 0.199007 0.199007 0.199007 0.199007 0.199007 0.199007 0.199007 0.199007 0.199007 0.199007 0.199007 0.199007 0.199007 0.199007 0.199007 0.199007 0.199007 0.199007 0.199007 0.199007 0.199007 0.199007 0.199007 0.199007 0.199007 0.199007 0.199007 0.199007 0.199007 0.199007 0.199007 0.199007 0.199007 0.199007 0.199007 0.230940 0.230940 0.230940 0.230940 0.230940 0.230940 0.230940 0.230940 0.230940 0.230940 0.230940 0.230940 0.230940 0.230940 0.230940 0.230940 0.230940 0.230940 0.230940 0.230940 0.230940 0.230940 0.230940 0.230940 0.230940 0.230940 0.230940 0.230940 0.244339 0.244339 0.244339 0.244339 0.244339 0.244339 0.244339 0.244339 0.244339 0.244339 0.244339 0.244339 0.244339 0.244339 0.244339 0.244339 0.244339 0.244339 0.244339 0.244339 0.244339 0.244339 0.244339 0.251976 0.251976 0.251976 0.251976 0.251976 0.251976 0.251976 0.251976 0.251976 0.251976 0.251976 0.251976 0.251976 0.251976 0.251976 0.251976 0.251976 0.251976 0.251976 0.251976 0.264906 0.264906 0.264906 0.264906 0.264906 0.264906 0.264906 0.264906 0.264906 0.264906 0.264906 0.264906 0.264906 0.264906 0.264906 0.264906 0.264906 0.256074 0.256074 0.256074 0.256074 0.256074 0.256074 0.256074 0.256074 0.256074 0.256074 0.256074 0.256074 0.256074 0.256074 0.256074 0.256074 0.256074 0.269680 0.269680 0.269680 0.269680 0.269680 0.269680 0.269680 0.269680 0.269680 0.269680 0.269680 0.269680 0.269680 0.269680 0.264906 0.264906 0.264906 0.264906 0.264906 0.264906 0.264906 0.264906 0.264906 0.264906 0.264906 0.264906 0.264906 0.264906 0.264906 0.264906 0.264906 0.264906 0.264906 0.264906 0.264906 0.264906 0.264906 0.264906 0.264906 0.264906 0.264906 0.260378 0.260378 0.260378 0.260378 0.260378 0.260378 0.260378 0.260378 0.260378 0.260378 0.260378 0.260378 0.260378 0.264906 0.264906 0.264906 0.264906 0.264906 0.264906 0.264906 0.264906 0.264906 0.264906 0.264906 0.264906 0.269680 0.269680 0.269680 0.269680 0.269680 0.269680 0.269680 0.269680 0.269680 0.269680 0.269680 0.264906 0.264906 0.264906 0.264906 0.264906 0.264906 0.264906 0.264906 0.264906 0.264906 0.264906 0.256074 0.256074 0.256074 0.256074 0.256074 0.256074 0.256074 0.256074 0.256074 0.256074 0.256074 0.264906 0.264906 0.264906 0.264906 0.264906 0.264906 0.264906 0.264906 0.264906 0.264906 0.260378 0.260378 0.260378 0.260378 0.260378 0.260378 0.260378 0.260378 0.260378 0.260378 0.264906 0.264906 0.264906 0.264906 0.264906 0.264906 0.264906 0.264906 0.264906 0.260378 0.260378 0.260378 0.260378 0.260378 0.260378 0.260378 0.260378 0.260378 0.256074 0.256074 0.256074 0.256074 0.256074 0.256074 0.256074 0.256074 0.256074 0.251976 0.251976 0.251976 0.251976 0.251976 0.251976 0.251976 0.251976 0.251976 0.251976 0.251976 0.251976 0.251976 0.251976 0.251976 0.251976
