# Output from CTFFind version 4.1.9, run on 2019-11-01 21:27:07
# Input file: bm3d_averaged_5_1.7_0.33_3000_full.mrc ; Number of micrographs: 1
# Pixel size: 3.000 Angstroms ; acceleration voltage: 300.0 keV ; spherical aberration: 0.00 mm ; amplitude contrast: 0.07
# Box size: 512 pixels ; min. res.: 30.0 Angstroms ; max. res.: 5.0 Angstroms ; min. def.: 5000.0 um; max. def. 50000.0 um; num. frames averaged: 1
# 6 lines per micrograph: #1 - spatial frequency (1/Angstroms); #2 - 1D rotational average of spectrum (assuming no astigmatism); #3 - 1D rotational average of spectrum; #4 - CTF fit; #5 - cross-correlation between spectrum and CTF fit; #6 - 2sigma of expected cross correlation of noise
0.000000 0.000651 0.001302 0.001953 0.002604 0.003255 0.003906 0.004557 0.005208 0.005859 0.006510 0.007161 0.007812 0.008464 0.009115 0.009766 0.010417 0.011068 0.011719 0.012370 0.013021 0.013672 0.014323 0.014974 0.015625 0.016276 0.016927 0.017578 0.018229 0.018880 0.019531 0.020182 0.020833 0.021484 0.022135 0.022786 0.023438 0.024089 0.024740 0.025391 0.026042 0.026693 0.027344 0.027995 0.028646 0.029297 0.029948 0.030599 0.031250 0.031901 0.032552 0.033203 0.033854 0.034505 0.035156 0.035807 0.036458 0.037109 0.037760 0.038411 0.039062 0.039714 0.040365 0.041016 0.041667 0.042318 0.042969 0.043620 0.044271 0.044922 0.045573 0.046224 0.046875 0.047526 0.048177 0.048828 0.049479 0.050130 0.050781 0.051432 0.052083 0.052734 0.053385 0.054036 0.054688 0.055339 0.055990 0.056641 0.057292 0.057943 0.058594 0.059245 0.059896 0.060547 0.061198 0.061849 0.062500 0.063151 0.063802 0.064453 0.065104 0.065755 0.066406 0.067057 0.067708 0.068359 0.069010 0.069661 0.070312 0.070964 0.071615 0.072266 0.072917 0.073568 0.074219 0.074870 0.075521 0.076172 0.076823 0.077474 0.078125 0.078776 0.079427 0.080078 0.080729 0.081380 0.082031 0.082682 0.083333 0.083984 0.084635 0.085286 0.085938 0.086589 0.087240 0.087891 0.088542 0.089193 0.089844 0.090495 0.091146 0.091797 0.092448 0.093099 0.093750 0.094401 0.095052 0.095703 0.096354 0.097005 0.097656 0.098307 0.098958 0.099609 0.100260 0.100911 0.101562 0.102214 0.102865 0.103516 0.104167 0.104818 0.105469 0.106120 0.106771 0.107422 0.108073 0.108724 0.109375 0.110026 0.110677 0.111328 0.111979 0.112630 0.113281 0.113932 0.114583 0.115234 0.115885 0.116536 0.117188 0.117839 0.118490 0.119141 0.119792 0.120443 0.121094 0.121745 0.122396 0.123047 0.123698 0.124349 0.125000 0.125651 0.126302 0.126953 0.127604 0.128255 0.128906 0.129557 0.130208 0.130859 0.131510 0.132161 0.132812 0.133464 0.134115 0.134766 0.135417 0.136068 0.136719 0.137370 0.138021 0.138672 0.139323 0.139974 0.140625 0.141276 0.141927 0.142578 0.143229 0.143880 0.144531 0.145182 0.145833 0.146484 0.147135 0.147786 0.148438 0.149089 0.149740 0.150391 0.151042 0.151693 0.152344 0.152995 0.153646 0.154297 0.154948 0.155599 0.156250 0.156901 0.157552 0.158203 0.158854 0.159505 0.160156 0.160807 0.161458 0.162109 0.162760 0.163411 0.164062 0.164714 0.165365 0.166016 0.166667 0.167318 0.167969 0.168620 0.169271 0.169922 0.170573 0.171224 0.171875 0.172526 0.173177 0.173828 0.174479 0.175130 0.175781 0.176432 0.177083 0.177734 0.178385 0.179036 0.179688 0.180339 0.180990 0.181641 0.182292 0.182943 0.183594 0.184245 0.184896 0.185547 0.186198 0.186849 0.187500 0.188151 0.188802 0.189453 0.190104 0.190755 0.191406 0.192057 0.192708 0.193359 0.194010 0.194661 0.195312 0.195964 0.196615 0.197266 0.197917 0.198568 0.199219 0.199870 0.200521 0.201172 0.201823 0.202474 0.203125 0.203776 0.204427 0.205078 0.205729 0.206380 0.207031 0.207682 0.208333 0.208984 0.209635 0.210286 0.210938 0.211589 0.212240 0.212891 0.213542 0.214193 0.214844 0.215495 0.216146 0.216797 0.217448 0.218099 0.218750 0.219401 0.220052 0.220703 0.221354 0.222005 0.222656 0.223307 0.223958 0.224609 0.225260 0.225911 0.226562 0.227214 0.227865 0.228516 0.229167 0.229818 0.230469 0.231120 0.231771 0.232422 0.233073 0.233724 0.234375 0.235026 0.235677
       0.33773        0.33773        0.33773        0.33773        0.33773        0.33773        0.33773        0.33773        0.33773        0.33773        0.33773        0.33773        0.33773        0.33773        0.33773        0.33773        0.33773        0.33773        0.33773        0.33773        0.33773        0.33773        0.33773        0.33773        0.33773        0.33773        0.33773        0.33773        0.33773        0.33773        0.33773        0.33773        0.33773        0.33773        0.33773        0.33773        0.33773        0.33773        0.33773        0.33773        0.33773        0.33773        0.33773        0.33773        0.33773        0.33773        0.33773        0.33773        0.33773        0.33773        0.33773        0.41522        0.59943        0.29576        0.13943       -0.03854       -0.27339       -0.11318       -0.19814       -0.25439       -0.04826       -0.20040       -0.17426       -0.10153       -0.07106       -0.13744       -0.24668       -0.31861       -0.42946       -0.57865       -0.42474       -0.40652       -0.30392       -0.47375       -0.35539       -0.45211       -0.34460       -0.38132       -0.29329       -0.25195       -0.27351       -0.14379       -0.10192       -0.11101        0.01280        0.00656        0.20523        0.19460        0.31775        0.34909        0.44450        0.44992        0.50175        0.58195        0.63320        0.57432        0.53475        0.53584        0.52330        0.51270        0.47315        0.44763        0.40802        0.31119        0.33588        0.33382        0.35298        0.20336        0.12413        0.10036        0.13714        0.10993        0.14157        0.12210        0.16939        0.25159        0.30933        0.29152        0.34557        0.42495        0.38012        0.47752        0.57977        0.54607        0.52009        0.56930        0.56816        0.44198        0.52975        0.40033        0.28510        0.26094        0.22332        0.17572        0.19788        0.18935        0.13558        0.20760        0.26909        0.25538        0.33840        0.32399        0.39862        0.43660        0.46615        0.45637        0.47617        0.50081        0.44623        0.41627        0.36797        0.33421        0.35117        0.35183        0.29598        0.24518        0.24933        0.22699        0.22963        0.22239        0.28601        0.41218        0.40711        0.38871        0.43005        0.50614        0.47414        0.46301        0.46475        0.39152        0.38634        0.38942        0.35001        0.31339        0.27499        0.29821        0.25818        0.30283        0.28418        0.32324        0.38823        0.39122        0.41415        0.39998        0.37091        0.41449        0.37083        0.39414        0.31798        0.34493        0.30048        0.27982        0.32567        0.29485        0.27829        0.34112        0.34917        0.38795        0.41760        0.39456        0.41241        0.41054        0.35897        0.35159        0.32789        0.32076        0.32329        0.28794        0.33346        0.33306        0.36191        0.35772        0.31391        0.34459        0.38345        0.45050        0.42518        0.34632        0.31852        0.30668        0.32903        0.34481        0.36875        0.36294        0.32708        0.34587        0.32338        0.42564        0.35469        0.30953        0.35906        0.36134        0.34427        0.30923        0.31170        0.28051        0.33611        0.31538        0.28402        0.33262        0.33166        0.36221        0.30438        0.31335        0.29448        0.28744        0.27126        0.31406        0.33614        0.31869        0.33256        0.33746        0.34179        0.32373        0.31861        0.31937        0.32780        0.31443        0.30454        0.32739        0.31974        0.30162        0.29262        0.30825        0.33609        0.32734        0.32608        0.31610        0.28485        0.31629        0.32269        0.30891        0.29033        0.28547        0.35158        0.27981        0.28933        0.30952        0.34465        0.32428        0.30820        0.29897        0.28536        0.32904        0.38224        0.33200        0.30880        0.27593        0.27790        0.32568        0.35235        0.34967        0.28977        0.25023        0.23279        0.29804        0.28408        0.30558        0.32069        0.25270        0.29310        0.31222        0.30931        0.31538        0.31432        0.31198        0.28169        0.28476        0.32442        0.31352        0.27168        0.29338        0.31647        0.24566        0.28462        0.31214        0.33253        0.33166        0.29654        0.31415        0.28267        0.31471        0.33523        0.25312        0.27174        0.29522        0.35780        0.29215        0.25933        0.25412        0.33336        0.32174        0.29999        0.25937        0.29219        0.22678        0.24764        0.25447        0.24023        0.21806        0.29356        0.27366        0.25048        0.21683        0.21579        0.35534        0.30935        0.19351        0.22450        0.25667        0.18551        0.26023        0.14271        0.37466        0.25927        0.18027        0.27960        0.40206        0.16985        0.08729       -0.07074       -0.61669       -0.96103
2.903772 2.873171 2.842736 2.812466 2.782362 2.752422 2.722649 2.693040 2.663596 2.634319 2.605206 2.576259 2.547476 2.518860 2.490408 2.462122 2.434002 2.406046 2.378256 2.350631 2.323172 2.295877 2.268749 2.241785 2.214987 2.188354 2.161886 2.135584 2.109447 2.083475 2.057669 2.032028 2.006552 1.981242 1.956097 1.931117 1.906303 1.881654 1.857170 1.832851 1.808698 1.784710 1.760888 1.737231 1.713739 1.690412 1.667251 1.644255 1.621424 1.598759 1.576259 1.566428 2.024074 1.606318 1.217564 0.880625 0.250949 0.781873 0.310280 0.460566 0.692357 0.457659 0.368978 0.587659 0.565799 0.520183 0.223200 0.125919 -0.102838 -0.404845 -0.134312 -0.247941 0.203412 -0.371576 -0.100493 -0.299233 -0.092760 -0.227473 -0.067157 -0.035504 -0.083304 0.072294 0.224749 0.080726 0.322794 0.311143 0.674147 0.541104 0.826163 0.756317 0.925379 1.118749 0.907340 1.175142 1.312849 1.074687 1.098277 1.060467 1.063608 0.917884 0.927177 0.897654 0.740993 0.575768 0.679309 0.538992 0.588850 0.444919 0.205001 0.176684 0.155104 0.086055 0.220463 0.087985 0.119313 0.317548 0.356683 0.400332 0.490845 0.447039 0.558359 0.430421 0.816380 0.782864 0.713449 0.705616 0.783702 0.576669 0.577669 0.572576 0.216300 0.208735 0.102658 0.069408 -0.012919 0.037179 -0.048191 -0.105402 0.190945 0.060646 0.151596 0.254206 0.249294 0.335470 0.471273 0.382246 0.399154 0.458432 0.376835 0.361211 0.195790 0.205146 0.158598 0.248978 0.033906 0.061036 -0.020172 -0.033991 -0.062124 -0.049247 -0.121064 0.150226 0.313534 0.213100 0.208712 0.292893 0.508500 0.324784 0.454370 0.309833 0.235493 0.198408 0.291200 0.027712 0.094622 0.007394 0.083299 0.004300 0.112133 0.019350 0.171930 0.156042 0.215158 0.249201 0.145678 0.236539 0.133174 0.164170 0.115800 0.095664 0.031964 -0.000799 -0.014046 0.035343 0.000010 -0.070048 0.081086 0.119620 0.225207 0.148835 0.167014 0.221806 0.111843 0.089095 0.062399 0.004136 0.030744 0.008310 -0.018204 0.025604 0.084564 0.096020 0.061912 -0.048479 0.077425 0.187579 0.262625 0.120303 0.026298 -0.009658 -0.043050 0.056656 0.058859 0.097526 0.078166 -0.003942 0.028830 0.032520 0.152132 -0.025338 0.004259 0.090724 0.003780 0.034373 -0.018610 -0.039976 -0.059775 0.035837 -0.063568 -0.009578 -0.013176 0.057125 -0.011964 -0.023363 -0.028253 -0.067653 -0.052605 -0.070649 -0.015912 0.056093 -0.015289 0.053755 0.014660 0.046131 -0.007221 0.008381 0.030836 0.015796 -0.002275 -0.026305 0.037089 0.031828 -0.012326 -0.041268 0.019721 0.057198 0.019670 0.066728 -0.027861 -0.048892 0.031596 0.054028 -0.020636 -0.023173 -0.022449 0.110643 -0.082791 0.011615 0.023747 0.086775 0.022789 0.036720 -0.032337 0.014851 0.137594 0.120170 0.054781 0.012632 -0.008077 0.002560 0.052185 0.159842 0.104499 0.008219 -0.035571 -0.096916 0.070009 0.023995 0.087583 0.030440 -0.054571 0.100773 0.102090 0.101362 0.049248 0.152743 0.047993 0.028392 0.009218 0.164871 0.106999 -0.057634 0.122008 0.094624 -0.019859 0.063350 0.079293 0.146524 0.096244 0.040298 0.128361 -0.058605 0.123898 0.093079 -0.059231 0.000041 0.075873 0.151216 0.038541 -0.082082 0.047603 0.126077 0.060933 0.048072 -0.025474 0.107950 -0.079980 -0.018581 -0.024649 -0.034388 -0.040756 0.075838 0.061989 0.085878 -0.001120 -0.039750 0.309813 0.009258 -0.076572 0.121421 0.075317 0.014407 0.179262 -0.225762 0.382445 0.131219 0.310331 0.519784 0.650044 0.229133 0.126419 -0.112078 -1.646032
0.072396 0.072904 0.074427 0.076964 0.080516 0.085081 0.090658 0.097246 0.104841 0.113442 0.123045 0.133645 0.145237 0.157814 0.171369 0.185892 0.201372 0.217795 0.235146 0.253407 0.272558 0.292576 0.313432 0.335098 0.357539 0.380717 0.404589 0.429108 0.454222 0.479874 0.506000 0.532531 0.559393 0.586505 0.613779 0.641121 0.668430 0.695598 0.722509 0.749043 0.775070 0.800454 0.825054 0.848721 0.871299 0.892628 0.912543 0.930872 0.947443 0.962077 0.974595 0.984816 0.992560 0.997647 0.999900 0.999146 0.995219 0.987960 0.977217 0.962853 0.944743 0.922776 0.896860 0.866924 0.832916 0.794812 0.752613 0.706349 0.656082 0.601906 0.543950 0.482381 0.417405 0.349264 0.278244 0.204671 0.128912 0.051376 0.027490 0.107197 0.187219 0.266998 0.345939 0.423424 0.498806 0.571423 0.640596 0.705641 0.765873 0.820616 0.869206 0.911007 0.945414 0.971865 0.989851 0.998924 0.998709 0.988912 0.969331 0.939862 0.900509 0.851392 0.792752 0.724956 0.648500 0.564011 0.472249 0.374102 0.270582 0.162821 0.052060 0.060364 0.173028 0.284441 0.393064 0.497330 0.595664 0.686514 0.768373 0.839804 0.899476 0.946183 0.978881 0.996706 0.999008 0.985369 0.955624 0.909882 0.848535 0.772268 0.682061 0.579189 0.465211 0.341952 0.211487 0.076108 0.061713 0.199359 0.334121 0.463251 0.584014 0.693753 0.789951 0.870289 0.932713 0.975495 0.997284 0.997158 0.974670 0.929875 0.863359 0.776245 0.670191 0.547378 0.410472 0.262582 0.107198 0.051883 0.210644 0.364951 0.510653 0.643703 0.760269 0.856858 0.930429 0.978495 0.999228 0.991536 0.955127 0.890554 0.799233 0.683434 0.546247 0.391517 0.223753 0.048012 0.130250 0.305337 0.471489 0.623088 0.754838 0.861973 0.940435 0.987050 0.999670 0.977296 0.920152 0.829727 0.708769 0.561227 0.392146 0.207524 0.014104 0.180852 0.369832 0.545362 0.700310 0.828183 0.923423 0.981658 0.999937 0.976900 0.912895 0.810019 0.672092 0.504547 0.314252 0.109241 0.101590 0.308877 0.503178 0.675434 0.817382 0.921982 0.983791 0.999276 0.967048 0.888002 0.765344 0.604511 0.412969 0.199896 0.024224 0.248103 0.460214 0.649378 0.805380 0.919531 0.985188 0.998184 0.957122 0.863546 0.721940 0.539571 0.326157 0.093387 0.145686 0.377367 0.588108 0.765295 0.898043 0.977889 0.999382 0.960496 0.862864 0.711772 0.515944 0.287087 0.039228 0.212100 0.450838 0.661415 0.829783 0.944396 0.997038 0.983470 0.903826 0.762730 0.569089 0.335613 0.078016 0.185990 0.437913 0.659755 0.835324 0.951468 0.999095 0.973955 0.877087 0.714874 0.498703 0.244250 0.029625 0.302221 0.552561 0.761007 0.910839 0.989647 0.990429 0.912287 0.760650 0.547000 0.288079 0.004649 0.280144 0.542620 0.760563 0.915128 0.992530 0.985351 0.893341 0.723605 0.490160 0.212879 0.084147 0.374665 0.632552 0.834192 0.960700 0.999745 0.946865 0.806049 0.589577 0.317035 0.013652 0.292001 0.570655 0.795182 0.943264 0.999702 0.958063 0.821531 0.602794 0.322989 0.009756 0.305432 0.590404 0.815586 0.957134 0.999539 0.937436 0.776402 0.532597 0.231260 0.095788 0.413473 0.687187 0.886614 0.989150 0.982575 0.866638 0.653342 0.365839 0.036056 0.298790 0.600342 0.833523 0.970669 0.994928 0.902464 0.703180 0.419818 0.085507 0.260017 0.575084 0.821132 0.967486 0.995297 0.900115 0.692735 0.398148 0.052681 0.300394 0.616224 0.854084 0.982725 0.984597 0.858406 0.619605 0.298666 0.062616 0.416535 0.715701
1.000000 1.000000 1.000000 1.000000 1.000000 1.000000 1.000000 1.000000 1.000000 1.000000 1.000000 1.000000 1.000000 1.000000 1.000000 1.000000 1.000000 1.000000 1.000000 1.000000 1.000000 1.000000 1.000000 1.000000 1.000000 1.000000 1.000000 1.000000 1.000000 1.000000 1.000000 1.000000 1.000000 1.000000 1.000000 1.000000 1.000000 1.000000 1.000000 1.000000 1.000000 1.000000 1.000000 1.000000 1.000000 1.000000 1.000000 1.000000 1.000000 1.000000 1.000000 1.000000 0.837170 0.837170 0.837170 0.816994 0.816994 0.816994 0.816994 0.816994 0.816994 0.816994 0.816994 0.816994 0.816994 0.816994 0.816994 0.816994 0.816994 0.816994 0.816994 0.816994 0.816994 0.816994 0.816994 0.816994 0.816994 0.816994 0.816994 0.816994 0.816994 0.816994 0.816994 0.816994 0.816994 0.816994 0.816994 0.816994 0.816994 0.816994 0.816994 0.816994 0.816994 0.816994 0.816994 0.816994 0.833181 0.837715 0.838362 0.843875 0.847234 0.842001 0.839974 0.838149 0.837807 0.839412 0.851321 0.876762 0.882292 0.892684 0.906460 0.912620 0.915140 0.909910 0.919568 0.922697 0.948492 0.946553 0.943824 0.944910 0.948164 0.947746 0.946780 0.939682 0.948448 0.947773 0.946094 0.937553 0.936256 0.932045 0.931127 0.928116 0.927853 0.930085 0.930279 0.930946 0.931552 0.933557 0.931159 0.929110 0.927999 0.927487 0.929839 0.915580 0.911994 0.904111 0.904666 0.906048 0.902021 0.900641 0.902676 0.903619 0.903576 0.892416 0.892064 0.882678 0.880287 0.876488 0.874312 0.876325 0.878962 0.882770 0.883749 0.884638 0.865301 0.862138 0.856887 0.851023 0.848407 0.847122 0.849266 0.845324 0.842954 0.843957 0.833848 0.823581 0.814828 0.806359 0.806265 0.812514 0.819348 0.822321 0.832193 0.830963 0.824270 0.758035 0.721095 0.722015 0.731084 0.726717 0.712949 0.711136 0.711404 0.707801 0.693681 0.677463 0.668161 0.647894 0.626626 0.603589 0.616620 0.592664 0.571872 0.576387 0.548489 0.572429 0.571296 0.600976 0.618075 0.617892 0.604825 0.588584 0.559406 0.566728 0.548620 0.534731 0.523075 0.507786 0.512344 0.524206 0.500189 0.422950 0.424437 0.410347 0.414435 0.427516 0.424276 0.420207 0.419841 0.407283 0.384373 0.384878 0.310631 0.267762 0.266932 0.252847 0.244626 0.244510 0.243192 0.262909 0.256614 0.253973 0.218998 0.252191 0.264764 0.250455 0.231007 0.197813 0.194897 0.189432 0.188561 0.179269 0.172865 0.203695 0.215872 0.225239 0.193217 0.155063 0.179124 0.173969 0.158148 0.156762 0.162424 0.154079 0.111137 0.074512 0.098724 0.102711 0.140023 0.110377 0.112536 0.139115 0.140924 0.115289 0.115971 0.079950 0.049851 0.091002 0.055772 0.045679 0.029522 0.058253 0.053212 0.035349 0.024300 -0.003734 0.031974 0.030325 0.015353 0.082896 0.088532 0.098973 0.093334 0.088855 0.070220 0.041973 0.033089 0.089421 0.099912 0.085845 0.094344 0.091327 0.081983 0.107750 0.089957 0.059335 0.056128 0.046553 0.065811 0.076164 0.062715 0.026601 0.053242 0.059584 0.037628 0.021604 0.003852 0.015875 -0.008447 0.000544 0.008959 0.019284 0.004723 0.009685 0.016750 -0.031825 -0.079722 -0.087393 -0.083275 -0.090411 -0.036343 0.002882 0.023549 0.010498 -0.000313 -0.000313 -0.000313 -0.000313 0.005696 0.005696 0.005696 0.005696 0.005696 0.005696 0.005696 0.005696 0.005696 -0.020274 -0.020274 -0.020274 -0.020274 -0.020274 -0.020274 -0.020274 -0.020274 -0.020274 -0.020274 -0.020274 -0.020274 -0.020274 -0.020274 -0.020274 -0.020274
0.000000 0.000000 0.000000 0.000000 0.000000 0.000000 0.000000 0.000000 0.000000 0.000000 0.000000 0.000000 0.000000 0.000000 0.000000 0.000000 0.000000 0.000000 0.000000 0.000000 0.000000 0.000000 0.000000 0.000000 0.000000 0.000000 0.000000 0.000000 0.000000 0.000000 0.000000 0.000000 0.000000 0.000000 0.000000 0.000000 0.000000 0.000000 0.000000 0.000000 0.000000 0.000000 0.000000 0.000000 0.000000 0.000000 0.000000 0.000000 0.000000 0.000000 0.000000 0.000000 0.180334 0.180334 0.180334 0.199007 0.199007 0.199007 0.199007 0.199007 0.199007 0.199007 0.199007 0.199007 0.199007 0.199007 0.199007 0.199007 0.199007 0.199007 0.199007 0.199007 0.199007 0.199007 0.199007 0.199007 0.199007 0.199007 0.199007 0.199007 0.199007 0.199007 0.199007 0.199007 0.199007 0.199007 0.199007 0.199007 0.199007 0.199007 0.199007 0.199007 0.199007 0.199007 0.199007 0.199007 0.230940 0.230940 0.230940 0.230940 0.230940 0.230940 0.230940 0.230940 0.230940 0.230940 0.230940 0.230940 0.230940 0.230940 0.230940 0.230940 0.230940 0.230940 0.230940 0.230940 0.230940 0.230940 0.230940 0.230940 0.230940 0.230940 0.230940 0.230940 0.244339 0.244339 0.244339 0.244339 0.244339 0.244339 0.244339 0.244339 0.244339 0.244339 0.244339 0.244339 0.244339 0.244339 0.244339 0.244339 0.244339 0.244339 0.244339 0.244339 0.244339 0.244339 0.244339 0.251976 0.251976 0.251976 0.251976 0.251976 0.251976 0.251976 0.251976 0.251976 0.251976 0.251976 0.251976 0.251976 0.251976 0.251976 0.251976 0.251976 0.251976 0.251976 0.251976 0.264906 0.264906 0.264906 0.264906 0.264906 0.264906 0.264906 0.264906 0.264906 0.264906 0.264906 0.264906 0.264906 0.264906 0.264906 0.264906 0.264906 0.264906 0.264906 0.264906 0.264906 0.264906 0.264906 0.264906 0.264906 0.264906 0.264906 0.264906 0.264906 0.264906 0.264906 0.264906 0.264906 0.264906 0.264906 0.264906 0.264906 0.264906 0.264906 0.264906 0.264906 0.264906 0.264906 0.264906 0.264906 0.264906 0.264906 0.264906 0.264906 0.264906 0.264906 0.264906 0.264906 0.264906 0.264906 0.264906 0.264906 0.264906 0.264906 0.264906 0.264906 0.264906 0.264906 0.264906 0.264906 0.264906 0.264906 0.264906 0.264906 0.264906 0.264906 0.264906 0.264906 0.264906 0.264906 0.260378 0.260378 0.260378 0.260378 0.260378 0.260378 0.260378 0.260378 0.260378 0.260378 0.260378 0.260378 0.260378 0.264906 0.264906 0.264906 0.264906 0.264906 0.264906 0.264906 0.264906 0.264906 0.264906 0.264906 0.264906 0.269680 0.269680 0.269680 0.269680 0.269680 0.269680 0.269680 0.269680 0.269680 0.269680 0.269680 0.264906 0.264906 0.264906 0.264906 0.264906 0.264906 0.264906 0.264906 0.264906 0.264906 0.264906 0.269680 0.269680 0.269680 0.269680 0.269680 0.269680 0.269680 0.269680 0.269680 0.269680 0.251976 0.251976 0.251976 0.251976 0.251976 0.251976 0.251976 0.251976 0.251976 0.251976 0.251976 0.269680 0.269680 0.269680 0.269680 0.269680 0.269680 0.269680 0.269680 0.269680 0.256074 0.256074 0.256074 0.256074 0.256074 0.256074 0.256074 0.256074 0.256074 0.256074 0.260378 0.260378 0.260378 0.260378 0.260378 0.260378 0.260378 0.260378 0.260378 0.256074 0.256074 0.256074 0.256074 0.256074 0.256074 0.256074 0.256074 0.256074 0.251976 0.251976 0.251976 0.251976 0.251976 0.251976 0.251976 0.251976 0.251976 0.251976 0.251976 0.251976 0.251976 0.251976 0.251976 0.251976
