# Output from CTFFind version 4.1.9, run on 2019-11-01 21:22:48
# Input file: bm3d_averaged_0.5_1.7_0.33_1500_full.mrc ; Number of micrographs: 1
# Pixel size: 3.000 Angstroms ; acceleration voltage: 300.0 keV ; spherical aberration: 0.00 mm ; amplitude contrast: 0.07
# Box size: 512 pixels ; min. res.: 30.0 Angstroms ; max. res.: 5.0 Angstroms ; min. def.: 5000.0 um; max. def. 50000.0 um; num. frames averaged: 1
# 6 lines per micrograph: #1 - spatial frequency (1/Angstroms); #2 - 1D rotational average of spectrum (assuming no astigmatism); #3 - 1D rotational average of spectrum; #4 - CTF fit; #5 - cross-correlation between spectrum and CTF fit; #6 - 2sigma of expected cross correlation of noise
0.000000 0.000651 0.001302 0.001953 0.002604 0.003255 0.003906 0.004557 0.005208 0.005859 0.006510 0.007161 0.007812 0.008464 0.009115 0.009766 0.010417 0.011068 0.011719 0.012370 0.013021 0.013672 0.014323 0.014974 0.015625 0.016276 0.016927 0.017578 0.018229 0.018880 0.019531 0.020182 0.020833 0.021484 0.022135 0.022786 0.023438 0.024089 0.024740 0.025391 0.026042 0.026693 0.027344 0.027995 0.028646 0.029297 0.029948 0.030599 0.031250 0.031901 0.032552 0.033203 0.033854 0.034505 0.035156 0.035807 0.036458 0.037109 0.037760 0.038411 0.039062 0.039714 0.040365 0.041016 0.041667 0.042318 0.042969 0.043620 0.044271 0.044922 0.045573 0.046224 0.046875 0.047526 0.048177 0.048828 0.049479 0.050130 0.050781 0.051432 0.052083 0.052734 0.053385 0.054036 0.054688 0.055339 0.055990 0.056641 0.057292 0.057943 0.058594 0.059245 0.059896 0.060547 0.061198 0.061849 0.062500 0.063151 0.063802 0.064453 0.065104 0.065755 0.066406 0.067057 0.067708 0.068359 0.069010 0.069661 0.070312 0.070964 0.071615 0.072266 0.072917 0.073568 0.074219 0.074870 0.075521 0.076172 0.076823 0.077474 0.078125 0.078776 0.079427 0.080078 0.080729 0.081380 0.082031 0.082682 0.083333 0.083984 0.084635 0.085286 0.085938 0.086589 0.087240 0.087891 0.088542 0.089193 0.089844 0.090495 0.091146 0.091797 0.092448 0.093099 0.093750 0.094401 0.095052 0.095703 0.096354 0.097005 0.097656 0.098307 0.098958 0.099609 0.100260 0.100911 0.101562 0.102214 0.102865 0.103516 0.104167 0.104818 0.105469 0.106120 0.106771 0.107422 0.108073 0.108724 0.109375 0.110026 0.110677 0.111328 0.111979 0.112630 0.113281 0.113932 0.114583 0.115234 0.115885 0.116536 0.117188 0.117839 0.118490 0.119141 0.119792 0.120443 0.121094 0.121745 0.122396 0.123047 0.123698 0.124349 0.125000 0.125651 0.126302 0.126953 0.127604 0.128255 0.128906 0.129557 0.130208 0.130859 0.131510 0.132161 0.132812 0.133464 0.134115 0.134766 0.135417 0.136068 0.136719 0.137370 0.138021 0.138672 0.139323 0.139974 0.140625 0.141276 0.141927 0.142578 0.143229 0.143880 0.144531 0.145182 0.145833 0.146484 0.147135 0.147786 0.148438 0.149089 0.149740 0.150391 0.151042 0.151693 0.152344 0.152995 0.153646 0.154297 0.154948 0.155599 0.156250 0.156901 0.157552 0.158203 0.158854 0.159505 0.160156 0.160807 0.161458 0.162109 0.162760 0.163411 0.164062 0.164714 0.165365 0.166016 0.166667 0.167318 0.167969 0.168620 0.169271 0.169922 0.170573 0.171224 0.171875 0.172526 0.173177 0.173828 0.174479 0.175130 0.175781 0.176432 0.177083 0.177734 0.178385 0.179036 0.179688 0.180339 0.180990 0.181641 0.182292 0.182943 0.183594 0.184245 0.184896 0.185547 0.186198 0.186849 0.187500 0.188151 0.188802 0.189453 0.190104 0.190755 0.191406 0.192057 0.192708 0.193359 0.194010 0.194661 0.195312 0.195964 0.196615 0.197266 0.197917 0.198568 0.199219 0.199870 0.200521 0.201172 0.201823 0.202474 0.203125 0.203776 0.204427 0.205078 0.205729 0.206380 0.207031 0.207682 0.208333 0.208984 0.209635 0.210286 0.210938 0.211589 0.212240 0.212891 0.213542 0.214193 0.214844 0.215495 0.216146 0.216797 0.217448 0.218099 0.218750 0.219401 0.220052 0.220703 0.221354 0.222005 0.222656 0.223307 0.223958 0.224609 0.225260 0.225911 0.226562 0.227214 0.227865 0.228516 0.229167 0.229818 0.230469 0.231120 0.231771 0.232422 0.233073 0.233724 0.234375 0.235026 0.235677
       0.33263        0.33263        0.33263        0.33263        0.33263        0.33263        0.33263        0.33263        0.33263        0.33263        0.33263        0.33263        0.33263        0.33263        0.33263        0.33263        0.33263        0.33263        0.33263        0.33263        0.33263        0.33263        0.33263        0.33263        0.33263        0.33263        0.33263        0.33263        0.33263        0.33263        0.33263        0.33263        0.33263        0.33263        0.33263        0.33263        0.33263        0.33263        0.33263        0.33263        0.33263        0.33263        0.33263        0.33263        0.33263        0.33263        0.33263        0.33263        0.33263        0.33263        0.33263        0.50243        0.71928        0.42870        0.18957       -0.08041       -0.26327       -0.06986       -0.13431       -0.05424       -0.00275       -0.14769       -0.09266       -0.05181       -0.00390       -0.15196       -0.22103       -0.34694       -0.46302       -0.55891       -0.51823       -0.44841       -0.37243       -0.54781       -0.45053       -0.62158       -0.50296       -0.47513       -0.39011       -0.38518       -0.34089       -0.25112       -0.16130       -0.13655        0.03228       -0.01205        0.11770        0.16791        0.30445        0.40930        0.46412        0.49752        0.54087        0.54987        0.69192        0.64528        0.67657        0.59160        0.55637        0.65493        0.52790        0.42628        0.38283        0.32109        0.22724        0.26305        0.25053        0.10723        0.08298       -0.00041       -0.00698        0.03555       -0.00395        0.07462        0.09878        0.23164        0.28290        0.30172        0.37938        0.56022        0.53708        0.57804        0.67016        0.70049        0.63013        0.63351        0.63168        0.55389        0.57537        0.39705        0.34425        0.26571        0.18457        0.07135        0.14443        0.11889        0.09040        0.10601        0.20950        0.21409        0.31658        0.35895        0.41313        0.49211        0.58397        0.54197        0.55350        0.60802        0.53926        0.46172        0.47862        0.32422        0.25044        0.25730        0.24224        0.14248        0.14421        0.15117        0.21828        0.24614        0.32845        0.36411        0.39027        0.46843        0.44646        0.47848        0.45520        0.46688        0.44439        0.40686        0.38298        0.35139        0.30961        0.28557        0.20370        0.19643        0.22060        0.26935        0.26856        0.35049        0.37585        0.35716        0.41004        0.45533        0.44799        0.42453        0.43882        0.37091        0.33475        0.28364        0.26437        0.28967        0.26956        0.29412        0.30047        0.34894        0.34232        0.39720        0.40336        0.42568        0.40991        0.42948        0.40254        0.36501        0.28247        0.29159        0.30761        0.27290        0.25593        0.32756        0.36908        0.34186        0.35409        0.35842        0.35390        0.40735        0.40061        0.35899        0.33876        0.30969        0.30927        0.31555        0.31662        0.29951        0.28636        0.33553        0.35762        0.37730        0.33275        0.32875        0.33398        0.34444        0.30666        0.28324        0.30701        0.31535        0.33687        0.32088        0.33155        0.35761        0.32943        0.31272        0.32775        0.30278        0.26469        0.25145        0.26586        0.30662        0.32249        0.35048        0.30209        0.31508        0.33716        0.29281        0.31572        0.28565        0.28176        0.29157        0.29912        0.30898        0.34236        0.32415        0.33010        0.33481        0.31023        0.33302        0.31886        0.31893        0.30760        0.28269        0.29284        0.31290        0.29131        0.32644        0.33802        0.33435        0.31947        0.33831        0.31620        0.27688        0.25330        0.27001        0.33102        0.35761        0.34591        0.31517        0.29375        0.29849        0.31380        0.24676        0.29802        0.30425        0.32899        0.29804        0.31860        0.28685        0.33628        0.34194        0.34570        0.32393        0.29261        0.31613        0.39762        0.32965        0.31184        0.30848        0.28954        0.28453        0.29764        0.26383        0.30964        0.23900        0.27599        0.29565        0.31596        0.29491        0.27385        0.29854        0.23421        0.22477        0.26215        0.30420        0.30462        0.27597        0.28506        0.33306        0.25807        0.21465        0.30904        0.27498        0.25522        0.28395        0.39674        0.29647        0.28500        0.24632        0.25333        0.26537        0.23820        0.23371        0.16911        0.25568        0.23261        0.24894        0.31762        0.27549        0.34757        0.28268        0.24496        0.23002        0.21139        0.23365        0.29799        0.23130        0.13162        0.15857        0.24087        0.24645        0.32786        0.29891        0.02740       -0.43037       -0.89631
2.726182 2.697209 2.668392 2.639732 2.611228 2.582881 2.554691 2.526658 2.498781 2.471061 2.443498 2.416091 2.388841 2.361748 2.334811 2.308031 2.281408 2.254941 2.228631 2.202478 2.176482 2.150642 2.124959 2.099432 2.074063 2.048849 2.023793 1.998893 1.974150 1.949564 1.925134 1.900862 1.876745 1.852786 1.828983 1.805337 1.781847 1.758514 1.735338 1.712319 1.689456 1.666750 1.644201 1.621808 1.599572 1.577493 1.555570 1.533804 1.512195 1.490742 1.469446 1.539338 1.841332 1.524826 1.204247 0.950774 0.552117 0.919702 0.640688 0.882318 0.935184 0.597547 0.717263 0.788042 0.824750 0.636989 0.543932 0.352652 0.108380 0.084432 0.047904 0.087677 0.305684 -0.031133 0.084795 -0.131818 -0.008283 -0.016234 0.086642 0.064660 0.102484 0.179053 0.285002 0.253713 0.485122 0.399851 0.549610 0.528073 0.770318 0.789774 0.882640 0.922416 0.942575 0.945515 1.114228 0.942394 1.141575 0.949030 0.852354 1.018043 0.848840 0.759287 0.614866 0.595945 0.454695 0.416521 0.509186 0.264500 0.197646 0.156988 0.009909 0.205742 -0.005566 0.119188 0.178869 0.258255 0.329787 0.345950 0.422718 0.535486 0.663498 0.538854 0.738018 0.861627 0.638813 0.693861 0.663411 0.592525 0.537366 0.462621 0.295660 0.212650 0.115061 -0.044551 -0.022645 0.056860 -0.100092 -0.060444 0.046428 0.053641 0.111899 0.218664 0.238202 0.306825 0.444241 0.439130 0.433468 0.481336 0.448429 0.329978 0.332635 0.241282 0.053314 0.062022 0.016818 -0.044587 -0.097869 -0.099561 -0.015477 -0.052482 0.070819 0.122430 0.119291 0.263304 0.231003 0.229415 0.288988 0.242046 0.233507 0.209002 0.167970 0.105549 0.097341 0.022224 0.003219 -0.120998 -0.054477 -0.001141 0.001868 0.021588 0.098147 0.085851 0.130373 0.195870 0.264132 0.183541 0.186246 0.113057 0.141446 0.029104 -0.025947 0.028526 -0.017901 0.011759 -0.000585 0.042000 0.090867 0.059506 0.162476 0.105433 0.181722 0.075019 0.160092 0.103497 0.003358 -0.050439 -0.000697 -0.022864 -0.058895 -0.054522 0.065981 0.075636 0.001962 0.087495 0.075165 0.087625 0.158577 0.080264 0.075711 0.064688 -0.010833 0.037164 0.016239 0.025879 0.015660 0.008044 0.054615 0.077976 0.083821 0.044300 0.058591 0.035117 0.071822 0.004942 -0.003868 0.036668 0.023450 0.074852 0.045894 0.065598 0.070422 0.050450 0.027714 0.038163 0.007276 -0.039539 -0.024379 -0.019592 0.031145 0.045959 0.103016 0.001497 0.069993 0.046743 -0.013754 0.059108 0.004293 0.003470 0.030915 0.047613 0.029073 0.085328 0.044048 0.064077 0.069541 0.068383 0.064269 0.064190 0.082062 0.029740 -0.008026 0.045580 0.041380 0.044314 0.068231 0.087668 0.009228 0.058068 0.070422 0.003935 0.000122 -0.061333 -0.027486 0.107974 0.077585 0.044322 0.034077 -0.019695 0.049544 0.019971 -0.071493 0.050532 0.030692 0.062178 0.031626 0.011318 0.002634 0.075016 0.033007 0.026517 0.027172 -0.041232 0.064414 0.115930 0.002509 -0.010974 -0.005211 -0.003914 -0.037277 -0.021012 -0.056743 -0.008443 -0.091118 -0.020696 -0.036495 0.019996 -0.032562 -0.052897 0.028877 -0.081694 -0.056962 -0.078263 0.049078 0.009729 0.002057 -0.008044 0.068703 -0.023366 -0.071532 0.056748 -0.003984 0.008785 0.011812 0.201999 -0.020461 0.033284 -0.013044 -0.004050 -0.005554 -0.037407 -0.015875 -0.163350 0.019438 -0.036314 -0.013678 0.044465 0.006893 0.116335 -0.006446 -0.013982 -0.041370 -0.029195 -0.072895 0.054083 0.276380 0.156941 0.204049 0.238256 0.331581 0.358036 0.363231 0.034652 -1.051756
0.072396 0.072910 0.074452 0.077022 0.080619 0.085242 0.090889 0.097560 0.105252 0.113961 0.123685 0.134418 0.146156 0.158891 0.172615 0.187318 0.202989 0.219614 0.237177 0.255659 0.275040 0.295295 0.316396 0.338311 0.361006 0.384442 0.408573 0.433351 0.458722 0.484626 0.510998 0.537768 0.564856 0.592181 0.619649 0.647166 0.674625 0.701915 0.728918 0.755507 0.781550 0.806907 0.831430 0.854968 0.877359 0.898440 0.918040 0.935984 0.952093 0.966186 0.978080 0.987590 0.994533 0.998725 0.999989 0.998150 0.993040 0.984501 0.972382 0.956548 0.936876 0.913262 0.885618 0.853879 0.818005 0.777980 0.733816 0.685558 0.633283 0.577100 0.517160 0.453647 0.386789 0.316853 0.244149 0.169027 0.091883 0.013152 0.066690 0.147126 0.227603 0.307533 0.386298 0.463251 0.537725 0.609036 0.676488 0.739382 0.797025 0.848732 0.893844 0.931726 0.961789 0.983487 0.996339 0.999930 0.993927 0.978084 0.952256 0.916404 0.870605 0.815058 0.750090 0.676158 0.593855 0.503907 0.407176 0.304653 0.197451 0.086799 0.025968 0.139425 0.252072 0.362354 0.468679 0.569443 0.663055 0.747963 0.822683 0.885826 0.936130 0.972486 0.993970 0.999865 0.989690 0.963219 0.920501 0.861876 0.787981 0.699757 0.598446 0.485587 0.362991 0.232733 0.097114 0.041371 0.180077 0.316252 0.447100 0.569826 0.681711 0.780168 0.862809 0.927511 0.972475 0.996286 0.997967 0.977019 0.933461 0.867852 0.781302 0.675472 0.552558 0.415255 0.266719 0.110493 0.049560 0.209349 0.364662 0.511269 0.645045 0.762090 0.858850 0.932232 0.979724 0.999484 0.990429 0.952302 0.885711 0.792150 0.673987 0.534429 0.377449 0.207693 0.030358 0.148966 0.324459 0.490257 0.640664 0.770338 0.874503 0.949136 0.991140 0.998492 0.970360 0.907176 0.810672 0.683863 0.530982 0.357362 0.169274 0.026282 0.221833 0.409708 0.582341 0.732582 0.854008 0.941213 0.990076 0.997976 0.963962 0.888848 0.775247 0.627514 0.451617 0.254922 0.045910 0.166173 0.371709 0.561158 0.725493 0.856652 0.947962 0.994496 0.993381 0.944002 0.848109 0.709808 0.535427 0.333271 0.113253 0.113561 0.335506 0.540902 0.718682 0.859010 0.953846 0.997444 0.986744 0.921622 0.804989 0.642720 0.443410 0.217963 0.020977 0.259705 0.484231 0.681113 0.838274 0.945775 0.996479 0.986584 0.915946 0.788197 0.610634 0.393848 0.151158 0.102188 0.349938 0.575873 0.764892 0.904029 0.983405 0.996970 0.943027 0.824468 0.648701 0.427261 0.175108 0.090337 0.350374 0.586321 0.780883 0.919450 0.991237 0.990192 0.915572 0.772140 0.569953 0.323723 0.051822 0.225057 0.485450 0.708795 0.877070 0.976311 0.997829 0.939051 0.803883 0.602556 0.350941 0.069367 0.218977 0.489907 0.720298 0.890076 0.984026 0.993237 0.916026 0.758269 0.533068 0.259744 0.037729 0.332792 0.598656 0.810737 0.948994 0.999886 0.957796 0.825746 0.615311 0.345722 0.042193 0.266375 0.550111 0.781080 0.936081 0.999053 0.962839 0.830109 0.613317 0.333651 0.019059 0.298464 0.586116 0.813685 0.956773 0.999514 0.936436 0.773281 0.526640 0.222377 0.106964 0.425599 0.698361 0.894637 0.991866 0.978251 0.854323 0.633147 0.339084 0.005245 0.330173 0.628206 0.853694 0.979479 0.989805 0.882427 0.669162 0.374757 0.034153 0.311575 0.620115 0.853130 0.981098 0.987165 0.869526 0.641958 0.332380 0.020425 0.371583 0.675786 0.893184 0.994696 0.966038 0.809904 0.545946 0.208477 0.157849 0.503869 0.782500 0.955187 0.997398
1.000000 1.000000 1.000000 1.000000 1.000000 1.000000 1.000000 1.000000 1.000000 1.000000 1.000000 1.000000 1.000000 1.000000 1.000000 1.000000 1.000000 1.000000 1.000000 1.000000 1.000000 1.000000 1.000000 1.000000 1.000000 1.000000 1.000000 1.000000 1.000000 1.000000 1.000000 1.000000 1.000000 1.000000 1.000000 1.000000 1.000000 1.000000 1.000000 1.000000 1.000000 1.000000 1.000000 1.000000 1.000000 1.000000 1.000000 1.000000 1.000000 1.000000 1.000000 1.000000 0.918867 0.918867 0.905109 0.905109 0.905109 0.905109 0.905109 0.905109 0.905109 0.905109 0.905109 0.905109 0.905109 0.905109 0.905109 0.905109 0.905109 0.905109 0.905109 0.905109 0.905109 0.905109 0.905109 0.905109 0.905109 0.905109 0.905109 0.905109 0.905109 0.905109 0.905109 0.905109 0.905109 0.905109 0.905109 0.905109 0.905109 0.905109 0.905109 0.905109 0.905109 0.905109 0.905109 0.901161 0.906059 0.907949 0.906431 0.909970 0.910032 0.909322 0.909659 0.909319 0.909651 0.911044 0.921539 0.932548 0.943568 0.944103 0.949274 0.953588 0.956019 0.956868 0.958434 0.968448 0.967092 0.966595 0.967276 0.968712 0.970826 0.969569 0.969119 0.972279 0.972930 0.971346 0.969085 0.968478 0.967879 0.967983 0.967617 0.967502 0.967370 0.967881 0.968081 0.968228 0.968373 0.968427 0.969442 0.970596 0.972993 0.973987 0.973848 0.972779 0.970906 0.974929 0.975829 0.975577 0.975529 0.975068 0.975327 0.961001 0.956496 0.956407 0.953292 0.952160 0.949021 0.947676 0.946138 0.946473 0.945337 0.945101 0.941767 0.927847 0.913895 0.902875 0.923604 0.908112 0.896994 0.871770 0.872129 0.866249 0.866760 0.858421 0.852652 0.848250 0.845419 0.847196 0.844192 0.848344 0.845400 0.831684 0.834790 0.831801 0.801468 0.784721 0.768859 0.770343 0.767429 0.768589 0.768143 0.763136 0.771655 0.764341 0.762425 0.753806 0.733821 0.701265 0.688079 0.698818 0.708742 0.707799 0.704125 0.688948 0.655923 0.668209 0.689042 0.684963 0.687376 0.678232 0.671086 0.677595 0.678643 0.674437 0.667683 0.666695 0.666318 0.675117 0.679496 0.674357 0.664962 0.650210 0.638442 0.625368 0.641217 0.645814 0.614991 0.609286 0.600547 0.594135 0.581019 0.546307 0.545854 0.523845 0.512253 0.515400 0.517674 0.517619 0.527466 0.528423 0.506580 0.531184 0.539548 0.566811 0.543613 0.540499 0.541940 0.550886 0.534307 0.510681 0.502835 0.503708 0.516739 0.550938 0.592717 0.584026 0.572882 0.559543 0.572817 0.549443 0.558299 0.577101 0.555507 0.483328 0.439831 0.437394 0.403216 0.394657 0.386778 0.381169 0.392859 0.381476 0.374377 0.361087 0.349462 0.293695 0.257183 0.238425 0.214435 0.220484 0.232766 0.217665 0.217648 0.249910 0.296090 0.297023 0.288528 0.271813 0.274337 0.243968 0.259237 0.285660 0.243259 0.238523 0.230796 0.206268 0.192518 0.156430 0.180809 0.101548 0.085154 0.087303 0.102266 0.111105 0.107800 0.114499 0.088201 0.108851 0.101826 0.066538 0.052279 0.068521 0.059218 0.028873 0.039149 0.049701 0.035523 0.026938 0.046988 0.051807 0.062294 0.053144 0.052849 0.108524 0.140865 0.127898 0.128396 0.112439 0.119584 0.091177 0.080823 0.071883 0.062438 0.011758 -0.016673 -0.016673 -0.012945 -0.012945 -0.012945 -0.012945 -0.012945 -0.012945 -0.012945 -0.012945 -0.012945 -0.014265 -0.014265 -0.014265 -0.014265 -0.014265 -0.014265 -0.014265 -0.014265 -0.014265 0.009849 0.009849 0.009849 0.009849 0.009849 0.009849 0.009849 0.009849 0.009849
0.000000 0.000000 0.000000 0.000000 0.000000 0.000000 0.000000 0.000000 0.000000 0.000000 0.000000 0.000000 0.000000 0.000000 0.000000 0.000000 0.000000 0.000000 2.000000 0.000000 0.000000 0.000000 0.000000 0.000000 0.000000 0.000000 0.000000 0.000000 0.000000 0.000000 0.000000 0.000000 0.000000 0.000000 0.000000 0.000000 0.000000 0.000000 0.000000 0.000000 0.000000 0.000000 0.000000 0.000000 0.000000 0.000000 0.000000 0.000000 0.000000 0.000000 0.000000 0.000000 0.181818 0.181818 0.199007 0.199007 0.199007 0.199007 0.199007 0.199007 0.199007 0.199007 0.199007 0.199007 0.199007 0.199007 0.199007 0.199007 0.199007 0.199007 0.199007 0.199007 0.199007 0.199007 0.199007 0.199007 0.199007 0.199007 0.199007 0.199007 0.199007 0.199007 0.199007 0.199007 0.199007 0.199007 0.199007 0.199007 0.199007 0.199007 0.199007 0.199007 0.199007 0.199007 0.199007 0.230940 0.230940 0.230940 0.230940 0.230940 0.230940 0.230940 0.230940 0.230940 0.230940 0.230940 0.230940 0.230940 0.230940 0.230940 0.230940 0.230940 0.230940 0.230940 0.230940 0.230940 0.230940 0.230940 0.230940 0.230940 0.230940 0.230940 0.230940 0.244339 0.244339 0.244339 0.244339 0.244339 0.244339 0.244339 0.244339 0.244339 0.244339 0.244339 0.244339 0.244339 0.244339 0.244339 0.244339 0.244339 0.244339 0.244339 0.244339 0.244339 0.244339 0.244339 0.251976 0.251976 0.251976 0.251976 0.251976 0.251976 0.251976 0.251976 0.251976 0.251976 0.251976 0.251976 0.251976 0.251976 0.251976 0.251976 0.251976 0.251976 0.251976 0.251976 0.264906 0.264906 0.264906 0.264906 0.264906 0.264906 0.264906 0.264906 0.264906 0.264906 0.264906 0.264906 0.264906 0.264906 0.264906 0.264906 0.264906 0.264906 0.264906 0.264906 0.264906 0.264906 0.264906 0.264906 0.264906 0.264906 0.264906 0.264906 0.264906 0.264906 0.264906 0.264906 0.264906 0.264906 0.264906 0.264906 0.264906 0.264906 0.264906 0.264906 0.264906 0.264906 0.264906 0.264906 0.264906 0.264906 0.264906 0.264906 0.264906 0.264906 0.264906 0.264906 0.264906 0.264906 0.264906 0.264906 0.264906 0.264906 0.264906 0.264906 0.264906 0.264906 0.264906 0.264906 0.264906 0.264906 0.264906 0.264906 0.264906 0.264906 0.264906 0.264906 0.264906 0.264906 0.264906 0.269680 0.269680 0.269680 0.269680 0.269680 0.269680 0.269680 0.269680 0.269680 0.269680 0.269680 0.269680 0.264906 0.264906 0.264906 0.264906 0.264906 0.264906 0.264906 0.264906 0.264906 0.264906 0.264906 0.264906 0.269680 0.269680 0.269680 0.269680 0.269680 0.269680 0.269680 0.269680 0.269680 0.269680 0.269680 0.264906 0.264906 0.264906 0.264906 0.264906 0.264906 0.264906 0.264906 0.264906 0.264906 0.264906 0.256074 0.256074 0.256074 0.256074 0.256074 0.256074 0.256074 0.256074 0.256074 0.256074 0.256074 0.264906 0.264906 0.264906 0.264906 0.264906 0.264906 0.264906 0.264906 0.264906 0.264906 0.269680 0.269680 0.269680 0.269680 0.269680 0.269680 0.269680 0.269680 0.269680 0.256074 0.256074 0.256074 0.256074 0.256074 0.256074 0.256074 0.256074 0.256074 0.256074 0.260378 0.260378 0.260378 0.260378 0.260378 0.260378 0.260378 0.260378 0.260378 0.256074 0.256074 0.256074 0.256074 0.256074 0.256074 0.256074 0.256074 0.256074 0.251976 0.251976 0.251976 0.251976 0.251976 0.251976 0.251976 0.251976 0.251976 0.264906 0.264906 0.264906 0.264906 0.264906 0.264906 0.264906 0.264906 0.264906
