# Output from CTFFind version 4.1.9, run on 2019-11-01 21:26:47
# Input file: bm3d_averaged_5_1.7_0.33_1500_full.mrc ; Number of micrographs: 1
# Pixel size: 3.000 Angstroms ; acceleration voltage: 300.0 keV ; spherical aberration: 0.00 mm ; amplitude contrast: 0.07
# Box size: 512 pixels ; min. res.: 30.0 Angstroms ; max. res.: 5.0 Angstroms ; min. def.: 5000.0 um; max. def. 50000.0 um; num. frames averaged: 1
# 6 lines per micrograph: #1 - spatial frequency (1/Angstroms); #2 - 1D rotational average of spectrum (assuming no astigmatism); #3 - 1D rotational average of spectrum; #4 - CTF fit; #5 - cross-correlation between spectrum and CTF fit; #6 - 2sigma of expected cross correlation of noise
0.000000 0.000651 0.001302 0.001953 0.002604 0.003255 0.003906 0.004557 0.005208 0.005859 0.006510 0.007161 0.007812 0.008464 0.009115 0.009766 0.010417 0.011068 0.011719 0.012370 0.013021 0.013672 0.014323 0.014974 0.015625 0.016276 0.016927 0.017578 0.018229 0.018880 0.019531 0.020182 0.020833 0.021484 0.022135 0.022786 0.023438 0.024089 0.024740 0.025391 0.026042 0.026693 0.027344 0.027995 0.028646 0.029297 0.029948 0.030599 0.031250 0.031901 0.032552 0.033203 0.033854 0.034505 0.035156 0.035807 0.036458 0.037109 0.037760 0.038411 0.039062 0.039714 0.040365 0.041016 0.041667 0.042318 0.042969 0.043620 0.044271 0.044922 0.045573 0.046224 0.046875 0.047526 0.048177 0.048828 0.049479 0.050130 0.050781 0.051432 0.052083 0.052734 0.053385 0.054036 0.054688 0.055339 0.055990 0.056641 0.057292 0.057943 0.058594 0.059245 0.059896 0.060547 0.061198 0.061849 0.062500 0.063151 0.063802 0.064453 0.065104 0.065755 0.066406 0.067057 0.067708 0.068359 0.069010 0.069661 0.070312 0.070964 0.071615 0.072266 0.072917 0.073568 0.074219 0.074870 0.075521 0.076172 0.076823 0.077474 0.078125 0.078776 0.079427 0.080078 0.080729 0.081380 0.082031 0.082682 0.083333 0.083984 0.084635 0.085286 0.085938 0.086589 0.087240 0.087891 0.088542 0.089193 0.089844 0.090495 0.091146 0.091797 0.092448 0.093099 0.093750 0.094401 0.095052 0.095703 0.096354 0.097005 0.097656 0.098307 0.098958 0.099609 0.100260 0.100911 0.101562 0.102214 0.102865 0.103516 0.104167 0.104818 0.105469 0.106120 0.106771 0.107422 0.108073 0.108724 0.109375 0.110026 0.110677 0.111328 0.111979 0.112630 0.113281 0.113932 0.114583 0.115234 0.115885 0.116536 0.117188 0.117839 0.118490 0.119141 0.119792 0.120443 0.121094 0.121745 0.122396 0.123047 0.123698 0.124349 0.125000 0.125651 0.126302 0.126953 0.127604 0.128255 0.128906 0.129557 0.130208 0.130859 0.131510 0.132161 0.132812 0.133464 0.134115 0.134766 0.135417 0.136068 0.136719 0.137370 0.138021 0.138672 0.139323 0.139974 0.140625 0.141276 0.141927 0.142578 0.143229 0.143880 0.144531 0.145182 0.145833 0.146484 0.147135 0.147786 0.148438 0.149089 0.149740 0.150391 0.151042 0.151693 0.152344 0.152995 0.153646 0.154297 0.154948 0.155599 0.156250 0.156901 0.157552 0.158203 0.158854 0.159505 0.160156 0.160807 0.161458 0.162109 0.162760 0.163411 0.164062 0.164714 0.165365 0.166016 0.166667 0.167318 0.167969 0.168620 0.169271 0.169922 0.170573 0.171224 0.171875 0.172526 0.173177 0.173828 0.174479 0.175130 0.175781 0.176432 0.177083 0.177734 0.178385 0.179036 0.179688 0.180339 0.180990 0.181641 0.182292 0.182943 0.183594 0.184245 0.184896 0.185547 0.186198 0.186849 0.187500 0.188151 0.188802 0.189453 0.190104 0.190755 0.191406 0.192057 0.192708 0.193359 0.194010 0.194661 0.195312 0.195964 0.196615 0.197266 0.197917 0.198568 0.199219 0.199870 0.200521 0.201172 0.201823 0.202474 0.203125 0.203776 0.204427 0.205078 0.205729 0.206380 0.207031 0.207682 0.208333 0.208984 0.209635 0.210286 0.210938 0.211589 0.212240 0.212891 0.213542 0.214193 0.214844 0.215495 0.216146 0.216797 0.217448 0.218099 0.218750 0.219401 0.220052 0.220703 0.221354 0.222005 0.222656 0.223307 0.223958 0.224609 0.225260 0.225911 0.226562 0.227214 0.227865 0.228516 0.229167 0.229818 0.230469 0.231120 0.231771 0.232422 0.233073 0.233724 0.234375 0.235026 0.235677
       0.33852        0.33852        0.33852        0.33852        0.33852        0.33852        0.33852        0.33852        0.33852        0.33852        0.33852        0.33852        0.33852        0.33852        0.33852        0.33852        0.33852        0.33852        0.33852        0.33852        0.33852        0.33852        0.33852        0.33852        0.33852        0.33852        0.33852        0.33852        0.33852        0.33852        0.33852        0.33852        0.33852        0.33852        0.33852        0.33852        0.33852        0.33852        0.33852        0.33852        0.33852        0.33852        0.33852        0.33852        0.33852        0.33852        0.33852        0.33852        0.33852        0.33852        0.33852        0.41627        0.60017        0.29719        0.14105       -0.03851       -0.27325       -0.11275       -0.19771       -0.25353       -0.04814       -0.19979       -0.17354       -0.10093       -0.06916       -0.13624       -0.24879       -0.31817       -0.42957       -0.57759       -0.42305       -0.40551       -0.30469       -0.47348       -0.35432       -0.45275       -0.34293       -0.37835       -0.29037       -0.25118       -0.27116       -0.14260       -0.10101       -0.10968        0.01447        0.00895        0.20773        0.19591        0.31749        0.34862        0.44218        0.44955        0.50195        0.58192        0.63250        0.57381        0.53454        0.53567        0.52250        0.51220        0.47339        0.44939        0.41046        0.31176        0.33432        0.33512        0.35278        0.20170        0.12381        0.10186        0.13928        0.10991        0.14184        0.12377        0.17395        0.25441        0.31071        0.29259        0.34655        0.42460        0.38125        0.47954        0.58176        0.54804        0.52065        0.57079        0.56824        0.44294        0.53041        0.40388        0.28862        0.26142        0.22378        0.17688        0.19857        0.19064        0.13798        0.20870        0.26870        0.25451        0.33946        0.32460        0.40048        0.43644        0.46554        0.45634        0.47689        0.50117        0.44629        0.41661        0.36678        0.33434        0.35332        0.35410        0.29681        0.24469        0.25101        0.22376        0.22924        0.22510        0.28628        0.41377        0.40955        0.39043        0.43114        0.50589        0.47433        0.46505        0.46560        0.39153        0.38640        0.39076        0.35024        0.31231        0.27497        0.29721        0.25849        0.30479        0.28692        0.32555        0.38888        0.39058        0.41175        0.39811        0.37081        0.41802        0.37281        0.39493        0.31914        0.34502        0.29896        0.27958        0.32601        0.29677        0.28277        0.34219        0.34806        0.38745        0.41885        0.39610        0.41150        0.41393        0.36168        0.35356        0.32990        0.32337        0.32336        0.28872        0.33678        0.33740        0.36457        0.35936        0.31291        0.34269        0.38255        0.45195        0.42512        0.34345        0.31792        0.30748        0.33207        0.34526        0.36864        0.36351        0.32779        0.34706        0.32386        0.42488        0.35466        0.30926        0.36007        0.36641        0.34674        0.31061        0.31102        0.27976        0.33598        0.31597        0.28576        0.33421        0.33307        0.36265        0.30395        0.31310        0.29622        0.28946        0.27183        0.31329        0.33620        0.32044        0.33075        0.33668        0.34160        0.32683        0.31787        0.31820        0.32824        0.31611        0.30607        0.32824        0.32164        0.30345        0.29292        0.31016        0.33825        0.32767        0.32781        0.31700        0.28537        0.31826        0.32730        0.31108        0.29391        0.28688        0.35337        0.28177        0.28930        0.31319        0.34713        0.32466        0.30451        0.30258        0.28740        0.32745        0.38238        0.33357        0.30793        0.27500        0.27549        0.32887        0.35396        0.35314        0.29029        0.24840        0.22948        0.29838        0.28391        0.30424        0.32223        0.25473        0.29472        0.31229        0.31085        0.31461        0.31816        0.31287        0.28521        0.28234        0.32648        0.31332        0.27631        0.29571        0.31732        0.24138        0.28235        0.31068        0.32928        0.33220        0.29678        0.31365        0.28482        0.31312        0.33631        0.25190        0.27075        0.29863        0.35877        0.29028        0.26155        0.25605        0.33329        0.32514        0.30099        0.26106        0.29433        0.23141        0.25348        0.25327        0.24252        0.22083        0.29336        0.27773        0.25247        0.22007        0.20842        0.35166        0.30375        0.19021        0.22353        0.25493        0.18796        0.26186        0.15149        0.39067        0.26534        0.19180        0.28047        0.40980        0.17231        0.08590       -0.07837       -0.62760       -0.98764
2.857941 2.827848 2.797918 2.768150 2.738545 2.709102 2.679822 2.650704 2.621749 2.592956 2.564326 2.535858 2.507553 2.479410 2.451430 2.423612 2.395957 2.368464 2.341134 2.313967 2.286961 2.260119 2.233439 2.206921 2.180566 2.154373 2.128343 2.102475 2.076770 2.051228 2.025848 2.000630 1.975575 1.950682 1.925952 1.901385 1.876980 1.852737 1.828657 1.804740 1.780985 1.757392 1.733962 1.710695 1.687590 1.664647 1.641867 1.619250 1.596795 1.574502 1.552372 1.543166 1.996010 1.583778 1.200042 0.862543 0.239785 0.765627 0.299445 0.447915 0.677543 0.445391 0.358836 0.573403 0.555861 0.509615 0.209591 0.116044 -0.110077 -0.406336 -0.138193 -0.249399 0.191450 -0.376060 -0.101805 -0.306889 -0.094982 -0.228288 -0.066884 -0.040415 -0.084981 0.067274 0.216957 0.077498 0.316327 0.307233 0.666751 0.532612 0.813807 0.743541 0.907188 1.101750 0.894054 1.158881 1.295178 1.049182 1.093460 1.045258 1.048086 0.905772 0.911556 0.888514 0.734513 0.569560 0.666855 0.530872 0.579710 0.435422 0.198439 0.174081 0.153756 0.082076 0.216144 0.085122 0.122507 0.318157 0.353718 0.395914 0.484893 0.440817 0.550914 0.426810 0.809435 0.777257 0.702969 0.701394 0.775363 0.569389 0.570946 0.569898 0.220122 0.206280 0.101846 0.067573 -0.013733 0.038403 -0.046148 -0.102701 0.188512 0.055343 0.150150 0.253024 0.248011 0.332510 0.463876 0.377958 0.368503 0.486010 0.370404 0.359842 0.194080 0.200510 0.160292 0.250263 0.037756 0.058529 -0.016382 -0.036971 -0.066635 -0.043598 -0.115287 0.147593 0.314279 0.216037 0.208966 0.291348 0.479215 0.328432 0.465976 0.307519 0.232710 0.199454 0.290030 0.027157 0.093008 0.007530 0.080589 0.008335 0.113160 0.024953 0.174521 0.154451 0.212609 0.242425 0.138084 0.238958 0.136185 0.165686 0.112689 0.098622 0.028815 -0.002361 -0.012942 0.034281 0.006715 -0.065212 0.082919 0.117076 0.218600 0.134115 0.196760 0.183619 0.114580 0.093648 0.061241 0.006209 0.032401 0.004538 -0.017531 0.030760 0.089320 0.094939 0.064121 -0.054983 0.073414 0.210071 0.249290 0.116516 0.020272 -0.007426 -0.041542 0.059866 0.058965 0.096000 0.076826 0.002800 0.034492 0.018318 0.157351 -0.048935 0.022383 0.091234 0.010274 0.039166 -0.017135 -0.039794 -0.061979 0.037041 -0.059168 -0.006526 -0.009722 0.055113 -0.013497 -0.023450 -0.025354 -0.063214 -0.048198 -0.069272 -0.018947 0.059153 -0.011348 0.050847 0.004550 0.054848 -0.008081 0.011012 0.027516 0.021316 -0.005680 -0.023721 0.038429 0.032571 -0.008498 -0.040070 0.013954 0.074175 0.005582 0.068641 -0.023070 -0.050565 0.037095 0.059452 -0.018454 -0.018639 -0.022507 0.112232 -0.076983 0.011413 0.030550 0.082485 0.016551 0.029989 -0.028389 0.013545 0.129475 0.119779 0.052697 0.015016 -0.019878 0.001864 0.062016 0.160002 0.112847 0.004447 -0.036238 -0.100377 0.072321 0.022361 0.038130 0.140740 -0.007103 0.103920 0.104987 0.103713 0.052646 0.160020 0.051735 0.036765 0.007385 0.176103 0.105145 -0.041360 0.124993 0.097410 -0.025364 0.060357 0.076814 0.143158 0.111815 -0.015045 0.152682 -0.051394 0.105513 0.103839 -0.056821 -0.006017 0.080089 0.153624 0.037716 -0.089934 0.062945 0.105360 0.061851 0.046641 -0.030093 0.116696 -0.075059 -0.002826 -0.057383 -0.033802 -0.037812 0.069704 0.066241 0.075432 0.001390 -0.055906 0.289902 -0.014875 -0.081408 0.114477 0.063469 0.016248 0.176454 -0.209426 0.404054 0.122049 0.325809 0.515229 0.654686 0.240767 0.122015 -0.124184 -1.675790
0.072396 0.072904 0.074425 0.076962 0.080511 0.085074 0.090648 0.097232 0.104823 0.113419 0.123016 0.133611 0.145196 0.157767 0.171314 0.185829 0.201300 0.217714 0.235056 0.253307 0.272448 0.292455 0.313301 0.334956 0.357385 0.380552 0.404412 0.428920 0.454023 0.479663 0.505778 0.532299 0.559151 0.586253 0.613519 0.640853 0.668155 0.695317 0.722224 0.748755 0.774781 0.800166 0.824769 0.848441 0.871027 0.892367 0.912295 0.930642 0.947232 0.961890 0.974435 0.984687 0.992466 0.997592 0.999888 0.999182 0.995306 0.988103 0.977421 0.963122 0.945080 0.923185 0.897345 0.867488 0.833563 0.795544 0.753432 0.707257 0.657078 0.602991 0.545124 0.483642 0.418750 0.350690 0.279746 0.206244 0.130548 0.053067 0.025753 0.105424 0.185423 0.265191 0.344136 0.421640 0.497058 0.569727 0.638972 0.704107 0.764449 0.819320 0.868060 0.910029 0.944623 0.971280 0.989489 0.998801 0.998839 0.989308 0.970002 0.940814 0.901748 0.852917 0.794560 0.727040 0.650849 0.566609 0.475076 0.377133 0.273789 0.166169 0.055511 0.056850 0.169497 0.280942 0.389648 0.494048 0.592572 0.683665 0.765820 0.837601 0.897670 0.944821 0.978003 0.996347 0.999194 0.986120 0.956951 0.911785 0.851003 0.775279 0.685585 0.583179 0.469611 0.346696 0.216498 0.081298 0.056438 0.194101 0.328988 0.458352 0.579459 0.689652 0.786406 0.867396 0.930561 0.974156 0.996817 0.997604 0.976050 0.932190 0.866585 0.780335 0.675075 0.552962 0.416641 0.269199 0.114108 0.044849 0.203667 0.358218 0.504351 0.638018 0.755377 0.852920 0.927585 0.976861 0.998888 0.992539 0.957484 0.894236 0.804168 0.689508 0.553307 0.399370 0.232175 0.056749 0.121472 0.296801 0.463487 0.615902 0.748734 0.857191 0.937176 0.985470 0.999872 0.979321 0.923977 0.835262 0.715856 0.569643 0.401612 0.217708 0.024633 0.170376 0.359820 0.536223 0.692433 0.821919 0.919067 0.979438 1.000000 0.979302 0.917591 0.816867 0.680847 0.514877 0.325737 0.121401 0.089287 0.296984 0.492252 0.666000 0.809917 0.916885 0.981361 0.999691 0.970356 0.894108 0.774013 0.615369 0.425522 0.213548 0.010146 0.234317 0.447440 0.638312 0.796645 0.913645 0.982533 0.998974 0.961391 0.871133 0.732495 0.552564 0.340903 0.109083 0.129925 0.362459 0.574942 0.754690 0.890683 0.974285 0.999830 0.965055 0.871335 0.723712 0.530677 0.303738 0.056778 0.194757 0.434828 0.647807 0.819522 0.938225 0.995451 0.986663 0.911679 0.774796 0.584625 0.353604 0.097256 0.166837 0.420199 0.644774 0.824212 0.945103 0.998031 0.978371 0.886757 0.729175 0.516647 0.264540 0.008495 0.281860 0.534561 0.746814 0.901642 0.986264 0.993235 0.921167 0.774997 0.565742 0.309759 0.027526 0.257950 0.522984 0.745184 0.905387 0.989360 0.989140 0.903879 0.740090 0.511246 0.236779 0.059519 0.351502 0.612968 0.820032 0.953348 0.999996 0.954820 0.821099 0.610419 0.341799 0.040043 0.266482 0.548485 0.778567 0.933920 0.998663 0.965568 0.836971 0.624747 0.349348 0.037915 0.278320 0.567140 0.798640 0.948369 0.999999 0.947219 0.794616 0.557430 0.260150 0.065900 0.385811 0.664816 0.872074 0.984168 0.987852 0.881739 0.676714 0.394960 0.067693 0.268228 0.574399 0.815274 0.962359 0.997680 0.916117 0.726273 0.449730 0.118748 0.227421 0.547104 0.801254 0.958273 0.998040 0.914645 0.717407 0.430001 0.087790 0.266451 0.587800 0.834917 0.975427 0.990281 0.876513 0.647922 0.333595 0.025628 0.382406 0.689059
1.000000 1.000000 1.000000 1.000000 1.000000 1.000000 1.000000 1.000000 1.000000 1.000000 1.000000 1.000000 1.000000 1.000000 1.000000 1.000000 1.000000 1.000000 1.000000 1.000000 1.000000 1.000000 1.000000 1.000000 1.000000 1.000000 1.000000 1.000000 1.000000 1.000000 1.000000 1.000000 1.000000 1.000000 1.000000 1.000000 1.000000 1.000000 1.000000 1.000000 1.000000 1.000000 1.000000 1.000000 1.000000 1.000000 1.000000 1.000000 1.000000 1.000000 1.000000 1.000000 0.838750 0.838750 0.838750 0.819259 0.819259 0.819259 0.819259 0.819259 0.819259 0.819259 0.819259 0.819259 0.819259 0.819259 0.819259 0.819259 0.819259 0.819259 0.819259 0.819259 0.819259 0.819259 0.819259 0.819259 0.819259 0.819259 0.819259 0.819259 0.819259 0.819259 0.819259 0.819259 0.819259 0.819259 0.819259 0.819259 0.819259 0.819259 0.819259 0.819259 0.819259 0.819259 0.819259 0.819259 0.836549 0.840103 0.840755 0.846294 0.849679 0.844250 0.842493 0.840776 0.840419 0.841993 0.853934 0.879499 0.885049 0.894473 0.906433 0.912876 0.915567 0.910277 0.919824 0.922769 0.948916 0.946863 0.944247 0.945321 0.948670 0.948106 0.947025 0.940236 0.949012 0.948218 0.946414 0.938206 0.936920 0.932529 0.931602 0.928662 0.928398 0.930642 0.930820 0.931493 0.932102 0.934067 0.931488 0.929741 0.928292 0.927931 0.930202 0.915465 0.912123 0.903976 0.904926 0.905984 0.902284 0.900748 0.902865 0.903772 0.903692 0.891440 0.891344 0.882683 0.880538 0.876477 0.874266 0.876016 0.878680 0.882702 0.882786 0.883449 0.865022 0.862260 0.857209 0.850796 0.848494 0.847237 0.849321 0.845411 0.847659 0.848500 0.842345 0.836422 0.829435 0.822281 0.821193 0.826630 0.832173 0.834133 0.841316 0.840738 0.755835 0.758770 0.765048 0.751503 0.718059 0.707008 0.711566 0.711348 0.705830 0.703953 0.702137 0.690234 0.670431 0.636458 0.636617 0.578938 0.560118 0.623272 0.571665 0.534784 0.561317 0.547337 0.561373 0.569348 0.590228 0.605231 0.592087 0.571727 0.559866 0.527326 0.538113 0.521937 0.509898 0.494781 0.498433 0.508774 0.489141 0.408399 0.407187 0.393745 0.394657 0.408948 0.399183 0.389793 0.387416 0.367906 0.346423 0.344272 0.288498 0.255833 0.256594 0.246887 0.236361 0.239748 0.238020 0.263009 0.257806 0.251450 0.214439 0.246376 0.257001 0.235801 0.213133 0.180057 0.178223 0.177872 0.179866 0.172468 0.169519 0.201419 0.214444 0.220698 0.184400 0.140908 0.174343 0.165074 0.148135 0.147987 0.157195 0.151485 0.108924 0.069019 0.092464 0.094002 0.131790 0.100210 0.102795 0.112037 0.148545 0.122968 0.123680 0.092380 0.068364 0.133382 0.093992 0.082321 0.055097 0.085691 0.073965 0.059889 0.053661 0.034587 0.074053 0.074274 0.061367 0.073479 0.085840 0.098873 0.112518 0.085414 0.131960 0.142921 0.120448 0.139062 0.127203 0.108017 0.164591 0.122763 0.124685 0.119755 0.100794 0.107744 0.136110 0.138171 0.105786 0.120762 0.093687 0.054688 0.088463 0.098787 0.078381 0.053374 0.034733 0.044976 0.020871 0.028786 0.036061 0.041067 0.024226 0.031344 0.040053 -0.004179 -0.050066 -0.057363 -0.054826 -0.078325 -0.030323 0.010453 0.032349 0.020319 0.013527 0.013527 0.013527 0.013527 0.018735 0.018735 0.018735 0.018735 0.018735 0.018735 0.018735 0.018735 0.018735 0.018378 0.018378 0.018378 0.018378 0.018378 0.018378 0.018378 0.018378 0.018378 0.018378 0.018378 0.018378 0.018378 0.018378 0.018378 0.018378
0.000000 0.000000 0.000000 0.000000 0.000000 0.000000 0.000000 0.000000 0.000000 0.000000 0.000000 0.000000 0.000000 0.000000 0.000000 0.000000 0.000000 0.000000 0.000000 0.000000 0.000000 0.000000 0.000000 0.000000 0.000000 0.000000 0.000000 0.000000 0.000000 0.000000 0.000000 0.000000 0.000000 0.000000 0.000000 0.000000 0.000000 0.000000 0.000000 0.000000 0.000000 0.000000 0.000000 0.000000 0.000000 0.000000 0.000000 0.000000 0.000000 0.000000 0.000000 0.000000 0.180334 0.180334 0.180334 0.199007 0.199007 0.199007 0.199007 0.199007 0.199007 0.199007 0.199007 0.199007 0.199007 0.199007 0.199007 0.199007 0.199007 0.199007 0.199007 0.199007 0.199007 0.199007 0.199007 0.199007 0.199007 0.199007 0.199007 0.199007 0.199007 0.199007 0.199007 0.199007 0.199007 0.199007 0.199007 0.199007 0.199007 0.199007 0.199007 0.199007 0.199007 0.199007 0.199007 0.199007 0.230940 0.230940 0.230940 0.230940 0.230940 0.230940 0.230940 0.230940 0.230940 0.230940 0.230940 0.230940 0.230940 0.230940 0.230940 0.230940 0.230940 0.230940 0.230940 0.230940 0.230940 0.230940 0.230940 0.230940 0.230940 0.230940 0.230940 0.230940 0.244339 0.244339 0.244339 0.244339 0.244339 0.244339 0.244339 0.244339 0.244339 0.244339 0.244339 0.244339 0.244339 0.244339 0.244339 0.244339 0.244339 0.244339 0.244339 0.244339 0.244339 0.244339 0.244339 0.251976 0.251976 0.251976 0.251976 0.251976 0.251976 0.251976 0.251976 0.251976 0.251976 0.251976 0.251976 0.251976 0.251976 0.251976 0.251976 0.251976 0.251976 0.251976 0.251976 0.264906 0.264906 0.264906 0.264906 0.264906 0.264906 0.264906 0.264906 0.264906 0.264906 0.264906 0.264906 0.264906 0.264906 0.264906 0.264906 0.264906 0.256074 0.256074 0.256074 0.256074 0.256074 0.256074 0.256074 0.256074 0.256074 0.256074 0.256074 0.256074 0.256074 0.256074 0.256074 0.256074 0.256074 0.269680 0.269680 0.269680 0.269680 0.269680 0.269680 0.269680 0.269680 0.269680 0.269680 0.269680 0.269680 0.269680 0.269680 0.264906 0.264906 0.264906 0.264906 0.264906 0.264906 0.264906 0.264906 0.264906 0.264906 0.264906 0.264906 0.264906 0.264906 0.264906 0.264906 0.264906 0.264906 0.264906 0.264906 0.264906 0.264906 0.264906 0.264906 0.264906 0.264906 0.264906 0.260378 0.260378 0.260378 0.260378 0.260378 0.260378 0.260378 0.260378 0.260378 0.260378 0.260378 0.260378 0.260378 0.264906 0.264906 0.264906 0.264906 0.264906 0.264906 0.264906 0.264906 0.264906 0.264906 0.264906 0.264906 0.269680 0.269680 0.269680 0.269680 0.269680 0.269680 0.269680 0.269680 0.269680 0.269680 0.269680 0.264906 0.264906 0.264906 0.264906 0.264906 0.264906 0.264906 0.264906 0.264906 0.264906 0.264906 0.256074 0.256074 0.256074 0.256074 0.256074 0.256074 0.256074 0.256074 0.256074 0.256074 0.256074 0.264906 0.264906 0.264906 0.264906 0.264906 0.264906 0.264906 0.264906 0.264906 0.264906 0.269680 0.269680 0.269680 0.269680 0.269680 0.269680 0.269680 0.269680 0.269680 0.256074 0.256074 0.256074 0.256074 0.256074 0.256074 0.256074 0.256074 0.256074 0.256074 0.260378 0.260378 0.260378 0.260378 0.260378 0.260378 0.260378 0.260378 0.260378 0.256074 0.256074 0.256074 0.256074 0.256074 0.256074 0.256074 0.256074 0.256074 0.251976 0.251976 0.251976 0.251976 0.251976 0.251976 0.251976 0.251976 0.251976 0.251976 0.251976 0.251976 0.251976 0.251976 0.251976 0.251976
