# Output from CTFFind version 4.1.9, run on 2019-10-31 15:18:17
# Input file: bm3d_stacked3.mrc ; Number of micrographs: 1
# Pixel size: 1.500 Angstroms ; acceleration voltage: 300.0 keV ; spherical aberration: 0.00 mm ; amplitude contrast: 0.07
# Box size: 512 pixels ; min. res.: 30.0 Angstroms ; max. res.: 5.0 Angstroms ; min. def.: 5000.0 um; max. def. 50000.0 um; num. frames averaged: 50
# 6 lines per micrograph: #1 - spatial frequency (1/Angstroms); #2 - 1D rotational average of spectrum (assuming no astigmatism); #3 - 1D rotational average of spectrum; #4 - CTF fit; #5 - cross-correlation between spectrum and CTF fit; #6 - 2sigma of expected cross correlation of noise
0.000000 0.001302 0.002604 0.003906 0.005208 0.006510 0.007812 0.009115 0.010417 0.011719 0.013021 0.014323 0.015625 0.016927 0.018229 0.019531 0.020833 0.022135 0.023438 0.024740 0.026042 0.027344 0.028646 0.029948 0.031250 0.032552 0.033854 0.035156 0.036458 0.037760 0.039062 0.040365 0.041667 0.042969 0.044271 0.045573 0.046875 0.048177 0.049479 0.050781 0.052083 0.053385 0.054688 0.055990 0.057292 0.058594 0.059896 0.061198 0.062500 0.063802 0.065104 0.066406 0.067708 0.069010 0.070312 0.071615 0.072917 0.074219 0.075521 0.076823 0.078125 0.079427 0.080729 0.082031 0.083333 0.084635 0.085938 0.087240 0.088542 0.089844 0.091146 0.092448 0.093750 0.095052 0.096354 0.097656 0.098958 0.100260 0.101562 0.102865 0.104167 0.105469 0.106771 0.108073 0.109375 0.110677 0.111979 0.113281 0.114583 0.115885 0.117188 0.118490 0.119792 0.121094 0.122396 0.123698 0.125000 0.126302 0.127604 0.128906 0.130208 0.131510 0.132812 0.134115 0.135417 0.136719 0.138021 0.139323 0.140625 0.141927 0.143229 0.144531 0.145833 0.147135 0.148438 0.149740 0.151042 0.152344 0.153646 0.154948 0.156250 0.157552 0.158854 0.160156 0.161458 0.162760 0.164062 0.165365 0.166667 0.167969 0.169271 0.170573 0.171875 0.173177 0.174479 0.175781 0.177083 0.178385 0.179688 0.180990 0.182292 0.183594 0.184896 0.186198 0.187500 0.188802 0.190104 0.191406 0.192708 0.194010 0.195312 0.196615 0.197917 0.199219 0.200521 0.201823 0.203125 0.204427 0.205729 0.207031 0.208333 0.209635 0.210938 0.212240 0.213542 0.214844 0.216146 0.217448 0.218750 0.220052 0.221354 0.222656 0.223958 0.225260 0.226562 0.227865 0.229167 0.230469 0.231771 0.233073 0.234375 0.235677 0.236979 0.238281 0.239583 0.240885 0.242188 0.243490 0.244792 0.246094 0.247396 0.248698 0.250000 0.251302 0.252604 0.253906 0.255208 0.256510 0.257812 0.259115 0.260417 0.261719 0.263021 0.264323 0.265625 0.266927 0.268229 0.269531 0.270833 0.272135 0.273438 0.274740 0.276042 0.277344 0.278646 0.279948 0.281250 0.282552 0.283854 0.285156 0.286458 0.287760 0.289062 0.290365 0.291667 0.292969 0.294271 0.295573 0.296875 0.298177 0.299479 0.300781 0.302083 0.303385 0.304688 0.305990 0.307292 0.308594 0.309896 0.311198 0.312500 0.313802 0.315104 0.316406 0.317708 0.319010 0.320312 0.321615 0.322917 0.324219 0.325521 0.326823 0.328125 0.329427 0.330729 0.332031 0.333333 0.334635 0.335938 0.337240 0.338542 0.339844 0.341146 0.342448 0.343750 0.345052 0.346354 0.347656 0.348958 0.350260 0.351562 0.352865 0.354167 0.355469 0.356771 0.358073 0.359375 0.360677 0.361979 0.363281 0.364583 0.365885 0.367188 0.368490 0.369792 0.371094 0.372396 0.373698 0.375000 0.376302 0.377604 0.378906 0.380208 0.381510 0.382812 0.384115 0.385417 0.386719 0.388021 0.389323 0.390625 0.391927 0.393229 0.394531 0.395833 0.397135 0.398438 0.399740 0.401042 0.402344 0.403646 0.404948 0.406250 0.407552 0.408854 0.410156 0.411458 0.412760 0.414062 0.415365 0.416667 0.417969 0.419271 0.420573 0.421875 0.423177 0.424479 0.425781 0.427083 0.428385 0.429688 0.430990 0.432292 0.433594 0.434896 0.436198 0.437500 0.438802 0.440104 0.441406 0.442708 0.444010 0.445312 0.446615 0.447917 0.449219 0.450521 0.451823 0.453125 0.454427 0.455729 0.457031 0.458333 0.459635 0.460938 0.462240 0.463542 0.464844 0.466146 0.467448 0.468750 0.470052 0.471354
       0.02617        0.02617        0.02617        0.02617        0.02617        0.02617        0.02617        0.02617        0.02617        0.02617        0.02617        0.02617        0.02617        0.02617        0.02617        0.02617        0.02617        0.02617        0.02617        0.02617        0.02617        0.02617        0.02617        0.02617        0.02617        0.14753        0.71181        0.16913       -1.08658       -1.96062       -2.24543       -1.63356       -1.11426       -0.13144        0.25435        1.02075        1.64857        1.63178        1.81012        1.50827        0.93424        0.04323       -0.39217       -0.73006       -0.87241       -0.76391       -0.33836        0.05814        0.17533        0.31509        0.49547        0.60261        0.25878        0.04767       -0.13349       -0.32326       -0.43439       -0.18930       -0.19664       -0.07592       -0.00467       -0.10098       -0.01394        0.03369        0.10200       -0.01698       -0.06197       -0.16735       -0.26219       -0.35679       -0.31340       -0.24751       -0.18643       -0.35017       -0.26921       -0.45991       -0.38827       -0.38255       -0.33095       -0.35183       -0.33300       -0.26294       -0.19489       -0.18898       -0.04860       -0.11503       -0.01882        0.02911        0.14022        0.20543        0.23321        0.26537        0.30044        0.30185        0.41790        0.37028        0.39248        0.29528        0.25286        0.33208        0.18783        0.08491        0.04229       -0.00862       -0.10996       -0.06990       -0.08532       -0.23510       -0.25441       -0.33792       -0.33416       -0.28188       -0.31567       -0.22443       -0.20000       -0.07687       -0.02486        0.02265        0.09198        0.25627        0.23447        0.28359        0.37197        0.38637        0.31952        0.33217        0.31420        0.22809        0.24510        0.05586        0.01533       -0.05822       -0.16246       -0.25458       -0.18817       -0.22066       -0.25783       -0.23852       -0.12890       -0.10956       -0.00942        0.03180        0.09044        0.17763        0.26201        0.22014        0.22830        0.28327        0.23160        0.15956        0.15493        0.02334       -0.04944       -0.04466       -0.05454       -0.15181       -0.14397       -0.13142       -0.08831       -0.06062        0.01222        0.05116        0.06402        0.12825        0.12024        0.15833        0.12780        0.14340        0.11761        0.08088        0.06583        0.03610       -0.00363       -0.01503       -0.09314       -0.09805       -0.07563       -0.03786       -0.03060        0.04137        0.05446        0.03147        0.08137        0.13563        0.12351        0.08916        0.10508        0.04944        0.02419       -0.00747       -0.03694       -0.01148       -0.03869       -0.00861       -0.00416        0.03089        0.02916        0.08291        0.07818        0.08413        0.07170        0.08424        0.05436        0.02763       -0.01769       -0.00424        0.00585       -0.02079       -0.04510        0.01942        0.04791        0.02811        0.03895        0.04756        0.02896        0.07272        0.06311        0.02648        0.02510        0.01860        0.01496        0.01525        0.01287        0.00909       -0.01226        0.02205        0.03924        0.05305        0.02243        0.01007        0.01302        0.03662        0.00397       -0.01186        0.00744        0.02372        0.03889        0.01757        0.02868        0.04382        0.01553        0.01514        0.03839        0.02040       -0.00007       -0.00894       -0.01218        0.00508        0.02063        0.03321        0.02012        0.02069        0.03222        0.01733        0.00876       -0.00019        0.00736        0.01726        0.00712        0.01579        0.03950        0.01939        0.03551        0.03365        0.02393        0.02786        0.02268        0.02137        0.02019       -0.00423       -0.00341        0.04475        0.01081        0.02299        0.03394        0.02569        0.02619        0.01164        0.02750        0.00524        0.00223       -0.00900        0.01126        0.02842        0.03223        0.00827        0.01686        0.01562        0.01431        0.00125        0.02372        0.00031        0.01059        0.00997        0.02097        0.00299        0.01981        0.02251        0.03213        0.02219        0.01372        0.02950        0.06123        0.00341        0.02930        0.03235        0.00431        0.01661        0.02024        0.01329        0.00530       -0.00637        0.01974       -0.00090       -0.00155        0.01695        0.00609        0.01818        0.01197       -0.00444       -0.00821        0.02216        0.03002        0.04215       -0.01055        0.01178       -0.00530        0.00106        0.04024        0.02680        0.01001       -0.00041        0.03826        0.03425        0.01090        0.01082        0.00541        0.00654        0.01906        0.00633       -0.00826        0.02413       -0.00515       -0.02259        0.00580       -0.02022        0.02539        0.03584        0.03738        0.03249        0.00065        0.04870        0.05209        0.00507        0.00028       -0.04450       -0.06137        0.01190        0.11612        0.03589       -0.05428       -0.20083       -0.38823
-0.060467 0.583958 0.585073 0.586154 0.587199 0.588209 0.589185 0.590125 0.591031 0.591902 0.592738 0.593538 0.594304 0.595035 0.595731 0.596392 0.597018 0.597610 0.598166 0.598687 0.599174 0.599625 0.600042 0.600423 0.600770 0.601082 2.087776 0.775316 -0.948608 -2.865869 -3.340875 -2.110375 -1.607878 0.338998 0.867047 2.016682 3.564256 3.380721 3.431800 3.351785 2.212610 0.658093 -0.014809 -0.581190 -1.014491 -0.806172 -0.115573 0.715535 0.805964 0.851784 1.357407 1.739223 0.955486 0.880340 0.342774 0.081847 -0.326418 0.314570 0.046282 0.488818 0.611895 0.263906 0.498643 0.636020 0.749354 0.559489 0.493777 0.276995 -0.004752 -0.009813 -0.039603 0.061776 0.339840 -0.085819 0.088819 -0.234245 -0.115496 -0.142622 -0.025315 -0.079394 -0.045537 0.059683 0.188412 0.140370 0.438107 0.296801 0.493830 0.450058 0.793360 0.790846 0.855362 0.947418 1.003069 0.967732 1.199775 1.075977 1.222750 0.995036 0.864945 1.073442 0.820778 0.707115 0.507431 0.518353 0.321976 0.298457 0.427985 0.093754 0.030881 -0.042959 -0.202247 0.093755 -0.165125 0.028015 0.150978 0.242116 0.356525 0.447487 0.560519 0.720516 0.897770 0.761379 1.096578 1.058861 0.941705 0.990669 0.938842 0.831702 0.783609 0.627757 0.430167 0.339427 0.171912 -0.040541 0.028206 0.100734 -0.095257 -0.055627 0.111335 0.163791 0.271934 0.396891 0.457860 0.556375 0.762671 0.787951 0.700625 0.724215 0.768923 0.618185 0.563701 0.470179 0.232880 0.222812 0.186841 0.095561 0.028117 0.038072 0.166111 0.070316 0.238281 0.352994 0.303512 0.460394 0.433948 0.457920 0.545979 0.451063 0.453524 0.408993 0.356567 0.290968 0.265941 0.182641 0.144308 0.002173 0.078525 0.145726 0.136683 0.197398 0.249448 0.237537 0.293829 0.366700 0.324733 0.345005 0.252776 0.206457 0.217528 0.127515 0.032225 0.096165 0.010604 0.065666 0.066827 0.090160 0.112594 0.140804 0.257388 0.151530 0.235223 0.173596 0.197915 0.132456 0.055974 -0.006434 0.067667 0.034201 -0.006471 -0.036255 0.102093 0.128169 0.051875 0.106628 0.085891 0.063534 0.181235 0.046526 0.040883 0.052758 0.013819 0.016200 -0.001696 0.026309 -0.014648 -0.024025 0.033357 0.038489 0.062989 -0.032897 0.015448 0.001278 0.046904 -0.020082 -0.029588 -0.008778 0.027043 0.029192 0.007906 0.055236 0.018421 -0.003778 -0.024157 0.030664 -0.037615 -0.034469 -0.040740 -0.079028 -0.026198 -0.015198 0.040653 -0.035211 0.002919 -0.002523 -0.023898 -0.024755 -0.041860 -0.030575 -0.019235 -0.036166 -0.016888 0.033382 -0.044555 0.034000 -0.008079 0.012227 -0.021856 -0.008511 0.010601 -0.036995 -0.079154 -0.026656 0.032886 -0.033851 0.000059 0.013107 -0.007162 0.004300 -0.009116 -0.031255 -0.025755 -0.084264 -0.038111 -0.003402 -0.000901 0.004106 -0.016259 -0.037216 0.000570 0.022754 -0.041494 0.071424 -0.047318 0.038711 0.001284 0.022231 -0.007935 0.030770 0.032658 0.071132 0.052274 0.005491 0.101565 0.094741 -0.003427 0.072636 0.057520 0.018143 0.024653 0.026427 0.018750 0.016051 -0.063258 0.063673 -0.049880 -0.002362 0.020946 -0.018826 0.018415 -0.012912 -0.057017 -0.062504 -0.015164 0.007368 0.040195 -0.093764 0.006655 -0.092723 -0.064509 0.042078 -0.068247 -0.021314 -0.080641 0.025270 -0.023476 -0.071175 -0.019222 -0.061824 -0.071129 0.001522 -0.062056 -0.090031 0.011140 -0.094059 -0.085405 -0.053755 -0.064823 0.039605 -0.007926 0.021623 0.019786 -0.038652 0.025788 0.104929 -0.030033 -0.077944 -0.036548 -0.154744 0.062049 0.238839 0.037787 -0.090964 -0.651335
0.072396 0.072903 0.074424 0.076958 0.080505 0.085064 0.090633 0.097212 0.104797 0.113386 0.122976 0.133562 0.145138 0.157698 0.171235 0.185739 0.201197 0.217599 0.234927 0.253165 0.272291 0.292282 0.313113 0.334752 0.357165 0.380315 0.404159 0.428650 0.453737 0.479361 0.505460 0.531966 0.558803 0.585892 0.613145 0.640468 0.667760 0.694914 0.721815 0.748342 0.774367 0.799753 0.824361 0.848040 0.870638 0.891993 0.911940 0.930310 0.946930 0.961621 0.974205 0.984501 0.992330 0.997511 0.999869 0.999231 0.995430 0.988307 0.977711 0.963504 0.945560 0.923769 0.898039 0.868295 0.834488 0.796591 0.754603 0.708554 0.658504 0.604545 0.546804 0.485447 0.420676 0.352732 0.281898 0.208496 0.132892 0.055491 0.023263 0.102883 0.182848 0.262601 0.341551 0.419081 0.494550 0.567294 0.636640 0.701903 0.762401 0.817457 0.866409 0.908619 0.943481 0.970432 0.988959 0.998613 0.999014 0.989862 0.970950 0.942167 0.903509 0.855090 0.797139 0.730015 0.654204 0.570322 0.479118 0.381469 0.278378 0.170963 0.060456 0.051814 0.164435 0.275922 0.384743 0.489334 0.588126 0.679565 0.762143 0.834420 0.895057 0.942841 0.976714 0.995799 0.999427 0.987162 0.958817 0.914476 0.854505 0.779564 0.690604 0.588871 0.475897 0.353479 0.223668 0.088731 0.048877 0.186559 0.321617 0.451309 0.572902 0.683736 0.781280 0.863201 0.927419 0.972176 0.996083 0.998177 0.977962 0.935441 0.871144 0.786137 0.682022 0.560921 0.425446 0.278657 0.123999 0.034767 0.193652 0.348537 0.495275 0.629812 0.748294 0.847193 0.923416 0.974417 0.998293 0.993866 0.960753 0.899408 0.811143 0.698128 0.563353 0.410571 0.244211 0.069260 0.108876 0.284531 0.451956 0.605516 0.739878 0.850207 0.932360 0.983049 0.999998 0.982059 0.929300 0.843047 0.725883 0.581599 0.415102 0.232257 0.039716 0.155332 0.345404 0.523022 0.681002 0.812768 0.912624 0.976039 0.999863 0.982515 0.924103 0.826480 0.693225 0.529547 0.342110 0.138791 0.071635 0.279862 0.476460 0.652297 0.798991 0.909315 0.977586 0.999982 0.974794 0.902574 0.786182 0.630725 0.443365 0.233034 0.010028 0.214479 0.428979 0.622225 0.783834 0.904868 0.978351 0.999716 0.967124 0.881650 0.747314 0.570948 0.361886 0.131524 0.107288 0.340937 0.555819 0.739144 0.879718 0.968654 0.999985 0.971106 0.883034 0.740448 0.551507 0.327434 0.081894 0.169804 0.411650 0.627949 0.804351 0.928839 0.992588 0.990646 0.922373 0.791605 0.606509 0.379151 0.124755 0.139281 0.394539 0.622877 0.807725 0.935320 0.995795 0.983990 0.899962 0.749120 0.541961 0.293405 0.021788 0.252461 0.508340 0.725872 0.887720 0.980590 0.996411 0.933098 0.794876 0.592093 0.340540 0.060276 0.225920 0.494360 0.722443 0.890561 0.983851 0.993586 0.918068 0.762950 0.540923 0.270767 0.024170 0.317938 0.584242 0.798838 0.941748 0.999218 0.965119 0.841698 0.639558 0.376865 0.077806 0.229596 0.516043 0.753784 0.919339 0.995881 0.975052 0.857974 0.655357 0.386630 0.078204 0.239091 0.533010 0.773216 0.934431 0.999186 0.959821 0.819509 0.592154 0.301135 0.022973 0.345574 0.631701 0.849826 0.975411 0.993765 0.901884 0.709040 0.435996 0.112895 0.223971 0.536201 0.787653 0.948690 0.999772 0.933957 0.757976 0.491719 0.166133 0.180277 0.505932 0.771163 0.943120 0.999911 0.933553 0.751235 0.474713 0.137893 0.217247 0.545789 0.805599 0.962768 0.996161 0.900422 0.686971 0.382843 0.027413 0.332595 0.649211
1.000000 1.000000 1.000000 1.000000 1.000000 1.000000 1.000000 1.000000 1.000000 1.000000 1.000000 1.000000 1.000000 1.000000 1.000000 1.000000 1.000000 1.000000 1.000000 1.000000 1.000000 1.000000 1.000000 1.000000 1.000000 1.000000 0.355013 0.355013 0.355013 0.355013 0.355013 0.355013 0.355013 0.355013 0.355013 0.355013 0.355013 0.355013 0.355013 0.355013 0.355013 0.355013 0.355013 0.355013 0.355013 0.355013 0.355013 0.355013 0.355013 0.355013 0.355013 0.355013 0.355013 0.355013 0.355013 0.313472 0.313472 0.313472 0.313472 0.313472 0.313472 0.313472 0.313472 0.313472 0.313472 0.313472 0.313472 0.313472 0.313472 0.313472 0.313472 0.313472 0.313472 0.313472 0.313472 0.313472 0.310197 0.321786 0.320798 0.312010 0.306582 0.310328 0.313207 0.325906 0.331164 0.333327 0.351146 0.372743 0.385971 0.395768 0.402465 0.401153 0.410549 0.435314 0.481545 0.557571 0.915287 0.916534 0.912785 0.918855 0.919843 0.920192 0.920609 0.921469 0.922984 0.923510 0.926386 0.929672 0.934754 0.936456 0.951350 0.952392 0.963720 0.964384 0.963379 0.961887 0.969920 0.968701 0.968286 0.968263 0.969330 0.968301 0.967691 0.967846 0.971216 0.969870 0.968035 0.967575 0.965459 0.963962 0.962881 0.962415 0.962725 0.963065 0.963141 0.963566 0.964370 0.964432 0.964924 0.965333 0.967260 0.967933 0.969009 0.968621 0.961915 0.969284 0.967309 0.966991 0.966123 0.963609 0.963765 0.963999 0.963953 0.963506 0.963525 0.959180 0.953023 0.951386 0.946399 0.936921 0.937486 0.940705 0.941906 0.941965 0.939466 0.936256 0.928981 0.939900 0.934068 0.927466 0.928687 0.916736 0.918112 0.915078 0.914613 0.910657 0.899692 0.886197 0.883910 0.882240 0.885659 0.885630 0.883389 0.882445 0.850516 0.825765 0.827495 0.797906 0.778912 0.778619 0.775672 0.782472 0.794409 0.796343 0.795274 0.777034 0.764162 0.745798 0.745159 0.686889 0.675660 0.733128 0.674359 0.652906 0.639284 0.654473 0.654656 0.668836 0.669399 0.621387 0.588802 0.573915 0.552921 0.542041 0.529379 0.534511 0.522187 0.518764 0.519235 0.524258 0.504621 0.458823 0.405147 0.397279 0.399998 0.407820 0.387091 0.354666 0.319747 0.327388 0.320457 0.224516 0.218710 0.191455 0.185941 0.202580 0.205007 0.216697 0.221406 0.193934 0.174433 0.175914 0.101776 0.187716 0.150494 0.080938 0.088736 0.083709 0.082084 0.070170 0.061253 0.071423 0.060343 0.062418 0.072862 0.019718 -0.005737 -0.048139 -0.008105 -0.007185 0.009221 0.007629 -0.022207 -0.033594 -0.044795 -0.045121 -0.018614 -0.027058 -0.034842 -0.028414 -0.015401 -0.029195 -0.004958 -0.001434 -0.023112 -0.055645 -0.088731 -0.028473 -0.042276 -0.030996 -0.042939 -0.038808 -0.040326 -0.019528 -0.001104 0.006099 0.060185 0.063055 0.042757 0.062196 0.023586 -0.006913 0.032819 -0.005589 -0.051684 -0.017891 -0.026260 -0.044656 -0.080523 -0.064129 -0.107590 -0.031580 -0.063928 -0.060819 -0.041505 -0.076225 -0.102289 -0.122792 -0.130851 -0.139435 -0.128938 -0.138923 -0.124867 -0.123152 -0.052092 -0.030701 -0.037033 -0.059926 -0.058545 -0.072925 -0.068628 -0.076282 -0.061390 -0.036260 -0.033198 -0.042729 -0.057407 -0.094418 -0.138449 -0.158092 -0.152678 -0.099540 -0.081106 -0.062356 -0.080943 -0.080943 -0.080943 -0.080943 -0.086209 -0.086209 -0.086209 -0.086209 -0.086209 -0.086209 -0.086209 -0.086209 -0.086209 -0.059290 -0.059290 -0.059290 -0.059290 -0.059290 -0.059290 -0.059290 -0.059290 -0.059290 -0.059290 -0.059290 -0.059290 -0.059290 -0.059290 -0.059290 -0.059290
0.000000 0.000000 0.000000 0.000000 0.000000 0.000000 0.000000 0.000000 0.000000 0.000000 0.000000 0.000000 0.000000 0.000000 0.000000 0.000000 0.000000 0.000000 0.000000 0.000000 0.000000 0.000000 0.000000 0.000000 0.000000 0.000000 0.180334 0.180334 0.180334 0.180334 0.180334 0.180334 0.180334 0.180334 0.180334 0.180334 0.180334 0.180334 0.180334 0.180334 0.180334 0.180334 0.180334 0.180334 0.180334 0.180334 0.180334 0.180334 0.180334 0.180334 0.180334 0.180334 0.180334 0.180334 0.180334 0.199007 0.199007 0.199007 0.199007 0.199007 0.199007 0.199007 0.199007 0.199007 0.199007 0.199007 0.199007 0.199007 0.199007 0.199007 0.199007 0.199007 0.199007 0.199007 0.199007 0.199007 0.199007 0.199007 0.199007 0.199007 0.199007 0.199007 0.199007 0.199007 0.199007 0.199007 0.199007 0.199007 0.199007 0.199007 0.199007 0.199007 0.199007 0.199007 0.199007 0.199007 0.230940 0.230940 0.230940 0.230940 0.230940 0.230940 0.230940 0.230940 0.230940 0.230940 0.230940 0.230940 0.230940 0.230940 0.230940 0.230940 0.230940 0.230940 0.230940 0.230940 0.230940 0.230940 0.230940 0.230940 0.230940 0.230940 0.230940 0.230940 0.244339 0.244339 0.244339 0.244339 0.244339 0.244339 0.244339 0.244339 0.244339 0.244339 0.244339 0.244339 0.244339 0.244339 0.244339 0.244339 0.244339 0.244339 0.244339 0.244339 0.244339 0.244339 0.244339 0.251976 0.251976 0.251976 0.251976 0.251976 0.251976 0.251976 0.251976 0.251976 0.251976 0.251976 0.251976 0.251976 0.251976 0.251976 0.251976 0.251976 0.251976 0.251976 0.251976 0.264906 0.264906 0.264906 0.264906 0.264906 0.264906 0.264906 0.264906 0.264906 0.264906 0.264906 0.264906 0.264906 0.264906 0.264906 0.264906 0.264906 0.256074 0.256074 0.256074 0.256074 0.256074 0.256074 0.256074 0.256074 0.256074 0.256074 0.256074 0.256074 0.256074 0.256074 0.256074 0.256074 0.256074 0.269680 0.269680 0.269680 0.269680 0.269680 0.269680 0.269680 0.269680 0.269680 0.269680 0.269680 0.269680 0.269680 0.269680 0.264906 0.264906 0.264906 0.264906 0.264906 0.264906 0.264906 0.264906 0.264906 0.264906 0.264906 0.264906 0.264906 0.264906 0.256074 0.256074 0.256074 0.256074 0.256074 0.256074 0.256074 0.256074 0.256074 0.256074 0.256074 0.256074 0.256074 0.256074 0.269680 0.269680 0.269680 0.269680 0.269680 0.269680 0.269680 0.269680 0.269680 0.269680 0.269680 0.269680 0.264906 0.264906 0.264906 0.264906 0.264906 0.264906 0.264906 0.264906 0.264906 0.264906 0.264906 0.264906 0.269680 0.269680 0.269680 0.269680 0.269680 0.269680 0.269680 0.269680 0.269680 0.269680 0.269680 0.264906 0.264906 0.264906 0.264906 0.264906 0.264906 0.264906 0.264906 0.264906 0.264906 0.264906 0.256074 0.256074 0.256074 0.256074 0.256074 0.256074 0.256074 0.256074 0.256074 0.256074 0.256074 0.264906 0.264906 0.264906 0.264906 0.264906 0.264906 0.264906 0.264906 0.264906 0.264906 0.260378 0.260378 0.260378 0.260378 0.260378 0.260378 0.260378 0.260378 0.260378 0.260378 0.264906 0.264906 0.264906 0.264906 0.264906 0.264906 0.264906 0.264906 0.264906 0.260378 0.260378 0.260378 0.260378 0.260378 0.260378 0.260378 0.260378 0.260378 0.256074 0.256074 0.256074 0.256074 0.256074 0.256074 0.256074 0.256074 0.256074 0.251976 0.251976 0.251976 0.251976 0.251976 0.251976 0.251976 0.251976 0.251976 0.251976 0.251976 0.251976 0.251976 0.251976 0.251976 0.251976
