# Output from CTFFind version 4.1.9, run on 2019-10-25 17:27:21
# Input file: May08_03.05.02.bin.mrc ; Number of micrographs: 1
# Pixel size: 1.000 Angstroms ; acceleration voltage: 300.0 keV ; spherical aberration: 0.00 mm ; amplitude contrast: 0.00
# Box size: 512 pixels ; min. res.: 30.0 Angstroms ; max. res.: 5.0 Angstroms ; min. def.: 5000.0 um; max. def. 50000.0 um; num. frames averaged: 50
# 6 lines per micrograph: #1 - spatial frequency (1/Angstroms); #2 - 1D rotational average of spectrum (assuming no astigmatism); #3 - 1D rotational average of spectrum; #4 - CTF fit; #5 - cross-correlation between spectrum and CTF fit; #6 - 2sigma of expected cross correlation of noise
0.000000 0.001393 0.002786 0.004178 0.005571 0.006964 0.008357 0.009749 0.011142 0.012535 0.013928 0.015320 0.016713 0.018106 0.019499 0.020891 0.022284 0.023677 0.025070 0.026462 0.027855 0.029248 0.030641 0.032033 0.033426 0.034819 0.036212 0.037604 0.038997 0.040390 0.041783 0.043175 0.044568 0.045961 0.047354 0.048747 0.050139 0.051532 0.052925 0.054318 0.055710 0.057103 0.058496 0.059889 0.061281 0.062674 0.064067 0.065460 0.066852 0.068245 0.069638 0.071031 0.072423 0.073816 0.075209 0.076602 0.077994 0.079387 0.080780 0.082173 0.083565 0.084958 0.086351 0.087744 0.089136 0.090529 0.091922 0.093315 0.094708 0.096100 0.097493 0.098886 0.100279 0.101671 0.103064 0.104457 0.105850 0.107242 0.108635 0.110028 0.111421 0.112813 0.114206 0.115599 0.116992 0.118384 0.119777 0.121170 0.122563 0.123955 0.125348 0.126741 0.128134 0.129526 0.130919 0.132312 0.133705 0.135097 0.136490 0.137883 0.139276 0.140669 0.142061 0.143454 0.144847 0.146240 0.147632 0.149025 0.150418 0.151811 0.153203 0.154596 0.155989 0.157382 0.158774 0.160167 0.161560 0.162953 0.164345 0.165738 0.167131 0.168524 0.169916 0.171309 0.172702 0.174095 0.175487 0.176880 0.178273 0.179666 0.181058 0.182451 0.183844 0.185237 0.186630 0.188022 0.189415 0.190808 0.192201 0.193593 0.194986 0.196379 0.197772 0.199164 0.200557 0.201950 0.203343 0.204735 0.206128 0.207521 0.208914 0.210306 0.211699 0.213092 0.214485 0.215877 0.217270 0.218663 0.220056 0.221448 0.222841 0.224234 0.225627 0.227019 0.228412 0.229805 0.231198 0.232591 0.233983 0.235376 0.236769 0.238162 0.239554 0.240947 0.242340 0.243733 0.245125 0.246518 0.247911 0.249304 0.250696 0.252089 0.253482 0.254875 0.256267 0.257660 0.259053 0.260446 0.261838 0.263231 0.264624 0.266017 0.267409 0.268802 0.270195 0.271588 0.272981 0.274373 0.275766 0.277159 0.278552 0.279944 0.281337 0.282730 0.284123 0.285515 0.286908 0.288301 0.289694 0.291086 0.292479 0.293872 0.295265 0.296657 0.298050 0.299443 0.300836 0.302228 0.303621 0.305014 0.306407 0.307799 0.309192 0.310585 0.311978 0.313370 0.314763 0.316156 0.317549 0.318942 0.320334 0.321727 0.323120 0.324513 0.325905 0.327298 0.328691 0.330084 0.331476 0.332869 0.334262 0.335655 0.337047 0.338440 0.339833 0.341226 0.342618 0.344011 0.345404 0.346797 0.348189 0.349582 0.350975 0.352368 0.353760 0.355153 0.356546 0.357939 0.359331 0.360724 0.362117 0.363510 0.364903 0.366295 0.367688 0.369081 0.370474 0.371866 0.373259 0.374652 0.376045 0.377437 0.378830 0.380223 0.381616 0.383008 0.384401 0.385794 0.387187 0.388579 0.389972 0.391365 0.392758 0.394150 0.395543 0.396936 0.398329 0.399721 0.401114 0.402507 0.403900 0.405292 0.406685 0.408078 0.409471 0.410864 0.412256 0.413649 0.415042 0.416435 0.417827 0.419220 0.420613 0.422006 0.423398 0.424791 0.426184 0.427577 0.428969 0.430362 0.431755 0.433148 0.434540 0.435933 0.437326 0.438719 0.440111 0.441504 0.442897 0.444290 0.445682 0.447075 0.448468 0.449861 0.451253 0.452646 0.454039 0.455432 0.456825 0.458217 0.459610 0.461003 0.462396 0.463788 0.465181 0.466574 0.467967 0.469359 0.470752 0.472145 0.473538 0.474930 0.476323 0.477716 0.479109 0.480501 0.481894 0.483287 0.484680 0.486072 0.487465 0.488858 0.490251 0.491643 0.493036 0.494429 0.495822 0.497214 0.498607 0.500000 0.501393 0.502786 0.504178
       0.02831        0.03527        0.04108        0.04316        0.04404        0.04479        0.04507        0.04540        0.04562        0.04576        0.04593        0.04599        0.04612        0.04619        0.04624        0.04631        0.04634        0.04641        0.04643        0.04647        0.04650        0.04653        0.04656        0.04904        0.75529        1.93794        2.14630        2.08811        1.27532        0.02252       -0.83623       -1.14174       -0.64402       -0.00851        0.16488        0.39878        0.24958       -0.00250       -0.17806       -0.44388       -0.44448       -0.36155       -0.26050       -0.22578       -0.09619       -0.21045       -0.21251       -0.32511       -0.39766       -0.40338       -0.30751       -0.43612       -0.41691       -0.42014       -0.41301       -0.32346       -0.36296       -0.17863       -0.17813       -0.20740        0.04097        0.11054        0.18825        0.19959        0.23116        0.36747        0.28456        0.34158        0.30441        0.27318        0.16741        0.09677        0.07459        0.00624       -0.04366       -0.16925       -0.21487       -0.23101       -0.22283       -0.23724       -0.04967        0.04543       -0.03340        0.16661        0.13802        0.26827        0.26325        0.25339        0.34681        0.20415        0.21885        0.07218       -0.01409       -0.07252       -0.15794       -0.14957       -0.08770       -0.12749       -0.00213        0.03245        0.09739        0.13871        0.18637        0.15470        0.13670        0.09397        0.03770       -0.02896       -0.01968       -0.09375       -0.08454       -0.06550       -0.02909        0.13918        0.15913        0.21691        0.15114        0.09418        0.13950        0.08451        0.01110       -0.02440       -0.04100       -0.07594       -0.06522       -0.01317        0.08113        0.02825        0.06228        0.07118        0.06007        0.09011        0.03350       -0.01845       -0.04121        0.02114        0.03255       -0.00529        0.02694        0.11843        0.18503        0.15442        0.09799        0.03583       -0.03736       -0.06879        0.05154        0.09445        0.03531        0.07528        0.13468        0.12576        0.10073        0.03666       -0.06480       -0.06351       -0.01337        0.03641        0.06304        0.06726       -0.00401        0.04429        0.14040        0.04470        0.02305       -0.00906        0.01802        0.03793        0.05195        0.07189        0.10272        0.05146        0.01390        0.02753        0.08025        0.01395        0.02037        0.08220        0.08712        0.05982       -0.02198        0.01666        0.02231       -0.00671        0.00973        0.04323        0.09443        0.10629        0.10854        0.05058        0.04104        0.03452        0.02088        0.02987        0.07594        0.07300        0.05155        0.03551        0.04811        0.03449        0.02305        0.07519        0.04270        0.02942        0.05490        0.06369        0.01919       -0.00644        0.07965        0.06357        0.03465        0.04248        0.03500        0.02704        0.09072        0.07070        0.12994        0.06296        0.05006        0.01251        0.02353        0.03635        0.02118        0.04051       -0.00691        0.04257        0.04934        0.03860        0.01058        0.01778        0.04366        0.01509        0.02877        0.06791        0.01295        0.07280        0.06026        0.08566        0.08887        0.09819        0.02619        0.01826        0.06918        0.06812        0.06364        0.08135        0.01980        0.06023        0.01802        0.03259        0.04330        0.04921        0.03222        0.03677        0.04839       -0.03886        0.01488        0.07095        0.09507        0.04004        0.02208        0.05051        0.08121        0.09910        0.04068        0.05884        0.03567       -0.03245        0.04781        0.16886        0.05351        0.01593        0.05059        0.00090        0.04834        0.06431        0.04324        0.00935        0.01450        0.05156        0.09900        0.02118       -0.01674       -0.04045        0.05596        0.13631        0.11783       -0.00863        0.01806        0.01446        0.07487        0.12134        0.07979        0.11757        0.10770        0.09960        0.06893        0.00202        0.06939        0.04491        0.07194       -0.01484       -0.00621        0.04314        0.10949        0.04853        0.07873        0.07877        0.02397        0.00849       -0.02425        0.06787       -0.01378       -0.01310        0.10144        0.06101       -0.00990        0.01761        0.01400        0.09617       -0.03534        0.00002        0.12825        0.03310        0.05819        0.12888        0.06904        0.11471        0.08851       -0.00318        0.02216        0.08319       -0.06234       -0.07869        0.01373        0.09868        0.04904        0.00386       -0.02397        0.01154        0.04710        0.26095        0.10266        0.05202        0.02207       -0.03307        0.08249        0.22154        0.03392        0.01999        0.04351       -0.18271       -0.06053        0.12457        0.32383       -0.15392       -0.10355       -0.20617       -0.02888        0.19813       -0.18251       -0.65390       -1.52569
-0.025256 1.025395 1.031053 1.032781 1.036382 1.033288 1.032952 1.030565 1.028890 1.027348 1.024478 1.022538 1.019775 1.017336 1.014675 1.011975 1.009114 1.006187 1.003284 1.000218 0.997203 0.993937 0.990716 0.987369 2.273356 5.706294 6.594471 5.708507 4.715962 0.722873 -1.470834 -2.107794 -0.741939 1.084886 1.114317 1.644235 1.607869 0.878316 0.462366 -0.596750 -0.512486 0.167713 0.037909 0.235089 0.414636 0.418863 0.216397 -0.095861 -0.232188 -0.106463 -0.187318 -0.136292 -0.518164 0.040939 -0.471877 0.039034 -0.275853 0.006692 0.445300 0.020306 0.963890 0.988413 1.025165 1.186852 1.377683 1.334449 1.549196 1.388235 1.381032 1.441765 1.067541 0.858340 0.867387 0.858118 0.448550 0.095266 0.155692 -0.022938 -0.076837 0.266437 0.093385 0.737737 0.675191 0.802388 0.800889 1.133634 1.157446 1.446633 1.182044 1.249922 1.142744 0.573522 0.504320 0.286683 0.173937 -0.005344 0.344396 0.046638 0.345458 0.514242 0.634092 0.770595 0.917908 0.509723 0.865276 0.733405 0.366799 0.353927 0.342126 0.151287 -0.024189 0.143641 0.236062 0.422633 0.759134 0.993262 0.575244 0.653441 0.591858 0.377046 0.282627 -0.042633 0.156616 0.030495 -0.077313 -0.099281 0.321224 0.417347 0.262222 0.371471 0.251877 0.339832 0.233459 -0.066209 0.051056 0.074611 0.311457 -0.039845 0.153400 0.222972 0.456297 0.454956 0.388387 0.224907 -0.022418 -0.098351 -0.043463 0.168329 0.203621 0.274980 0.319393 0.339602 0.364696 0.119301 -0.049788 -0.223988 -0.051734 -0.106178 0.174267 0.225811 0.045150 0.299813 0.250814 0.245713 0.198963 0.021699 0.090172 0.098525 0.152891 0.244682 0.356448 0.127083 -0.102547 0.191921 0.123512 -0.000496 0.063627 0.170684 0.373011 0.295415 0.065191 -0.002536 -0.205955 0.002370 0.175143 0.089025 0.236678 0.241181 0.183544 0.279899 -0.052085 0.143979 0.051529 0.063009 0.232396 0.255550 0.343411 0.169475 -0.028198 0.043909 0.043675 0.088770 0.212215 0.177775 0.044575 -0.075974 -0.056339 0.011325 0.142781 0.205335 0.084795 0.130992 0.051355 0.070572 0.001864 0.274470 0.206253 0.185481 0.213174 0.113581 -0.051890 -0.041096 0.028094 0.137398 0.130028 0.057871 -0.003596 0.054187 0.007636 -0.025175 0.130019 0.179236 0.012468 -0.049922 0.003085 0.206378 0.295323 0.116749 0.144132 0.107201 -0.015819 0.125727 0.179763 0.149595 0.093256 0.071699 0.062401 0.125245 -0.001624 0.110129 0.155788 -0.074172 0.017101 -0.002626 -0.057561 0.052764 0.060210 0.105866 -0.101023 0.023502 0.213629 0.165377 0.136919 -0.046241 0.021119 -0.060871 -0.103250 0.029968 0.297066 -0.210641 0.037561 -0.138236 0.005230 0.023963 -0.175662 0.069930 -0.116662 -0.102354 0.173487 -0.117870 -0.122483 -0.088336 -0.062285 0.096334 -0.040084 -0.256717 -0.063419 -0.059267 0.023372 0.108828 0.059121 0.069344 0.000828 0.204245 0.006799 -0.280406 0.072958 -0.329113 -0.120279 -0.097346 -0.449313 -0.044341 0.043000 0.121462 -0.218621 0.190688 -0.099280 0.222883 -0.107973 0.412549 0.218443 0.208605 0.087211 -0.005539 -0.092002 -0.178820 -0.158268 0.252223 -0.160127 0.038088 0.127545 -0.097164 0.096489 0.045888 0.083379 0.103794 0.304849 -0.168143 0.055863 -0.213693 -0.236871 0.046219 -0.165325 -0.293567 0.028033 0.009011 -0.417488 -0.112963 0.321830 0.229200 0.004952 -0.168100 -0.012508 -0.197924 -0.227446 0.752064 -0.132125 -0.623132 -0.028715 -0.676059 0.064944 -0.217464 -0.225426 -0.172422 -0.635253 -0.694200 -0.198374 0.934479 0.173399 -0.219565 0.318729 -0.291011 -0.517772
0.000000 0.001038 0.004151 0.009340 0.016604 0.025942 0.037352 0.050829 0.066369 0.083961 0.103592 0.125242 0.148885 0.174488 0.202006 0.231385 0.262558 0.295443 0.329942 0.365937 0.403294 0.441852 0.481431 0.521824 0.562795 0.604083 0.645396 0.686412 0.726780 0.766116 0.804008 0.840014 0.873667 0.904474 0.931922 0.955481 0.974609 0.988760 0.997392 0.999971 0.995984 0.984949 0.966428 0.940035 0.905452 0.862446 0.810874 0.750706 0.682034 0.605087 0.520242 0.428036 0.329172 0.224529 0.115161 0.002299 0.112656 0.228138 0.342438 0.453716 0.560034 0.659384 0.749725 0.829029 0.895328 0.946767 0.981662 0.998554 0.996277 0.974008 0.931330 0.868278 0.785385 0.683713 0.564877 0.431049 0.284946 0.129801 0.030683 0.192412 0.350989 0.501827 0.640285 0.761810 0.862107 0.937299 0.984105 1.000000 0.983373 0.933659 0.851445 0.738535 0.597982 0.434057 0.252174 0.058751 0.138981 0.333227 0.515929 0.679100 0.815188 0.917460 0.980368 0.999898 0.973874 0.902186 0.786943 0.632511 0.445442 0.234271 0.009194 0.218382 0.436389 0.632737 0.796001 0.916128 0.985115 0.997617 0.951437 0.847849 0.691733 0.491473 0.258624 0.007342 0.246426 0.485906 0.694613 0.857526 0.962230 0.999959 0.966447 0.862485 0.694138 0.472573 0.213465 0.063999 0.338462 0.588011 0.791944 0.932564 0.996818 0.977651 0.874929 0.695791 0.454380 0.170914 0.129869 0.420783 0.674624 0.866764 0.977649 0.994949 0.915117 0.744159 0.497466 0.198669 0.122442 0.432783 0.699343 0.892769 0.990727 0.980690 0.861772 0.645344 0.354255 0.020686 0.317241 0.619732 0.850038 0.979060 0.989244 0.877253 0.654974 0.348635 0.003997 0.358055 0.667203 0.889744 0.994429 0.965122 0.803614 0.530089 0.180986 0.195535 0.546073 0.819542 0.974757 0.986919 0.851952 0.587900 0.232977 0.159570 0.529260 0.817626 0.977633 0.981663 0.826706 0.535732 0.154826 0.253742 0.621473 0.885130 0.997836 0.937818 0.713101 0.361110 0.057040 0.466805 0.793387 0.975528 0.977370 0.796053 0.463341 0.040691 0.391653 0.749719 0.962187 0.984989 0.811010 0.472708 0.036768 0.408568 0.771136 0.974040 0.972391 0.763879 0.390580 0.068800 0.515032 0.849647 0.996870 0.921343 0.637327 0.206951 0.272690 0.691027 0.949521 0.985282 0.787085 0.399570 0.085943 0.552387 0.884990 0.999819 0.865622 0.513208 0.029362 0.463783 0.839283 0.998257 0.896584 0.558078 0.070007 0.438583 0.830595 0.998054 0.892509 0.540051 0.036028 0.479859 0.861951 0.999960 0.851607 0.456632 0.072643 0.582414 0.921824 0.987996 0.758156 0.298568 0.253380 0.729515 0.982067 0.930170 0.586883 0.057432 0.491971 0.885817 0.995640 0.782909 0.313810 0.259967 0.749471 0.990605 0.899910 0.504726 0.063468 0.611663 0.950514 0.960252 0.634243 0.083979 0.497703 0.903582 0.986181 0.712537 0.178806 0.421981 0.868969 0.994816 0.749489 0.221729 0.391443 0.857330 0.996025 0.751011 0.213842 0.408359 0.871814 0.991767 0.717356 0.154911 0.471508 0.908472 0.976004 0.643085 0.043668 0.575520 0.955759 0.935012 0.518549 0.119781 0.708492 0.993502 0.848642 0.333384 0.329430 0.848621 0.992528 0.693724 0.082654 0.567302 0.961188 0.916877 0.451089 0.224363 0.797198 0.998736 0.731159 0.117167 0.554044 0.961922 0.908150 0.415015 0.281158 0.841486 0.989311 0.648240 0.015988 0.673789 0.994381 0.813050 0.218038 0.489769 0.947570 0.916911 0.409952 0.312234 0.872134 0.973014 0.557839 0.155828 0.787517
1.000000 1.000000 1.000000 1.000000 1.000000 1.000000 1.000000 1.000000 1.000000 1.000000 1.000000 1.000000 1.000000 1.000000 1.000000 1.000000 1.000000 1.000000 1.000000 1.000000 1.000000 1.000000 1.000000 1.000000 0.291349 0.291349 0.291349 0.291349 0.291349 0.291349 0.291349 0.291349 0.291349 0.291349 0.291349 0.291349 0.291349 0.291349 0.291349 0.220232 0.220232 0.220232 0.220232 0.220232 0.220232 0.220232 0.220232 0.220232 0.220232 0.220232 0.220232 0.220232 0.220232 0.220232 0.220232 0.220232 0.220232 0.220232 0.220232 0.220232 0.211988 0.219883 0.236739 0.260780 0.278635 0.290848 0.310388 0.365500 0.822763 0.839189 0.833019 0.831284 0.828203 0.826532 0.829048 0.844656 0.849268 0.849235 0.852468 0.854092 0.879323 0.874589 0.943603 0.942381 0.945507 0.949141 0.948931 0.947690 0.948951 0.947813 0.945732 0.944046 0.943673 0.942517 0.943253 0.949387 0.949135 0.949099 0.927519 0.925549 0.925041 0.915828 0.904805 0.906095 0.908062 0.909038 0.902687 0.904550 0.897911 0.901848 0.899010 0.878715 0.878105 0.869558 0.832008 0.813428 0.808685 0.802284 0.792646 0.802122 0.798291 0.798342 0.797361 0.809070 0.815771 0.809642 0.807712 0.801716 0.802430 0.807720 0.793386 0.780472 0.776887 0.774414 0.777221 0.790489 0.788146 0.784222 0.776233 0.770856 0.714915 0.724387 0.736579 0.734283 0.738648 0.721402 0.749940 0.753213 0.748737 0.729691 0.728033 0.729585 0.699637 0.683353 0.661243 0.661693 0.662967 0.715249 0.735048 0.741891 0.732857 0.724139 0.730425 0.721812 0.716088 0.712899 0.705884 0.697872 0.702698 0.675903 0.668381 0.666329 0.642698 0.631124 0.628635 0.630265 0.627460 0.630219 0.636009 0.612433 0.674497 0.649883 0.618524 0.641606 0.668843 0.635765 0.638719 0.662834 0.667880 0.682961 0.651374 0.634641 0.643389 0.671534 0.691653 0.694922 0.736724 0.728804 0.723836 0.743796 0.736367 0.717577 0.731832 0.716859 0.727561 0.729871 0.738588 0.709220 0.699677 0.650329 0.676292 0.670196 0.701108 0.713942 0.726161 0.711708 0.715879 0.704519 0.700718 0.716749 0.702634 0.702000 0.708735 0.717649 0.710906 0.693203 0.644689 0.654010 0.653565 0.632619 0.615331 0.640056 0.625688 0.624684 0.597480 0.592916 0.603202 0.600561 0.581420 0.576094 0.588250 0.601066 0.580417 0.543953 0.549540 0.540415 0.523886 0.519534 0.510792 0.506696 0.505598 0.510849 0.539532 0.446161 0.436256 0.417256 0.381345 0.392710 0.365859 0.392722 0.329736 0.420659 0.421921 0.398891 0.369847 0.333274 0.339242 0.310597 0.304579 0.324682 0.328461 0.314772 0.287152 0.323655 0.320877 0.279781 0.309937 0.306486 0.247646 0.208792 0.226875 0.231556 0.200333 0.187164 0.157820 0.117567 0.081990 0.105288 0.101456 0.101847 0.109987 0.092938 0.081164 0.095224 0.059536 0.073439 0.065469 0.066676 0.057782 0.024377 0.064219 0.073722 0.056080 0.006434 0.035589 0.068685 0.039626 0.022139 0.004585 -0.040303 -0.074236 -0.097334 -0.100498 -0.091796 -0.116991 -0.085161 -0.089923 -0.070909 -0.032204 -0.020077 -0.030733 -0.051638 -0.062381 -0.029707 -0.069686 -0.047572 -0.029993 -0.016242 -0.054278 -0.069653 -0.058780 -0.064282 -0.077191 -0.014630 -0.059132 -0.087963 -0.076782 -0.033009 -0.033009 -0.033009 -0.033009 -0.033009 -0.054751 -0.054751 -0.054751 -0.054751 -0.070496 -0.070496 -0.070496 -0.070496 -0.070496 -0.018945 -0.018945 -0.018945 -0.018945 -0.018945 -0.018945 -0.018945 -0.018945 -0.018945 -0.018945 -0.018945 -0.018945
0.000000 0.000000 0.000000 0.000000 -0.000000 -0.000000 0.000000 0.000000 -0.000000 0.000000 -0.000000 -0.000000 0.000000 0.000000 -0.000000 0.000000 -0.000000 -0.000000 0.000000 0.000000 0.000000 0.000000 -0.000000 -0.000000 0.212000 0.212000 0.212000 0.212000 0.212000 0.212000 0.212000 0.212000 0.212000 0.212000 0.212000 0.212000 0.212000 0.212000 0.212000 0.234082 0.234082 0.234082 0.234082 0.234082 0.234082 0.234082 0.234082 0.234082 0.234082 0.234082 0.234082 0.234082 0.234082 0.234082 0.234082 0.234082 0.234082 0.234082 0.234082 0.234082 0.234082 0.234082 0.234082 0.234082 0.234082 0.234082 0.234082 0.234082 0.274721 0.274721 0.274721 0.274721 0.274721 0.274721 0.274721 0.274721 0.274721 0.274721 0.274721 0.274721 0.274721 0.274721 0.274721 0.274721 0.274721 0.274721 0.274721 0.291730 0.291730 0.291730 0.291730 0.291730 0.291730 0.291730 0.291730 0.291730 0.291730 0.291730 0.291730 0.291730 0.291730 0.291730 0.291730 0.298142 0.298142 0.298142 0.298142 0.298142 0.298142 0.298142 0.298142 0.298142 0.298142 0.298142 0.298142 0.298142 0.298142 0.298142 0.298142 0.298142 0.298142 0.298142 0.298142 0.298142 0.298142 0.298142 0.298142 0.298142 0.298142 0.298142 0.312348 0.312348 0.312348 0.312348 0.312348 0.312348 0.312348 0.312348 0.312348 0.312348 0.312348 0.320256 0.320256 0.320256 0.320256 0.320256 0.320256 0.320256 0.320256 0.320256 0.320256 0.312348 0.312348 0.312348 0.312348 0.312348 0.312348 0.312348 0.312348 0.312348 0.312348 0.312348 0.312348 0.312348 0.312348 0.312348 0.312348 0.312348 0.312348 0.312348 0.304997 0.304997 0.304997 0.304997 0.304997 0.304997 0.304997 0.304997 0.304997 0.320256 0.320256 0.320256 0.320256 0.320256 0.320256 0.320256 0.320256 0.312348 0.312348 0.312348 0.312348 0.312348 0.312348 0.312348 0.312348 0.304997 0.304997 0.304997 0.304997 0.304997 0.304997 0.304997 0.304997 0.312348 0.312348 0.312348 0.312348 0.312348 0.312348 0.312348 0.312348 0.312348 0.312348 0.312348 0.312348 0.312348 0.312348 0.304997 0.304997 0.304997 0.304997 0.304997 0.304997 0.304997 0.298142 0.298142 0.298142 0.298142 0.298142 0.298142 0.298142 0.312348 0.312348 0.312348 0.312348 0.312348 0.312348 0.304997 0.304997 0.304997 0.304997 0.304997 0.304997 0.285714 0.285714 0.285714 0.285714 0.285714 0.285714 0.285714 0.298142 0.298142 0.298142 0.298142 0.298142 0.298142 0.320256 0.320256 0.320256 0.320256 0.320256 0.291730 0.291730 0.291730 0.291730 0.291730 0.291730 0.285714 0.285714 0.285714 0.285714 0.285714 0.285714 0.304997 0.304997 0.304997 0.304997 0.304997 0.280056 0.280056 0.280056 0.280056 0.280056 0.280056 0.298142 0.298142 0.298142 0.298142 0.298142 0.291730 0.291730 0.291730 0.291730 0.291730 0.285714 0.285714 0.285714 0.285714 0.285714 0.285714 0.285714 0.285714 0.285714 0.285714 0.280056 0.280056 0.280056 0.280056 0.280056 0.280056 0.280056 0.280056 0.280056 0.280056 0.274721 0.274721 0.274721 0.274721 0.274721 0.269680 0.269680 0.269680 0.269680 0.269680 0.291730 0.291730 0.291730 0.291730 0.264906 0.264906 0.264906 0.264906 0.264906 0.285714 0.285714 0.285714 0.285714 0.260378 0.260378 0.260378 0.260378 0.260378 0.280056 0.280056 0.280056 0.280056 0.256074 0.256074 0.256074 0.256074 0.256074 0.274721 0.274721 0.274721 0.274721 0.274721 0.274721 0.274721 0.274721 0.274721 0.274721 0.274721 0.274721
