# Output from CTFFind version 4.1.9, run on 2019-11-01 22:20:57
# Input file: first_bm3d_averaged_1_2.7_0.11_750_half.mrc ; Number of micrographs: 1
# Pixel size: 3.000 Angstroms ; acceleration voltage: 300.0 keV ; spherical aberration: 0.00 mm ; amplitude contrast: 0.07
# Box size: 512 pixels ; min. res.: 30.0 Angstroms ; max. res.: 5.0 Angstroms ; min. def.: 5000.0 um; max. def. 50000.0 um; num. frames averaged: 1
# 6 lines per micrograph: #1 - spatial frequency (1/Angstroms); #2 - 1D rotational average of spectrum (assuming no astigmatism); #3 - 1D rotational average of spectrum; #4 - CTF fit; #5 - cross-correlation between spectrum and CTF fit; #6 - 2sigma of expected cross correlation of noise
0.000000 0.000651 0.001302 0.001953 0.002604 0.003255 0.003906 0.004557 0.005208 0.005859 0.006510 0.007161 0.007812 0.008464 0.009115 0.009766 0.010417 0.011068 0.011719 0.012370 0.013021 0.013672 0.014323 0.014974 0.015625 0.016276 0.016927 0.017578 0.018229 0.018880 0.019531 0.020182 0.020833 0.021484 0.022135 0.022786 0.023438 0.024089 0.024740 0.025391 0.026042 0.026693 0.027344 0.027995 0.028646 0.029297 0.029948 0.030599 0.031250 0.031901 0.032552 0.033203 0.033854 0.034505 0.035156 0.035807 0.036458 0.037109 0.037760 0.038411 0.039062 0.039714 0.040365 0.041016 0.041667 0.042318 0.042969 0.043620 0.044271 0.044922 0.045573 0.046224 0.046875 0.047526 0.048177 0.048828 0.049479 0.050130 0.050781 0.051432 0.052083 0.052734 0.053385 0.054036 0.054688 0.055339 0.055990 0.056641 0.057292 0.057943 0.058594 0.059245 0.059896 0.060547 0.061198 0.061849 0.062500 0.063151 0.063802 0.064453 0.065104 0.065755 0.066406 0.067057 0.067708 0.068359 0.069010 0.069661 0.070312 0.070964 0.071615 0.072266 0.072917 0.073568 0.074219 0.074870 0.075521 0.076172 0.076823 0.077474 0.078125 0.078776 0.079427 0.080078 0.080729 0.081380 0.082031 0.082682 0.083333 0.083984 0.084635 0.085286 0.085938 0.086589 0.087240 0.087891 0.088542 0.089193 0.089844 0.090495 0.091146 0.091797 0.092448 0.093099 0.093750 0.094401 0.095052 0.095703 0.096354 0.097005 0.097656 0.098307 0.098958 0.099609 0.100260 0.100911 0.101562 0.102214 0.102865 0.103516 0.104167 0.104818 0.105469 0.106120 0.106771 0.107422 0.108073 0.108724 0.109375 0.110026 0.110677 0.111328 0.111979 0.112630 0.113281 0.113932 0.114583 0.115234 0.115885 0.116536 0.117188 0.117839 0.118490 0.119141 0.119792 0.120443 0.121094 0.121745 0.122396 0.123047 0.123698 0.124349 0.125000 0.125651 0.126302 0.126953 0.127604 0.128255 0.128906 0.129557 0.130208 0.130859 0.131510 0.132161 0.132812 0.133464 0.134115 0.134766 0.135417 0.136068 0.136719 0.137370 0.138021 0.138672 0.139323 0.139974 0.140625 0.141276 0.141927 0.142578 0.143229 0.143880 0.144531 0.145182 0.145833 0.146484 0.147135 0.147786 0.148438 0.149089 0.149740 0.150391 0.151042 0.151693 0.152344 0.152995 0.153646 0.154297 0.154948 0.155599 0.156250 0.156901 0.157552 0.158203 0.158854 0.159505 0.160156 0.160807 0.161458 0.162109 0.162760 0.163411 0.164062 0.164714 0.165365 0.166016 0.166667 0.167318 0.167969 0.168620 0.169271 0.169922 0.170573 0.171224 0.171875 0.172526 0.173177 0.173828 0.174479 0.175130 0.175781 0.176432 0.177083 0.177734 0.178385 0.179036 0.179688 0.180339 0.180990 0.181641 0.182292 0.182943 0.183594 0.184245 0.184896 0.185547 0.186198 0.186849 0.187500 0.188151 0.188802 0.189453 0.190104 0.190755 0.191406 0.192057 0.192708 0.193359 0.194010 0.194661 0.195312 0.195964 0.196615 0.197266 0.197917 0.198568 0.199219 0.199870 0.200521 0.201172 0.201823 0.202474 0.203125 0.203776 0.204427 0.205078 0.205729 0.206380 0.207031 0.207682 0.208333 0.208984 0.209635 0.210286 0.210938 0.211589 0.212240 0.212891 0.213542 0.214193 0.214844 0.215495 0.216146 0.216797 0.217448 0.218099 0.218750 0.219401 0.220052 0.220703 0.221354 0.222005 0.222656 0.223307 0.223958 0.224609 0.225260 0.225911 0.226562 0.227214 0.227865 0.228516 0.229167 0.229818 0.230469 0.231120 0.231771 0.232422 0.233073 0.233724 0.234375 0.235026 0.235677
       0.34407        0.34407        0.34407        0.34407        0.34407        0.34407        0.34407        0.34407        0.34407        0.34407        0.34407        0.34407        0.34407        0.34407        0.34407        0.34407        0.34407        0.34407        0.34407        0.34407        0.34407        0.34407        0.34407        0.34407        0.34407        0.34407        0.34407        0.34407        0.34407        0.34407        0.34407        0.34407        0.34407        0.34407        0.34407        0.34407        0.34407        0.34407        0.34407        0.34407        0.34407        0.34407        0.34407        0.34407        0.34407        0.34407        0.34407        0.34407        0.34407        0.34407        0.34407        0.49945        0.71355        0.42356        0.21186       -0.04880       -0.23154       -0.04751       -0.10527       -0.06146        0.01558       -0.12297       -0.09335       -0.03854       -0.01938       -0.13017       -0.16363       -0.29633       -0.46385       -0.56942       -0.50410       -0.44948       -0.35930       -0.56001       -0.42053       -0.56115       -0.46384       -0.47261       -0.37153       -0.34571       -0.30419       -0.21750       -0.12875       -0.12603        0.01904        0.00028        0.15310        0.18659        0.33297        0.43095        0.50430        0.55617        0.56591        0.58322        0.69933        0.64923        0.68037        0.59263        0.55046        0.63662        0.50942        0.45487        0.41221        0.31091        0.27230        0.29631        0.26217        0.10766        0.08723       -0.01070        0.01571        0.04450        0.00450        0.09287        0.13850        0.21951        0.29214        0.29504        0.42313        0.57452        0.56866        0.57209        0.66773        0.65469        0.62748        0.68058        0.64892        0.54982        0.55263        0.42062        0.35610        0.26804        0.18235        0.11009        0.14986        0.12260        0.13249        0.12685        0.22351        0.23289        0.32174        0.36082        0.41539        0.50855        0.53516        0.56026        0.56693        0.60108        0.55345        0.48683        0.48657        0.35218        0.27717        0.27261        0.25100        0.17321        0.16593        0.18393        0.23058        0.26978        0.36120        0.39885        0.41766        0.45328        0.45948        0.48419        0.44596        0.49287        0.44611        0.38376        0.35642        0.35881        0.32416        0.29376        0.21727        0.22819        0.22815        0.27797        0.28250        0.36916        0.40687        0.37761        0.42246        0.45034        0.44910        0.44422        0.45366        0.37367        0.35844        0.29166        0.25456        0.29979        0.28853        0.31800        0.32998        0.36215        0.34909        0.42130        0.41350        0.45096        0.40862        0.43883        0.39121        0.35987        0.30949        0.29440        0.30026        0.28356        0.28745        0.34508        0.35943        0.35494        0.36595        0.36281        0.36570        0.43200        0.40794        0.37672        0.35133        0.31206        0.30152        0.34351        0.32230        0.33946        0.30339        0.32672        0.35877        0.38521        0.36207        0.33979        0.34143        0.35200        0.32841        0.30769        0.33407        0.32184        0.34580        0.33786        0.34607        0.37543        0.32881        0.32600        0.34189        0.31280        0.28770        0.27910        0.28561        0.32075        0.33989        0.36636        0.30732        0.31389        0.34147        0.30696        0.33041        0.29968        0.30815        0.30395        0.29790        0.30338        0.34001        0.33552        0.34291        0.33655        0.36410        0.35851        0.32465        0.33465        0.33662        0.25880        0.27400        0.33590        0.27948        0.30507        0.36113        0.33570        0.34056        0.36665        0.32936        0.27524        0.26711        0.30542        0.34789        0.36454        0.35651        0.32127        0.30255        0.30108        0.30956        0.27216        0.31204        0.30444        0.33858        0.32812        0.30503        0.28613        0.34414        0.34092        0.34195        0.29506        0.28364        0.34601        0.40061        0.35902        0.34949        0.33362        0.30251        0.31141        0.30736        0.30936        0.31104        0.21433        0.26709        0.33219        0.31131        0.30602        0.28775        0.25954        0.22617        0.23551        0.30292        0.31070        0.30023        0.27710        0.30399        0.38872        0.31496        0.23867        0.31757        0.29107        0.25698        0.29078        0.37046        0.31165        0.31592        0.29962        0.25511        0.29606        0.31632        0.25314        0.20406        0.25282        0.24374        0.21329        0.30804        0.25812        0.35886        0.31961        0.25311        0.24139        0.20308        0.28371        0.31634        0.24047        0.15366        0.18426        0.27678        0.25068        0.28709        0.13348        0.11212       -0.48464       -1.07792
2.697985 2.669649 2.641466 2.613435 2.585556 2.557829 2.530255 2.502832 2.475561 2.448443 2.421476 2.394662 2.368000 2.341489 2.315131 2.288925 2.262871 2.236969 2.211219 2.185622 2.160176 2.134882 2.109741 2.084752 2.059914 2.035229 2.010696 1.986315 1.962086 1.938009 1.914084 1.890311 1.866690 1.843222 1.819905 1.796741 1.773728 1.750868 1.728160 1.705604 1.683200 1.660948 1.638848 1.616900 1.595104 1.573461 1.551969 1.530630 1.509442 1.488407 1.467524 1.516845 1.840058 1.500909 1.245171 0.962292 0.563648 0.928143 0.670850 0.856100 0.917511 0.636833 0.685660 0.798956 0.791093 0.629167 0.600204 0.410095 0.104626 0.049326 0.051990 0.054993 0.316509 -0.045337 0.066928 -0.060855 0.019527 -0.021074 0.095761 0.089428 0.148185 0.192959 0.321680 0.273159 0.462022 0.378651 0.590878 0.559636 0.787009 0.816555 0.915506 1.008807 0.964758 0.985452 1.129303 0.955179 1.146066 0.934436 0.880504 0.979085 0.832874 0.776441 0.672105 0.557011 0.504104 0.479831 0.506537 0.266836 0.208093 0.148964 0.030385 0.200138 0.012871 0.125908 0.227219 0.259832 0.324230 0.350775 0.464879 0.575766 0.705407 0.538604 0.732858 0.812413 0.616669 0.752245 0.701685 0.617218 0.499749 0.490803 0.311200 0.228857 0.102088 0.006377 0.001964 0.030398 -0.050152 -0.033090 0.084376 0.061150 0.123590 0.218296 0.247476 0.361684 0.407786 0.424827 0.471513 0.434223 0.472385 0.336772 0.338520 0.252014 0.082122 0.066521 0.035951 -0.043582 -0.067980 -0.079303 -0.008249 -0.034736 0.105406 0.148556 0.172314 0.239146 0.239228 0.261979 0.289426 0.237882 0.261841 0.205098 0.132450 0.107557 0.099961 0.038871 0.012124 -0.099118 -0.021285 0.005892 0.030821 0.017976 0.141270 0.123937 0.142084 0.179543 0.270694 0.164003 0.231455 0.110262 0.157243 0.036406 -0.036563 0.014129 0.001810 0.014744 0.021042 0.079596 0.065004 0.084030 0.167887 0.152179 0.141931 0.102738 0.163425 0.049752 0.047112 -0.022765 -0.029537 -0.022141 -0.050682 -0.020552 0.051980 0.068304 0.016509 0.048481 0.083132 0.066718 0.161204 0.070377 0.082266 0.040554 -0.037202 0.018032 0.034301 -0.004289 0.046419 -0.006004 0.021730 0.045102 0.061820 0.050554 0.028874 -0.009820 0.058222 -0.016584 0.003065 0.022771 -0.008833 0.059870 0.037525 0.036153 0.049727 0.020566 0.012145 0.023610 -0.006774 -0.046939 -0.026546 -0.018674 0.002029 0.040215 0.078500 -0.014717 0.023742 0.092598 -0.020686 0.067352 0.026631 0.026553 0.023243 0.038825 0.038337 0.072544 0.049241 0.100457 0.083786 0.119616 0.102033 0.073208 0.109073 0.052385 -0.017046 0.029778 0.088910 0.013640 0.066508 0.112114 0.011954 0.087818 0.081500 0.022572 0.001731 -0.062239 0.045021 0.090256 0.087020 0.066405 0.057271 -0.018781 0.029290 0.033869 -0.043636 0.051973 0.034391 0.069544 0.084274 -0.011472 0.011521 0.073368 0.036872 0.025030 -0.007072 -0.033260 0.100270 0.114737 0.062463 0.032882 0.045576 0.004516 0.004781 0.007597 -0.010813 0.021614 -0.141077 -0.002931 0.037172 0.037349 -0.011768 -0.035035 -0.025197 -0.070214 -0.016067 -0.003167 0.061874 0.019187 0.028587 0.025663 0.153173 0.050641 -0.030426 0.070824 0.034713 0.016026 0.033424 0.162638 0.063992 0.052296 0.066319 0.010138 0.040391 0.090571 -0.008674 -0.094478 0.011691 0.000936 -0.044581 0.083962 -0.029935 0.188369 0.060889 0.010399 -0.007242 -0.042095 0.017132 0.089762 0.287142 0.175191 0.232101 0.338504 0.289830 0.343461 0.061920 0.136835 -1.275870
0.072396 0.072910 0.074452 0.077021 0.080617 0.085239 0.090885 0.097554 0.105244 0.113951 0.123673 0.134404 0.146138 0.158870 0.172591 0.187291 0.202958 0.219579 0.237138 0.255616 0.274993 0.295243 0.316339 0.338250 0.360940 0.384370 0.408497 0.433270 0.458636 0.484535 0.510903 0.537668 0.564752 0.592072 0.619537 0.647050 0.674507 0.701795 0.728796 0.755384 0.781427 0.806784 0.831309 0.854849 0.877245 0.898330 0.917936 0.935888 0.952006 0.966110 0.978016 0.987540 0.994498 0.998708 0.999991 0.998173 0.993086 0.984571 0.972479 0.956673 0.937032 0.913449 0.885838 0.854134 0.818296 0.778307 0.734182 0.685962 0.633724 0.577580 0.517677 0.454202 0.387379 0.317477 0.244804 0.169712 0.092593 0.013884 0.065940 0.146364 0.226833 0.306762 0.385532 0.462497 0.536990 0.608328 0.675815 0.738753 0.796447 0.848215 0.893395 0.931354 0.961502 0.983293 0.996245 0.999943 0.994051 0.978325 0.952617 0.916888 0.871212 0.815788 0.750939 0.677122 0.594929 0.505083 0.408443 0.306000 0.198862 0.088261 0.024474 0.137918 0.250573 0.360884 0.467261 0.568100 0.661810 0.746840 0.821704 0.885013 0.935503 0.972064 0.993767 0.999894 0.989960 0.963735 0.921265 0.862884 0.789225 0.701223 0.600118 0.487438 0.364995 0.234857 0.099321 0.039122 0.177830 0.314053 0.444995 0.567863 0.679938 0.778630 0.861548 0.926564 0.971875 0.996059 0.998131 0.977584 0.934428 0.869211 0.783033 0.677546 0.554933 0.417884 0.269540 0.113441 0.046557 0.206371 0.361789 0.508583 0.642626 0.760014 0.857185 0.931040 0.979053 0.999370 0.990893 0.953347 0.887324 0.794298 0.676620 0.537478 0.380829 0.211307 0.034094 0.145225 0.320837 0.486882 0.637654 0.767809 0.872555 0.947854 0.990588 0.998711 0.971362 0.908947 0.813166 0.687007 0.534675 0.361477 0.173668 0.021778 0.217391 0.405507 0.578557 0.729377 0.851530 0.939584 0.989384 0.998275 0.965264 0.891123 0.778421 0.631470 0.456197 0.259937 0.051145 0.160952 0.366744 0.556686 0.721733 0.853802 0.946180 0.993893 0.994015 0.945870 0.851148 0.713891 0.540374 0.338849 0.119190 0.107567 0.329767 0.535726 0.714360 0.855793 0.951932 0.996969 0.987766 0.924116 0.808848 0.647755 0.449359 0.224501 0.014217 0.253112 0.478202 0.676018 0.834440 0.943459 0.995858 0.987730 0.918824 0.792665 0.616439 0.400652 0.158541 0.094691 0.342813 0.569597 0.759896 0.900676 0.981952 0.997554 0.945649 0.828986 0.654840 0.434620 0.183195 0.082086 0.342544 0.579486 0.775561 0.916058 0.990063 0.991366 0.919050 0.777705 0.577218 0.332167 0.060811 0.216209 0.477443 0.702272 0.872578 0.974248 0.998405 0.942266 0.809523 0.610200 0.359991 0.079090 0.209386 0.481260 0.713353 0.885459 0.982178 0.994367 0.920087 0.764953 0.541824 0.269827 0.027206 0.322777 0.590072 0.804398 0.945526 0.999662 0.960891 0.831922 0.624036 0.356199 0.053441 0.255431 0.540544 0.773854 0.931951 0.998479 0.965937 0.836626 0.622648 0.344887 0.031076 0.286897 0.576207 0.806499 0.953115 0.999824 0.940744 0.781190 0.537347 0.234766 0.094227 0.413903 0.689024 0.888732 0.990110 0.980905 0.861153 0.643436 0.351703 0.018775 0.317292 0.617492 0.846439 0.976592 0.991694 0.888937 0.679581 0.387875 0.048415 0.297896 0.608718 0.845461 0.978166 0.989406 0.876733 0.653288 0.346450 0.005385 0.357495 0.664491 0.886197 0.992995 0.969922 0.818935 0.558995 0.223845 0.142198 0.490059 0.772433 0.950301 0.998434
1.000000 1.000000 1.000000 1.000000 1.000000 1.000000 1.000000 1.000000 1.000000 1.000000 1.000000 1.000000 1.000000 1.000000 1.000000 1.000000 1.000000 1.000000 1.000000 1.000000 1.000000 1.000000 1.000000 1.000000 1.000000 1.000000 1.000000 1.000000 1.000000 1.000000 1.000000 1.000000 1.000000 1.000000 1.000000 1.000000 1.000000 1.000000 1.000000 1.000000 1.000000 1.000000 1.000000 1.000000 1.000000 1.000000 1.000000 1.000000 1.000000 1.000000 1.000000 1.000000 0.917555 0.917555 0.903234 0.903234 0.903234 0.903234 0.903234 0.903234 0.903234 0.903234 0.903234 0.903234 0.903234 0.903234 0.903234 0.903234 0.903234 0.903234 0.903234 0.903234 0.903234 0.903234 0.903234 0.903234 0.903234 0.903234 0.903234 0.903234 0.903234 0.903234 0.903234 0.903234 0.903234 0.903234 0.903234 0.903234 0.903234 0.903234 0.903234 0.903234 0.903234 0.903234 0.903234 0.897587 0.902465 0.905035 0.903508 0.907123 0.907196 0.905029 0.904292 0.903911 0.904238 0.905286 0.915832 0.930369 0.937861 0.940180 0.943688 0.950582 0.952845 0.952377 0.958628 0.966481 0.965066 0.964605 0.965329 0.966887 0.969080 0.967773 0.967412 0.970459 0.971170 0.969628 0.967407 0.966765 0.966129 0.966210 0.965974 0.966056 0.966343 0.966846 0.966565 0.966275 0.966423 0.966471 0.967490 0.968655 0.971049 0.972099 0.971943 0.970785 0.968759 0.970203 0.973511 0.970539 0.970431 0.969999 0.970305 0.958236 0.950696 0.950795 0.945198 0.943799 0.941853 0.939501 0.938975 0.939395 0.939184 0.940547 0.938537 0.930433 0.924186 0.909614 0.926063 0.922232 0.905962 0.889243 0.891418 0.892835 0.893067 0.890105 0.882785 0.878860 0.876390 0.878111 0.882317 0.886154 0.881593 0.873785 0.872184 0.868614 0.842840 0.819358 0.807972 0.804265 0.801214 0.801969 0.799667 0.798126 0.805743 0.799871 0.794388 0.784626 0.777083 0.747437 0.724638 0.728485 0.736837 0.740601 0.735148 0.708652 0.667787 0.682316 0.686433 0.685964 0.684814 0.673323 0.667719 0.668473 0.673102 0.664570 0.659899 0.660712 0.660211 0.669908 0.673186 0.663354 0.657160 0.641642 0.630516 0.608980 0.611644 0.629230 0.591305 0.583601 0.571129 0.560692 0.553332 0.537078 0.532470 0.526414 0.516628 0.508583 0.506487 0.510160 0.518346 0.520102 0.503936 0.529911 0.527788 0.559978 0.556130 0.543182 0.536624 0.537979 0.527594 0.510913 0.518040 0.518760 0.520661 0.550462 0.552616 0.552974 0.550472 0.543352 0.543697 0.506055 0.513475 0.534021 0.508542 0.472141 0.450888 0.450277 0.423352 0.416079 0.390075 0.380261 0.389392 0.377025 0.368058 0.350575 0.342997 0.267684 0.229723 0.215550 0.211764 0.218866 0.253386 0.261971 0.241193 0.268317 0.314630 0.303831 0.291681 0.276372 0.252762 0.213219 0.208650 0.207681 0.166272 0.166439 0.152350 0.140445 0.140372 0.116210 0.128046 0.056291 0.010769 0.017736 0.036927 0.076380 0.071124 0.076665 0.047573 0.047168 0.039911 -0.001309 0.006883 0.021722 -0.004259 -0.000966 0.018216 0.046462 0.044253 -0.037913 -0.010020 0.024451 0.039970 0.028943 0.027464 0.060754 0.087518 0.088296 0.096089 0.093493 0.074440 0.065886 0.059866 0.020656 0.030594 -0.030870 -0.055744 -0.055744 -0.062699 -0.062699 -0.062699 -0.062699 -0.062699 -0.062699 -0.062699 -0.062699 -0.062699 -0.065332 -0.065332 -0.065332 -0.065332 -0.065332 -0.065332 -0.065332 -0.065332 -0.065332 -0.027879 -0.027879 -0.027879 -0.027879 -0.027879 -0.027879 -0.027879 -0.027879 -0.027879
0.000000 0.000000 0.000000 0.000000 0.000000 0.000000 0.000000 0.000000 0.000000 0.000000 0.000000 0.000000 0.000000 0.000000 0.000000 0.000000 0.000000 0.000000 0.000000 0.000000 0.000000 0.000000 0.000000 0.000000 0.000000 0.000000 0.000000 0.000000 0.000000 0.000000 0.000000 0.000000 0.000000 0.000000 0.000000 0.000000 0.000000 0.000000 0.000000 0.000000 0.000000 0.000000 0.000000 0.000000 0.000000 0.000000 0.000000 0.000000 0.000000 0.000000 0.000000 0.000000 0.181818 0.181818 0.199007 0.199007 0.199007 0.199007 0.199007 0.199007 0.199007 0.199007 0.199007 0.199007 0.199007 0.199007 0.199007 0.199007 0.199007 0.199007 0.199007 0.199007 0.199007 0.199007 0.199007 0.199007 0.199007 0.199007 0.199007 0.199007 0.199007 0.199007 0.199007 0.199007 0.199007 0.199007 0.199007 0.199007 0.199007 0.199007 0.199007 0.199007 0.199007 0.199007 0.199007 0.230940 0.230940 0.230940 0.230940 0.230940 0.230940 0.230940 0.230940 0.230940 0.230940 0.230940 0.230940 0.230940 0.230940 0.230940 0.230940 0.230940 0.230940 0.230940 0.230940 0.230940 0.230940 0.230940 0.230940 0.230940 0.230940 0.230940 0.230940 0.244339 0.244339 0.244339 0.244339 0.244339 0.244339 0.244339 0.244339 0.244339 0.244339 0.244339 0.244339 0.244339 0.244339 0.244339 0.244339 0.244339 0.244339 0.244339 0.244339 0.244339 0.244339 0.244339 0.251976 0.251976 0.251976 0.251976 0.251976 0.251976 0.251976 0.251976 0.251976 0.251976 0.251976 0.251976 0.251976 0.251976 0.251976 0.251976 0.251976 0.251976 0.251976 0.251976 0.264906 0.264906 0.264906 0.264906 0.264906 0.264906 0.264906 0.264906 0.264906 0.264906 0.264906 0.264906 0.264906 0.264906 0.264906 0.264906 0.264906 0.264906 0.264906 0.264906 0.264906 0.264906 0.264906 0.264906 0.264906 0.264906 0.264906 0.264906 0.264906 0.264906 0.264906 0.264906 0.264906 0.264906 0.264906 0.264906 0.264906 0.264906 0.264906 0.264906 0.264906 0.264906 0.264906 0.264906 0.264906 0.264906 0.264906 0.264906 0.264906 0.264906 0.264906 0.264906 0.264906 0.264906 0.264906 0.264906 0.264906 0.264906 0.264906 0.264906 0.264906 0.264906 0.264906 0.264906 0.264906 0.264906 0.264906 0.264906 0.264906 0.264906 0.264906 0.264906 0.264906 0.264906 0.264906 0.269680 0.269680 0.269680 0.269680 0.269680 0.269680 0.269680 0.269680 0.269680 0.269680 0.269680 0.269680 0.264906 0.264906 0.264906 0.264906 0.264906 0.264906 0.264906 0.264906 0.264906 0.264906 0.264906 0.264906 0.269680 0.269680 0.269680 0.269680 0.269680 0.269680 0.269680 0.269680 0.269680 0.269680 0.269680 0.264906 0.264906 0.264906 0.264906 0.264906 0.264906 0.264906 0.264906 0.264906 0.264906 0.264906 0.256074 0.256074 0.256074 0.256074 0.256074 0.256074 0.256074 0.256074 0.256074 0.256074 0.256074 0.264906 0.264906 0.264906 0.264906 0.264906 0.264906 0.264906 0.264906 0.264906 0.264906 0.269680 0.269680 0.269680 0.269680 0.269680 0.269680 0.269680 0.269680 0.269680 0.256074 0.256074 0.256074 0.256074 0.256074 0.256074 0.256074 0.256074 0.256074 0.256074 0.260378 0.260378 0.260378 0.260378 0.260378 0.260378 0.260378 0.260378 0.260378 0.256074 0.256074 0.256074 0.256074 0.256074 0.256074 0.256074 0.256074 0.256074 0.251976 0.251976 0.251976 0.251976 0.251976 0.251976 0.251976 0.251976 0.251976 0.264906 0.264906 0.264906 0.264906 0.264906 0.264906 0.264906 0.264906 0.264906
