# Output from CTFFind version 4.1.9, run on 2019-11-01 22:21:18
# Input file: first_bm3d_averaged_1_2.7_0.11_3000_half.mrc ; Number of micrographs: 1
# Pixel size: 3.000 Angstroms ; acceleration voltage: 300.0 keV ; spherical aberration: 0.00 mm ; amplitude contrast: 0.07
# Box size: 512 pixels ; min. res.: 30.0 Angstroms ; max. res.: 5.0 Angstroms ; min. def.: 5000.0 um; max. def. 50000.0 um; num. frames averaged: 1
# 6 lines per micrograph: #1 - spatial frequency (1/Angstroms); #2 - 1D rotational average of spectrum (assuming no astigmatism); #3 - 1D rotational average of spectrum; #4 - CTF fit; #5 - cross-correlation between spectrum and CTF fit; #6 - 2sigma of expected cross correlation of noise
0.000000 0.000651 0.001302 0.001953 0.002604 0.003255 0.003906 0.004557 0.005208 0.005859 0.006510 0.007161 0.007812 0.008464 0.009115 0.009766 0.010417 0.011068 0.011719 0.012370 0.013021 0.013672 0.014323 0.014974 0.015625 0.016276 0.016927 0.017578 0.018229 0.018880 0.019531 0.020182 0.020833 0.021484 0.022135 0.022786 0.023438 0.024089 0.024740 0.025391 0.026042 0.026693 0.027344 0.027995 0.028646 0.029297 0.029948 0.030599 0.031250 0.031901 0.032552 0.033203 0.033854 0.034505 0.035156 0.035807 0.036458 0.037109 0.037760 0.038411 0.039062 0.039714 0.040365 0.041016 0.041667 0.042318 0.042969 0.043620 0.044271 0.044922 0.045573 0.046224 0.046875 0.047526 0.048177 0.048828 0.049479 0.050130 0.050781 0.051432 0.052083 0.052734 0.053385 0.054036 0.054688 0.055339 0.055990 0.056641 0.057292 0.057943 0.058594 0.059245 0.059896 0.060547 0.061198 0.061849 0.062500 0.063151 0.063802 0.064453 0.065104 0.065755 0.066406 0.067057 0.067708 0.068359 0.069010 0.069661 0.070312 0.070964 0.071615 0.072266 0.072917 0.073568 0.074219 0.074870 0.075521 0.076172 0.076823 0.077474 0.078125 0.078776 0.079427 0.080078 0.080729 0.081380 0.082031 0.082682 0.083333 0.083984 0.084635 0.085286 0.085938 0.086589 0.087240 0.087891 0.088542 0.089193 0.089844 0.090495 0.091146 0.091797 0.092448 0.093099 0.093750 0.094401 0.095052 0.095703 0.096354 0.097005 0.097656 0.098307 0.098958 0.099609 0.100260 0.100911 0.101562 0.102214 0.102865 0.103516 0.104167 0.104818 0.105469 0.106120 0.106771 0.107422 0.108073 0.108724 0.109375 0.110026 0.110677 0.111328 0.111979 0.112630 0.113281 0.113932 0.114583 0.115234 0.115885 0.116536 0.117188 0.117839 0.118490 0.119141 0.119792 0.120443 0.121094 0.121745 0.122396 0.123047 0.123698 0.124349 0.125000 0.125651 0.126302 0.126953 0.127604 0.128255 0.128906 0.129557 0.130208 0.130859 0.131510 0.132161 0.132812 0.133464 0.134115 0.134766 0.135417 0.136068 0.136719 0.137370 0.138021 0.138672 0.139323 0.139974 0.140625 0.141276 0.141927 0.142578 0.143229 0.143880 0.144531 0.145182 0.145833 0.146484 0.147135 0.147786 0.148438 0.149089 0.149740 0.150391 0.151042 0.151693 0.152344 0.152995 0.153646 0.154297 0.154948 0.155599 0.156250 0.156901 0.157552 0.158203 0.158854 0.159505 0.160156 0.160807 0.161458 0.162109 0.162760 0.163411 0.164062 0.164714 0.165365 0.166016 0.166667 0.167318 0.167969 0.168620 0.169271 0.169922 0.170573 0.171224 0.171875 0.172526 0.173177 0.173828 0.174479 0.175130 0.175781 0.176432 0.177083 0.177734 0.178385 0.179036 0.179688 0.180339 0.180990 0.181641 0.182292 0.182943 0.183594 0.184245 0.184896 0.185547 0.186198 0.186849 0.187500 0.188151 0.188802 0.189453 0.190104 0.190755 0.191406 0.192057 0.192708 0.193359 0.194010 0.194661 0.195312 0.195964 0.196615 0.197266 0.197917 0.198568 0.199219 0.199870 0.200521 0.201172 0.201823 0.202474 0.203125 0.203776 0.204427 0.205078 0.205729 0.206380 0.207031 0.207682 0.208333 0.208984 0.209635 0.210286 0.210938 0.211589 0.212240 0.212891 0.213542 0.214193 0.214844 0.215495 0.216146 0.216797 0.217448 0.218099 0.218750 0.219401 0.220052 0.220703 0.221354 0.222005 0.222656 0.223307 0.223958 0.224609 0.225260 0.225911 0.226562 0.227214 0.227865 0.228516 0.229167 0.229818 0.230469 0.231120 0.231771 0.232422 0.233073 0.233724 0.234375 0.235026 0.235677
       0.35002        0.35002        0.35002        0.35002        0.35002        0.35002        0.35002        0.35002        0.35002        0.35002        0.35002        0.35002        0.35002        0.35002        0.35002        0.35002        0.35002        0.35002        0.35002        0.35002        0.35002        0.35002        0.35002        0.35002        0.35002        0.35002        0.35002        0.35002        0.35002        0.35002        0.35002        0.35002        0.35002        0.35002        0.35002        0.35002        0.35002        0.35002        0.35002        0.35002        0.35002        0.35002        0.35002        0.35002        0.35002        0.35002        0.35002        0.35002        0.35002        0.35002        0.35002        0.50287        0.71455        0.42874        0.21661       -0.04547       -0.23309       -0.04648       -0.10403       -0.06232        0.01751       -0.11638       -0.09185       -0.03079       -0.00948       -0.12732       -0.15652       -0.28701       -0.46076       -0.56794       -0.50046       -0.45113       -0.35597       -0.55496       -0.41585       -0.56276       -0.46069       -0.46841       -0.36723       -0.33630       -0.29987       -0.21183       -0.12494       -0.12132        0.02479        0.00367        0.15570        0.19924        0.33801        0.43462        0.51283        0.55583        0.56830        0.58940        0.71119        0.66408        0.68895        0.59038        0.55533        0.64729        0.51284        0.46602        0.42538        0.31689        0.27538        0.30615        0.27039        0.11772        0.09618       -0.00527        0.01653        0.05315        0.01097        0.10525        0.13219        0.21660        0.29341        0.30822        0.43075        0.57236        0.57031        0.57279        0.66694        0.65175        0.63001        0.68527        0.65374        0.55079        0.56177        0.41601        0.35987        0.27370        0.18893        0.11392        0.15512        0.13067        0.14298        0.14409        0.22893        0.23367        0.32113        0.36622        0.42525        0.51626        0.53378        0.55834        0.57424        0.60767        0.56515        0.49684        0.49073        0.35458        0.28559        0.27892        0.26420        0.18464        0.17203        0.19138        0.24373        0.28384        0.36550        0.40295        0.42231        0.45568        0.46315        0.48505        0.44982        0.49372        0.45091        0.39227        0.35774        0.36135        0.33675        0.30827        0.22852        0.24225        0.23818        0.28623        0.28730        0.36678        0.40988        0.38755        0.42871        0.45434        0.45792        0.44601        0.45112        0.36887        0.37191        0.30096        0.26199        0.29786        0.29058        0.32570        0.34045        0.37627        0.36171        0.43085        0.42002        0.45651        0.40584        0.44431        0.39464        0.37078        0.32137        0.30111        0.30331        0.28953        0.30146        0.35861        0.36969        0.36427        0.37083        0.36593        0.36806        0.43033        0.41747        0.37347        0.35977        0.31839        0.30373        0.34648        0.32412        0.34240        0.30971        0.33472        0.36302        0.39739        0.36514        0.34023        0.34292        0.35788        0.32735        0.31144        0.34748        0.33348        0.34719        0.34461        0.35674        0.38859        0.33680        0.32713        0.35055        0.31934        0.29567        0.28477        0.29425        0.32463        0.34476        0.37156        0.32030        0.32105        0.34836        0.31512        0.34149        0.31306        0.31581        0.31075        0.29951        0.29630        0.34075        0.33771        0.34858        0.33788        0.37335        0.35508        0.32983        0.33814        0.33548        0.26511        0.29089        0.34871        0.29086        0.31764        0.36697        0.33634        0.33655        0.35786        0.33173        0.27955        0.27251        0.31128        0.35495        0.38462        0.36413        0.31912        0.31143        0.29466        0.31166        0.28460        0.32071        0.31603        0.34655        0.33905        0.32214        0.29948        0.34965        0.34019        0.33827        0.29993        0.30046        0.35225        0.40076        0.36202        0.36177        0.35070        0.31712        0.31263        0.30738        0.30415        0.30028        0.22215        0.27379        0.33659        0.31686        0.30982        0.31244        0.26495        0.23761        0.24529        0.29404        0.33206        0.29856        0.29990        0.31495        0.38880        0.30372        0.23649        0.32679        0.29006        0.26886        0.29804        0.36655        0.31591        0.32301        0.29312        0.26074        0.29006        0.30078        0.24255        0.19414        0.26754        0.28187        0.22038        0.31251        0.26761        0.36928        0.32431        0.25098        0.27284        0.25993        0.30221        0.32831        0.24997        0.12988        0.16949        0.27612        0.26146        0.30348        0.18660        0.17460       -0.54660       -1.12804
2.740799 2.711815 2.682988 2.654318 2.625804 2.597448 2.569248 2.541205 2.513319 2.485589 2.458017 2.430602 2.403343 2.376241 2.349296 2.322508 2.295877 2.269403 2.243085 2.216925 2.190921 2.165074 2.139384 2.113851 2.088475 2.063255 2.038192 2.013287 1.988538 1.963946 1.939511 1.915232 1.891111 1.867146 1.843339 1.819688 1.796194 1.772857 1.749676 1.726653 1.703786 1.681077 1.658524 1.636128 1.613889 1.591806 1.569881 1.548112 1.526501 1.505046 1.483748 1.531529 1.848204 1.520402 1.256142 0.973066 0.568014 0.935699 0.678152 0.861436 0.922894 0.649407 0.691582 0.812185 0.808634 0.633664 0.612315 0.422554 0.111131 0.053408 0.058227 0.055396 0.317613 -0.035983 0.072799 -0.061934 0.021128 -0.016498 0.096299 0.105208 0.149790 0.194099 0.326091 0.277790 0.468381 0.381021 0.588492 0.569738 0.795152 0.815849 0.920791 1.006699 0.963979 0.988533 1.143296 0.963966 1.155628 0.929906 0.874317 0.990742 0.830133 0.781398 0.683503 0.561010 0.497460 0.486558 0.509741 0.269411 0.217229 0.148538 0.020441 0.207795 0.007506 0.138644 0.219516 0.241612 0.315966 0.358088 0.469481 0.566086 0.700605 0.527769 0.725320 0.797516 0.606695 0.753644 0.700090 0.602071 0.510946 0.476714 0.305895 0.226569 0.098995 0.003691 -0.002075 0.031901 -0.047442 -0.022743 0.086971 0.054543 0.118928 0.205459 0.257289 0.352856 0.413562 0.414257 0.464961 0.430919 0.480203 0.348190 0.335658 0.244575 0.086608 0.065581 0.041260 -0.032875 -0.069140 -0.077297 -0.005086 -0.023111 0.107003 0.151907 0.163266 0.236780 0.233797 0.265922 0.265148 0.223923 0.242808 0.204988 0.115044 0.096340 0.095359 0.042355 0.009908 -0.095649 -0.019960 0.005114 0.020744 0.007897 0.130027 0.118719 0.130838 0.200444 0.275956 0.167865 0.230373 0.104810 0.163322 0.043413 -0.029792 0.021700 -0.003307 0.026886 0.026292 0.092087 0.086852 0.096568 0.176125 0.164808 0.151143 0.114169 0.172607 0.069041 0.067336 -0.010021 -0.012984 -0.007925 -0.033996 0.004216 0.073677 0.087150 0.037591 0.081743 0.094877 0.067075 0.173113 0.089189 0.090061 0.067136 -0.026342 0.037473 0.040884 0.010213 0.055584 0.019607 0.042028 0.058024 0.079307 0.060793 0.041970 0.003647 0.076397 -0.010684 0.023569 0.046176 0.012874 0.067459 0.053292 0.064895 0.086708 0.025215 0.020350 0.034925 0.004567 -0.036836 -0.016341 -0.004502 0.008428 0.044854 0.096311 -0.007776 0.037979 0.082058 -0.017905 0.069301 0.035397 0.021676 0.016917 0.025678 0.015583 0.067022 0.033457 0.094007 0.053835 0.132449 0.096683 0.075142 0.109666 0.048608 -0.016093 0.045344 0.095693 0.024899 0.079480 0.104376 0.022763 0.071015 0.069764 0.028229 -0.008942 -0.062875 0.054698 0.085735 0.119273 0.070005 0.019452 0.015543 0.012064 0.029885 -0.037895 0.055282 0.039021 0.065212 0.091673 -0.005685 0.055527 -0.005507 0.042704 0.009510 -0.018193 -0.037198 0.093712 0.101553 0.048880 0.039198 0.053316 -0.004774 -0.018871 -0.002649 -0.047186 -0.012885 -0.144462 -0.029193 0.019487 0.024636 -0.018151 -0.029188 -0.027827 -0.074536 -0.028361 -0.034493 0.076350 0.004718 0.030876 0.022927 0.150371 0.024657 -0.027776 0.088511 0.024882 0.020636 0.031537 0.150645 0.059728 0.057497 0.049157 0.019667 0.026839 0.078564 -0.025862 -0.121513 0.019337 0.048801 -0.052578 0.065511 -0.029358 0.181917 0.043456 -0.010949 0.032245 0.019301 0.018413 0.386369 0.300424 0.152707 0.214139 0.336665 0.295303 0.363428 0.118966 0.213382 -1.335755
0.072396 0.072910 0.074453 0.077025 0.080623 0.085249 0.090899 0.097574 0.105270 0.113984 0.123713 0.134452 0.146196 0.158938 0.172669 0.187380 0.203059 0.219693 0.237265 0.255757 0.275148 0.295413 0.316524 0.338451 0.361157 0.384603 0.408746 0.433535 0.458917 0.484832 0.511215 0.537995 0.565093 0.592426 0.619904 0.647427 0.674893 0.702188 0.729195 0.755786 0.781830 0.807185 0.831705 0.855236 0.877620 0.898689 0.918275 0.936202 0.952290 0.966360 0.978226 0.987705 0.994612 0.998765 0.999985 0.998098 0.992936 0.984340 0.972161 0.956263 0.936523 0.912836 0.885117 0.853300 0.817344 0.777235 0.732986 0.684642 0.632279 0.576010 0.515984 0.452387 0.385449 0.315436 0.242660 0.167473 0.090271 0.011490 0.068391 0.148856 0.229349 0.309282 0.388035 0.464962 0.539392 0.610641 0.678013 0.740809 0.798333 0.849904 0.894859 0.932567 0.962435 0.983923 0.996548 0.999897 0.993639 0.977531 0.951430 0.915301 0.869223 0.813399 0.748158 0.673964 0.591413 0.501236 0.404298 0.301595 0.194245 0.083482 0.029358 0.142843 0.255473 0.365688 0.471894 0.572487 0.665874 0.750504 0.824895 0.887660 0.937541 0.973434 0.994419 0.999787 0.989063 0.962033 0.918753 0.859574 0.785145 0.696418 0.594645 0.481376 0.358436 0.227908 0.092104 0.046474 0.185174 0.321238 0.451868 0.574267 0.685720 0.783641 0.865653 0.929638 0.973813 0.996776 0.997568 0.975710 0.931242 0.864744 0.777350 0.670746 0.547149 0.409277 0.260307 0.103798 0.056371 0.216099 0.371168 0.517346 0.650511 0.766774 0.862594 0.934901 0.981207 0.999700 0.989333 0.949887 0.882011 0.787239 0.667982 0.527484 0.369757 0.199481 0.021875 0.157449 0.332657 0.497892 0.647457 0.776032 0.878871 0.951987 0.992330 0.997933 0.968023 0.903099 0.804958 0.676680 0.522561 0.347994 0.159294 0.036502 0.231896 0.419210 0.590884 0.739795 0.859560 0.944832 0.991561 0.997209 0.960918 0.883602 0.767973 0.618481 0.441180 0.243514 0.034025 0.178003 0.382939 0.571248 0.733943 0.863023 0.951897 0.995748 0.991825 0.939648 0.841109 0.700449 0.524131 0.320567 0.099765 0.127150 0.348486 0.552571 0.728389 0.866188 0.958047 0.998372 0.984275 0.915818 0.796104 0.631191 0.429839 0.203087 0.036319 0.274620 0.497829 0.692554 0.846825 0.950853 0.997703 0.983796 0.909235 0.777904 0.597335 0.378330 0.134370 0.119182 0.366034 0.589994 0.776058 0.911436 0.986479 0.995415 0.936857 0.814018 0.634614 0.410451 0.156709 0.109046 0.368056 0.601679 0.792755 0.926899 0.993627 0.987250 0.907417 0.759292 0.553298 0.304471 0.031409 0.245064 0.503474 0.723375 0.886983 0.980677 0.996196 0.931442 0.790812 0.585003 0.330283 0.047272 0.240669 0.509350 0.735793 0.900220 0.987849 0.990292 0.906455 0.742803 0.512979 0.236753 0.061598 0.355385 0.617884 0.824774 0.956449 0.999954 0.950346 0.811356 0.595235 0.321785 0.016643 0.291089 0.571554 0.797093 0.944990 0.999854 0.955318 0.814893 0.591823 0.307974 0.008222 0.324555 0.608279 0.829534 0.964538 0.998240 0.926118 0.754887 0.502027 0.194130 0.135808 0.451873 0.719115 0.907470 0.995217 0.971596 0.838266 0.609376 0.310218 0.025460 0.359170 0.652082 0.869558 0.985333 0.984803 0.867008 0.645028 0.344704 0.001757 0.342371 0.645493 0.869865 0.986975 0.981289 0.852468 0.615724 0.300182 0.054537 0.403232 0.700827 0.908258 0.997681 0.956369 0.788688 0.515853 0.173416 0.193209 0.534738 0.804595 0.965360 0.994078
1.000000 1.000000 1.000000 1.000000 1.000000 1.000000 1.000000 1.000000 1.000000 1.000000 1.000000 1.000000 1.000000 1.000000 1.000000 1.000000 1.000000 1.000000 1.000000 1.000000 1.000000 1.000000 1.000000 1.000000 1.000000 1.000000 1.000000 1.000000 1.000000 1.000000 1.000000 1.000000 1.000000 1.000000 1.000000 1.000000 1.000000 1.000000 1.000000 1.000000 1.000000 1.000000 1.000000 1.000000 1.000000 1.000000 1.000000 1.000000 1.000000 1.000000 1.000000 1.000000 0.917214 0.917214 0.904926 0.904926 0.904926 0.904926 0.904926 0.904926 0.904926 0.904926 0.904926 0.904926 0.904926 0.904926 0.904926 0.904926 0.904926 0.904926 0.904926 0.904926 0.904926 0.904926 0.904926 0.904926 0.904926 0.904926 0.904926 0.904926 0.904926 0.904926 0.904926 0.904926 0.904926 0.904926 0.904926 0.904926 0.904926 0.904926 0.904926 0.904926 0.904926 0.904926 0.904926 0.898485 0.903595 0.906146 0.904777 0.908312 0.908358 0.906333 0.905749 0.905412 0.905782 0.906836 0.914571 0.928887 0.936207 0.939847 0.943419 0.950150 0.953497 0.953011 0.959445 0.967524 0.966170 0.965725 0.966401 0.967786 0.969840 0.968706 0.968083 0.971202 0.971820 0.970452 0.968010 0.967379 0.966768 0.966519 0.966298 0.966623 0.967239 0.967738 0.967473 0.967579 0.967726 0.967790 0.968572 0.967331 0.969913 0.971054 0.970971 0.969880 0.967931 0.969488 0.972596 0.969913 0.969691 0.969352 0.969628 0.955179 0.950169 0.950244 0.944636 0.943374 0.940444 0.937821 0.937629 0.938539 0.938620 0.939366 0.937393 0.928310 0.922305 0.909837 0.923185 0.919470 0.906057 0.889895 0.892148 0.893622 0.893741 0.890894 0.883130 0.879900 0.876706 0.878773 0.882129 0.885294 0.879871 0.873415 0.872517 0.869693 0.846153 0.826236 0.814908 0.807354 0.803955 0.804781 0.802550 0.797072 0.804987 0.797584 0.793023 0.782748 0.774315 0.749320 0.729860 0.736074 0.742588 0.751558 0.745962 0.723320 0.677917 0.692430 0.685441 0.675518 0.675533 0.668300 0.663009 0.672272 0.677041 0.662138 0.654375 0.653969 0.653989 0.664569 0.668893 0.658389 0.653285 0.640126 0.631112 0.605589 0.609708 0.625543 0.586324 0.577626 0.565237 0.556563 0.553674 0.550447 0.553950 0.550463 0.536217 0.527879 0.516566 0.521004 0.527105 0.527823 0.512215 0.532771 0.533736 0.570954 0.564393 0.553074 0.547401 0.554064 0.536706 0.521876 0.522759 0.524394 0.527283 0.564293 0.566669 0.573811 0.564622 0.555029 0.536276 0.517720 0.511070 0.539809 0.514612 0.488438 0.478310 0.477075 0.451440 0.429977 0.396183 0.394851 0.365859 0.363347 0.353282 0.335271 0.330655 0.239565 0.198542 0.189019 0.194558 0.204905 0.239812 0.243311 0.223020 0.249098 0.294378 0.284627 0.273031 0.242578 0.241283 0.240302 0.223692 0.189166 0.165955 0.145795 0.157882 0.107311 0.113207 0.105941 0.096919 0.110275 0.142448 0.148534 0.101524 0.088598 0.113959 0.133713 0.134096 0.123085 0.077912 0.039923 0.054441 0.061947 0.027284 0.026961 0.060065 0.072278 0.096123 0.015344 0.031219 0.070615 0.076407 0.065942 0.067140 0.100128 0.119947 0.113947 0.125543 0.152093 0.126952 0.124069 0.118178 0.073351 0.095392 0.020329 -0.004097 -0.004097 -0.017517 -0.017517 -0.017517 -0.017517 -0.017517 -0.017517 -0.017517 -0.017517 -0.017517 -0.020064 -0.020064 -0.020064 -0.020064 -0.020064 -0.020064 -0.020064 -0.020064 -0.020064 0.022590 0.022590 0.022590 0.022590 0.022590 0.022590 0.022590 0.022590 0.022590
0.000000 0.000000 0.000000 0.000000 0.000000 0.000000 0.000000 0.000000 0.000000 0.000000 0.000000 0.000000 0.000000 0.000000 0.000000 0.000000 0.000000 0.000000 0.000000 0.000000 0.000000 0.000000 0.000000 0.000000 0.000000 7.000000 4.000000 0.000000 0.000000 0.000000 0.000000 0.000000 0.000000 0.000000 0.000000 0.000000 0.000000 0.000000 0.000000 0.000000 0.000000 0.000000 0.000000 0.000000 0.000000 0.000000 0.000000 0.000000 0.000000 0.000000 0.000000 0.000000 0.181818 0.181818 0.199007 0.199007 0.199007 0.199007 0.199007 0.199007 0.199007 0.199007 0.199007 0.199007 0.199007 0.199007 0.199007 0.199007 0.199007 0.199007 0.199007 0.199007 0.199007 0.199007 0.199007 0.199007 0.199007 0.199007 0.199007 0.199007 0.199007 0.199007 0.199007 0.199007 0.199007 0.199007 0.199007 0.199007 0.199007 0.199007 0.199007 0.199007 0.199007 0.199007 0.199007 0.230940 0.230940 0.230940 0.230940 0.230940 0.230940 0.230940 0.230940 0.230940 0.230940 0.230940 0.230940 0.230940 0.230940 0.230940 0.230940 0.230940 0.230940 0.230940 0.230940 0.230940 0.230940 0.230940 0.230940 0.230940 0.230940 0.230940 0.230940 0.244339 0.244339 0.244339 0.244339 0.244339 0.244339 0.244339 0.244339 0.244339 0.244339 0.244339 0.244339 0.244339 0.244339 0.244339 0.244339 0.244339 0.244339 0.244339 0.244339 0.244339 0.244339 0.244339 0.251976 0.251976 0.251976 0.251976 0.251976 0.251976 0.251976 0.251976 0.251976 0.251976 0.251976 0.251976 0.251976 0.251976 0.251976 0.251976 0.251976 0.251976 0.251976 0.251976 0.264906 0.264906 0.264906 0.264906 0.264906 0.264906 0.264906 0.264906 0.264906 0.264906 0.264906 0.264906 0.264906 0.264906 0.264906 0.264906 0.264906 0.264906 0.264906 0.264906 0.264906 0.264906 0.264906 0.264906 0.264906 0.264906 0.264906 0.264906 0.264906 0.264906 0.264906 0.264906 0.264906 0.264906 0.264906 0.264906 0.264906 0.264906 0.264906 0.264906 0.264906 0.264906 0.264906 0.264906 0.264906 0.264906 0.264906 0.264906 0.264906 0.264906 0.264906 0.264906 0.264906 0.264906 0.264906 0.264906 0.264906 0.264906 0.264906 0.264906 0.264906 0.264906 0.264906 0.264906 0.264906 0.264906 0.264906 0.264906 0.264906 0.264906 0.264906 0.264906 0.264906 0.264906 0.264906 0.269680 0.269680 0.269680 0.269680 0.269680 0.269680 0.269680 0.269680 0.269680 0.269680 0.269680 0.269680 0.264906 0.264906 0.264906 0.264906 0.264906 0.264906 0.264906 0.264906 0.264906 0.264906 0.264906 0.264906 0.269680 0.269680 0.269680 0.269680 0.269680 0.269680 0.269680 0.269680 0.269680 0.269680 0.269680 0.264906 0.264906 0.264906 0.264906 0.264906 0.264906 0.264906 0.264906 0.264906 0.264906 0.264906 0.269680 0.269680 0.269680 0.269680 0.269680 0.269680 0.269680 0.269680 0.269680 0.269680 0.251976 0.251976 0.251976 0.251976 0.251976 0.251976 0.251976 0.251976 0.251976 0.251976 0.251976 0.269680 0.269680 0.269680 0.269680 0.269680 0.269680 0.269680 0.269680 0.269680 0.256074 0.256074 0.256074 0.256074 0.256074 0.256074 0.256074 0.256074 0.256074 0.256074 0.260378 0.260378 0.260378 0.260378 0.260378 0.260378 0.260378 0.260378 0.260378 0.256074 0.256074 0.256074 0.256074 0.256074 0.256074 0.256074 0.256074 0.256074 0.251976 0.251976 0.251976 0.251976 0.251976 0.251976 0.251976 0.251976 0.251976 0.264906 0.264906 0.264906 0.264906 0.264906 0.264906 0.264906 0.264906 0.264906
