# Output from CTFFind version 4.1.9, run on 2019-11-01 22:42:41
# Input file: first_bm3d_averaged_1_1.2_1.00_50_half.mrc ; Number of micrographs: 1
# Pixel size: 3.000 Angstroms ; acceleration voltage: 300.0 keV ; spherical aberration: 0.00 mm ; amplitude contrast: 0.07
# Box size: 512 pixels ; min. res.: 30.0 Angstroms ; max. res.: 5.0 Angstroms ; min. def.: 5000.0 um; max. def. 50000.0 um; num. frames averaged: 1
# 6 lines per micrograph: #1 - spatial frequency (1/Angstroms); #2 - 1D rotational average of spectrum (assuming no astigmatism); #3 - 1D rotational average of spectrum; #4 - CTF fit; #5 - cross-correlation between spectrum and CTF fit; #6 - 2sigma of expected cross correlation of noise
0.000000 0.000651 0.001302 0.001953 0.002604 0.003255 0.003906 0.004557 0.005208 0.005859 0.006510 0.007161 0.007812 0.008464 0.009115 0.009766 0.010417 0.011068 0.011719 0.012370 0.013021 0.013672 0.014323 0.014974 0.015625 0.016276 0.016927 0.017578 0.018229 0.018880 0.019531 0.020182 0.020833 0.021484 0.022135 0.022786 0.023438 0.024089 0.024740 0.025391 0.026042 0.026693 0.027344 0.027995 0.028646 0.029297 0.029948 0.030599 0.031250 0.031901 0.032552 0.033203 0.033854 0.034505 0.035156 0.035807 0.036458 0.037109 0.037760 0.038411 0.039062 0.039714 0.040365 0.041016 0.041667 0.042318 0.042969 0.043620 0.044271 0.044922 0.045573 0.046224 0.046875 0.047526 0.048177 0.048828 0.049479 0.050130 0.050781 0.051432 0.052083 0.052734 0.053385 0.054036 0.054688 0.055339 0.055990 0.056641 0.057292 0.057943 0.058594 0.059245 0.059896 0.060547 0.061198 0.061849 0.062500 0.063151 0.063802 0.064453 0.065104 0.065755 0.066406 0.067057 0.067708 0.068359 0.069010 0.069661 0.070312 0.070964 0.071615 0.072266 0.072917 0.073568 0.074219 0.074870 0.075521 0.076172 0.076823 0.077474 0.078125 0.078776 0.079427 0.080078 0.080729 0.081380 0.082031 0.082682 0.083333 0.083984 0.084635 0.085286 0.085938 0.086589 0.087240 0.087891 0.088542 0.089193 0.089844 0.090495 0.091146 0.091797 0.092448 0.093099 0.093750 0.094401 0.095052 0.095703 0.096354 0.097005 0.097656 0.098307 0.098958 0.099609 0.100260 0.100911 0.101562 0.102214 0.102865 0.103516 0.104167 0.104818 0.105469 0.106120 0.106771 0.107422 0.108073 0.108724 0.109375 0.110026 0.110677 0.111328 0.111979 0.112630 0.113281 0.113932 0.114583 0.115234 0.115885 0.116536 0.117188 0.117839 0.118490 0.119141 0.119792 0.120443 0.121094 0.121745 0.122396 0.123047 0.123698 0.124349 0.125000 0.125651 0.126302 0.126953 0.127604 0.128255 0.128906 0.129557 0.130208 0.130859 0.131510 0.132161 0.132812 0.133464 0.134115 0.134766 0.135417 0.136068 0.136719 0.137370 0.138021 0.138672 0.139323 0.139974 0.140625 0.141276 0.141927 0.142578 0.143229 0.143880 0.144531 0.145182 0.145833 0.146484 0.147135 0.147786 0.148438 0.149089 0.149740 0.150391 0.151042 0.151693 0.152344 0.152995 0.153646 0.154297 0.154948 0.155599 0.156250 0.156901 0.157552 0.158203 0.158854 0.159505 0.160156 0.160807 0.161458 0.162109 0.162760 0.163411 0.164062 0.164714 0.165365 0.166016 0.166667 0.167318 0.167969 0.168620 0.169271 0.169922 0.170573 0.171224 0.171875 0.172526 0.173177 0.173828 0.174479 0.175130 0.175781 0.176432 0.177083 0.177734 0.178385 0.179036 0.179688 0.180339 0.180990 0.181641 0.182292 0.182943 0.183594 0.184245 0.184896 0.185547 0.186198 0.186849 0.187500 0.188151 0.188802 0.189453 0.190104 0.190755 0.191406 0.192057 0.192708 0.193359 0.194010 0.194661 0.195312 0.195964 0.196615 0.197266 0.197917 0.198568 0.199219 0.199870 0.200521 0.201172 0.201823 0.202474 0.203125 0.203776 0.204427 0.205078 0.205729 0.206380 0.207031 0.207682 0.208333 0.208984 0.209635 0.210286 0.210938 0.211589 0.212240 0.212891 0.213542 0.214193 0.214844 0.215495 0.216146 0.216797 0.217448 0.218099 0.218750 0.219401 0.220052 0.220703 0.221354 0.222005 0.222656 0.223307 0.223958 0.224609 0.225260 0.225911 0.226562 0.227214 0.227865 0.228516 0.229167 0.229818 0.230469 0.231120 0.231771 0.232422 0.233073 0.233724 0.234375 0.235026 0.235677
       0.33166        0.33166        0.33166        0.33166        0.33166        0.33166        0.33166        0.33166        0.33166        0.33166        0.33166        0.33166        0.33166        0.33166        0.33166        0.33166        0.33166        0.33166        0.33166        0.33166        0.33166        0.33166        0.33166        0.33166        0.33166        0.33166        0.33166        0.33166        0.33166        0.33166        0.33166        0.33166        0.33166        0.33166        0.33166        0.33166        0.33166        0.33166        0.33166        0.33166        0.33166        0.33166        0.33166        0.33166        0.33166        0.33166        0.33166        0.33166        0.33166        0.33166        0.33166        0.50197        0.71868        0.42917        0.18847       -0.08109       -0.25639       -0.06493       -0.13321       -0.05119       -0.00468       -0.14975       -0.09164       -0.05714       -0.00525       -0.15519       -0.22419       -0.34776       -0.45990       -0.55386       -0.51293       -0.44254       -0.36966       -0.54371       -0.45161       -0.62213       -0.50554       -0.47181       -0.38956       -0.38839       -0.33738       -0.25180       -0.16218       -0.14300        0.03173       -0.01389        0.11764        0.16139        0.30766        0.41222        0.46001        0.50110        0.54376        0.55071        0.68290        0.64139        0.67433        0.58885        0.55369        0.64889        0.52540        0.42195        0.38128        0.32057        0.23084        0.25859        0.25036        0.10254        0.07948        0.00168       -0.00354        0.04070       -0.01167        0.07163        0.10475        0.23321        0.28564        0.29523        0.37815        0.56271        0.53115        0.57884        0.66409        0.70266        0.62887        0.63814        0.63278        0.55611        0.57335        0.40347        0.34564        0.26186        0.18253        0.07601        0.14371        0.11665        0.09437        0.10423        0.20584        0.21032        0.31721        0.36213        0.41112        0.49169        0.57816        0.54473        0.55670        0.60040        0.53027        0.45698        0.48649        0.33100        0.24301        0.25879        0.23797        0.13984        0.14402        0.15654        0.22021        0.23563        0.33321        0.36802        0.38890        0.46526        0.44206        0.48162        0.44773        0.46864        0.44826        0.40554        0.38211        0.35373        0.31714        0.29397        0.20370        0.18987        0.21957        0.26540        0.26435        0.34530        0.37495        0.35666        0.40994        0.44498        0.43873        0.42777        0.44773        0.38327        0.33536        0.28122        0.25563        0.29318        0.26355        0.29345        0.30011        0.33945        0.33918        0.39016        0.40070        0.42831        0.40598        0.43766        0.39948        0.35706        0.28072        0.28940        0.30330        0.27054        0.25127        0.31892        0.36899        0.33974        0.35110        0.36153        0.35602        0.40934        0.41013        0.36652        0.33766        0.30145        0.31331        0.31880        0.31768        0.29978        0.27835        0.33780        0.35896        0.37945        0.33498        0.32979        0.33651        0.34626        0.31229        0.28178        0.30091        0.30987        0.33910        0.31689        0.32293        0.35413        0.32510        0.31791        0.32375        0.29719        0.26238        0.25656        0.26586        0.30809        0.32199        0.35618        0.30214        0.30547        0.32464        0.29322        0.31564        0.28521        0.28412        0.29210        0.29175        0.30374        0.34352        0.33363        0.33233        0.33873        0.31854        0.33808        0.31839        0.32098        0.30955        0.27583        0.28680        0.29921        0.29138        0.32224        0.32726        0.32953        0.33228        0.34460        0.32356        0.28685        0.24505        0.26433        0.32849        0.35090        0.33749        0.30916        0.28844        0.29433        0.30748        0.25550        0.30075        0.31353        0.34351        0.29666        0.29728        0.27547        0.33109        0.33422        0.33594        0.30892        0.29170        0.31517        0.39614        0.32482        0.30721        0.31598        0.28469        0.28066        0.30372        0.28513        0.32894        0.22950        0.26556        0.30070        0.31040        0.29458        0.25458        0.28377        0.24470        0.22022        0.27361        0.29650        0.30770        0.27371        0.27466        0.32858        0.26394        0.23115        0.29128        0.25999        0.26639        0.28115        0.37852        0.28473        0.28329        0.25454        0.24050        0.27472        0.26339        0.24074        0.18561        0.25727        0.23978        0.25025        0.31698        0.25594        0.35763        0.32443        0.22996        0.21934        0.20850        0.24277        0.33123        0.24029        0.14174        0.17855        0.22116        0.23603        0.24122        0.18295        0.01533       -0.48085       -0.98506
2.650841 2.622872 2.595053 2.567383 2.539864 2.512494 2.485274 2.458204 2.431284 2.404514 2.377894 2.351424 2.325104 2.298933 2.272913 2.247042 2.221322 2.195751 2.170330 2.145059 2.119938 2.094967 2.070146 2.045475 2.020954 1.996582 1.972361 1.948289 1.924367 1.900596 1.876974 1.853502 1.830180 1.807008 1.783986 1.761113 1.738391 1.715819 1.693396 1.671123 1.649001 1.627028 1.605205 1.583532 1.562009 1.540636 1.519413 1.498339 1.477416 1.456642 1.436019 1.506359 1.806895 1.507375 1.139696 0.922866 0.537573 0.901546 0.620726 0.861134 0.908934 0.576457 0.699970 0.755690 0.805780 0.613203 0.521771 0.337880 0.098238 0.075286 0.043599 0.081891 0.297454 -0.040752 0.075279 -0.140563 -0.021990 -0.017474 0.077578 0.047641 0.102398 0.167445 0.274530 0.236360 0.470878 0.389381 0.539773 0.512377 0.756930 0.784884 0.864617 0.917473 0.928930 0.939607 1.067123 0.965754 1.126851 0.929737 0.843236 0.999746 0.837752 0.741370 0.609560 0.585140 0.458968 0.404375 0.501038 0.260215 0.187574 0.153644 0.014389 0.212247 -0.008102 0.107808 0.181028 0.260800 0.334153 0.335000 0.419262 0.539612 0.648647 0.536238 0.725056 0.869332 0.634990 0.690991 0.664597 0.590672 0.527660 0.470836 0.298132 0.210161 0.114126 -0.040613 -0.016039 0.051533 -0.094909 -0.056721 0.048700 0.048506 0.108024 0.224237 0.236660 0.310617 0.426622 0.428308 0.447444 0.467336 0.435016 0.308658 0.338516 0.249106 0.037620 0.059893 0.022372 -0.065100 -0.092220 -0.099771 -0.010777 -0.066171 0.069076 0.127589 0.126145 0.248602 0.218246 0.241316 0.285708 0.248113 0.244967 0.204884 0.173926 0.107812 0.107061 0.033360 0.016460 -0.127551 -0.056804 -0.000717 0.001510 0.011819 0.096996 0.083095 0.127236 0.183599 0.247215 0.160428 0.197827 0.116539 0.148827 0.011780 -0.033710 0.013791 -0.017164 -0.011640 -0.003109 0.029092 0.062169 0.060276 0.138143 0.113574 0.153548 0.073519 0.153185 0.081955 -0.012163 -0.054012 -0.021477 -0.030131 -0.079340 -0.065434 0.042270 0.067029 -0.011322 0.052450 0.067594 0.069602 0.150061 0.081599 0.070359 0.037368 -0.023395 0.032902 0.007611 0.012827 0.005456 -0.012701 0.049595 0.063940 0.073627 0.033237 0.048057 0.017360 0.071657 -0.006320 -0.020297 0.017303 0.011729 0.066231 0.027793 0.037890 0.069714 0.029172 0.017731 0.029258 -0.005922 -0.040814 -0.023518 -0.027449 0.026229 0.048138 0.099824 0.006891 0.049514 0.059095 0.001727 0.071565 0.024905 0.024843 0.050242 0.049798 0.050868 0.106071 0.074083 0.085637 0.084594 0.101080 0.077382 0.073299 0.090125 0.038029 -0.002689 0.046759 0.028247 0.064949 0.062107 0.092011 0.003572 0.080165 0.072651 0.015289 0.026031 -0.080254 -0.020623 0.103854 0.066581 0.049644 0.030667 -0.026912 0.035389 0.016393 -0.051415 0.040347 0.054486 0.077091 0.029069 -0.010633 -0.005535 0.037323 0.051382 0.022924 0.030732 -0.029965 0.067215 0.115592 0.014113 -0.010000 0.019922 -0.036498 -0.023592 -0.010069 -0.032578 0.026838 -0.110275 -0.029864 -0.018663 0.018541 -0.035144 -0.063464 -0.008194 -0.055371 -0.056220 -0.045179 0.041900 0.011158 0.009056 -0.012021 0.080140 -0.040828 -0.035483 0.016007 -0.026785 0.034707 -0.000258 0.174262 -0.018644 0.001576 0.044115 -0.034717 0.001903 0.008426 -0.017573 -0.130612 0.017594 -0.017877 0.002487 0.041353 -0.022873 0.156211 0.077758 -0.009414 -0.090839 -0.033073 -0.047024 0.099844 0.285698 0.168334 0.225669 0.198296 0.315509 0.274922 0.205921 0.101907 -0.343067
0.072396 0.072910 0.074450 0.077017 0.080610 0.085227 0.090869 0.097532 0.105215 0.113915 0.123628 0.134349 0.146074 0.158794 0.172503 0.187190 0.202844 0.219451 0.236995 0.255457 0.274818 0.295051 0.316130 0.338023 0.360696 0.384108 0.408216 0.432971 0.458319 0.484201 0.510551 0.537299 0.564368 0.591673 0.619125 0.646625 0.674071 0.701351 0.728346 0.754930 0.780972 0.806332 0.830863 0.854413 0.876822 0.897925 0.917554 0.935533 0.951685 0.965827 0.977778 0.987353 0.994368 0.998642 0.999996 0.998255 0.993252 0.984828 0.972834 0.957133 0.937602 0.914136 0.886648 0.855072 0.819365 0.779512 0.735525 0.687446 0.635350 0.579347 0.519583 0.456243 0.389552 0.319774 0.247218 0.172232 0.095208 0.016580 0.063179 0.143555 0.223998 0.303921 0.382708 0.459717 0.534281 0.605717 0.673332 0.736428 0.794312 0.846301 0.891734 0.929977 0.960437 0.982570 0.995889 0.999978 0.994499 0.979202 0.953937 0.918658 0.873436 0.818462 0.754055 0.680665 0.598875 0.509404 0.413103 0.310952 0.204058 0.093642 0.018972 0.132366 0.245046 0.355462 0.462027 0.563140 0.657210 0.742685 0.818078 0.881996 0.933169 0.970479 0.992990 0.999971 0.990924 0.965607 0.924049 0.866568 0.793779 0.706599 0.606248 0.494238 0.372361 0.242669 0.107443 0.030839 0.169545 0.305937 0.437222 0.560609 0.673375 0.772924 0.856856 0.923026 0.969611 0.995166 0.998677 0.979606 0.937930 0.874159 0.789356 0.685136 0.563643 0.427532 0.279911 0.124290 0.035499 0.195390 0.351182 0.498650 0.633663 0.752300 0.850977 0.926563 0.976489 0.998854 0.992502 0.957099 0.893170 0.802122 0.686238 0.548644 0.393235 0.224591 0.047852 0.131431 0.307463 0.474387 0.626489 0.758392 0.865263 0.943001 0.988414 0.999368 0.974906 0.915325 0.822223 0.698476 0.548190 0.376577 0.189811 0.005188 0.200999 0.389966 0.564512 0.717439 0.842240 0.933396 0.986636 0.999171 0.969857 0.899309 0.789935 0.645889 0.472957 0.278343 0.070407 0.141689 0.348369 0.540073 0.707707 0.843088 0.939367 0.991405 0.996074 0.952483 0.862093 0.728723 0.558433 0.359288 0.141015 0.085458 0.308526 0.516494 0.698206 0.843656 0.944561 0.994872 0.991176 0.932966 0.822760 0.666052 0.471090 0.248489 0.010685 0.228737 0.455805 0.656976 0.819967 0.934531 0.993135 0.991510 0.929008 0.808748 0.637530 0.425511 0.185652 0.067036 0.316406 0.546199 0.741115 0.887859 0.976081 0.999166 0.954781 0.845160 0.677071 0.461475 0.212868 0.051646 0.313500 0.553962 0.755478 0.902991 0.985109 0.995047 0.931256 0.797673 0.603580 0.363022 0.093863 0.183487 0.447615 0.677744 0.855395 0.965918 0.999761 0.953376 0.829654 0.637861 0.393020 0.114830 0.173891 0.449021 0.687172 0.867691 0.974508 0.997639 0.934205 0.788862 0.573569 0.306703 0.011567 0.285586 0.557887 0.780261 0.931808 0.997814 0.971289 0.853791 0.655488 0.394389 0.094805 0.214849 0.504716 0.746375 0.915671 0.995200 0.976199 0.859618 0.656241 0.385828 0.075283 0.243944 0.538994 0.779009 0.938394 0.999637 0.955339 0.809235 0.576026 0.280042 0.047192 0.370261 0.653650 0.865696 0.982175 0.989199 0.884986 0.680323 0.397615 0.068546 0.269374 0.577057 0.818346 0.964347 0.996988 0.911399 0.716762 0.435497 0.100836 0.247021 0.565672 0.815692 0.965570 0.995811 0.901607 0.693750 0.397564 0.049987 0.304935 0.621599 0.858699 0.984709 0.982212 0.850467 0.605834 0.279934 0.084300 0.438158 0.733678 0.930189 0.999993
1.000000 1.000000 1.000000 1.000000 1.000000 1.000000 1.000000 1.000000 1.000000 1.000000 1.000000 1.000000 1.000000 1.000000 1.000000 1.000000 1.000000 1.000000 1.000000 1.000000 1.000000 1.000000 1.000000 1.000000 1.000000 1.000000 1.000000 1.000000 1.000000 1.000000 1.000000 1.000000 1.000000 1.000000 1.000000 1.000000 1.000000 1.000000 1.000000 1.000000 1.000000 1.000000 1.000000 1.000000 1.000000 1.000000 1.000000 1.000000 1.000000 1.000000 1.000000 1.000000 0.915532 0.915532 0.904090 0.904090 0.904090 0.904090 0.904090 0.904090 0.904090 0.904090 0.904090 0.904090 0.904090 0.904090 0.904090 0.904090 0.904090 0.904090 0.904090 0.904090 0.904090 0.904090 0.904090 0.904090 0.904090 0.904090 0.904090 0.904090 0.904090 0.904090 0.904090 0.904090 0.904090 0.904090 0.904090 0.904090 0.904090 0.904090 0.904090 0.904090 0.904090 0.904090 0.904090 0.900032 0.904589 0.906602 0.904839 0.908488 0.908584 0.907855 0.908117 0.907710 0.907978 0.909369 0.919981 0.931140 0.941727 0.943145 0.948219 0.952756 0.954969 0.955973 0.957345 0.966769 0.965594 0.965011 0.965742 0.967407 0.969701 0.968184 0.968095 0.971204 0.971969 0.970115 0.968160 0.967524 0.966914 0.966627 0.966187 0.966340 0.966254 0.966881 0.967096 0.966913 0.967048 0.967068 0.965278 0.965463 0.967729 0.968825 0.968583 0.967201 0.964812 0.968744 0.969266 0.968878 0.968761 0.968241 0.968601 0.955542 0.951270 0.951247 0.946719 0.945836 0.943823 0.941305 0.938333 0.938394 0.937668 0.938792 0.934628 0.923432 0.909948 0.896428 0.918932 0.904091 0.890038 0.869701 0.870030 0.869461 0.870231 0.865299 0.858500 0.854049 0.850967 0.852041 0.850045 0.852038 0.849886 0.839754 0.842038 0.840381 0.812475 0.794086 0.778190 0.776255 0.774254 0.775642 0.775329 0.775390 0.783485 0.773299 0.772207 0.764181 0.745026 0.707650 0.695109 0.704615 0.712989 0.717170 0.713702 0.698248 0.660011 0.670075 0.691189 0.691022 0.693729 0.683771 0.674728 0.674601 0.676821 0.666199 0.657435 0.656009 0.653484 0.662911 0.666490 0.664902 0.654379 0.637895 0.623817 0.612340 0.623777 0.628643 0.592954 0.587290 0.572758 0.563940 0.548650 0.531771 0.528162 0.502047 0.493760 0.496913 0.500948 0.504247 0.511592 0.513830 0.497930 0.517765 0.524508 0.552204 0.533967 0.534831 0.535629 0.537793 0.525259 0.511054 0.509616 0.510556 0.520717 0.542050 0.580566 0.563754 0.551476 0.540412 0.545451 0.502121 0.506375 0.529313 0.506848 0.452728 0.390966 0.389375 0.348641 0.349602 0.325653 0.314268 0.308792 0.305592 0.296881 0.282964 0.270541 0.206399 0.165503 0.149286 0.138642 0.130479 0.148349 0.145725 0.145672 0.161805 0.209189 0.211640 0.202400 0.164799 0.154030 0.127694 0.123598 0.144646 0.099790 0.090852 0.080155 0.054474 0.029849 -0.017473 0.005841 -0.084205 -0.106142 -0.114261 -0.090404 -0.080026 -0.078167 -0.079555 -0.118276 -0.112947 -0.070775 -0.066454 -0.072731 -0.132609 -0.111311 -0.100485 -0.099178 -0.113747 -0.122284 -0.113778 -0.125919 -0.125515 -0.121551 -0.067675 -0.004935 -0.001735 -0.009769 -0.012552 -0.023786 -0.033047 -0.020679 -0.000671 0.005758 -0.016466 -0.013468 -0.014662 -0.055209 -0.055209 -0.058093 -0.058093 -0.058093 -0.058093 -0.058093 -0.058093 -0.058093 -0.058093 -0.058093 -0.060293 -0.060293 -0.060293 -0.060293 -0.060293 -0.060293 -0.060293 -0.060293 -0.060293 -0.060293 -0.060293 -0.060293 -0.060293 -0.060293 -0.060293 -0.060293 -0.060293 -0.060293
0.000000 0.000000 0.000000 0.000000 0.000000 0.000000 0.000000 0.000000 0.000000 0.000000 0.000000 0.000000 0.000000 0.000000 0.000000 0.000000 0.000000 0.000000 0.000000 0.000000 0.000000 0.000000 0.000000 0.000000 0.000000 0.000000 0.000000 0.000000 0.000000 0.000000 0.000000 0.000000 0.000000 0.000000 0.000000 0.000000 0.000000 0.000000 0.000000 0.000000 0.000000 0.000000 0.000000 0.000000 0.000000 0.000000 0.000000 0.000000 0.000000 0.000000 0.000000 0.000000 0.181818 0.181818 0.199007 0.199007 0.199007 0.199007 0.199007 0.199007 0.199007 0.199007 0.199007 0.199007 0.199007 0.199007 0.199007 0.199007 0.199007 0.199007 0.199007 0.199007 0.199007 0.199007 0.199007 0.199007 0.199007 0.199007 0.199007 0.199007 0.199007 0.199007 0.199007 0.199007 0.199007 0.199007 0.199007 0.199007 0.199007 0.199007 0.199007 0.199007 0.199007 0.199007 0.199007 0.230940 0.230940 0.230940 0.230940 0.230940 0.230940 0.230940 0.230940 0.230940 0.230940 0.230940 0.230940 0.230940 0.230940 0.230940 0.230940 0.230940 0.230940 0.230940 0.230940 0.230940 0.230940 0.230940 0.230940 0.230940 0.230940 0.230940 0.230940 0.244339 0.244339 0.244339 0.244339 0.244339 0.244339 0.244339 0.244339 0.244339 0.244339 0.244339 0.244339 0.244339 0.244339 0.244339 0.244339 0.244339 0.244339 0.244339 0.244339 0.244339 0.244339 0.244339 0.251976 0.251976 0.251976 0.251976 0.251976 0.251976 0.251976 0.251976 0.251976 0.251976 0.251976 0.251976 0.251976 0.251976 0.251976 0.251976 0.251976 0.251976 0.251976 0.251976 0.264906 0.264906 0.264906 0.264906 0.264906 0.264906 0.264906 0.264906 0.264906 0.264906 0.264906 0.264906 0.264906 0.264906 0.264906 0.264906 0.264906 0.264906 0.264906 0.264906 0.264906 0.264906 0.264906 0.264906 0.264906 0.264906 0.264906 0.264906 0.264906 0.264906 0.264906 0.264906 0.264906 0.264906 0.264906 0.264906 0.264906 0.264906 0.264906 0.264906 0.264906 0.264906 0.264906 0.264906 0.264906 0.264906 0.264906 0.264906 0.264906 0.264906 0.264906 0.264906 0.264906 0.264906 0.264906 0.264906 0.264906 0.264906 0.264906 0.264906 0.264906 0.264906 0.264906 0.264906 0.264906 0.264906 0.264906 0.264906 0.264906 0.264906 0.264906 0.264906 0.264906 0.264906 0.264906 0.269680 0.269680 0.269680 0.269680 0.269680 0.269680 0.269680 0.269680 0.269680 0.269680 0.269680 0.269680 0.264906 0.264906 0.264906 0.264906 0.264906 0.264906 0.264906 0.264906 0.264906 0.264906 0.264906 0.264906 0.269680 0.269680 0.269680 0.269680 0.269680 0.269680 0.269680 0.269680 0.269680 0.269680 0.269680 0.264906 0.264906 0.264906 0.264906 0.264906 0.264906 0.264906 0.264906 0.264906 0.264906 0.264906 0.256074 0.256074 0.256074 0.256074 0.256074 0.256074 0.256074 0.256074 0.256074 0.256074 0.256074 0.264906 0.264906 0.264906 0.264906 0.264906 0.264906 0.264906 0.264906 0.264906 0.264906 0.260378 0.260378 0.260378 0.260378 0.260378 0.260378 0.260378 0.260378 0.260378 0.260378 0.264906 0.264906 0.264906 0.264906 0.264906 0.264906 0.264906 0.264906 0.264906 0.260378 0.260378 0.260378 0.260378 0.260378 0.260378 0.260378 0.260378 0.260378 0.256074 0.256074 0.256074 0.256074 0.256074 0.256074 0.256074 0.256074 0.256074 0.251976 0.251976 0.251976 0.251976 0.251976 0.251976 0.251976 0.251976 0.251976 0.251976 0.251976 0.251976 0.251976 0.251976 0.251976 0.251976 0.251976 0.251976
