# Output from CTFFind version 4.1.9, run on 2019-11-01 22:41:26
# Input file: first_bm3d_averaged_1_0.7_1.00_50_half.mrc ; Number of micrographs: 1
# Pixel size: 3.000 Angstroms ; acceleration voltage: 300.0 keV ; spherical aberration: 0.00 mm ; amplitude contrast: 0.07
# Box size: 512 pixels ; min. res.: 30.0 Angstroms ; max. res.: 5.0 Angstroms ; min. def.: 5000.0 um; max. def. 50000.0 um; num. frames averaged: 1
# 6 lines per micrograph: #1 - spatial frequency (1/Angstroms); #2 - 1D rotational average of spectrum (assuming no astigmatism); #3 - 1D rotational average of spectrum; #4 - CTF fit; #5 - cross-correlation between spectrum and CTF fit; #6 - 2sigma of expected cross correlation of noise
0.000000 0.000651 0.001302 0.001953 0.002604 0.003255 0.003906 0.004557 0.005208 0.005859 0.006510 0.007161 0.007812 0.008464 0.009115 0.009766 0.010417 0.011068 0.011719 0.012370 0.013021 0.013672 0.014323 0.014974 0.015625 0.016276 0.016927 0.017578 0.018229 0.018880 0.019531 0.020182 0.020833 0.021484 0.022135 0.022786 0.023438 0.024089 0.024740 0.025391 0.026042 0.026693 0.027344 0.027995 0.028646 0.029297 0.029948 0.030599 0.031250 0.031901 0.032552 0.033203 0.033854 0.034505 0.035156 0.035807 0.036458 0.037109 0.037760 0.038411 0.039062 0.039714 0.040365 0.041016 0.041667 0.042318 0.042969 0.043620 0.044271 0.044922 0.045573 0.046224 0.046875 0.047526 0.048177 0.048828 0.049479 0.050130 0.050781 0.051432 0.052083 0.052734 0.053385 0.054036 0.054688 0.055339 0.055990 0.056641 0.057292 0.057943 0.058594 0.059245 0.059896 0.060547 0.061198 0.061849 0.062500 0.063151 0.063802 0.064453 0.065104 0.065755 0.066406 0.067057 0.067708 0.068359 0.069010 0.069661 0.070312 0.070964 0.071615 0.072266 0.072917 0.073568 0.074219 0.074870 0.075521 0.076172 0.076823 0.077474 0.078125 0.078776 0.079427 0.080078 0.080729 0.081380 0.082031 0.082682 0.083333 0.083984 0.084635 0.085286 0.085938 0.086589 0.087240 0.087891 0.088542 0.089193 0.089844 0.090495 0.091146 0.091797 0.092448 0.093099 0.093750 0.094401 0.095052 0.095703 0.096354 0.097005 0.097656 0.098307 0.098958 0.099609 0.100260 0.100911 0.101562 0.102214 0.102865 0.103516 0.104167 0.104818 0.105469 0.106120 0.106771 0.107422 0.108073 0.108724 0.109375 0.110026 0.110677 0.111328 0.111979 0.112630 0.113281 0.113932 0.114583 0.115234 0.115885 0.116536 0.117188 0.117839 0.118490 0.119141 0.119792 0.120443 0.121094 0.121745 0.122396 0.123047 0.123698 0.124349 0.125000 0.125651 0.126302 0.126953 0.127604 0.128255 0.128906 0.129557 0.130208 0.130859 0.131510 0.132161 0.132812 0.133464 0.134115 0.134766 0.135417 0.136068 0.136719 0.137370 0.138021 0.138672 0.139323 0.139974 0.140625 0.141276 0.141927 0.142578 0.143229 0.143880 0.144531 0.145182 0.145833 0.146484 0.147135 0.147786 0.148438 0.149089 0.149740 0.150391 0.151042 0.151693 0.152344 0.152995 0.153646 0.154297 0.154948 0.155599 0.156250 0.156901 0.157552 0.158203 0.158854 0.159505 0.160156 0.160807 0.161458 0.162109 0.162760 0.163411 0.164062 0.164714 0.165365 0.166016 0.166667 0.167318 0.167969 0.168620 0.169271 0.169922 0.170573 0.171224 0.171875 0.172526 0.173177 0.173828 0.174479 0.175130 0.175781 0.176432 0.177083 0.177734 0.178385 0.179036 0.179688 0.180339 0.180990 0.181641 0.182292 0.182943 0.183594 0.184245 0.184896 0.185547 0.186198 0.186849 0.187500 0.188151 0.188802 0.189453 0.190104 0.190755 0.191406 0.192057 0.192708 0.193359 0.194010 0.194661 0.195312 0.195964 0.196615 0.197266 0.197917 0.198568 0.199219 0.199870 0.200521 0.201172 0.201823 0.202474 0.203125 0.203776 0.204427 0.205078 0.205729 0.206380 0.207031 0.207682 0.208333 0.208984 0.209635 0.210286 0.210938 0.211589 0.212240 0.212891 0.213542 0.214193 0.214844 0.215495 0.216146 0.216797 0.217448 0.218099 0.218750 0.219401 0.220052 0.220703 0.221354 0.222005 0.222656 0.223307 0.223958 0.224609 0.225260 0.225911 0.226562 0.227214 0.227865 0.228516 0.229167 0.229818 0.230469 0.231120 0.231771 0.232422 0.233073 0.233724 0.234375 0.235026 0.235677
       0.33233        0.33233        0.33233        0.33233        0.33233        0.33233        0.33233        0.33233        0.33233        0.33233        0.33233        0.33233        0.33233        0.33233        0.33233        0.33233        0.33233        0.33233        0.33233        0.33233        0.33233        0.33233        0.33233        0.33233        0.33233        0.33233        0.33233        0.33233        0.33233        0.33233        0.33233        0.33233        0.33233        0.33233        0.33233        0.33233        0.33233        0.33233        0.33233        0.33233        0.33233        0.33233        0.33233        0.33233        0.33233        0.33233        0.33233        0.33233        0.33233        0.33233        0.33233        0.50276        0.71908        0.43044        0.18799       -0.08231       -0.25880       -0.06670       -0.13419       -0.04905       -0.00508       -0.14863       -0.08988       -0.05781       -0.00616       -0.15516       -0.22336       -0.34901       -0.45955       -0.55202       -0.51198       -0.44168       -0.36917       -0.54293       -0.45148       -0.62155       -0.50421       -0.47338       -0.38861       -0.38938       -0.33975       -0.25395       -0.16094       -0.14084        0.03191       -0.01377        0.11869        0.16227        0.30678        0.41179        0.46070        0.50134        0.54315        0.55140        0.68517        0.64196        0.67482        0.58945        0.55391        0.65101        0.52674        0.42310        0.37993        0.32172        0.22984        0.25952        0.25098        0.10537        0.08083        0.00072       -0.00225        0.04254       -0.00973        0.07279        0.10613        0.23350        0.28526        0.29820        0.37682        0.56247        0.53124        0.57991        0.66599        0.70419        0.62969        0.63974        0.63191        0.55942        0.57489        0.40298        0.34424        0.26309        0.18370        0.07521        0.14372        0.11864        0.09182        0.10402        0.20716        0.21362        0.31758        0.36287        0.41101        0.49372        0.58113        0.54352        0.55736        0.60349        0.53330        0.45900        0.48540        0.33125        0.24451        0.26050        0.23842        0.14190        0.14332        0.15524        0.21806        0.23704        0.33202        0.36543        0.38795        0.46699        0.44312        0.48267        0.45215        0.46757        0.44959        0.40965        0.38584        0.35131        0.31428        0.29506        0.20366        0.18820        0.21741        0.26609        0.26681        0.34855        0.37364        0.35829        0.41262        0.44552        0.44041        0.42665        0.44578        0.38507        0.33626        0.28304        0.25711        0.29381        0.26683        0.29341        0.30026        0.34196        0.34201        0.39168        0.40491        0.43139        0.40767        0.43657        0.40056        0.35519        0.28032        0.29109        0.30745        0.26857        0.25229        0.32064        0.37008        0.34078        0.35045        0.36012        0.35965        0.40985        0.40842        0.36511        0.33741        0.30265        0.31316        0.31858        0.31952        0.30075        0.27891        0.33696        0.36062        0.38028        0.33289        0.32757        0.33698        0.34632        0.31102        0.28397        0.30019        0.30721        0.33920        0.31699        0.32391        0.35808        0.32587        0.31551        0.32458        0.29969        0.26578        0.25797        0.26634        0.30947        0.32197        0.35375        0.30293        0.30649        0.32713        0.29514        0.31400        0.28397        0.28478        0.29331        0.29197        0.30520        0.34511        0.33529        0.33212        0.34240        0.31543        0.33874        0.32005        0.31921        0.30765        0.28077        0.29101        0.30392        0.29409        0.32465        0.33092        0.33097        0.33079        0.34379        0.32239        0.28271        0.24679        0.26376        0.32790        0.35150        0.33745        0.30892        0.28953        0.29120        0.30765        0.25192        0.30102        0.31410        0.34372        0.29890        0.30553        0.28396        0.33371        0.33663        0.33867        0.30959        0.29057        0.31683        0.39762        0.32182        0.30685        0.32012        0.28331        0.28287        0.30762        0.27693        0.32776        0.23090        0.26775        0.29919        0.31197        0.29618        0.25811        0.28883        0.24495        0.22245        0.26480        0.29606        0.30992        0.27338        0.28024        0.33014        0.26251        0.22630        0.29735        0.26685        0.26393        0.28509        0.38263        0.29142        0.28620        0.25378        0.24348        0.27367        0.25779        0.24065        0.18224        0.26590        0.23445        0.24442        0.31815        0.25398        0.36283        0.31769        0.22907        0.21591        0.20878        0.23445        0.33015        0.23881        0.13751        0.17951        0.22712        0.24240        0.23238        0.18942        0.01511       -0.47417       -0.96170
2.674215 2.645932 2.617800 2.589820 2.561992 2.534315 2.506791 2.479418 2.452197 2.425128 2.398211 2.371446 2.344833 2.318371 2.292062 2.265904 2.239898 2.214044 2.188341 2.162791 2.137392 2.112146 2.087051 2.062108 2.037317 2.012677 1.988190 1.963854 1.939670 1.915638 1.891758 1.868030 1.844454 1.821029 1.797757 1.774636 1.751667 1.728850 1.706185 1.683671 1.661309 1.639100 1.617042 1.595136 1.573382 1.551779 1.530329 1.509030 1.487884 1.466889 1.446046 1.516528 1.816746 1.516973 1.146933 0.929540 0.541569 0.906490 0.624907 0.871106 0.915736 0.582323 0.708090 0.762382 0.808995 0.620516 0.527901 0.340168 0.101834 0.081444 0.047545 0.088082 0.300937 -0.036675 0.078645 -0.137859 -0.016962 -0.017853 0.082720 0.048771 0.101445 0.168080 0.276511 0.241631 0.474905 0.390236 0.543077 0.514999 0.758883 0.786926 0.868495 0.917726 0.933804 0.939384 1.071748 0.968804 1.129109 0.932742 0.844028 1.003540 0.839703 0.745070 0.608846 0.586222 0.457965 0.404935 0.503928 0.260955 0.189315 0.151359 0.014250 0.214479 -0.008099 0.108440 0.183284 0.259164 0.331151 0.336538 0.417634 0.538050 0.647709 0.536534 0.726915 0.867498 0.634818 0.691880 0.662972 0.592295 0.529824 0.466999 0.295481 0.208500 0.112232 -0.043262 -0.020278 0.053816 -0.101641 -0.058493 0.044943 0.048727 0.108292 0.221746 0.234976 0.308171 0.429079 0.433480 0.432890 0.475144 0.434661 0.312339 0.335585 0.246075 0.038427 0.060526 0.020227 -0.065239 -0.093128 -0.105231 -0.014287 -0.067586 0.064948 0.124263 0.119942 0.248771 0.219101 0.239897 0.285543 0.250334 0.242472 0.206214 0.179064 0.104730 0.099888 0.033069 0.013248 -0.129887 -0.061117 -0.005669 0.001952 0.013943 0.094797 0.081388 0.133077 0.175324 0.247193 0.162725 0.192247 0.114534 0.149211 0.011929 -0.031232 0.014245 -0.016932 -0.011955 -0.005175 0.029559 0.069561 0.056269 0.137286 0.121462 0.152869 0.070505 0.150589 0.080982 -0.017534 -0.057827 -0.017682 -0.032414 -0.083042 -0.065059 0.039082 0.067395 -0.012903 0.052541 0.059649 0.072021 0.146154 0.077273 0.064043 0.036389 -0.027098 0.029815 0.004944 0.013040 0.003527 -0.016273 0.045566 0.065152 0.071711 0.028172 0.045228 0.019136 0.068854 -0.008345 -0.019063 0.013481 0.007692 0.064495 0.027585 0.037771 0.073587 0.027802 0.015123 0.030140 -0.002869 -0.038003 -0.024700 -0.027774 0.027893 0.046656 0.095639 0.005546 0.046845 0.068186 -0.005348 0.067358 0.019555 0.023006 0.048603 0.046520 0.048098 0.106403 0.072083 0.079812 0.084898 0.093214 0.076654 0.069712 0.084520 0.033338 0.001792 0.044698 0.031812 0.065279 0.060464 0.091777 -0.002037 0.074602 0.069037 0.011477 0.016071 -0.079421 -0.026314 0.100898 0.065610 0.041812 0.025424 -0.023473 0.029299 0.014301 -0.060385 0.041330 0.051257 0.074124 0.027523 -0.000860 -0.001724 0.055287 0.041601 0.022508 0.030128 -0.034057 0.065773 0.117476 0.007691 -0.009718 0.018080 -0.028936 -0.026321 -0.006125 -0.045754 0.025698 -0.105763 -0.029487 -0.023988 0.020719 -0.031419 -0.061889 -0.001913 -0.055225 -0.058717 -0.055526 0.042143 0.016364 0.005575 -0.002858 0.080884 -0.039848 -0.037408 0.028414 -0.018153 0.030814 0.008165 0.178810 -0.007892 0.011892 0.027660 -0.027925 -0.000711 0.000422 -0.017437 -0.141680 0.025710 -0.030191 -0.002449 0.038671 -0.031574 0.158362 0.051921 -0.014589 -0.102879 -0.031883 -0.075275 0.098599 0.283658 0.159286 0.226411 0.208095 0.333235 0.263507 0.220818 0.020348 -1.121336
0.072396 0.072910 0.074450 0.077018 0.080611 0.085229 0.090871 0.097536 0.105220 0.113921 0.123635 0.134358 0.146084 0.158807 0.172518 0.187207 0.202863 0.219472 0.237018 0.255484 0.274847 0.295083 0.316165 0.338061 0.360736 0.384151 0.408262 0.433020 0.458371 0.484256 0.510609 0.537360 0.564431 0.591739 0.619193 0.646696 0.674143 0.701424 0.728420 0.755006 0.781048 0.806407 0.830937 0.854485 0.876892 0.897992 0.917617 0.935592 0.951738 0.965874 0.977818 0.987384 0.994390 0.998653 0.999995 0.998241 0.993225 0.984786 0.972776 0.957057 0.937508 0.914023 0.886514 0.854917 0.819188 0.779313 0.735303 0.687200 0.635081 0.579054 0.519268 0.455905 0.389192 0.319394 0.246819 0.171815 0.094776 0.016134 0.063636 0.144020 0.224467 0.304391 0.383176 0.460177 0.534730 0.606150 0.673743 0.736814 0.794666 0.846619 0.892009 0.930206 0.960614 0.982691 0.995949 0.999973 0.994426 0.979058 0.953719 0.918366 0.873069 0.818021 0.753540 0.680080 0.598223 0.508689 0.412332 0.310133 0.203199 0.092751 0.019882 0.133285 0.245961 0.356361 0.462895 0.563962 0.657973 0.743375 0.818681 0.882498 0.933558 0.970744 0.993122 0.999961 0.990768 0.965301 0.923592 0.865962 0.793028 0.705712 0.605235 0.493114 0.371144 0.241377 0.106099 0.032211 0.170917 0.307282 0.438510 0.561812 0.674465 0.773873 0.857637 0.923617 0.969992 0.995320 0.998593 0.979278 0.937356 0.873346 0.788316 0.683884 0.562206 0.425938 0.278197 0.122495 0.037330 0.197209 0.352941 0.500299 0.635152 0.753584 0.852013 0.927313 0.976924 0.998950 0.992247 0.956489 0.892212 0.800836 0.684655 0.546802 0.391187 0.222395 0.045575 0.133716 0.309682 0.476462 0.628346 0.759961 0.866483 0.943819 0.988790 0.999275 0.974335 0.914285 0.820738 0.696590 0.545962 0.374085 0.187142 0.007935 0.203715 0.392546 0.566848 0.719429 0.843796 0.934440 0.987113 0.999045 0.969119 0.897976 0.788048 0.643518 0.470194 0.275305 0.067220 0.144881 0.351421 0.542837 0.710049 0.844885 0.940522 0.991846 0.995763 0.951418 0.860309 0.726291 0.555462 0.355917 0.137407 0.089121 0.312053 0.519695 0.700906 0.845696 0.945817 0.995257 0.990650 0.931537 0.820490 0.663050 0.467513 0.244529 0.006563 0.232782 0.459532 0.660157 0.822401 0.936053 0.993633 0.990932 0.927368 0.806127 0.634071 0.421417 0.181173 0.071618 0.320794 0.550102 0.744265 0.890031 0.977109 0.998958 0.953326 0.842534 0.673430 0.457057 0.207968 0.056689 0.318329 0.558223 0.758854 0.905216 0.985998 0.994508 0.929301 0.794425 0.599261 0.357941 0.088401 0.188918 0.452588 0.681859 0.858308 0.967376 0.999619 0.951617 0.826392 0.633337 0.387587 0.108924 0.179782 0.454398 0.691571 0.870715 0.975872 0.997194 0.931960 0.784981 0.568370 0.300629 0.005151 0.291773 0.563273 0.784343 0.934182 0.998231 0.969676 0.850266 0.650353 0.388112 0.087967 0.221595 0.510710 0.751018 0.918481 0.995869 0.974625 0.855922 0.650767 0.379100 0.067974 0.251089 0.545228 0.783670 0.940965 0.999812 0.953063 0.804709 0.569707 0.272588 0.054990 0.377546 0.659611 0.869648 0.983648 0.987988 0.881184 0.674329 0.390080 0.060316 0.277359 0.583856 0.823142 0.966547 0.996293 0.907847 0.710737 0.427693 0.092176 0.255495 0.572913 0.820781 0.967849 0.994952 0.897673 0.687191 0.389182 0.040830 0.313707 0.628837 0.863441 0.986300 0.980396 0.845436 0.598213 0.270707 0.093905 0.446854 0.740274 0.933746 0.999981
1.000000 1.000000 1.000000 1.000000 1.000000 1.000000 1.000000 1.000000 1.000000 1.000000 1.000000 1.000000 1.000000 1.000000 1.000000 1.000000 1.000000 1.000000 1.000000 1.000000 1.000000 1.000000 1.000000 1.000000 1.000000 1.000000 1.000000 1.000000 1.000000 1.000000 1.000000 1.000000 1.000000 1.000000 1.000000 1.000000 1.000000 1.000000 1.000000 1.000000 1.000000 1.000000 1.000000 1.000000 1.000000 1.000000 1.000000 1.000000 1.000000 1.000000 1.000000 1.000000 0.919473 0.919473 0.906995 0.906995 0.906995 0.906995 0.906995 0.906995 0.906995 0.906995 0.906995 0.906995 0.906995 0.906995 0.906995 0.906995 0.906995 0.906995 0.906995 0.906995 0.906995 0.906995 0.906995 0.906995 0.906995 0.906995 0.906995 0.906995 0.906995 0.906995 0.906995 0.906995 0.906995 0.906995 0.906995 0.906995 0.906995 0.906995 0.906995 0.906995 0.906995 0.906995 0.906995 0.904161 0.908657 0.910480 0.908688 0.912258 0.912349 0.911653 0.911978 0.911601 0.911872 0.913223 0.923786 0.934893 0.946257 0.946358 0.951421 0.955919 0.958223 0.959278 0.960820 0.966999 0.965802 0.965232 0.965957 0.967594 0.969866 0.968383 0.968248 0.971361 0.972112 0.970295 0.968301 0.967670 0.966126 0.965227 0.964789 0.964941 0.964855 0.965491 0.965733 0.965980 0.966120 0.966146 0.967169 0.968330 0.970565 0.971571 0.971334 0.970054 0.967854 0.971855 0.972558 0.972189 0.972074 0.971537 0.971867 0.960086 0.954450 0.954412 0.950176 0.949373 0.947155 0.944676 0.941557 0.941576 0.940981 0.941842 0.937193 0.925042 0.911266 0.899019 0.920903 0.905751 0.893176 0.871179 0.871609 0.872194 0.872885 0.868023 0.860588 0.856671 0.853619 0.854759 0.850699 0.852515 0.850256 0.840889 0.843171 0.841831 0.814547 0.797357 0.779875 0.779725 0.777652 0.778966 0.780932 0.780142 0.788123 0.777864 0.776716 0.769141 0.750560 0.712193 0.699326 0.709030 0.718376 0.714852 0.711235 0.695862 0.658331 0.669417 0.690410 0.692633 0.695642 0.685907 0.676914 0.676103 0.680263 0.669427 0.659646 0.658207 0.656205 0.665700 0.670050 0.669371 0.657933 0.641840 0.628598 0.616477 0.626997 0.635766 0.602070 0.596243 0.581156 0.572391 0.555604 0.538743 0.535105 0.509831 0.501617 0.506756 0.512713 0.515951 0.523921 0.525982 0.509284 0.528018 0.538738 0.563869 0.546593 0.546904 0.546955 0.550064 0.537993 0.521985 0.520222 0.521043 0.530894 0.553839 0.593320 0.578153 0.565310 0.553692 0.561235 0.527549 0.530633 0.553620 0.530913 0.474642 0.409376 0.407119 0.368072 0.368860 0.347767 0.342105 0.348026 0.339771 0.331100 0.318109 0.303935 0.240214 0.199741 0.183556 0.171274 0.165909 0.183183 0.183528 0.176729 0.193960 0.242048 0.245823 0.238277 0.199410 0.192490 0.166714 0.163053 0.189736 0.144965 0.133888 0.125747 0.101042 0.077506 0.027143 0.051156 -0.039249 -0.062763 -0.069083 -0.047813 -0.035600 -0.036808 -0.035727 -0.071478 -0.056385 -0.012571 -0.008082 -0.018610 -0.085661 -0.068390 -0.058602 -0.056923 -0.070484 -0.078800 -0.075013 -0.084980 -0.086343 -0.076493 -0.023342 0.036146 0.038809 0.024490 0.056004 0.052059 0.036074 0.051957 0.035445 0.037223 0.015320 0.009145 -0.032216 -0.064416 -0.064416 -0.063044 -0.063044 -0.063044 -0.063044 -0.063044 -0.063044 -0.063044 -0.063044 -0.063044 -0.065177 -0.065177 -0.065177 -0.065177 -0.065177 -0.065177 -0.065177 -0.065177 -0.065177 -0.034612 -0.034612 -0.034612 -0.034612 -0.034612 -0.034612 -0.034612 -0.034612 -0.034612
0.000000 0.000000 0.000000 0.000000 0.000000 0.000000 0.000000 0.000000 0.000000 0.000000 0.000000 0.000000 0.000000 0.000000 0.000000 0.000000 0.000000 0.000000 0.000000 0.000000 0.000000 0.000000 0.000000 0.000000 0.000000 0.000000 0.000000 0.000000 0.000000 0.000000 0.000000 0.000000 0.000000 0.000000 0.000000 0.000000 0.000000 0.000000 0.000000 0.000000 0.000000 0.000000 0.000000 0.000000 0.000000 0.000000 0.000000 0.000000 0.000000 0.000000 0.000000 0.000000 0.181818 0.181818 0.199007 0.199007 0.199007 0.199007 0.199007 0.199007 0.199007 0.199007 0.199007 0.199007 0.199007 0.199007 0.199007 0.199007 0.199007 0.199007 0.199007 0.199007 0.199007 0.199007 0.199007 0.199007 0.199007 0.199007 0.199007 0.199007 0.199007 0.199007 0.199007 0.199007 0.199007 0.199007 0.199007 0.199007 0.199007 0.199007 0.199007 0.199007 0.199007 0.199007 0.199007 0.230940 0.230940 0.230940 0.230940 0.230940 0.230940 0.230940 0.230940 0.230940 0.230940 0.230940 0.230940 0.230940 0.230940 0.230940 0.230940 0.230940 0.230940 0.230940 0.230940 0.230940 0.230940 0.230940 0.230940 0.230940 0.230940 0.230940 0.230940 0.244339 0.244339 0.244339 0.244339 0.244339 0.244339 0.244339 0.244339 0.244339 0.244339 0.244339 0.244339 0.244339 0.244339 0.244339 0.244339 0.244339 0.244339 0.244339 0.244339 0.244339 0.244339 0.244339 0.251976 0.251976 0.251976 0.251976 0.251976 0.251976 0.251976 0.251976 0.251976 0.251976 0.251976 0.251976 0.251976 0.251976 0.251976 0.251976 0.251976 0.251976 0.251976 0.251976 0.264906 0.264906 0.264906 0.264906 0.264906 0.264906 0.264906 0.264906 0.264906 0.264906 0.264906 0.264906 0.264906 0.264906 0.264906 0.264906 0.264906 0.264906 0.264906 0.264906 0.264906 0.264906 0.264906 0.264906 0.264906 0.264906 0.264906 0.264906 0.264906 0.264906 0.264906 0.264906 0.264906 0.264906 0.264906 0.264906 0.264906 0.264906 0.264906 0.264906 0.264906 0.264906 0.264906 0.264906 0.264906 0.264906 0.264906 0.264906 0.264906 0.264906 0.264906 0.264906 0.264906 0.264906 0.264906 0.264906 0.264906 0.264906 0.264906 0.264906 0.264906 0.264906 0.264906 0.264906 0.264906 0.264906 0.264906 0.264906 0.264906 0.264906 0.264906 0.264906 0.264906 0.264906 0.264906 0.269680 0.269680 0.269680 0.269680 0.269680 0.269680 0.269680 0.269680 0.269680 0.269680 0.269680 0.269680 0.264906 0.264906 0.264906 0.264906 0.264906 0.264906 0.264906 0.264906 0.264906 0.264906 0.264906 0.264906 0.269680 0.269680 0.269680 0.269680 0.269680 0.269680 0.269680 0.269680 0.269680 0.269680 0.269680 0.264906 0.264906 0.264906 0.264906 0.264906 0.264906 0.264906 0.264906 0.264906 0.264906 0.264906 0.256074 0.256074 0.256074 0.256074 0.256074 0.256074 0.256074 0.256074 0.256074 0.256074 0.256074 0.264906 0.264906 0.264906 0.264906 0.264906 0.264906 0.264906 0.264906 0.264906 0.264906 0.260378 0.260378 0.260378 0.260378 0.260378 0.260378 0.260378 0.260378 0.260378 0.260378 0.264906 0.264906 0.264906 0.264906 0.264906 0.264906 0.264906 0.264906 0.264906 0.260378 0.260378 0.260378 0.260378 0.260378 0.260378 0.260378 0.260378 0.260378 0.256074 0.256074 0.256074 0.256074 0.256074 0.256074 0.256074 0.256074 0.256074 0.251976 0.251976 0.251976 0.251976 0.251976 0.251976 0.251976 0.251976 0.251976 0.264906 0.264906 0.264906 0.264906 0.264906 0.264906 0.264906 0.264906 0.264906
