# Output from CTFFind version 4.1.9, run on 2019-11-01 22:44:07
# Input file: first_bm3d_averaged_1_1.7_1.00_250_half.mrc ; Number of micrographs: 1
# Pixel size: 3.000 Angstroms ; acceleration voltage: 300.0 keV ; spherical aberration: 0.00 mm ; amplitude contrast: 0.07
# Box size: 512 pixels ; min. res.: 30.0 Angstroms ; max. res.: 5.0 Angstroms ; min. def.: 5000.0 um; max. def. 50000.0 um; num. frames averaged: 1
# 6 lines per micrograph: #1 - spatial frequency (1/Angstroms); #2 - 1D rotational average of spectrum (assuming no astigmatism); #3 - 1D rotational average of spectrum; #4 - CTF fit; #5 - cross-correlation between spectrum and CTF fit; #6 - 2sigma of expected cross correlation of noise
0.000000 0.000651 0.001302 0.001953 0.002604 0.003255 0.003906 0.004557 0.005208 0.005859 0.006510 0.007161 0.007812 0.008464 0.009115 0.009766 0.010417 0.011068 0.011719 0.012370 0.013021 0.013672 0.014323 0.014974 0.015625 0.016276 0.016927 0.017578 0.018229 0.018880 0.019531 0.020182 0.020833 0.021484 0.022135 0.022786 0.023438 0.024089 0.024740 0.025391 0.026042 0.026693 0.027344 0.027995 0.028646 0.029297 0.029948 0.030599 0.031250 0.031901 0.032552 0.033203 0.033854 0.034505 0.035156 0.035807 0.036458 0.037109 0.037760 0.038411 0.039062 0.039714 0.040365 0.041016 0.041667 0.042318 0.042969 0.043620 0.044271 0.044922 0.045573 0.046224 0.046875 0.047526 0.048177 0.048828 0.049479 0.050130 0.050781 0.051432 0.052083 0.052734 0.053385 0.054036 0.054688 0.055339 0.055990 0.056641 0.057292 0.057943 0.058594 0.059245 0.059896 0.060547 0.061198 0.061849 0.062500 0.063151 0.063802 0.064453 0.065104 0.065755 0.066406 0.067057 0.067708 0.068359 0.069010 0.069661 0.070312 0.070964 0.071615 0.072266 0.072917 0.073568 0.074219 0.074870 0.075521 0.076172 0.076823 0.077474 0.078125 0.078776 0.079427 0.080078 0.080729 0.081380 0.082031 0.082682 0.083333 0.083984 0.084635 0.085286 0.085938 0.086589 0.087240 0.087891 0.088542 0.089193 0.089844 0.090495 0.091146 0.091797 0.092448 0.093099 0.093750 0.094401 0.095052 0.095703 0.096354 0.097005 0.097656 0.098307 0.098958 0.099609 0.100260 0.100911 0.101562 0.102214 0.102865 0.103516 0.104167 0.104818 0.105469 0.106120 0.106771 0.107422 0.108073 0.108724 0.109375 0.110026 0.110677 0.111328 0.111979 0.112630 0.113281 0.113932 0.114583 0.115234 0.115885 0.116536 0.117188 0.117839 0.118490 0.119141 0.119792 0.120443 0.121094 0.121745 0.122396 0.123047 0.123698 0.124349 0.125000 0.125651 0.126302 0.126953 0.127604 0.128255 0.128906 0.129557 0.130208 0.130859 0.131510 0.132161 0.132812 0.133464 0.134115 0.134766 0.135417 0.136068 0.136719 0.137370 0.138021 0.138672 0.139323 0.139974 0.140625 0.141276 0.141927 0.142578 0.143229 0.143880 0.144531 0.145182 0.145833 0.146484 0.147135 0.147786 0.148438 0.149089 0.149740 0.150391 0.151042 0.151693 0.152344 0.152995 0.153646 0.154297 0.154948 0.155599 0.156250 0.156901 0.157552 0.158203 0.158854 0.159505 0.160156 0.160807 0.161458 0.162109 0.162760 0.163411 0.164062 0.164714 0.165365 0.166016 0.166667 0.167318 0.167969 0.168620 0.169271 0.169922 0.170573 0.171224 0.171875 0.172526 0.173177 0.173828 0.174479 0.175130 0.175781 0.176432 0.177083 0.177734 0.178385 0.179036 0.179688 0.180339 0.180990 0.181641 0.182292 0.182943 0.183594 0.184245 0.184896 0.185547 0.186198 0.186849 0.187500 0.188151 0.188802 0.189453 0.190104 0.190755 0.191406 0.192057 0.192708 0.193359 0.194010 0.194661 0.195312 0.195964 0.196615 0.197266 0.197917 0.198568 0.199219 0.199870 0.200521 0.201172 0.201823 0.202474 0.203125 0.203776 0.204427 0.205078 0.205729 0.206380 0.207031 0.207682 0.208333 0.208984 0.209635 0.210286 0.210938 0.211589 0.212240 0.212891 0.213542 0.214193 0.214844 0.215495 0.216146 0.216797 0.217448 0.218099 0.218750 0.219401 0.220052 0.220703 0.221354 0.222005 0.222656 0.223307 0.223958 0.224609 0.225260 0.225911 0.226562 0.227214 0.227865 0.228516 0.229167 0.229818 0.230469 0.231120 0.231771 0.232422 0.233073 0.233724 0.234375 0.235026 0.235677
       0.32448        0.32448        0.32448        0.32448        0.32448        0.32448        0.32448        0.32448        0.32448        0.32448        0.32448        0.32448        0.32448        0.32448        0.32448        0.32448        0.32448        0.32448        0.32448        0.32448        0.32448        0.32448        0.32448        0.32448        0.32448        0.32448        0.32448        0.32448        0.32448        0.32448        0.32448        0.32448        0.32448        0.32448        0.32448        0.32448        0.32448        0.32448        0.32448        0.32448        0.32448        0.32448        0.32448        0.32448        0.32448        0.32448        0.32448        0.32448        0.32448        0.32448        0.32448        0.49528        0.71278        0.41948        0.18587       -0.08278       -0.26101       -0.07233       -0.13432       -0.06163       -0.00761       -0.15938       -0.10744       -0.05722       -0.01032       -0.16210       -0.23289       -0.35006       -0.47100       -0.57329       -0.53032       -0.45822       -0.38129       -0.56372       -0.46368       -0.63000       -0.51648       -0.48151       -0.40076       -0.38902       -0.33758       -0.25612       -0.17684       -0.14810        0.02232       -0.02379        0.10495        0.16043        0.30484        0.41296        0.45752        0.49747        0.53902        0.54628        0.67704        0.63396        0.66843        0.58384        0.55215        0.64183        0.51669        0.42258        0.38301        0.30655        0.22140        0.24880        0.24110        0.09112        0.07394       -0.00098       -0.01217        0.02381       -0.02268        0.05751        0.08740        0.22019        0.27695        0.28191        0.37897        0.56468        0.53575        0.56888        0.65832        0.69398        0.62247        0.63000        0.63012        0.54274        0.56540        0.39195        0.34104        0.25502        0.17808        0.06957        0.13600        0.10483        0.09245        0.10608        0.20062        0.19244        0.30853        0.34764        0.40124        0.48107        0.55954        0.53966        0.54725        0.59757        0.52125        0.45147        0.47628        0.32040        0.23926        0.25021        0.23501        0.12866        0.13030        0.14631        0.21248        0.23715        0.32796        0.37064        0.39267        0.45226        0.43479        0.47537        0.44085        0.46479        0.43857        0.39111        0.36622        0.35762        0.31561        0.28502        0.20106        0.19409        0.21479        0.25682        0.25010        0.33838        0.36742        0.34797        0.40488        0.44383        0.43169        0.42412        0.43648        0.35987        0.32458        0.27754        0.24779        0.28330        0.25028        0.28139        0.29463        0.33124        0.32582        0.38333        0.37870        0.42065        0.40331        0.44137        0.39775        0.35274        0.27009        0.27679        0.28546        0.26308        0.25271        0.31779        0.35558        0.32643        0.35532        0.35983        0.34381        0.40547        0.39358        0.35859        0.33317        0.29491        0.30777        0.31313        0.30528        0.30189        0.27780        0.33032        0.34869        0.36113        0.32990        0.32788        0.32901        0.34480        0.30829        0.28059        0.30230        0.30821        0.32598        0.31547        0.32062        0.34500        0.32216        0.31424        0.32507        0.29499        0.25270        0.23988        0.25949        0.30209        0.31119        0.35656        0.29231        0.29306        0.31305        0.28280        0.30833        0.28288        0.26638        0.27731        0.28374        0.29893        0.33484        0.31653        0.31968        0.32158        0.31512        0.32923        0.30974        0.31564        0.31575        0.26593        0.28089        0.29693        0.28237        0.30993        0.31268        0.32710        0.32035        0.33989        0.32469        0.28175        0.23322        0.26565        0.32176        0.34246        0.33687        0.31356        0.28916        0.29810        0.30436        0.24977        0.28473        0.29900        0.31948        0.28170        0.27562        0.25826        0.31973        0.32502        0.33087        0.30266        0.29104        0.28854        0.38236        0.33179        0.29603        0.29414        0.29778        0.28823        0.29543        0.29206        0.30420        0.22515        0.26161        0.30604        0.31288        0.28530        0.25260        0.27282        0.22616        0.21665        0.28692        0.30160        0.29805        0.28353        0.27220        0.32389        0.25457        0.21956        0.26186        0.23491        0.26344        0.26882        0.34751        0.25038        0.27711        0.26474        0.22840        0.26756        0.26611        0.23405        0.18457        0.21605        0.21231        0.24201        0.30010        0.25245        0.34571        0.32997        0.26693        0.24003        0.19377        0.25365        0.30458        0.22862        0.18306        0.21068        0.21757        0.20357        0.24581        0.20893        0.03631       -0.43999       -0.89958
2.691896 2.663308 2.634875 2.606598 2.578475 2.550506 2.522693 2.495035 2.467531 2.440183 2.412989 2.385951 2.359067 2.332338 2.305764 2.279344 2.253080 2.226971 2.201016 2.175216 2.149571 2.124082 2.098747 2.073566 2.048541 2.023671 1.998955 1.974395 1.949989 1.925738 1.901642 1.877701 1.853915 1.830284 1.806808 1.783486 1.760319 1.737308 1.714451 1.691749 1.669202 1.646810 1.624572 1.602490 1.580562 1.558790 1.537172 1.515709 1.494401 1.473248 1.452250 1.520916 1.829414 1.507884 1.192201 0.942100 0.552789 0.913187 0.642645 0.867504 0.922790 0.587511 0.696208 0.775162 0.820381 0.619164 0.525948 0.355145 0.099992 0.070735 0.038681 0.073339 0.298635 -0.042971 0.065734 -0.132535 -0.023304 -0.016817 0.073822 0.060051 0.116500 0.176155 0.271490 0.241102 0.475805 0.390694 0.536182 0.527708 0.769252 0.791759 0.875313 0.935323 0.930553 0.951823 1.099177 0.938316 1.130793 0.939936 0.853560 1.007217 0.840956 0.749935 0.628679 0.583280 0.457230 0.403528 0.500237 0.257485 0.190302 0.167161 0.013529 0.198650 -0.014203 0.106407 0.166057 0.258257 0.336179 0.331344 0.424210 0.549338 0.672878 0.537644 0.726995 0.870470 0.634491 0.695243 0.673717 0.589808 0.531702 0.466487 0.304420 0.205837 0.122814 -0.032044 -0.021933 0.050578 -0.083986 -0.058151 0.064210 0.043431 0.098213 0.225814 0.233095 0.313569 0.427682 0.435582 0.446533 0.465313 0.447201 0.312238 0.341830 0.248909 0.043842 0.068467 0.023254 -0.052073 -0.104238 -0.092972 -0.013537 -0.048622 0.080456 0.137030 0.148044 0.255724 0.224239 0.237830 0.295575 0.234868 0.244139 0.215218 0.158291 0.118899 0.122208 0.031298 0.027446 -0.114455 -0.041426 0.002045 0.002036 0.014606 0.112210 0.082467 0.140022 0.196511 0.264448 0.174709 0.210865 0.123783 0.142669 0.035421 -0.020940 0.017989 -0.000144 -0.003024 0.007813 0.044344 0.075521 0.068652 0.153411 0.108585 0.190526 0.098811 0.190705 0.100132 0.005271 -0.034480 -0.015651 -0.022881 -0.050991 -0.039865 0.068761 0.074255 0.002299 0.117705 0.082305 0.094448 0.167570 0.094386 0.099102 0.060686 -0.000524 0.060337 0.019867 0.035109 0.037960 0.014657 0.064988 0.075308 0.078597 0.053185 0.065848 0.031337 0.084943 0.015286 -0.002079 0.039758 0.021781 0.072865 0.047012 0.060988 0.056103 0.052928 0.028001 0.040784 -0.001363 -0.046092 -0.036452 -0.015418 0.020038 0.040491 0.114570 -0.005658 0.044764 0.041921 -0.001125 0.061476 0.011328 0.000230 0.029097 0.042711 0.037594 0.087184 0.049597 0.069298 0.075910 0.082561 0.062450 0.075820 0.087129 0.045639 -0.008727 0.052429 0.033608 0.047942 0.067726 0.079464 0.031585 0.075086 0.087794 0.035994 0.029648 -0.068163 -0.003257 0.114560 0.075205 0.065064 0.058480 0.008083 0.054706 0.045889 -0.044824 0.048002 0.052390 0.075556 0.037389 -0.025009 0.001555 0.080458 0.037884 0.044108 0.033040 -0.013405 0.046909 0.121087 0.043247 -0.013257 0.011650 0.011954 -0.018276 -0.012762 -0.000505 -0.003298 -0.099000 -0.026829 0.001435 0.029694 -0.037685 -0.065737 0.017293 -0.074217 -0.035718 -0.038756 0.059747 0.012766 0.029536 -0.008457 0.064185 -0.025960 -0.062412 -0.015502 -0.057004 0.022096 -0.012259 0.130639 -0.075117 0.007469 0.032351 -0.055718 0.011078 0.016498 -0.039982 -0.108718 -0.035335 -0.049204 -0.008170 0.020036 -0.028151 0.145155 0.081045 0.025764 -0.030654 -0.053936 -0.020354 0.059681 0.272215 0.217163 0.256420 0.227105 0.291158 0.264378 0.219451 0.045455 -1.051288
0.072396 0.072910 0.074452 0.077022 0.080619 0.085242 0.090890 0.097561 0.105253 0.113963 0.123687 0.134421 0.146159 0.158895 0.172619 0.187323 0.202995 0.219620 0.237184 0.255667 0.275049 0.295304 0.316406 0.338322 0.361019 0.384455 0.408587 0.433366 0.458737 0.484643 0.511016 0.537786 0.564875 0.592200 0.619670 0.647187 0.674646 0.701937 0.728940 0.755529 0.781572 0.806929 0.831452 0.854989 0.877380 0.898460 0.918059 0.936001 0.952109 0.966200 0.978092 0.987599 0.994539 0.998729 0.999989 0.998146 0.993032 0.984488 0.972364 0.956525 0.936848 0.913228 0.885578 0.853833 0.817952 0.777920 0.733750 0.685485 0.633202 0.577013 0.517066 0.453546 0.386682 0.316740 0.244029 0.168903 0.091754 0.013019 0.066826 0.147264 0.227743 0.307673 0.386437 0.463388 0.537859 0.609164 0.676610 0.739496 0.797130 0.848826 0.893925 0.931794 0.961841 0.983522 0.996356 0.999928 0.993904 0.978040 0.952190 0.916316 0.870495 0.814926 0.749936 0.675982 0.593659 0.503694 0.406946 0.304409 0.197194 0.086534 0.026238 0.139698 0.252344 0.362621 0.468937 0.569687 0.663281 0.748167 0.822860 0.885973 0.936243 0.972563 0.994007 0.999860 0.989640 0.963124 0.920362 0.861692 0.787754 0.699490 0.598143 0.485250 0.362627 0.232347 0.096713 0.041780 0.180485 0.316651 0.447481 0.570181 0.682032 0.780447 0.863038 0.927682 0.972583 0.996327 0.997936 0.976916 0.933285 0.867604 0.780987 0.675095 0.552125 0.414778 0.266206 0.109958 0.050104 0.209889 0.365183 0.511756 0.645484 0.762466 0.859151 0.932448 0.979845 0.999503 0.990343 0.952111 0.885417 0.791759 0.673509 0.533875 0.376834 0.207037 0.029679 0.149645 0.325115 0.490869 0.641209 0.770796 0.874855 0.949367 0.991238 0.998451 0.970177 0.906854 0.810218 0.683291 0.530310 0.356614 0.168477 0.027100 0.222640 0.410470 0.583027 0.733162 0.854455 0.941507 0.990199 0.997919 0.963722 0.888432 0.774669 0.626795 0.450785 0.254011 0.044959 0.167119 0.372610 0.561968 0.726172 0.857166 0.948282 0.994602 0.993262 0.943659 0.847554 0.709063 0.534526 0.332256 0.112176 0.114651 0.336547 0.541838 0.719464 0.859591 0.954189 0.997526 0.986554 0.921165 0.804285 0.641804 0.442328 0.216773 0.022206 0.260900 0.485323 0.682035 0.838966 0.946190 0.996587 0.986371 0.915418 0.787382 0.609576 0.392612 0.149815 0.103548 0.351230 0.577011 0.765793 0.904631 0.983662 0.996858 0.942545 0.823641 0.647583 0.425922 0.173639 0.091838 0.351792 0.587556 0.781843 0.920059 0.991442 0.989970 0.914933 0.771123 0.568630 0.322189 0.050192 0.226662 0.486900 0.709973 0.877877 0.976676 0.997715 0.938458 0.802851 0.601164 0.349294 0.067601 0.220715 0.491473 0.721551 0.890904 0.984352 0.993021 0.915278 0.757049 0.531473 0.257909 0.039638 0.334608 0.600207 0.811877 0.949611 0.999914 0.957222 0.824615 0.613719 0.343813 0.040150 0.268360 0.551839 0.782381 0.936818 0.999143 0.962263 0.828914 0.611614 0.331604 0.016878 0.300560 0.587907 0.814976 0.957422 0.999442 0.935638 0.771833 0.524686 0.220123 0.109277 0.427714 0.700043 0.895693 0.992166 0.977750 0.853067 0.631267 0.336786 0.002788 0.332505 0.630139 0.854994 0.979983 0.989441 0.881225 0.667258 0.372369 0.031560 0.314050 0.622169 0.854504 0.981608 0.986735 0.868199 0.639888 0.329818 0.023156 0.374131 0.677819 0.894429 0.994979 0.965308 0.808245 0.543566 0.205686 0.160689 0.506365 0.784306 0.956048 0.997182
1.000000 1.000000 1.000000 1.000000 1.000000 1.000000 1.000000 1.000000 1.000000 1.000000 1.000000 1.000000 1.000000 1.000000 1.000000 1.000000 1.000000 1.000000 1.000000 1.000000 1.000000 1.000000 1.000000 1.000000 1.000000 1.000000 1.000000 1.000000 1.000000 1.000000 1.000000 1.000000 1.000000 1.000000 1.000000 1.000000 1.000000 1.000000 1.000000 1.000000 1.000000 1.000000 1.000000 1.000000 1.000000 1.000000 1.000000 1.000000 1.000000 1.000000 1.000000 1.000000 0.915976 0.915976 0.904549 0.904549 0.904549 0.904549 0.904549 0.904549 0.904549 0.904549 0.904549 0.904549 0.904549 0.904549 0.904549 0.904549 0.904549 0.904549 0.904549 0.904549 0.904549 0.904549 0.904549 0.904549 0.904549 0.904549 0.904549 0.904549 0.904549 0.904549 0.904549 0.904549 0.904549 0.904549 0.904549 0.904549 0.904549 0.904549 0.904549 0.904549 0.904549 0.904549 0.904549 0.902751 0.907594 0.909555 0.908023 0.911530 0.911591 0.909451 0.908966 0.908623 0.908959 0.910361 0.920858 0.931869 0.942884 0.943426 0.948610 0.952909 0.955344 0.956157 0.957709 0.967724 0.965118 0.964660 0.965374 0.966886 0.969039 0.967795 0.967344 0.969828 0.970526 0.968936 0.966637 0.965980 0.965336 0.965416 0.965042 0.964924 0.964801 0.965325 0.965561 0.965245 0.965396 0.965451 0.964025 0.963808 0.966377 0.967622 0.967507 0.966251 0.964018 0.967874 0.968371 0.968122 0.968106 0.967731 0.968041 0.955443 0.950756 0.950677 0.946228 0.945300 0.942917 0.941515 0.940178 0.940757 0.941521 0.942215 0.936357 0.923461 0.909262 0.894134 0.918397 0.905806 0.890263 0.867206 0.865273 0.857822 0.858438 0.852441 0.843752 0.840108 0.836799 0.838920 0.841206 0.845962 0.843385 0.831806 0.834560 0.830261 0.797880 0.787482 0.771170 0.772161 0.769334 0.770655 0.767909 0.766303 0.774369 0.761326 0.759579 0.750859 0.735120 0.701894 0.689179 0.699548 0.707643 0.716108 0.712099 0.697410 0.650635 0.658363 0.679212 0.673270 0.675472 0.666936 0.659646 0.663857 0.659385 0.653955 0.647301 0.646916 0.645944 0.655246 0.662146 0.653439 0.644181 0.632279 0.620682 0.604264 0.615606 0.617165 0.585417 0.580990 0.571877 0.565087 0.558064 0.539081 0.536839 0.513694 0.503232 0.499420 0.500935 0.504332 0.511904 0.511779 0.490990 0.509023 0.507472 0.535552 0.508534 0.507856 0.511210 0.516885 0.498986 0.494353 0.489294 0.490090 0.497697 0.523579 0.558288 0.549578 0.539364 0.530734 0.542467 0.522787 0.530966 0.561533 0.543989 0.486280 0.438694 0.435919 0.400935 0.395994 0.376536 0.361220 0.369566 0.351654 0.345167 0.330266 0.316798 0.291934 0.254026 0.225086 0.201556 0.211243 0.232954 0.230692 0.236061 0.267662 0.311611 0.318234 0.307235 0.270067 0.262405 0.225358 0.226831 0.240068 0.199669 0.197621 0.190690 0.162632 0.149138 0.121183 0.144406 0.067860 0.057317 0.055614 0.079575 0.070358 0.069251 0.067589 0.029012 0.040286 0.041878 0.019048 -0.001384 0.013866 -0.007565 -0.010459 -0.007048 -0.001125 -0.022368 -0.047038 -0.051054 -0.054229 -0.044235 -0.056078 -0.054293 0.007834 0.030944 0.020295 0.030997 0.022884 0.056453 0.051714 0.053786 0.020770 -0.002877 -0.042422 -0.071840 -0.071840 -0.052873 -0.052873 -0.052873 -0.052873 -0.052873 -0.052873 -0.052873 -0.052873 -0.052873 -0.053046 -0.053046 -0.053046 -0.053046 -0.053046 -0.053046 -0.053046 -0.053046 -0.053046 -0.041459 -0.041459 -0.041459 -0.041459 -0.041459 -0.041459 -0.041459 -0.041459 -0.041459
0.000000 0.000000 0.000000 0.000000 0.000000 0.000000 0.000000 0.000000 0.000000 0.000000 0.000000 0.000000 0.000000 0.000000 0.000000 0.000000 0.000000 0.000000 0.000000 0.000000 0.000000 0.000000 0.000000 0.000000 0.000000 0.000000 0.000000 0.000000 0.000000 0.000000 0.000000 0.000000 0.000000 0.000000 0.000000 0.000000 0.000000 0.000000 0.000000 0.000000 0.000000 0.000000 0.000000 0.000000 0.000000 0.000000 0.000000 0.000000 0.000000 0.000000 0.000000 0.000000 0.181818 0.181818 0.199007 0.199007 0.199007 0.199007 0.199007 0.199007 0.199007 0.199007 0.199007 0.199007 0.199007 0.199007 0.199007 0.199007 0.199007 0.199007 0.199007 0.199007 0.199007 0.199007 0.199007 0.199007 0.199007 0.199007 0.199007 0.199007 0.199007 0.199007 0.199007 0.199007 0.199007 0.199007 0.199007 0.199007 0.199007 0.199007 0.199007 0.199007 0.199007 0.199007 0.199007 0.230940 0.230940 0.230940 0.230940 0.230940 0.230940 0.230940 0.230940 0.230940 0.230940 0.230940 0.230940 0.230940 0.230940 0.230940 0.230940 0.230940 0.230940 0.230940 0.230940 0.230940 0.230940 0.230940 0.230940 0.230940 0.230940 0.230940 0.230940 0.244339 0.244339 0.244339 0.244339 0.244339 0.244339 0.244339 0.244339 0.244339 0.244339 0.244339 0.244339 0.244339 0.244339 0.244339 0.244339 0.244339 0.244339 0.244339 0.244339 0.244339 0.244339 0.244339 0.251976 0.251976 0.251976 0.251976 0.251976 0.251976 0.251976 0.251976 0.251976 0.251976 0.251976 0.251976 0.251976 0.251976 0.251976 0.251976 0.251976 0.251976 0.251976 0.251976 0.264906 0.264906 0.264906 0.264906 0.264906 0.264906 0.264906 0.264906 0.264906 0.264906 0.264906 0.264906 0.264906 0.264906 0.264906 0.264906 0.264906 0.264906 0.264906 0.264906 0.264906 0.264906 0.264906 0.264906 0.264906 0.264906 0.264906 0.264906 0.264906 0.264906 0.264906 0.264906 0.264906 0.264906 0.264906 0.264906 0.264906 0.264906 0.264906 0.264906 0.264906 0.264906 0.264906 0.264906 0.264906 0.264906 0.264906 0.264906 0.264906 0.264906 0.264906 0.264906 0.264906 0.264906 0.264906 0.264906 0.264906 0.264906 0.264906 0.264906 0.264906 0.264906 0.264906 0.264906 0.264906 0.264906 0.264906 0.264906 0.264906 0.264906 0.264906 0.264906 0.264906 0.264906 0.264906 0.269680 0.269680 0.269680 0.269680 0.269680 0.269680 0.269680 0.269680 0.269680 0.269680 0.269680 0.269680 0.264906 0.264906 0.264906 0.264906 0.264906 0.264906 0.264906 0.264906 0.264906 0.264906 0.264906 0.264906 0.269680 0.269680 0.269680 0.269680 0.269680 0.269680 0.269680 0.269680 0.269680 0.269680 0.269680 0.264906 0.264906 0.264906 0.264906 0.264906 0.264906 0.264906 0.264906 0.264906 0.264906 0.264906 0.256074 0.256074 0.256074 0.256074 0.256074 0.256074 0.256074 0.256074 0.256074 0.256074 0.256074 0.264906 0.264906 0.264906 0.264906 0.264906 0.264906 0.264906 0.264906 0.264906 0.264906 0.269680 0.269680 0.269680 0.269680 0.269680 0.269680 0.269680 0.269680 0.269680 0.256074 0.256074 0.256074 0.256074 0.256074 0.256074 0.256074 0.256074 0.256074 0.256074 0.260378 0.260378 0.260378 0.260378 0.260378 0.260378 0.260378 0.260378 0.260378 0.256074 0.256074 0.256074 0.256074 0.256074 0.256074 0.256074 0.256074 0.256074 0.251976 0.251976 0.251976 0.251976 0.251976 0.251976 0.251976 0.251976 0.251976 0.264906 0.264906 0.264906 0.264906 0.264906 0.264906 0.264906 0.264906 0.264906
