# Output from CTFFind version 4.1.9, run on 2019-11-01 22:45:11
# Input file: first_bm3d_averaged_1_2.2_1.00_50_half.mrc ; Number of micrographs: 1
# Pixel size: 3.000 Angstroms ; acceleration voltage: 300.0 keV ; spherical aberration: 0.00 mm ; amplitude contrast: 0.07
# Box size: 512 pixels ; min. res.: 30.0 Angstroms ; max. res.: 5.0 Angstroms ; min. def.: 5000.0 um; max. def. 50000.0 um; num. frames averaged: 1
# 6 lines per micrograph: #1 - spatial frequency (1/Angstroms); #2 - 1D rotational average of spectrum (assuming no astigmatism); #3 - 1D rotational average of spectrum; #4 - CTF fit; #5 - cross-correlation between spectrum and CTF fit; #6 - 2sigma of expected cross correlation of noise
0.000000 0.000651 0.001302 0.001953 0.002604 0.003255 0.003906 0.004557 0.005208 0.005859 0.006510 0.007161 0.007812 0.008464 0.009115 0.009766 0.010417 0.011068 0.011719 0.012370 0.013021 0.013672 0.014323 0.014974 0.015625 0.016276 0.016927 0.017578 0.018229 0.018880 0.019531 0.020182 0.020833 0.021484 0.022135 0.022786 0.023438 0.024089 0.024740 0.025391 0.026042 0.026693 0.027344 0.027995 0.028646 0.029297 0.029948 0.030599 0.031250 0.031901 0.032552 0.033203 0.033854 0.034505 0.035156 0.035807 0.036458 0.037109 0.037760 0.038411 0.039062 0.039714 0.040365 0.041016 0.041667 0.042318 0.042969 0.043620 0.044271 0.044922 0.045573 0.046224 0.046875 0.047526 0.048177 0.048828 0.049479 0.050130 0.050781 0.051432 0.052083 0.052734 0.053385 0.054036 0.054688 0.055339 0.055990 0.056641 0.057292 0.057943 0.058594 0.059245 0.059896 0.060547 0.061198 0.061849 0.062500 0.063151 0.063802 0.064453 0.065104 0.065755 0.066406 0.067057 0.067708 0.068359 0.069010 0.069661 0.070312 0.070964 0.071615 0.072266 0.072917 0.073568 0.074219 0.074870 0.075521 0.076172 0.076823 0.077474 0.078125 0.078776 0.079427 0.080078 0.080729 0.081380 0.082031 0.082682 0.083333 0.083984 0.084635 0.085286 0.085938 0.086589 0.087240 0.087891 0.088542 0.089193 0.089844 0.090495 0.091146 0.091797 0.092448 0.093099 0.093750 0.094401 0.095052 0.095703 0.096354 0.097005 0.097656 0.098307 0.098958 0.099609 0.100260 0.100911 0.101562 0.102214 0.102865 0.103516 0.104167 0.104818 0.105469 0.106120 0.106771 0.107422 0.108073 0.108724 0.109375 0.110026 0.110677 0.111328 0.111979 0.112630 0.113281 0.113932 0.114583 0.115234 0.115885 0.116536 0.117188 0.117839 0.118490 0.119141 0.119792 0.120443 0.121094 0.121745 0.122396 0.123047 0.123698 0.124349 0.125000 0.125651 0.126302 0.126953 0.127604 0.128255 0.128906 0.129557 0.130208 0.130859 0.131510 0.132161 0.132812 0.133464 0.134115 0.134766 0.135417 0.136068 0.136719 0.137370 0.138021 0.138672 0.139323 0.139974 0.140625 0.141276 0.141927 0.142578 0.143229 0.143880 0.144531 0.145182 0.145833 0.146484 0.147135 0.147786 0.148438 0.149089 0.149740 0.150391 0.151042 0.151693 0.152344 0.152995 0.153646 0.154297 0.154948 0.155599 0.156250 0.156901 0.157552 0.158203 0.158854 0.159505 0.160156 0.160807 0.161458 0.162109 0.162760 0.163411 0.164062 0.164714 0.165365 0.166016 0.166667 0.167318 0.167969 0.168620 0.169271 0.169922 0.170573 0.171224 0.171875 0.172526 0.173177 0.173828 0.174479 0.175130 0.175781 0.176432 0.177083 0.177734 0.178385 0.179036 0.179688 0.180339 0.180990 0.181641 0.182292 0.182943 0.183594 0.184245 0.184896 0.185547 0.186198 0.186849 0.187500 0.188151 0.188802 0.189453 0.190104 0.190755 0.191406 0.192057 0.192708 0.193359 0.194010 0.194661 0.195312 0.195964 0.196615 0.197266 0.197917 0.198568 0.199219 0.199870 0.200521 0.201172 0.201823 0.202474 0.203125 0.203776 0.204427 0.205078 0.205729 0.206380 0.207031 0.207682 0.208333 0.208984 0.209635 0.210286 0.210938 0.211589 0.212240 0.212891 0.213542 0.214193 0.214844 0.215495 0.216146 0.216797 0.217448 0.218099 0.218750 0.219401 0.220052 0.220703 0.221354 0.222005 0.222656 0.223307 0.223958 0.224609 0.225260 0.225911 0.226562 0.227214 0.227865 0.228516 0.229167 0.229818 0.230469 0.231120 0.231771 0.232422 0.233073 0.233724 0.234375 0.235026 0.235677
       0.33012        0.33012        0.33012        0.33012        0.33012        0.33012        0.33012        0.33012        0.33012        0.33012        0.33012        0.33012        0.33012        0.33012        0.33012        0.33012        0.33012        0.33012        0.33012        0.33012        0.33012        0.33012        0.33012        0.33012        0.33012        0.33012        0.33012        0.33012        0.33012        0.33012        0.33012        0.33012        0.33012        0.33012        0.33012        0.33012        0.33012        0.33012        0.33012        0.33012        0.33012        0.33012        0.33012        0.33012        0.33012        0.33012        0.33012        0.33012        0.33012        0.33012        0.33012        0.49644        0.71576        0.41982        0.18857       -0.07715       -0.25122       -0.06468       -0.12863       -0.06643       -0.00803       -0.15340       -0.10431       -0.05302       -0.00489       -0.15614       -0.22944       -0.34090       -0.46465       -0.56870       -0.51688       -0.45501       -0.37491       -0.55711       -0.45586       -0.62210       -0.51082       -0.47498       -0.40111       -0.38381       -0.32798       -0.24297       -0.17129       -0.14697        0.02561       -0.01778        0.11201        0.16277        0.31577        0.41973        0.46435        0.50902        0.54823        0.55312        0.68416        0.63966        0.67485        0.58793        0.55458        0.63558        0.52052        0.43112        0.39467        0.30353        0.24562        0.25964        0.25245        0.08916        0.07341        0.00459       -0.00402        0.03072       -0.02111        0.06064        0.10371        0.22617        0.28963        0.28832        0.39458        0.56561        0.53901        0.57408        0.65829        0.68557        0.62563        0.64327        0.63428        0.53945        0.56683        0.40674        0.35338        0.25872        0.17584        0.07959        0.13641        0.10639        0.10807        0.11052        0.20080        0.19088        0.31425        0.35021        0.40816        0.48905        0.55299        0.54556        0.54917        0.59334        0.52096        0.46622        0.48164        0.32538        0.24946        0.25376        0.23528        0.13674        0.14330        0.15460        0.22448        0.24699        0.33428        0.37656        0.40270        0.45231        0.44763        0.48574        0.43937        0.47433        0.43832        0.38003        0.36386        0.36088        0.33160        0.28971        0.20113        0.20748        0.22511        0.27311        0.26088        0.34562        0.38144        0.35428        0.40530        0.44453        0.43433        0.42974        0.44589        0.36829        0.32549        0.28198        0.25216        0.29848        0.25845        0.29374        0.30181        0.32756        0.32701        0.38406        0.39007        0.43581        0.39351        0.44706        0.39772        0.36840        0.28001        0.27976        0.28104        0.26838        0.25824        0.32667        0.35340        0.32834        0.36354        0.36961        0.34442        0.41215        0.40494        0.36908        0.34139        0.29527        0.30211        0.31941        0.31135        0.30974        0.28674        0.33950        0.35405        0.37517        0.33687        0.33113        0.32873        0.34932        0.32248        0.28633        0.30901        0.31528        0.33521        0.32117        0.32699        0.35099        0.31510        0.32516        0.33549        0.30380        0.26502        0.26387        0.27086        0.30439        0.31205        0.35708        0.29223        0.29800        0.32030        0.29396        0.31510        0.27985        0.27312        0.27462        0.28256        0.29100        0.33937        0.31907        0.33126        0.32122        0.33641        0.34400        0.31753        0.33411        0.33674        0.26063        0.26498        0.29436        0.28020        0.31068        0.31126        0.31761        0.33205        0.35111        0.33616        0.29665        0.23771        0.26542        0.32666        0.34756        0.34692        0.31740        0.29729        0.29704        0.31039        0.26847        0.28862        0.31005        0.33560        0.29498        0.26290        0.24641        0.33249        0.33442        0.33797        0.29493        0.29607        0.30298        0.37867        0.35518        0.31493        0.31845        0.29718        0.29023        0.29494        0.31152        0.30889        0.23943        0.26108        0.30029        0.30904        0.28910        0.25230        0.26738        0.23253        0.22151        0.30015        0.31025        0.29725        0.28792        0.29352        0.34323        0.26713        0.22628        0.23923        0.23430        0.26866        0.26881        0.32803        0.24398        0.27269        0.26700        0.23378        0.28388        0.28271        0.24883        0.20270        0.23061        0.21120        0.24390        0.28900        0.28746        0.34973        0.32629        0.25564        0.22641        0.17093        0.25272        0.31759        0.25969        0.20247        0.25347        0.26111        0.20985        0.25835        0.18257        0.09229       -0.49769       -0.85541
2.696612 2.668141 2.639824 2.611660 2.583651 2.555795 2.528094 2.500546 2.473152 2.445912 2.418826 2.391893 2.365115 2.338490 2.312019 2.285702 2.259539 2.233530 2.207675 2.181973 2.156426 2.131032 2.105792 2.080706 2.055774 2.030995 2.006371 1.981900 1.957584 1.933421 1.909412 1.885556 1.861855 1.838308 1.814914 1.791674 1.768589 1.745657 1.722879 1.700254 1.677784 1.655467 1.633305 1.611296 1.589441 1.567740 1.546193 1.524799 1.503560 1.482474 1.461542 1.527088 1.847787 1.521366 1.191258 0.922914 0.572296 0.918992 0.639041 0.855734 0.914442 0.586071 0.691374 0.770316 0.824527 0.614857 0.518762 0.353379 0.093033 0.052040 0.040460 0.055298 0.295965 -0.063051 0.062723 -0.142804 -0.041585 -0.018907 0.054000 0.048967 0.113933 0.179188 0.269944 0.233544 0.469088 0.397853 0.545879 0.526238 0.783555 0.806636 0.888392 0.962217 0.945655 0.974460 1.129261 0.977295 1.144162 0.947592 0.875668 1.010134 0.854549 0.766066 0.653243 0.579471 0.482916 0.425946 0.512322 0.260864 0.184487 0.167164 0.024341 0.201388 -0.014844 0.103707 0.183095 0.268711 0.349968 0.345944 0.451235 0.563839 0.688261 0.547631 0.764374 0.827189 0.644291 0.727760 0.692942 0.596766 0.538357 0.496812 0.323743 0.220537 0.119374 -0.025670 -0.011179 0.035127 -0.065102 -0.055561 0.076618 0.037915 0.102403 0.235989 0.242034 0.337748 0.441273 0.457805 0.452072 0.452348 0.454954 0.328454 0.358315 0.258812 0.047691 0.068982 0.032150 -0.060212 -0.090099 -0.088399 -0.006834 -0.040547 0.096701 0.139385 0.166041 0.256509 0.238001 0.265715 0.302928 0.228929 0.258150 0.205799 0.155047 0.120429 0.139890 0.041760 0.025192 -0.110227 -0.025986 0.016348 0.023668 0.010250 0.138524 0.094162 0.143632 0.201854 0.251687 0.163981 0.237678 0.139568 0.156365 0.022303 -0.012147 0.019081 0.011132 0.002164 0.021542 0.050822 0.055827 0.079338 0.160266 0.135755 0.175373 0.111095 0.203454 0.109662 0.032095 -0.022370 -0.017717 -0.015440 -0.052570 -0.024175 0.079972 0.075357 -0.000087 0.135153 0.102531 0.082505 0.181130 0.109103 0.110681 0.063597 -0.008153 0.055712 0.035304 0.034332 0.049875 0.019553 0.084499 0.069749 0.098531 0.059199 0.069586 0.027905 0.103816 0.025507 0.005824 0.043894 0.034533 0.091108 0.053357 0.068190 0.073591 0.042492 0.042909 0.055208 0.009144 -0.024516 -0.007009 -0.011262 0.025404 0.043477 0.118706 0.001243 0.049757 0.091171 0.005563 0.080038 0.017001 0.012790 0.029229 0.042718 0.047676 0.103851 0.047062 0.102259 0.092600 0.119484 0.089389 0.104659 0.126656 0.069837 -0.004156 0.036076 0.049087 0.050413 0.081609 0.074101 0.047856 0.103361 0.106576 0.052390 0.055397 -0.073604 0.015521 0.112719 0.093227 0.079304 0.043305 0.036495 0.029133 0.037945 -0.029820 0.028816 0.051971 0.080910 0.047599 -0.051884 -0.006867 0.072174 0.075655 0.044725 0.023137 -0.004260 0.063285 0.122555 0.067933 -0.000309 0.045750 0.003051 -0.021330 -0.007094 0.029740 0.018358 -0.080831 -0.025547 0.006897 0.015068 -0.020396 -0.044011 0.019257 -0.038696 -0.027723 -0.002654 0.078305 0.023140 0.051849 0.041124 0.085463 0.013083 -0.043084 -0.024584 -0.052623 0.057589 0.000698 0.109881 -0.041562 0.041229 0.019138 -0.037767 0.053916 0.071026 -0.025605 -0.074509 -0.002682 -0.039348 -0.032654 0.048863 0.066918 0.158488 0.099681 0.032277 -0.016556 -0.058816 0.029408 0.404133 0.214309 0.248134 0.320619 0.254214 0.272910 0.298947 0.132743 0.117176 -1.022674
0.072396 0.072911 0.074456 0.077030 0.080632 0.085263 0.090920 0.097601 0.105305 0.114029 0.123768 0.134519 0.146276 0.159031 0.172777 0.187504 0.203200 0.219851 0.237442 0.255953 0.275364 0.295649 0.316782 0.338730 0.361458 0.384927 0.409092 0.433904 0.459308 0.485245 0.511649 0.538449 0.565567 0.592919 0.620412 0.647951 0.675429 0.702735 0.729749 0.756345 0.782389 0.807741 0.832254 0.855773 0.878140 0.899187 0.918744 0.936636 0.952684 0.966705 0.978516 0.987932 0.994768 0.998842 0.999975 0.997992 0.992726 0.984017 0.971718 0.955690 0.935813 0.911982 0.884111 0.852137 0.816018 0.775742 0.731322 0.682804 0.630267 0.573825 0.513627 0.449863 0.382763 0.312597 0.239678 0.164361 0.087043 0.008164 0.071796 0.152317 0.232843 0.312781 0.391509 0.468380 0.542721 0.613846 0.681057 0.743654 0.800942 0.852237 0.896878 0.934234 0.963714 0.984778 0.996947 0.999812 0.993044 0.976405 0.949758 0.913073 0.866436 0.810056 0.744273 0.669555 0.586509 0.495874 0.398525 0.295465 0.187822 0.076837 0.036142 0.149681 0.262271 0.372346 0.478309 0.578554 0.671486 0.755557 0.829285 0.891291 0.940321 0.975282 0.995265 0.999576 0.987754 0.959603 0.915200 0.854915 0.779419 0.689687 0.586996 0.472915 0.349294 0.218235 0.082069 0.056685 0.195360 0.331192 0.461372 0.583107 0.693681 0.790522 0.871260 0.933804 0.976391 0.997653 0.996663 0.972983 0.926693 0.858422 0.769348 0.661204 0.536253 0.397261 0.247438 0.090384 0.069996 0.229580 0.384135 0.529431 0.661352 0.776027 0.869949 0.940087 0.984006 0.999957 0.986963 0.944881 0.874439 0.777258 0.655829 0.513477 0.354286 0.183000 0.004892 0.174391 0.348994 0.513056 0.660900 0.787244 0.887397 0.957452 0.994456 0.996550 0.963085 0.894687 0.793291 0.662106 0.505554 0.329138 0.139269 0.056946 0.251962 0.438089 0.607785 0.753978 0.870373 0.951739 0.994172 0.995305 0.954465 0.872764 0.753111 0.600150 0.420111 0.220584 0.010224 0.201603 0.405245 0.591188 0.750521 0.875370 0.959319 0.997770 0.988219 0.930461 0.826665 0.681354 0.501240 0.294968 0.072714 0.154278 0.374266 0.575606 0.747386 0.880029 0.965865 0.999603 0.978706 0.903609 0.777797 0.607693 0.402384 0.173176 0.066995 0.304273 0.524680 0.714938 0.863297 0.960286 0.999371 0.977433 0.895070 0.756665 0.570220 0.346950 0.100658 0.153089 0.397919 0.617715 0.797688 0.925405 0.991690 0.991339 0.923589 0.792292 0.605778 0.376389 0.119727 0.146367 0.403043 0.631757 0.815637 0.940762 0.997274 0.980214 0.890025 0.732664 0.519294 0.265562 0.009483 0.284787 0.538893 0.751602 0.905641 0.988092 0.991563 0.914920 0.763540 0.549042 0.288462 0.002993 0.283717 0.547490 0.765673 0.919122 0.993938 0.982814 0.885829 0.710629 0.471924 0.190349 0.109251 0.399972 0.655268 0.851386 0.969636 0.998255 0.933669 0.781029 0.553921 0.273266 0.034516 0.339953 0.613310 0.827508 0.960862 0.999360 0.938243 0.782691 0.547526 0.255924 0.062792 0.376025 0.651232 0.859321 0.977803 0.993313 0.903238 0.716234 0.451544 0.137129 0.193178 0.503282 0.758767 0.930757 0.999270 0.955661 0.803849 0.560134 0.251593 0.086820 0.416157 0.697955 0.898741 0.994117 0.971836 0.833522 0.594762 0.283513 0.063051 0.402892 0.694187 0.900507 0.995473 0.966254 0.815462 0.561133 0.234733 0.122588 0.465121 0.748419 0.935126 0.999998 0.933483 0.743287 0.453686 0.102621 0.263193 0.594386 0.845607 0.981841 0.983412
1.000000 1.000000 1.000000 1.000000 1.000000 1.000000 1.000000 1.000000 1.000000 1.000000 1.000000 1.000000 1.000000 1.000000 1.000000 1.000000 1.000000 1.000000 1.000000 1.000000 1.000000 1.000000 1.000000 1.000000 1.000000 1.000000 1.000000 1.000000 1.000000 1.000000 1.000000 1.000000 1.000000 1.000000 1.000000 1.000000 1.000000 1.000000 1.000000 1.000000 1.000000 1.000000 1.000000 1.000000 1.000000 1.000000 1.000000 1.000000 1.000000 1.000000 1.000000 1.000000 0.917804 0.917804 0.906673 0.906673 0.906673 0.906673 0.906673 0.906673 0.906673 0.906673 0.906673 0.906673 0.906673 0.906673 0.906673 0.906673 0.906673 0.906673 0.906673 0.906673 0.906673 0.906673 0.906673 0.906673 0.906673 0.906673 0.906673 0.906673 0.906673 0.906673 0.906673 0.906673 0.906673 0.906673 0.906673 0.906673 0.906673 0.906673 0.906673 0.906673 0.906673 0.906673 0.906673 0.901866 0.907231 0.909185 0.907987 0.911347 0.911336 0.909503 0.908855 0.908581 0.909005 0.911156 0.921500 0.935770 0.943887 0.944366 0.949559 0.953609 0.956342 0.956909 0.958696 0.969488 0.966616 0.966152 0.966764 0.967930 0.969795 0.968887 0.967890 0.971107 0.971596 0.970442 0.967665 0.967010 0.966397 0.966160 0.965860 0.965962 0.967011 0.967533 0.967211 0.966652 0.966795 0.966863 0.965872 0.965055 0.967878 0.969137 0.969119 0.968077 0.963355 0.964935 0.967621 0.965376 0.960973 0.960837 0.961128 0.949547 0.946645 0.946492 0.941642 0.938194 0.937495 0.934263 0.932174 0.933885 0.935741 0.936194 0.928819 0.916257 0.901524 0.878876 0.908825 0.895042 0.872323 0.851608 0.849808 0.845728 0.845693 0.840376 0.830509 0.826237 0.824003 0.826923 0.829990 0.834505 0.830078 0.819664 0.822502 0.816268 0.780155 0.770577 0.759098 0.754582 0.751227 0.751781 0.746511 0.743660 0.752691 0.743946 0.739778 0.729010 0.714875 0.683264 0.675740 0.680229 0.688272 0.694099 0.689050 0.669900 0.616344 0.624122 0.652539 0.657531 0.657985 0.650318 0.638596 0.638498 0.637032 0.624610 0.619647 0.623904 0.624291 0.641345 0.644130 0.640554 0.632185 0.622485 0.613989 0.588532 0.589135 0.610697 0.578383 0.571655 0.560305 0.556924 0.556089 0.554036 0.554741 0.536269 0.523108 0.523062 0.520793 0.525568 0.532397 0.529884 0.502380 0.518581 0.505580 0.537365 0.535579 0.535119 0.538970 0.545118 0.527503 0.530559 0.532433 0.529573 0.529947 0.538196 0.560014 0.548515 0.548681 0.543444 0.546880 0.546216 0.549115 0.583424 0.575129 0.531985 0.487485 0.485933 0.460208 0.461275 0.416737 0.373815 0.376923 0.377952 0.373147 0.358238 0.350939 0.307470 0.274992 0.247694 0.265700 0.265725 0.289511 0.301333 0.275932 0.292870 0.330496 0.339129 0.326919 0.289246 0.289614 0.280269 0.235039 0.214151 0.193204 0.186279 0.198571 0.153433 0.164816 0.172704 0.195179 0.131318 0.099349 0.102166 0.140386 0.117303 0.117740 0.116864 0.070425 0.095153 0.078000 0.076908 0.057448 0.020160 0.037342 0.044685 0.022956 -0.012298 -0.020350 -0.024107 -0.046352 -0.041720 -0.036123 -0.054307 -0.041168 0.011321 0.022823 0.022018 0.032117 0.056084 0.053925 0.055058 0.052363 0.007697 -0.009611 -0.053423 -0.075702 -0.075702 -0.059898 -0.059898 -0.059898 -0.059898 -0.059898 -0.059898 -0.059898 -0.059898 -0.059898 -0.070874 -0.070874 -0.070874 -0.070874 -0.070874 -0.070874 -0.070874 -0.070874 -0.044376 -0.044376 -0.044376 -0.044376 -0.044376 -0.044376 -0.044376 -0.044376 -0.044376 -0.044376
0.000000 0.000000 0.000000 0.000000 0.000000 0.000000 0.000000 0.000000 0.000000 0.000000 0.000000 0.000000 0.000000 0.000000 0.000000 0.000000 0.000000 0.000000 0.000000 0.000000 0.000000 0.000000 0.000000 0.000000 0.000000 0.000000 0.000000 0.000000 0.000000 0.000000 0.000000 0.000000 0.000000 0.000000 0.000000 0.000000 0.000000 0.000000 0.000000 0.000000 0.000000 0.000000 0.000000 0.000000 0.000000 0.000000 0.000000 0.000000 0.000000 0.000000 0.000000 0.000000 0.181818 0.181818 0.199007 0.199007 0.199007 0.199007 0.199007 0.199007 0.199007 0.199007 0.199007 0.199007 0.199007 0.199007 0.199007 0.199007 0.199007 0.199007 0.199007 0.199007 0.199007 0.199007 0.199007 0.199007 0.199007 0.199007 0.199007 0.199007 0.199007 0.199007 0.199007 0.199007 0.199007 0.199007 0.199007 0.199007 0.199007 0.199007 0.199007 0.199007 0.199007 0.199007 0.199007 0.230940 0.230940 0.230940 0.230940 0.230940 0.230940 0.230940 0.230940 0.230940 0.230940 0.230940 0.230940 0.230940 0.230940 0.230940 0.230940 0.230940 0.230940 0.230940 0.230940 0.230940 0.230940 0.230940 0.230940 0.230940 0.230940 0.230940 0.230940 0.244339 0.244339 0.244339 0.244339 0.244339 0.244339 0.244339 0.244339 0.244339 0.244339 0.244339 0.244339 0.244339 0.244339 0.244339 0.244339 0.244339 0.244339 0.244339 0.244339 0.244339 0.244339 0.244339 0.251976 0.251976 0.251976 0.251976 0.251976 0.251976 0.251976 0.251976 0.251976 0.251976 0.251976 0.251976 0.251976 0.251976 0.251976 0.251976 0.251976 0.251976 0.251976 0.251976 0.264906 0.264906 0.264906 0.264906 0.264906 0.264906 0.264906 0.264906 0.264906 0.264906 0.264906 0.264906 0.264906 0.264906 0.264906 0.264906 0.264906 0.264906 0.264906 0.264906 0.264906 0.264906 0.264906 0.264906 0.264906 0.264906 0.264906 0.264906 0.264906 0.264906 0.264906 0.264906 0.264906 0.264906 0.264906 0.264906 0.264906 0.264906 0.264906 0.264906 0.264906 0.264906 0.264906 0.264906 0.264906 0.264906 0.264906 0.264906 0.264906 0.264906 0.264906 0.264906 0.264906 0.264906 0.264906 0.264906 0.264906 0.264906 0.264906 0.264906 0.264906 0.264906 0.264906 0.264906 0.264906 0.264906 0.264906 0.264906 0.264906 0.264906 0.264906 0.264906 0.264906 0.264906 0.264906 0.269680 0.269680 0.269680 0.269680 0.269680 0.269680 0.269680 0.269680 0.269680 0.269680 0.269680 0.269680 0.264906 0.264906 0.264906 0.264906 0.264906 0.264906 0.264906 0.264906 0.264906 0.264906 0.264906 0.264906 0.269680 0.269680 0.269680 0.269680 0.269680 0.269680 0.269680 0.269680 0.269680 0.269680 0.269680 0.264906 0.264906 0.264906 0.264906 0.264906 0.264906 0.264906 0.264906 0.264906 0.264906 0.264906 0.269680 0.269680 0.269680 0.269680 0.269680 0.269680 0.269680 0.269680 0.269680 0.269680 0.264906 0.264906 0.264906 0.264906 0.264906 0.264906 0.264906 0.264906 0.264906 0.264906 0.260378 0.260378 0.260378 0.260378 0.260378 0.260378 0.260378 0.260378 0.260378 0.260378 0.256074 0.256074 0.256074 0.256074 0.256074 0.256074 0.256074 0.256074 0.256074 0.256074 0.260378 0.260378 0.260378 0.260378 0.260378 0.260378 0.260378 0.260378 0.260378 0.256074 0.256074 0.256074 0.256074 0.256074 0.256074 0.256074 0.256074 0.256074 0.269680 0.269680 0.269680 0.269680 0.269680 0.269680 0.269680 0.269680 0.248069 0.248069 0.248069 0.248069 0.248069 0.248069 0.248069 0.248069 0.248069 0.248069
