# Output from CTFFind version 4.1.9, run on 2019-11-01 22:46:16
# Input file: first_bm3d_averaged_1_2.2_1.00_3000_half.mrc ; Number of micrographs: 1
# Pixel size: 3.000 Angstroms ; acceleration voltage: 300.0 keV ; spherical aberration: 0.00 mm ; amplitude contrast: 0.07
# Box size: 512 pixels ; min. res.: 30.0 Angstroms ; max. res.: 5.0 Angstroms ; min. def.: 5000.0 um; max. def. 50000.0 um; num. frames averaged: 1
# 6 lines per micrograph: #1 - spatial frequency (1/Angstroms); #2 - 1D rotational average of spectrum (assuming no astigmatism); #3 - 1D rotational average of spectrum; #4 - CTF fit; #5 - cross-correlation between spectrum and CTF fit; #6 - 2sigma of expected cross correlation of noise
0.000000 0.000651 0.001302 0.001953 0.002604 0.003255 0.003906 0.004557 0.005208 0.005859 0.006510 0.007161 0.007812 0.008464 0.009115 0.009766 0.010417 0.011068 0.011719 0.012370 0.013021 0.013672 0.014323 0.014974 0.015625 0.016276 0.016927 0.017578 0.018229 0.018880 0.019531 0.020182 0.020833 0.021484 0.022135 0.022786 0.023438 0.024089 0.024740 0.025391 0.026042 0.026693 0.027344 0.027995 0.028646 0.029297 0.029948 0.030599 0.031250 0.031901 0.032552 0.033203 0.033854 0.034505 0.035156 0.035807 0.036458 0.037109 0.037760 0.038411 0.039062 0.039714 0.040365 0.041016 0.041667 0.042318 0.042969 0.043620 0.044271 0.044922 0.045573 0.046224 0.046875 0.047526 0.048177 0.048828 0.049479 0.050130 0.050781 0.051432 0.052083 0.052734 0.053385 0.054036 0.054688 0.055339 0.055990 0.056641 0.057292 0.057943 0.058594 0.059245 0.059896 0.060547 0.061198 0.061849 0.062500 0.063151 0.063802 0.064453 0.065104 0.065755 0.066406 0.067057 0.067708 0.068359 0.069010 0.069661 0.070312 0.070964 0.071615 0.072266 0.072917 0.073568 0.074219 0.074870 0.075521 0.076172 0.076823 0.077474 0.078125 0.078776 0.079427 0.080078 0.080729 0.081380 0.082031 0.082682 0.083333 0.083984 0.084635 0.085286 0.085938 0.086589 0.087240 0.087891 0.088542 0.089193 0.089844 0.090495 0.091146 0.091797 0.092448 0.093099 0.093750 0.094401 0.095052 0.095703 0.096354 0.097005 0.097656 0.098307 0.098958 0.099609 0.100260 0.100911 0.101562 0.102214 0.102865 0.103516 0.104167 0.104818 0.105469 0.106120 0.106771 0.107422 0.108073 0.108724 0.109375 0.110026 0.110677 0.111328 0.111979 0.112630 0.113281 0.113932 0.114583 0.115234 0.115885 0.116536 0.117188 0.117839 0.118490 0.119141 0.119792 0.120443 0.121094 0.121745 0.122396 0.123047 0.123698 0.124349 0.125000 0.125651 0.126302 0.126953 0.127604 0.128255 0.128906 0.129557 0.130208 0.130859 0.131510 0.132161 0.132812 0.133464 0.134115 0.134766 0.135417 0.136068 0.136719 0.137370 0.138021 0.138672 0.139323 0.139974 0.140625 0.141276 0.141927 0.142578 0.143229 0.143880 0.144531 0.145182 0.145833 0.146484 0.147135 0.147786 0.148438 0.149089 0.149740 0.150391 0.151042 0.151693 0.152344 0.152995 0.153646 0.154297 0.154948 0.155599 0.156250 0.156901 0.157552 0.158203 0.158854 0.159505 0.160156 0.160807 0.161458 0.162109 0.162760 0.163411 0.164062 0.164714 0.165365 0.166016 0.166667 0.167318 0.167969 0.168620 0.169271 0.169922 0.170573 0.171224 0.171875 0.172526 0.173177 0.173828 0.174479 0.175130 0.175781 0.176432 0.177083 0.177734 0.178385 0.179036 0.179688 0.180339 0.180990 0.181641 0.182292 0.182943 0.183594 0.184245 0.184896 0.185547 0.186198 0.186849 0.187500 0.188151 0.188802 0.189453 0.190104 0.190755 0.191406 0.192057 0.192708 0.193359 0.194010 0.194661 0.195312 0.195964 0.196615 0.197266 0.197917 0.198568 0.199219 0.199870 0.200521 0.201172 0.201823 0.202474 0.203125 0.203776 0.204427 0.205078 0.205729 0.206380 0.207031 0.207682 0.208333 0.208984 0.209635 0.210286 0.210938 0.211589 0.212240 0.212891 0.213542 0.214193 0.214844 0.215495 0.216146 0.216797 0.217448 0.218099 0.218750 0.219401 0.220052 0.220703 0.221354 0.222005 0.222656 0.223307 0.223958 0.224609 0.225260 0.225911 0.226562 0.227214 0.227865 0.228516 0.229167 0.229818 0.230469 0.231120 0.231771 0.232422 0.233073 0.233724 0.234375 0.235026 0.235677
       0.34170        0.34170        0.34170        0.34170        0.34170        0.34170        0.34170        0.34170        0.34170        0.34170        0.34170        0.34170        0.34170        0.34170        0.34170        0.34170        0.34170        0.34170        0.34170        0.34170        0.34170        0.34170        0.34170        0.34170        0.34170        0.34170        0.34170        0.34170        0.34170        0.34170        0.34170        0.34170        0.34170        0.34170        0.34170        0.34170        0.34170        0.34170        0.34170        0.34170        0.34170        0.34170        0.34170        0.34170        0.34170        0.34170        0.34170        0.34170        0.34170        0.34170        0.34170        0.50510        0.72081        0.42516        0.19951       -0.06965       -0.25155       -0.06126       -0.12237       -0.06434        0.00421       -0.13896       -0.10102       -0.03443        0.01067       -0.14632       -0.21670       -0.32789       -0.46301       -0.57255       -0.52004       -0.46005       -0.36574       -0.55097       -0.44312       -0.61234       -0.49588       -0.46896       -0.39424       -0.36904       -0.32452       -0.22995       -0.15870       -0.13429        0.03292       -0.00976        0.12376        0.18108        0.32348        0.42554        0.48257        0.51060        0.55288        0.56102        0.71010        0.66146        0.69134        0.59178        0.56448        0.65550        0.53302        0.45252        0.41351        0.31242        0.25362        0.27927        0.26202        0.10676        0.09285        0.00903       -0.00167        0.03574       -0.00534        0.07841        0.09491        0.22955        0.29091        0.30879        0.40952        0.57062        0.55261        0.57847        0.67249        0.68266        0.63535        0.65368        0.64591        0.53853        0.57183        0.39898        0.36556        0.27683        0.19246        0.08691        0.14967        0.12260        0.11872        0.13071        0.21117        0.19575        0.31864        0.35595        0.41344        0.50137        0.56458        0.55118        0.56514        0.61395        0.55088        0.48533        0.48769        0.33042        0.26223        0.26544        0.25718        0.15933        0.15846        0.16134        0.23942        0.27723        0.34091        0.38348        0.41357        0.46144        0.45647        0.48427        0.44550        0.48228        0.44861        0.39510        0.37159        0.37847        0.34458        0.30161        0.21894        0.23054        0.23824        0.28318        0.26995        0.35416        0.38829        0.36613        0.42040        0.45778        0.45120        0.43555        0.44121        0.35613        0.34342        0.29212        0.26412        0.30314        0.27117        0.30201        0.31593        0.35576        0.34059        0.41233        0.40199        0.44336        0.40351        0.45461        0.41458        0.38414        0.29103        0.29187        0.29458        0.28746        0.28260        0.35051        0.37062        0.33985        0.37073        0.38109        0.35519        0.41586        0.41422        0.36808        0.35774        0.31281        0.30671        0.32526        0.31585        0.31397        0.30185        0.34615        0.36642        0.38583        0.34941        0.33893        0.33271        0.35877        0.32308        0.29955        0.32554        0.33303        0.33124        0.33535        0.34759        0.37524        0.33857        0.32962        0.35171        0.31702        0.27408        0.26593        0.28478        0.31213        0.32381        0.36278        0.30391        0.31152        0.33935        0.30568        0.33471        0.30598        0.28661        0.28549        0.28837        0.29554        0.34975        0.31866        0.33738        0.32020        0.35390        0.35249        0.32382        0.33696        0.33749        0.27804        0.30723        0.32157        0.29172        0.33622        0.32890        0.33825        0.32165        0.35550        0.34938        0.29039        0.24510        0.28252        0.34867        0.37126        0.36745        0.31788        0.30927        0.30094        0.31985        0.26780        0.29904        0.31044        0.33471        0.31074        0.30197        0.26950        0.34402        0.34280        0.34057        0.30871        0.31200        0.31441        0.39681        0.35834        0.34547        0.33846        0.31543        0.29518        0.31007        0.31094        0.28891        0.23831        0.28126        0.30392        0.31391        0.30154        0.29115        0.27011        0.24843        0.24194        0.28539        0.33410        0.30606        0.33139        0.32301        0.35619        0.24677        0.21435        0.27696        0.25754        0.29300        0.29888        0.32876        0.26822        0.29140        0.27643        0.23709        0.26950        0.26496        0.23736        0.19275        0.24680        0.25434        0.25141        0.30825        0.29942        0.34187        0.32209        0.29368        0.29805        0.22165        0.25973        0.28485        0.27425        0.16967        0.19901        0.25920        0.20246        0.28384        0.22533        0.12950       -0.49056       -0.84305
2.705780 2.677182 2.648738 2.620449 2.592314 2.564334 2.536508 2.508836 2.481318 2.453955 2.426747 2.399692 2.372792 2.346047 2.319455 2.293018 2.266736 2.240608 2.214634 2.188814 2.163149 2.137638 2.112282 2.087080 2.062032 2.037139 2.012400 1.987815 1.963385 1.939109 1.914987 1.891020 1.867207 1.843549 1.820045 1.796695 1.773500 1.750458 1.727572 1.704839 1.682261 1.659838 1.637568 1.615454 1.593493 1.571687 1.550035 1.528537 1.507194 1.486005 1.464971 1.527658 1.838966 1.508079 1.202900 0.942354 0.543419 0.916629 0.642058 0.850864 0.917994 0.600106 0.684339 0.790085 0.834479 0.616768 0.532200 0.361524 0.092975 0.050457 0.034670 0.041929 0.296214 -0.046439 0.066672 -0.131622 -0.030207 -0.014352 0.053190 0.072374 0.104535 0.184755 0.279986 0.245620 0.469876 0.395997 0.545506 0.535584 0.788181 0.793519 0.892872 0.949629 0.938834 0.964057 1.135073 0.955428 1.158468 0.942348 0.861693 1.017897 0.850760 0.776210 0.660803 0.579002 0.465945 0.440860 0.510057 0.261789 0.205930 0.164810 0.010710 0.193930 -0.015916 0.123593 0.168445 0.246058 0.338719 0.350405 0.452087 0.552894 0.686483 0.534583 0.741195 0.839731 0.628484 0.726241 0.687594 0.573853 0.535527 0.461849 0.317352 0.222751 0.122289 -0.024802 -0.017220 0.044847 -0.068626 -0.046358 0.069608 0.034875 0.096855 0.215368 0.239285 0.317615 0.438265 0.432794 0.465216 0.451749 0.470033 0.348005 0.337228 0.245054 0.051626 0.066334 0.024688 -0.034962 -0.089847 -0.087882 -0.023951 -0.010141 0.091954 0.129528 0.150676 0.257828 0.227343 0.250941 0.272671 0.232177 0.237819 0.213260 0.133168 0.123487 0.129093 0.034987 0.020013 -0.104121 -0.026703 0.010742 -0.000929 0.018575 0.111973 0.083609 0.129413 0.206750 0.272679 0.167657 0.207041 0.111453 0.130332 0.033257 -0.028163 0.022436 -0.004713 0.014232 -0.000112 0.061483 0.072482 0.071586 0.166301 0.132028 0.173976 0.097135 0.189266 0.112359 0.030306 -0.032823 -0.016054 -0.015665 -0.042260 -0.021663 0.092810 0.067483 0.005014 0.111297 0.094521 0.073469 0.164015 0.093936 0.094569 0.072892 -0.013317 0.035951 0.018360 0.020250 0.032414 0.023174 0.067238 0.071323 0.091829 0.050618 0.052236 0.014399 0.093793 0.003689 0.009920 0.037774 0.032903 0.058733 0.055215 0.071387 0.085667 0.042877 0.031404 0.051580 0.006808 -0.049281 -0.021929 -0.007208 0.009644 0.026601 0.109199 -0.018966 0.057352 0.048869 0.011165 0.067436 0.028695 -0.002311 0.014754 0.026707 0.027206 0.089229 0.024710 0.086874 0.063816 0.112787 0.081571 0.090947 0.100723 0.066505 -0.001708 0.079501 0.059897 0.037030 0.112626 0.076580 0.045438 0.064250 0.103323 0.060119 0.018965 -0.067073 0.026157 0.119482 0.113034 0.094584 0.047862 0.016537 0.045386 0.042778 -0.035440 0.046414 0.039582 0.074518 0.067177 -0.019143 -0.019340 0.105651 0.043492 0.023439 0.021183 -0.018872 0.061723 0.124078 0.043018 0.025542 0.050366 -0.000855 -0.041903 -0.005841 -0.019600 -0.058123 -0.102946 -0.041903 -0.039080 0.000009 -0.031761 -0.053871 -0.043062 -0.067498 -0.037835 -0.064797 0.059308 0.012670 0.034290 0.028826 0.072576 -0.082570 -0.071462 -0.020150 -0.056421 0.022858 -0.005840 0.076164 -0.069008 0.003186 -0.004204 -0.058512 -0.004208 -0.006119 -0.048473 -0.146327 -0.021063 0.000940 -0.035002 0.030119 0.020618 0.132529 0.035658 0.048682 0.049158 -0.041797 -0.012107 0.002659 0.330450 0.210807 0.247094 0.290844 0.274265 0.310481 0.164418 0.160995 -0.998286
0.072396 0.072910 0.074453 0.077023 0.080620 0.085244 0.090893 0.097565 0.105258 0.113969 0.123694 0.134430 0.146169 0.158907 0.172633 0.187339 0.203013 0.219641 0.237207 0.255692 0.275077 0.295335 0.316439 0.338358 0.361057 0.384496 0.408631 0.433413 0.458788 0.484696 0.511072 0.537845 0.564937 0.592264 0.619736 0.647254 0.674715 0.702007 0.729011 0.755602 0.781645 0.807001 0.831523 0.855059 0.877447 0.898525 0.918119 0.936058 0.952160 0.966245 0.978130 0.987629 0.994560 0.998739 0.999988 0.998132 0.993005 0.984446 0.972307 0.956452 0.936757 0.913118 0.885448 0.853683 0.817781 0.777728 0.733535 0.685248 0.632943 0.576731 0.516761 0.453221 0.386335 0.316373 0.243644 0.168501 0.091337 0.012589 0.067266 0.147712 0.228194 0.308125 0.386886 0.463830 0.538290 0.609580 0.677004 0.739866 0.797468 0.849129 0.894188 0.932011 0.962008 0.983635 0.996410 0.999920 0.993830 0.977898 0.951977 0.916031 0.870138 0.814497 0.749437 0.675416 0.593028 0.503003 0.406202 0.303618 0.196365 0.085676 0.027116 0.140582 0.253224 0.363483 0.469769 0.570475 0.664011 0.748825 0.823433 0.886448 0.936609 0.972809 0.994124 0.999841 0.989480 0.962819 0.919911 0.861099 0.787023 0.698628 0.597161 0.484162 0.361450 0.231100 0.095418 0.043099 0.181803 0.317942 0.448715 0.571332 0.683071 0.781347 0.863775 0.928235 0.972931 0.996456 0.997836 0.976580 0.932714 0.866803 0.779967 0.673875 0.550729 0.413234 0.264549 0.108227 0.051866 0.211636 0.366866 0.513330 0.646900 0.763681 0.860122 0.933142 0.980232 0.999563 0.990065 0.951491 0.884464 0.790493 0.671958 0.532081 0.374847 0.204914 0.027486 0.151840 0.327237 0.492847 0.642969 0.772273 0.875990 0.950110 0.991553 0.998313 0.969579 0.905805 0.808746 0.681438 0.528136 0.354193 0.165897 0.029743 0.225243 0.412930 0.585241 0.735034 0.855899 0.942451 0.990592 0.997730 0.962944 0.887085 0.772796 0.624465 0.448091 0.251064 0.041887 0.170180 0.375518 0.564584 0.728366 0.858824 0.949311 0.994938 0.992872 0.942545 0.845755 0.706653 0.531613 0.328977 0.108688 0.118165 0.339909 0.544865 0.721986 0.861460 0.955290 0.997781 0.985931 0.919679 0.802001 0.638832 0.438826 0.212932 0.026174 0.264763 0.488848 0.685006 0.841193 0.947522 0.996923 0.985670 0.913701 0.784736 0.606149 0.388607 0.145479 0.107947 0.355400 0.580675 0.768697 0.906568 0.984481 0.996480 0.940972 0.820960 0.643957 0.421586 0.168885 0.096676 0.356376 0.591543 0.784937 0.922011 0.992089 0.989239 0.912850 0.767825 0.564339 0.317219 0.044914 0.231842 0.491578 0.713766 0.880469 0.977838 0.997327 0.936524 0.799500 0.596646 0.343966 0.061887 0.226333 0.496518 0.725587 0.893562 0.985379 0.992299 0.912840 0.753080 0.526299 0.251974 0.045813 0.340465 0.605205 0.815544 0.951582 0.999977 0.955340 0.820931 0.608556 0.337641 0.033544 0.274763 0.557413 0.786561 0.939171 0.999402 0.960368 0.825024 0.606088 0.324982 0.009821 0.307324 0.593672 0.819122 0.959487 0.999172 0.933026 0.767123 0.518352 0.212831 0.116744 0.434536 0.705458 0.899070 0.993099 0.976096 0.848973 0.625162 0.329345 0.005154 0.340028 0.636360 0.859159 0.981570 0.988222 0.877306 0.661066 0.364624 0.023186 0.322039 0.628783 0.858901 0.983209 0.985298 0.863860 0.633156 0.321522 0.031980 0.382349 0.684355 0.898409 0.995843 0.962898 0.802834 0.535833 0.196636 0.169846 0.514395 0.790098 0.958775 0.996425
1.000000 1.000000 1.000000 1.000000 1.000000 1.000000 1.000000 1.000000 1.000000 1.000000 1.000000 1.000000 1.000000 1.000000 1.000000 1.000000 1.000000 1.000000 1.000000 1.000000 1.000000 1.000000 1.000000 1.000000 1.000000 1.000000 1.000000 1.000000 1.000000 1.000000 1.000000 1.000000 1.000000 1.000000 1.000000 1.000000 1.000000 1.000000 1.000000 1.000000 1.000000 1.000000 1.000000 1.000000 1.000000 1.000000 1.000000 1.000000 1.000000 1.000000 1.000000 1.000000 0.913305 0.913305 0.902419 0.902419 0.902419 0.902419 0.902419 0.902419 0.902419 0.902419 0.902419 0.902419 0.902419 0.902419 0.902419 0.902419 0.902419 0.902419 0.902419 0.902419 0.902419 0.902419 0.902419 0.902419 0.902419 0.902419 0.902419 0.902419 0.902419 0.902419 0.902419 0.902419 0.902419 0.902419 0.902419 0.902419 0.902419 0.902419 0.902419 0.902419 0.902419 0.902419 0.902419 0.898116 0.903148 0.905714 0.904267 0.907852 0.907917 0.905954 0.905405 0.905051 0.905401 0.906845 0.917363 0.931861 0.939307 0.941589 0.946659 0.950930 0.954292 0.955143 0.958863 0.968979 0.966402 0.965963 0.966649 0.968083 0.970185 0.970383 0.971768 0.971026 0.971685 0.971691 0.971307 0.970744 0.970191 0.970321 0.969975 0.969859 0.971267 0.971728 0.971284 0.971388 0.971528 0.969511 0.968132 0.963358 0.965966 0.967236 0.967135 0.965884 0.960356 0.963829 0.964364 0.963868 0.963879 0.963565 0.963900 0.948781 0.944852 0.944777 0.938948 0.937899 0.934159 0.933064 0.932045 0.933050 0.933116 0.934068 0.931144 0.917515 0.907119 0.891498 0.911108 0.902815 0.886715 0.864870 0.865341 0.862171 0.862792 0.856086 0.847597 0.842733 0.840267 0.842340 0.845744 0.849787 0.846673 0.836859 0.840791 0.834352 0.799621 0.788836 0.778944 0.769008 0.768148 0.769373 0.766101 0.759017 0.767686 0.761234 0.758149 0.748384 0.733595 0.708519 0.699244 0.705856 0.713594 0.726229 0.721140 0.698793 0.649761 0.665521 0.689474 0.687011 0.689133 0.687235 0.680742 0.687000 0.688667 0.683285 0.680096 0.680264 0.680202 0.687260 0.688168 0.674458 0.670079 0.660149 0.648195 0.625855 0.638423 0.645148 0.628398 0.622215 0.614922 0.608971 0.613095 0.613320 0.617516 0.593052 0.573823 0.570278 0.565178 0.568813 0.575036 0.574945 0.561323 0.581477 0.569676 0.598367 0.567210 0.564047 0.563199 0.575665 0.558912 0.553673 0.548968 0.548876 0.552367 0.577162 0.590901 0.575763 0.567570 0.561692 0.572553 0.559350 0.572024 0.603623 0.580390 0.530857 0.492450 0.488949 0.453362 0.441591 0.409501 0.378835 0.393085 0.376084 0.362121 0.347058 0.342586 0.311778 0.274433 0.258606 0.252957 0.267619 0.292042 0.287931 0.287435 0.324546 0.362890 0.361547 0.353690 0.320809 0.284942 0.241128 0.228730 0.250868 0.211225 0.217977 0.204902 0.204422 0.206497 0.162569 0.205140 0.116175 0.108278 0.108813 0.131788 0.100332 0.096615 0.093283 0.061767 0.077672 0.075806 0.048454 0.046949 0.060423 0.037892 0.015821 0.029134 0.035542 0.041193 0.008543 0.017654 0.011240 0.008752 -0.004134 -0.008372 0.024229 0.070617 0.068822 0.077909 0.078916 0.067360 0.065019 0.058968 0.020163 0.001697 -0.042431 -0.066519 -0.066519 -0.047612 -0.047612 -0.047612 -0.047612 -0.047612 -0.047612 -0.047612 -0.047612 -0.047612 -0.052389 -0.052389 -0.052389 -0.052389 -0.052389 -0.052389 -0.052389 -0.052389 -0.052389 -0.042226 -0.042226 -0.042226 -0.042226 -0.042226 -0.042226 -0.042226 -0.042226 -0.042226
0.000000 0.000000 0.000000 0.000000 0.000000 0.000000 0.000000 0.000000 0.000000 0.000000 0.000000 0.000000 0.000000 0.000000 0.000000 0.000000 0.000000 0.000000 0.000000 0.000000 0.000000 0.000000 0.000000 0.000000 0.000000 7.000000 4.000000 0.000000 0.000000 0.000000 0.000000 0.000000 0.000000 0.000000 0.000000 0.000000 0.000000 0.000000 0.000000 0.000000 0.000000 0.000000 0.000000 0.000000 0.000000 0.000000 0.000000 0.000000 0.000000 0.000000 0.000000 0.000000 0.181818 0.181818 0.199007 0.199007 0.199007 0.199007 0.199007 0.199007 0.199007 0.199007 0.199007 0.199007 0.199007 0.199007 0.199007 0.199007 0.199007 0.199007 0.199007 0.199007 0.199007 0.199007 0.199007 0.199007 0.199007 0.199007 0.199007 0.199007 0.199007 0.199007 0.199007 0.199007 0.199007 0.199007 0.199007 0.199007 0.199007 0.199007 0.199007 0.199007 0.199007 0.199007 0.199007 0.230940 0.230940 0.230940 0.230940 0.230940 0.230940 0.230940 0.230940 0.230940 0.230940 0.230940 0.230940 0.230940 0.230940 0.230940 0.230940 0.230940 0.230940 0.230940 0.230940 0.230940 0.230940 0.230940 0.230940 0.230940 0.230940 0.230940 0.230940 0.244339 0.244339 0.244339 0.244339 0.244339 0.244339 0.244339 0.244339 0.244339 0.244339 0.244339 0.244339 0.244339 0.244339 0.244339 0.244339 0.244339 0.244339 0.244339 0.244339 0.244339 0.244339 0.244339 0.251976 0.251976 0.251976 0.251976 0.251976 0.251976 0.251976 0.251976 0.251976 0.251976 0.251976 0.251976 0.251976 0.251976 0.251976 0.251976 0.251976 0.251976 0.251976 0.251976 0.264906 0.264906 0.264906 0.264906 0.264906 0.264906 0.264906 0.264906 0.264906 0.264906 0.264906 0.264906 0.264906 0.264906 0.264906 0.264906 0.264906 0.264906 0.264906 0.264906 0.264906 0.264906 0.264906 0.264906 0.264906 0.264906 0.264906 0.264906 0.264906 0.264906 0.264906 0.264906 0.264906 0.264906 0.264906 0.264906 0.264906 0.264906 0.264906 0.264906 0.264906 0.264906 0.264906 0.264906 0.264906 0.264906 0.264906 0.264906 0.264906 0.264906 0.264906 0.264906 0.264906 0.264906 0.264906 0.264906 0.264906 0.264906 0.264906 0.264906 0.264906 0.264906 0.264906 0.264906 0.264906 0.264906 0.264906 0.264906 0.264906 0.264906 0.264906 0.264906 0.264906 0.264906 0.264906 0.269680 0.269680 0.269680 0.269680 0.269680 0.269680 0.269680 0.269680 0.269680 0.269680 0.269680 0.269680 0.264906 0.264906 0.264906 0.264906 0.264906 0.264906 0.264906 0.264906 0.264906 0.264906 0.264906 0.264906 0.269680 0.269680 0.269680 0.269680 0.269680 0.269680 0.269680 0.269680 0.269680 0.269680 0.269680 0.264906 0.264906 0.264906 0.264906 0.264906 0.264906 0.264906 0.264906 0.264906 0.264906 0.264906 0.256074 0.256074 0.256074 0.256074 0.256074 0.256074 0.256074 0.256074 0.256074 0.256074 0.256074 0.264906 0.264906 0.264906 0.264906 0.264906 0.264906 0.264906 0.264906 0.264906 0.264906 0.269680 0.269680 0.269680 0.269680 0.269680 0.269680 0.269680 0.269680 0.269680 0.256074 0.256074 0.256074 0.256074 0.256074 0.256074 0.256074 0.256074 0.256074 0.256074 0.260378 0.260378 0.260378 0.260378 0.260378 0.260378 0.260378 0.260378 0.260378 0.256074 0.256074 0.256074 0.256074 0.256074 0.256074 0.256074 0.256074 0.256074 0.251976 0.251976 0.251976 0.251976 0.251976 0.251976 0.251976 0.251976 0.251976 0.264906 0.264906 0.264906 0.264906 0.264906 0.264906 0.264906 0.264906 0.264906
