# Output from CTFFind version 4.1.9, run on 2019-11-01 22:21:07
# Input file: first_bm3d_averaged_1_2.7_0.11_1500_half.mrc ; Number of micrographs: 1
# Pixel size: 3.000 Angstroms ; acceleration voltage: 300.0 keV ; spherical aberration: 0.00 mm ; amplitude contrast: 0.07
# Box size: 512 pixels ; min. res.: 30.0 Angstroms ; max. res.: 5.0 Angstroms ; min. def.: 5000.0 um; max. def. 50000.0 um; num. frames averaged: 1
# 6 lines per micrograph: #1 - spatial frequency (1/Angstroms); #2 - 1D rotational average of spectrum (assuming no astigmatism); #3 - 1D rotational average of spectrum; #4 - CTF fit; #5 - cross-correlation between spectrum and CTF fit; #6 - 2sigma of expected cross correlation of noise
0.000000 0.000651 0.001302 0.001953 0.002604 0.003255 0.003906 0.004557 0.005208 0.005859 0.006510 0.007161 0.007812 0.008464 0.009115 0.009766 0.010417 0.011068 0.011719 0.012370 0.013021 0.013672 0.014323 0.014974 0.015625 0.016276 0.016927 0.017578 0.018229 0.018880 0.019531 0.020182 0.020833 0.021484 0.022135 0.022786 0.023438 0.024089 0.024740 0.025391 0.026042 0.026693 0.027344 0.027995 0.028646 0.029297 0.029948 0.030599 0.031250 0.031901 0.032552 0.033203 0.033854 0.034505 0.035156 0.035807 0.036458 0.037109 0.037760 0.038411 0.039062 0.039714 0.040365 0.041016 0.041667 0.042318 0.042969 0.043620 0.044271 0.044922 0.045573 0.046224 0.046875 0.047526 0.048177 0.048828 0.049479 0.050130 0.050781 0.051432 0.052083 0.052734 0.053385 0.054036 0.054688 0.055339 0.055990 0.056641 0.057292 0.057943 0.058594 0.059245 0.059896 0.060547 0.061198 0.061849 0.062500 0.063151 0.063802 0.064453 0.065104 0.065755 0.066406 0.067057 0.067708 0.068359 0.069010 0.069661 0.070312 0.070964 0.071615 0.072266 0.072917 0.073568 0.074219 0.074870 0.075521 0.076172 0.076823 0.077474 0.078125 0.078776 0.079427 0.080078 0.080729 0.081380 0.082031 0.082682 0.083333 0.083984 0.084635 0.085286 0.085938 0.086589 0.087240 0.087891 0.088542 0.089193 0.089844 0.090495 0.091146 0.091797 0.092448 0.093099 0.093750 0.094401 0.095052 0.095703 0.096354 0.097005 0.097656 0.098307 0.098958 0.099609 0.100260 0.100911 0.101562 0.102214 0.102865 0.103516 0.104167 0.104818 0.105469 0.106120 0.106771 0.107422 0.108073 0.108724 0.109375 0.110026 0.110677 0.111328 0.111979 0.112630 0.113281 0.113932 0.114583 0.115234 0.115885 0.116536 0.117188 0.117839 0.118490 0.119141 0.119792 0.120443 0.121094 0.121745 0.122396 0.123047 0.123698 0.124349 0.125000 0.125651 0.126302 0.126953 0.127604 0.128255 0.128906 0.129557 0.130208 0.130859 0.131510 0.132161 0.132812 0.133464 0.134115 0.134766 0.135417 0.136068 0.136719 0.137370 0.138021 0.138672 0.139323 0.139974 0.140625 0.141276 0.141927 0.142578 0.143229 0.143880 0.144531 0.145182 0.145833 0.146484 0.147135 0.147786 0.148438 0.149089 0.149740 0.150391 0.151042 0.151693 0.152344 0.152995 0.153646 0.154297 0.154948 0.155599 0.156250 0.156901 0.157552 0.158203 0.158854 0.159505 0.160156 0.160807 0.161458 0.162109 0.162760 0.163411 0.164062 0.164714 0.165365 0.166016 0.166667 0.167318 0.167969 0.168620 0.169271 0.169922 0.170573 0.171224 0.171875 0.172526 0.173177 0.173828 0.174479 0.175130 0.175781 0.176432 0.177083 0.177734 0.178385 0.179036 0.179688 0.180339 0.180990 0.181641 0.182292 0.182943 0.183594 0.184245 0.184896 0.185547 0.186198 0.186849 0.187500 0.188151 0.188802 0.189453 0.190104 0.190755 0.191406 0.192057 0.192708 0.193359 0.194010 0.194661 0.195312 0.195964 0.196615 0.197266 0.197917 0.198568 0.199219 0.199870 0.200521 0.201172 0.201823 0.202474 0.203125 0.203776 0.204427 0.205078 0.205729 0.206380 0.207031 0.207682 0.208333 0.208984 0.209635 0.210286 0.210938 0.211589 0.212240 0.212891 0.213542 0.214193 0.214844 0.215495 0.216146 0.216797 0.217448 0.218099 0.218750 0.219401 0.220052 0.220703 0.221354 0.222005 0.222656 0.223307 0.223958 0.224609 0.225260 0.225911 0.226562 0.227214 0.227865 0.228516 0.229167 0.229818 0.230469 0.231120 0.231771 0.232422 0.233073 0.233724 0.234375 0.235026 0.235677
       0.34792        0.34791        0.34792        0.34792        0.34791        0.34791        0.34792        0.34792        0.34791        0.34792        0.34792        0.34791        0.34791        0.34792        0.34791        0.34791        0.34792        0.34791        0.34792        0.34792        0.34792        0.34791        0.34791        0.34792        0.34791        0.34792        0.34791        0.34791        0.34791        0.34792        0.34791        0.34792        0.34792        0.34791        0.34792        0.34791        0.34792        0.34791        0.34792        0.34791        0.34792        0.34792        0.34792        0.34792        0.34791        0.34792        0.34791        0.34791        0.34791        0.34792        0.34792        0.50214        0.71573        0.42694        0.21594       -0.04466       -0.23036       -0.04589       -0.10384       -0.06206        0.01843       -0.11891       -0.09265       -0.03346       -0.01369       -0.12744       -0.15913       -0.29096       -0.46170       -0.56834       -0.50156       -0.44958       -0.35660       -0.55618       -0.41679       -0.56016       -0.46070       -0.46964       -0.36746       -0.33993       -0.30156       -0.21286       -0.12442       -0.12297        0.02367        0.00396        0.15665        0.19273        0.33446        0.43246        0.50941        0.55764        0.56841        0.58754        0.70645        0.65678        0.68511        0.59212        0.55295        0.64275        0.51287        0.46284        0.42000        0.31446        0.27575        0.30241        0.26689        0.11322        0.09227       -0.00776        0.01704        0.04845        0.00919        0.09934        0.13691        0.22007        0.29347        0.30022        0.42710        0.57464        0.56959        0.57335        0.66932        0.65446        0.63050        0.68422        0.65153        0.55058        0.55615        0.41997        0.36042        0.27207        0.18615        0.11315        0.15282        0.12676        0.13918        0.13571        0.22725        0.23431        0.32231        0.36593        0.42126        0.51254        0.53552        0.56005        0.57011        0.60505        0.56005        0.49382        0.49005        0.35457        0.28255        0.27742        0.25874        0.17970        0.17063        0.18816        0.23649        0.27626        0.36346        0.40157        0.42192        0.45527        0.46167        0.48435        0.44739        0.49536        0.44870        0.38942        0.35826        0.36111        0.33040        0.30134        0.22568        0.23826        0.23414        0.28154        0.28545        0.36902        0.40979        0.38439        0.42702        0.45227        0.45268        0.44520        0.45341        0.37122        0.36405        0.29845        0.25909        0.30093        0.29235        0.32469        0.33707        0.36821        0.35649        0.42786        0.41657        0.45421        0.40826        0.44148        0.39294        0.36747        0.31709        0.29784        0.30050        0.28681        0.29544        0.35255        0.36381        0.36087        0.37128        0.36535        0.36711        0.43243        0.41255        0.37681        0.35673        0.31657        0.30338        0.34694        0.32266        0.34246        0.30816        0.33070        0.36207        0.39132        0.36570        0.34225        0.34332        0.35552        0.33028        0.31176        0.34126        0.32752        0.34748        0.34032        0.35145        0.38186        0.33312        0.32729        0.34777        0.31836        0.29182        0.28332        0.29224        0.32265        0.34276        0.36898        0.31480        0.31836        0.34497        0.31197        0.33603        0.30640        0.31283        0.30722        0.30054        0.30322        0.33994        0.33496        0.34732        0.33726        0.37072        0.35924        0.32928        0.33942        0.33801        0.26073        0.28203        0.34429        0.28497        0.30948        0.36555        0.33614        0.34049        0.36603        0.33330        0.27999        0.27392        0.31031        0.35276        0.37415        0.36122        0.32210        0.30884        0.29967        0.31064        0.27695        0.31670        0.30813        0.34230        0.33290        0.31497        0.29252        0.34696        0.34118        0.34104        0.29774        0.29258        0.35294        0.40266        0.36362        0.35865        0.34234        0.30862        0.31488        0.30841        0.31045        0.30532        0.21624        0.26899        0.33161        0.31373        0.30879        0.30072        0.26119        0.23189        0.24037        0.30022        0.32213        0.30000        0.28652        0.31051        0.39144        0.31220        0.23758        0.32397        0.29514        0.26410        0.29564        0.37043        0.31904        0.32373        0.29998        0.26491        0.29567        0.31334        0.24695        0.19876        0.25923        0.26212        0.21452        0.31259        0.26687        0.36111        0.31341        0.24814        0.25141        0.22420        0.29429        0.32427        0.25148        0.15321        0.17832        0.28102        0.25706        0.29959        0.15686        0.14199       -0.52057       -1.11032
2.729730 2.700870 2.672166 2.643618 2.615227 2.586992 2.558913 2.530990 2.503224 2.475613 2.448159 2.420862 2.393720 2.366735 2.339906 2.313233 2.286716 2.260356 2.234152 2.208104 2.182212 2.156476 2.130897 2.105474 2.080207 2.055097 2.030142 2.005344 1.980702 1.956216 1.931887 1.907714 1.883697 1.859836 1.836131 1.812583 1.789191 1.765955 1.742875 1.719952 1.697185 1.674574 1.652119 1.629820 1.607678 1.585692 1.563862 1.542188 1.520671 1.499310 1.478105 1.526516 1.847208 1.509756 1.255976 0.971711 0.569455 0.934233 0.676965 0.859158 0.922436 0.646155 0.688318 0.807662 0.800542 0.633296 0.607637 0.417363 0.109734 0.051880 0.056166 0.055538 0.318498 -0.038939 0.071287 -0.059436 0.022041 -0.017986 0.098454 0.097528 0.149396 0.194115 0.326687 0.275160 0.465094 0.381752 0.591437 0.563320 0.788627 0.813354 0.916824 1.008028 0.963442 0.986575 1.132716 0.959065 1.148820 0.930810 0.875960 0.982508 0.830959 0.780248 0.676887 0.557869 0.501226 0.482293 0.506654 0.266584 0.211310 0.148156 0.024845 0.200206 0.010473 0.130671 0.221934 0.251000 0.320455 0.350858 0.463979 0.570396 0.699998 0.531985 0.729346 0.803327 0.611777 0.752171 0.699124 0.607684 0.501965 0.482214 0.309018 0.228791 0.099288 0.004926 -0.001174 0.028757 -0.048813 -0.028808 0.084831 0.057647 0.120023 0.212694 0.253113 0.355971 0.415298 0.413422 0.469232 0.430312 0.476021 0.343962 0.337107 0.249602 0.084335 0.067279 0.038921 -0.038018 -0.067862 -0.077516 -0.008506 -0.029113 0.104386 0.147629 0.170140 0.240314 0.234491 0.252066 0.275005 0.231264 0.249327 0.203436 0.121654 0.100023 0.094795 0.038155 0.009481 -0.095024 -0.020101 0.004158 0.024397 0.013685 0.135425 0.124493 0.142089 0.185779 0.274709 0.167113 0.233878 0.111447 0.157524 0.045878 -0.029079 0.022459 0.004409 0.027053 0.030990 0.089143 0.077668 0.096775 0.171997 0.167074 0.155615 0.117884 0.173108 0.067055 0.067400 -0.008432 -0.015309 -0.009261 -0.034350 -0.000840 0.069530 0.086832 0.032931 0.081247 0.098198 0.078145 0.176015 0.087929 0.096695 0.064062 -0.023553 0.037306 0.048314 0.008426 0.062280 0.015509 0.038698 0.051387 0.081663 0.066400 0.042668 0.004159 0.075314 -0.004267 0.022796 0.040099 0.007363 0.072639 0.046098 0.062068 0.074137 0.021324 0.025883 0.033931 0.002839 -0.039541 -0.015760 -0.006431 0.006794 0.044749 0.088131 -0.010336 0.038526 0.077583 -0.022913 0.062957 0.026913 0.019103 0.013979 0.029323 0.025373 0.060807 0.032590 0.095660 0.062301 0.129135 0.100666 0.074521 0.110532 0.050646 -0.020579 0.037223 0.094729 0.014266 0.069637 0.112272 0.008359 0.081804 0.076461 0.025716 -0.003692 -0.057805 0.048856 0.086437 0.101916 0.060746 0.041797 0.000798 0.018714 0.029242 -0.044226 0.051017 0.033454 0.064092 0.086775 -0.008132 0.008726 0.081863 0.026122 0.024107 -0.022335 -0.033530 0.100338 0.109020 0.057430 0.037966 0.045865 -0.003515 -0.002861 0.007929 -0.026164 0.006073 -0.145379 -0.015374 0.027024 0.028119 -0.014130 -0.021327 -0.035937 -0.071251 -0.022419 -0.015537 0.068447 0.012500 0.027757 0.026649 0.142415 0.048981 -0.031257 0.075301 0.039995 0.018092 0.034055 0.158256 0.070872 0.065037 0.054809 0.028114 0.035216 0.090668 -0.013852 -0.103962 0.019837 0.025533 -0.060699 0.108321 -0.020878 0.184361 0.047277 0.004797 0.013547 -0.013973 0.032681 0.098275 0.300758 0.175974 0.223242 0.352767 0.291980 0.357749 0.081107 0.173426 -1.313560
0.072396 0.072910 0.074452 0.077022 0.080619 0.085242 0.090889 0.097560 0.105252 0.113961 0.123685 0.134418 0.146156 0.158891 0.172614 0.187318 0.202989 0.219613 0.237176 0.255659 0.275039 0.295294 0.316395 0.338310 0.361006 0.384441 0.408572 0.433350 0.458721 0.484625 0.510997 0.537767 0.564855 0.592179 0.619648 0.647164 0.674623 0.701913 0.728916 0.755505 0.781548 0.806905 0.831429 0.854966 0.877358 0.898439 0.918039 0.935983 0.952092 0.966185 0.978079 0.987590 0.994532 0.998725 0.999989 0.998150 0.993041 0.984501 0.972383 0.956550 0.936878 0.913264 0.885621 0.853883 0.818009 0.777984 0.733821 0.685564 0.633288 0.577107 0.517166 0.453654 0.386797 0.316861 0.244157 0.169036 0.091892 0.013161 0.066680 0.147116 0.227593 0.307523 0.386288 0.463241 0.537716 0.609027 0.676479 0.739374 0.797017 0.848725 0.893838 0.931722 0.961785 0.983485 0.996338 0.999930 0.993928 0.978087 0.952261 0.916410 0.870613 0.815068 0.750101 0.676170 0.593868 0.503923 0.407193 0.304671 0.197469 0.086818 0.025948 0.139405 0.252053 0.362335 0.468661 0.569426 0.663039 0.747948 0.822670 0.885815 0.936122 0.972481 0.993968 0.999866 0.989693 0.963225 0.920511 0.861889 0.787997 0.699776 0.598469 0.485611 0.363017 0.232761 0.097143 0.041341 0.180048 0.316224 0.447071 0.569800 0.681688 0.780148 0.862793 0.927499 0.972467 0.996283 0.997969 0.977026 0.933474 0.867870 0.781325 0.675499 0.552589 0.415290 0.266755 0.110531 0.049521 0.209310 0.364624 0.511234 0.645014 0.762063 0.858828 0.932217 0.979715 0.999482 0.990435 0.952315 0.885732 0.792178 0.674022 0.534468 0.377493 0.207740 0.030406 0.148917 0.324410 0.490214 0.640624 0.770305 0.874478 0.949119 0.991133 0.998495 0.970374 0.907200 0.810706 0.683905 0.531031 0.357416 0.169333 0.026223 0.221775 0.409655 0.582293 0.732540 0.853976 0.941193 0.990067 0.997980 0.963978 0.888878 0.775288 0.627566 0.451678 0.254987 0.045978 0.166104 0.371645 0.561100 0.725443 0.856615 0.947939 0.994488 0.993389 0.944026 0.848149 0.709861 0.535491 0.333345 0.113330 0.113483 0.335431 0.540835 0.718627 0.858968 0.953821 0.997438 0.986758 0.921655 0.805040 0.642786 0.443489 0.218046 0.020890 0.259618 0.484152 0.681047 0.838224 0.945744 0.996472 0.986600 0.915983 0.788256 0.610709 0.393937 0.151254 0.102091 0.349845 0.575792 0.764826 0.903986 0.983387 0.996978 0.943061 0.824527 0.648782 0.427357 0.175213 0.090231 0.350270 0.586231 0.780814 0.919406 0.991222 0.990207 0.915617 0.772213 0.570047 0.323835 0.051940 0.224942 0.485347 0.708709 0.877012 0.976285 0.997837 0.939094 0.803958 0.602657 0.351059 0.069492 0.218850 0.489794 0.720208 0.890015 0.984003 0.993253 0.916080 0.758359 0.533181 0.259877 0.037591 0.332662 0.598543 0.810655 0.948949 0.999884 0.957837 0.825828 0.615425 0.345858 0.042338 0.266232 0.549986 0.780987 0.936028 0.999047 0.962880 0.830197 0.613441 0.333795 0.019216 0.298315 0.585989 0.813592 0.956727 0.999519 0.936493 0.773385 0.526779 0.222537 0.106797 0.425444 0.698240 0.894561 0.991844 0.978287 0.854414 0.633282 0.339249 0.005421 0.330004 0.628066 0.853600 0.979443 0.989831 0.882513 0.669298 0.374930 0.034339 0.311397 0.619966 0.853032 0.981061 0.987195 0.869622 0.642107 0.332564 0.020231 0.371399 0.675639 0.893093 0.994675 0.966091 0.810025 0.546119 0.208679 0.157646 0.503691 0.782367 0.955126 0.997414
1.000000 1.000000 1.000000 1.000000 1.000000 1.000000 1.000000 1.000000 1.000000 1.000000 1.000000 1.000000 1.000000 1.000000 1.000000 1.000000 1.000000 1.000000 1.000000 1.000000 1.000000 1.000000 1.000000 1.000000 1.000000 1.000000 1.000000 1.000000 1.000000 1.000000 1.000000 1.000000 1.000000 1.000000 1.000000 1.000000 1.000000 1.000000 1.000000 1.000000 1.000000 1.000000 1.000000 1.000000 1.000000 1.000000 1.000000 1.000000 1.000000 1.000000 1.000000 1.000000 0.917781 0.917781 0.903729 0.903729 0.903729 0.903729 0.903729 0.903729 0.903729 0.903729 0.903729 0.903729 0.903729 0.903729 0.903729 0.903729 0.903729 0.903729 0.903729 0.903729 0.903729 0.903729 0.903729 0.903729 0.903729 0.903729 0.903729 0.903729 0.903729 0.903729 0.903729 0.903729 0.903729 0.903729 0.903729 0.903729 0.903729 0.903729 0.903729 0.903729 0.903729 0.903729 0.903729 0.897053 0.902038 0.904625 0.903155 0.906765 0.907160 0.905038 0.904479 0.904309 0.904650 0.905700 0.916222 0.930723 0.938183 0.940483 0.944005 0.950858 0.954144 0.953713 0.960049 0.968010 0.966667 0.966232 0.966919 0.968371 0.970494 0.969237 0.968790 0.971930 0.972588 0.971109 0.968834 0.968221 0.967618 0.967366 0.966989 0.967121 0.967398 0.967901 0.967623 0.967291 0.967438 0.967492 0.968507 0.969666 0.972085 0.973112 0.972976 0.971880 0.969956 0.971467 0.974800 0.971913 0.971770 0.971349 0.971635 0.959640 0.952426 0.952510 0.946732 0.945412 0.943063 0.941044 0.940743 0.941230 0.940944 0.942078 0.940320 0.932327 0.926203 0.912460 0.928189 0.924431 0.909102 0.893334 0.895439 0.897021 0.897392 0.894949 0.887569 0.884156 0.881201 0.882955 0.886586 0.889764 0.884803 0.877675 0.876446 0.873682 0.848590 0.827581 0.816323 0.811374 0.808216 0.809006 0.806599 0.803042 0.811093 0.803935 0.798785 0.788496 0.781169 0.754762 0.733040 0.734822 0.742838 0.746217 0.739886 0.713617 0.674039 0.688446 0.686840 0.685102 0.684294 0.675674 0.668049 0.673127 0.678832 0.665329 0.661963 0.662614 0.662368 0.671366 0.673753 0.661614 0.656246 0.641574 0.630985 0.607265 0.611965 0.628035 0.588218 0.580148 0.567329 0.557619 0.553333 0.542892 0.541918 0.539222 0.526506 0.517319 0.510053 0.514190 0.521593 0.522844 0.506228 0.528463 0.526540 0.560187 0.554086 0.540336 0.534079 0.538068 0.525770 0.506462 0.512789 0.514184 0.515846 0.550025 0.550411 0.552847 0.549491 0.539695 0.534958 0.512109 0.515036 0.537690 0.511654 0.480291 0.461144 0.460277 0.437349 0.419870 0.390069 0.384051 0.397396 0.381271 0.373405 0.353146 0.348522 0.265282 0.223821 0.211894 0.210834 0.220177 0.257562 0.263215 0.246830 0.272215 0.318344 0.306328 0.293386 0.287301 0.258246 0.217888 0.212323 0.215824 0.171296 0.175903 0.160179 0.154014 0.154116 0.133706 0.143337 0.074504 0.034983 0.042283 0.058939 0.094404 0.089742 0.099826 0.078426 0.087388 0.076780 0.033906 0.046043 0.057446 0.028864 0.035063 0.060361 0.078477 0.088171 0.016391 0.037616 0.072097 0.082554 0.072238 0.073376 0.103557 0.126136 0.124971 0.134348 0.130314 0.112900 0.107245 0.102161 0.059109 0.073594 0.000457 -0.024064 -0.024064 -0.033916 -0.033916 -0.033916 -0.033916 -0.033916 -0.033916 -0.033916 -0.033916 -0.033916 -0.036116 -0.036116 -0.036116 -0.036116 -0.036116 -0.036116 -0.036116 -0.036116 -0.036116 0.003036 0.003036 0.003036 0.003036 0.003036 0.003036 0.003036 0.003036 0.003036
0.000000 0.000000 0.000000 0.000000 0.000000 0.000000 0.000000 0.000000 0.000000 0.000000 0.000000 0.000000 0.000000 0.000000 0.000000 0.000000 0.000000 0.000000 0.000000 0.000000 0.000000 0.000000 0.000000 0.000000 0.000000 7.000000 4.000000 0.000000 0.000000 0.000000 0.000000 0.000000 0.000000 0.000000 0.000000 0.000000 0.000000 0.000000 0.000000 0.000000 0.000000 0.000000 0.000000 0.000000 0.000000 0.000000 0.000000 0.000000 0.000000 0.000000 0.000000 0.000000 0.181818 0.181818 0.199007 0.199007 0.199007 0.199007 0.199007 0.199007 0.199007 0.199007 0.199007 0.199007 0.199007 0.199007 0.199007 0.199007 0.199007 0.199007 0.199007 0.199007 0.199007 0.199007 0.199007 0.199007 0.199007 0.199007 0.199007 0.199007 0.199007 0.199007 0.199007 0.199007 0.199007 0.199007 0.199007 0.199007 0.199007 0.199007 0.199007 0.199007 0.199007 0.199007 0.199007 0.230940 0.230940 0.230940 0.230940 0.230940 0.230940 0.230940 0.230940 0.230940 0.230940 0.230940 0.230940 0.230940 0.230940 0.230940 0.230940 0.230940 0.230940 0.230940 0.230940 0.230940 0.230940 0.230940 0.230940 0.230940 0.230940 0.230940 0.230940 0.244339 0.244339 0.244339 0.244339 0.244339 0.244339 0.244339 0.244339 0.244339 0.244339 0.244339 0.244339 0.244339 0.244339 0.244339 0.244339 0.244339 0.244339 0.244339 0.244339 0.244339 0.244339 0.244339 0.251976 0.251976 0.251976 0.251976 0.251976 0.251976 0.251976 0.251976 0.251976 0.251976 0.251976 0.251976 0.251976 0.251976 0.251976 0.251976 0.251976 0.251976 0.251976 0.251976 0.264906 0.264906 0.264906 0.264906 0.264906 0.264906 0.264906 0.264906 0.264906 0.264906 0.264906 0.264906 0.264906 0.264906 0.264906 0.264906 0.264906 0.264906 0.264906 0.264906 0.264906 0.264906 0.264906 0.264906 0.264906 0.264906 0.264906 0.264906 0.264906 0.264906 0.264906 0.264906 0.264906 0.264906 0.264906 0.264906 0.264906 0.264906 0.264906 0.264906 0.264906 0.264906 0.264906 0.264906 0.264906 0.264906 0.264906 0.264906 0.264906 0.264906 0.264906 0.264906 0.264906 0.264906 0.264906 0.264906 0.264906 0.264906 0.264906 0.264906 0.264906 0.264906 0.264906 0.264906 0.264906 0.264906 0.264906 0.264906 0.264906 0.264906 0.264906 0.264906 0.264906 0.264906 0.264906 0.269680 0.269680 0.269680 0.269680 0.269680 0.269680 0.269680 0.269680 0.269680 0.269680 0.269680 0.269680 0.264906 0.264906 0.264906 0.264906 0.264906 0.264906 0.264906 0.264906 0.264906 0.264906 0.264906 0.264906 0.269680 0.269680 0.269680 0.269680 0.269680 0.269680 0.269680 0.269680 0.269680 0.269680 0.269680 0.264906 0.264906 0.264906 0.264906 0.264906 0.264906 0.264906 0.264906 0.264906 0.264906 0.264906 0.256074 0.256074 0.256074 0.256074 0.256074 0.256074 0.256074 0.256074 0.256074 0.256074 0.256074 0.264906 0.264906 0.264906 0.264906 0.264906 0.264906 0.264906 0.264906 0.264906 0.264906 0.269680 0.269680 0.269680 0.269680 0.269680 0.269680 0.269680 0.269680 0.269680 0.256074 0.256074 0.256074 0.256074 0.256074 0.256074 0.256074 0.256074 0.256074 0.256074 0.260378 0.260378 0.260378 0.260378 0.260378 0.260378 0.260378 0.260378 0.260378 0.256074 0.256074 0.256074 0.256074 0.256074 0.256074 0.256074 0.256074 0.256074 0.251976 0.251976 0.251976 0.251976 0.251976 0.251976 0.251976 0.251976 0.251976 0.264906 0.264906 0.264906 0.264906 0.264906 0.264906 0.264906 0.264906 0.264906
