# Output from CTFFind version 4.1.9, run on 2019-11-01 22:41:58
# Input file: first_bm3d_averaged_1_0.7_1.00_1000_half.mrc ; Number of micrographs: 1
# Pixel size: 3.000 Angstroms ; acceleration voltage: 300.0 keV ; spherical aberration: 0.00 mm ; amplitude contrast: 0.07
# Box size: 512 pixels ; min. res.: 30.0 Angstroms ; max. res.: 5.0 Angstroms ; min. def.: 5000.0 um; max. def. 50000.0 um; num. frames averaged: 1
# 6 lines per micrograph: #1 - spatial frequency (1/Angstroms); #2 - 1D rotational average of spectrum (assuming no astigmatism); #3 - 1D rotational average of spectrum; #4 - CTF fit; #5 - cross-correlation between spectrum and CTF fit; #6 - 2sigma of expected cross correlation of noise
0.000000 0.000651 0.001302 0.001953 0.002604 0.003255 0.003906 0.004557 0.005208 0.005859 0.006510 0.007161 0.007812 0.008464 0.009115 0.009766 0.010417 0.011068 0.011719 0.012370 0.013021 0.013672 0.014323 0.014974 0.015625 0.016276 0.016927 0.017578 0.018229 0.018880 0.019531 0.020182 0.020833 0.021484 0.022135 0.022786 0.023438 0.024089 0.024740 0.025391 0.026042 0.026693 0.027344 0.027995 0.028646 0.029297 0.029948 0.030599 0.031250 0.031901 0.032552 0.033203 0.033854 0.034505 0.035156 0.035807 0.036458 0.037109 0.037760 0.038411 0.039062 0.039714 0.040365 0.041016 0.041667 0.042318 0.042969 0.043620 0.044271 0.044922 0.045573 0.046224 0.046875 0.047526 0.048177 0.048828 0.049479 0.050130 0.050781 0.051432 0.052083 0.052734 0.053385 0.054036 0.054688 0.055339 0.055990 0.056641 0.057292 0.057943 0.058594 0.059245 0.059896 0.060547 0.061198 0.061849 0.062500 0.063151 0.063802 0.064453 0.065104 0.065755 0.066406 0.067057 0.067708 0.068359 0.069010 0.069661 0.070312 0.070964 0.071615 0.072266 0.072917 0.073568 0.074219 0.074870 0.075521 0.076172 0.076823 0.077474 0.078125 0.078776 0.079427 0.080078 0.080729 0.081380 0.082031 0.082682 0.083333 0.083984 0.084635 0.085286 0.085938 0.086589 0.087240 0.087891 0.088542 0.089193 0.089844 0.090495 0.091146 0.091797 0.092448 0.093099 0.093750 0.094401 0.095052 0.095703 0.096354 0.097005 0.097656 0.098307 0.098958 0.099609 0.100260 0.100911 0.101562 0.102214 0.102865 0.103516 0.104167 0.104818 0.105469 0.106120 0.106771 0.107422 0.108073 0.108724 0.109375 0.110026 0.110677 0.111328 0.111979 0.112630 0.113281 0.113932 0.114583 0.115234 0.115885 0.116536 0.117188 0.117839 0.118490 0.119141 0.119792 0.120443 0.121094 0.121745 0.122396 0.123047 0.123698 0.124349 0.125000 0.125651 0.126302 0.126953 0.127604 0.128255 0.128906 0.129557 0.130208 0.130859 0.131510 0.132161 0.132812 0.133464 0.134115 0.134766 0.135417 0.136068 0.136719 0.137370 0.138021 0.138672 0.139323 0.139974 0.140625 0.141276 0.141927 0.142578 0.143229 0.143880 0.144531 0.145182 0.145833 0.146484 0.147135 0.147786 0.148438 0.149089 0.149740 0.150391 0.151042 0.151693 0.152344 0.152995 0.153646 0.154297 0.154948 0.155599 0.156250 0.156901 0.157552 0.158203 0.158854 0.159505 0.160156 0.160807 0.161458 0.162109 0.162760 0.163411 0.164062 0.164714 0.165365 0.166016 0.166667 0.167318 0.167969 0.168620 0.169271 0.169922 0.170573 0.171224 0.171875 0.172526 0.173177 0.173828 0.174479 0.175130 0.175781 0.176432 0.177083 0.177734 0.178385 0.179036 0.179688 0.180339 0.180990 0.181641 0.182292 0.182943 0.183594 0.184245 0.184896 0.185547 0.186198 0.186849 0.187500 0.188151 0.188802 0.189453 0.190104 0.190755 0.191406 0.192057 0.192708 0.193359 0.194010 0.194661 0.195312 0.195964 0.196615 0.197266 0.197917 0.198568 0.199219 0.199870 0.200521 0.201172 0.201823 0.202474 0.203125 0.203776 0.204427 0.205078 0.205729 0.206380 0.207031 0.207682 0.208333 0.208984 0.209635 0.210286 0.210938 0.211589 0.212240 0.212891 0.213542 0.214193 0.214844 0.215495 0.216146 0.216797 0.217448 0.218099 0.218750 0.219401 0.220052 0.220703 0.221354 0.222005 0.222656 0.223307 0.223958 0.224609 0.225260 0.225911 0.226562 0.227214 0.227865 0.228516 0.229167 0.229818 0.230469 0.231120 0.231771 0.232422 0.233073 0.233724 0.234375 0.235026 0.235677
       0.33308        0.33308        0.33308        0.33308        0.33308        0.33308        0.33308        0.33308        0.33308        0.33308        0.33308        0.33308        0.33308        0.33308        0.33308        0.33308        0.33308        0.33308        0.33308        0.33308        0.33308        0.33308        0.33308        0.33308        0.33308        0.33308        0.33308        0.33308        0.33308        0.33308        0.33308        0.33308        0.33308        0.33308        0.33308        0.33308        0.33308        0.33308        0.33308        0.33308        0.33308        0.33308        0.33308        0.33308        0.33308        0.33308        0.33308        0.33308        0.33308        0.33308        0.33308        0.50286        0.71962        0.42929        0.19061       -0.08048       -0.26205       -0.06890       -0.13323       -0.05288       -0.00248       -0.14695       -0.09225       -0.05216       -0.00349       -0.15215       -0.22128       -0.34654       -0.46231       -0.55802       -0.51714       -0.44783       -0.37144       -0.54691       -0.45026       -0.62123       -0.50310       -0.47473       -0.38967       -0.38524       -0.34043       -0.25142       -0.16049       -0.13607        0.03291       -0.01194        0.11992        0.16801        0.30479        0.41013        0.46365        0.49854        0.54122        0.55092        0.69285        0.64577        0.67730        0.59167        0.55669        0.65469        0.52875        0.42757        0.38337        0.32095        0.22908        0.26287        0.25133        0.10740        0.08320        0.00044       -0.00580        0.03765       -0.00450        0.07422        0.10017        0.23216        0.28448        0.30234        0.38076        0.56160        0.53589        0.57864        0.67012        0.70126        0.62993        0.63567        0.63288        0.55520        0.57414        0.39829        0.34531        0.26625        0.18418        0.07248        0.14443        0.11924        0.09203        0.10615        0.20891        0.21370        0.31706        0.35958        0.41275        0.49309        0.58337        0.54234        0.55546        0.60772        0.53855        0.46162        0.48002        0.32495        0.25076        0.25906        0.24246        0.14251        0.14411        0.15163        0.21931        0.24627        0.33021        0.36511        0.39203        0.46755        0.44712        0.47889        0.45327        0.46788        0.44632        0.40723        0.38329        0.35283        0.31112        0.28749        0.20528        0.19662        0.22017        0.27079        0.26834        0.35059        0.37539        0.35853        0.41226        0.45443        0.44696        0.42410        0.43968        0.37315        0.33462        0.28220        0.26289        0.29037        0.26960        0.29450        0.30025        0.34810        0.34290        0.39735        0.40404        0.42635        0.41045        0.43105        0.40363        0.36454        0.28290        0.29166        0.30807        0.27252        0.25437        0.32812        0.37023        0.34166        0.35346        0.35994        0.35527        0.40865        0.40161        0.36097        0.33862        0.30925        0.31030        0.31756        0.31792        0.30100        0.28592        0.33609        0.36027        0.37864        0.33346        0.33032        0.33564        0.34572        0.30665        0.28285        0.30660        0.31477        0.33731        0.32022        0.33112        0.35846        0.32927        0.31277        0.32802        0.30313        0.26486        0.25267        0.26613        0.30738        0.32188        0.35141        0.30153        0.31321        0.33507        0.29400        0.31516        0.28630        0.28268        0.29294        0.29772        0.30912        0.34438        0.32700        0.33021        0.33775        0.31294        0.33438        0.31905        0.31932        0.30972        0.28266        0.29170        0.31153        0.29202        0.32591        0.33721        0.33595        0.32220        0.34208        0.31895        0.27767        0.25279        0.27028        0.33154        0.35776        0.34393        0.31572        0.29368        0.29739        0.31309        0.24882        0.29881        0.30516        0.33161        0.29973        0.31525        0.28669        0.33719        0.34207        0.34343        0.32003        0.29147        0.31560        0.39869        0.32915        0.31387        0.31150        0.29043        0.28554        0.29974        0.26635        0.31460        0.23801        0.27378        0.29667        0.31394        0.29596        0.27194        0.29799        0.23786        0.22503        0.26133        0.30124        0.30541        0.27782        0.28597        0.33356        0.25705        0.21671        0.30968        0.27402        0.25719        0.28308        0.39301        0.29562        0.28797        0.24698        0.25217        0.27051        0.24616        0.23490        0.17227        0.25736        0.23106        0.24776        0.31713        0.26833        0.35221        0.28832        0.24317        0.22655        0.21295        0.23816        0.30460        0.22747        0.12777        0.16971        0.24431        0.24771        0.31285        0.27862        0.03074       -0.43213       -0.92249
2.690970 2.662552 2.634287 2.606174 2.578214 2.550406 2.522751 2.495247 2.467897 2.440699 2.413653 2.386759 2.360019 2.333430 2.306994 2.280710 2.254579 2.228600 2.202774 2.177100 2.151578 2.126209 2.100992 2.075928 2.051016 2.026257 2.001650 1.977195 1.952893 1.928744 1.904746 1.880901 1.857209 1.833669 1.810281 1.787046 1.763963 1.741033 1.718255 1.695630 1.673157 1.650836 1.628668 1.606652 1.584789 1.563078 1.541519 1.520113 1.498859 1.477758 1.456809 1.526771 1.828628 1.512920 1.194207 0.939856 0.544218 0.910824 0.633003 0.874566 0.925977 0.590443 0.709663 0.779282 0.817716 0.629417 0.536225 0.347372 0.103811 0.079953 0.044967 0.083534 0.301925 -0.035015 0.081660 -0.134342 -0.012832 -0.017953 0.084403 0.060250 0.100729 0.175688 0.282321 0.251219 0.483120 0.396913 0.549507 0.526293 0.766617 0.788113 0.878968 0.920802 0.940014 0.943442 1.112169 0.941621 1.139471 0.946033 0.851262 1.014695 0.848086 0.758769 0.615889 0.593819 0.456592 0.416469 0.508780 0.265687 0.197722 0.157288 0.012897 0.209255 -0.004652 0.119346 0.181300 0.258682 0.332530 0.346918 0.424707 0.539058 0.661366 0.539743 0.738360 0.863113 0.637685 0.695657 0.666119 0.593915 0.535936 0.463995 0.298430 0.213896 0.115989 -0.042659 -0.019961 0.057737 -0.097923 -0.057886 0.048090 0.053566 0.112027 0.220871 0.237440 0.308707 0.433306 0.442359 0.438787 0.479106 0.445362 0.326931 0.332179 0.241563 0.051025 0.062585 0.018671 -0.047820 -0.097510 -0.100640 -0.015521 -0.053320 0.071645 0.122575 0.120693 0.260839 0.229564 0.244061 0.288347 0.245296 0.240289 0.212270 0.172852 0.109573 0.102282 0.026511 0.008184 -0.118200 -0.053890 0.000531 0.003833 0.020748 0.097805 0.084531 0.129639 0.192818 0.255635 0.174925 0.182692 0.108316 0.138638 0.019104 -0.033226 0.020701 -0.022690 0.002369 -0.006896 0.034163 0.080144 0.053812 0.151834 0.101757 0.163774 0.062940 0.144790 0.093110 -0.010060 -0.062090 -0.015029 -0.035651 -0.074204 -0.068436 0.053461 0.058302 -0.009635 0.047546 0.062695 0.071391 0.142873 0.066144 0.060599 0.046137 -0.027298 0.023651 0.001578 0.011947 0.001815 -0.009052 0.040109 0.062061 0.068899 0.028781 0.044423 0.020680 0.057588 -0.012849 -0.018735 0.020264 0.008551 0.060146 0.034758 0.042005 0.056609 0.043032 0.016550 0.029633 -0.002409 -0.046988 -0.032713 -0.027315 0.022975 0.038632 0.095236 -0.005475 0.052895 0.060854 -0.007671 0.062925 0.011786 0.010608 0.039184 0.051677 0.038761 0.095219 0.055065 0.071377 0.093470 0.060705 0.067361 0.065442 0.084184 0.034309 -0.005901 0.045371 0.042421 0.048296 0.068576 0.087471 0.014310 0.062986 0.076072 0.007581 0.006747 -0.065497 -0.023305 0.109398 0.077277 0.045421 0.044401 -0.028982 0.048722 0.021217 -0.065384 0.049419 0.034540 0.066326 0.035826 0.008201 0.005022 0.057055 0.043733 0.016529 0.036696 -0.038966 0.064940 0.118262 0.006621 -0.006381 0.001056 -0.003291 -0.031804 -0.021809 -0.055247 0.000238 -0.093961 -0.021875 -0.032493 0.021202 -0.035668 -0.052386 0.028822 -0.075958 -0.056229 -0.078623 0.047905 0.011318 0.006485 -0.007159 0.072325 -0.025356 -0.067892 0.056587 -0.004343 0.013677 0.009836 0.198852 -0.018343 0.026115 0.000530 -0.004443 0.001452 -0.024371 -0.016501 -0.155314 0.020738 -0.038350 0.003978 0.023188 -0.001460 0.123848 0.004807 -0.016541 -0.045701 -0.029843 -0.064641 0.059583 0.272398 0.151883 0.216645 0.239527 0.332809 0.343331 0.335903 0.038268 -1.080102
0.072396 0.072910 0.074452 0.077021 0.080618 0.085240 0.090887 0.097556 0.105247 0.113955 0.123677 0.134409 0.146145 0.158878 0.172600 0.187301 0.202969 0.219592 0.237152 0.255632 0.275010 0.295262 0.316360 0.338272 0.360964 0.384397 0.408524 0.433299 0.458667 0.484569 0.510938 0.537704 0.564790 0.592112 0.619578 0.647093 0.674550 0.701839 0.728840 0.755429 0.781472 0.806829 0.831354 0.854893 0.877287 0.898371 0.917974 0.935923 0.952038 0.966138 0.978040 0.987558 0.994511 0.998714 0.999990 0.998164 0.993069 0.984545 0.972443 0.956627 0.936975 0.913380 0.885757 0.854041 0.818189 0.778187 0.734048 0.685814 0.633563 0.577404 0.517488 0.453998 0.387163 0.317249 0.244564 0.169461 0.092333 0.013616 0.066215 0.146643 0.227115 0.307045 0.385812 0.462773 0.537260 0.608587 0.676061 0.738983 0.796658 0.848404 0.893559 0.931491 0.961607 0.983365 0.996280 0.999938 0.994006 0.978237 0.952485 0.916711 0.870990 0.815521 0.750628 0.676769 0.594535 0.504652 0.407980 0.305507 0.198346 0.087726 0.025021 0.138469 0.251122 0.361423 0.467781 0.568592 0.662266 0.747251 0.822062 0.885311 0.935733 0.972219 0.993842 0.999884 0.989862 0.963547 0.920986 0.862515 0.788770 0.700687 0.599506 0.486760 0.364262 0.234080 0.098513 0.039945 0.178653 0.314859 0.445766 0.568582 0.680588 0.779194 0.862010 0.926911 0.972095 0.996143 0.998072 0.977378 0.934075 0.868714 0.782400 0.676787 0.554064 0.416921 0.268507 0.112361 0.047656 0.207462 0.362841 0.509567 0.643513 0.760775 0.857795 0.931478 0.979300 0.999413 0.990724 0.952966 0.886734 0.793513 0.675657 0.536362 0.379592 0.209984 0.032726 0.146596 0.322163 0.488118 0.638758 0.768736 0.873270 0.948325 0.990792 0.998633 0.970997 0.908300 0.812255 0.685857 0.533324 0.359972 0.172060 0.023428 0.219018 0.407046 0.579944 0.730553 0.852440 0.940183 0.989641 0.998169 0.964790 0.890292 0.777260 0.630022 0.454521 0.258101 0.049227 0.162864 0.368564 0.558324 0.723112 0.854849 0.946836 0.994118 0.993786 0.945189 0.850038 0.712399 0.538565 0.336807 0.117017 0.109763 0.331869 0.537624 0.715946 0.856974 0.952637 0.997148 0.987396 0.923207 0.807439 0.645915 0.447183 0.222108 0.016692 0.255529 0.480411 0.677887 0.835849 0.944312 0.996091 0.987316 0.917776 0.791034 0.614317 0.398164 0.155838 0.097438 0.345425 0.571899 0.761730 0.901909 0.982491 0.997348 0.944696 0.827338 0.652597 0.431928 0.180236 0.085108 0.345413 0.581992 0.777515 0.917308 0.990501 0.990944 0.917784 0.775674 0.574564 0.329078 0.057520 0.219452 0.480379 0.704668 0.874231 0.975013 0.998204 0.941099 0.807466 0.607410 0.356682 0.075530 0.212898 0.484434 0.715904 0.887160 0.982867 0.993965 0.918611 0.762516 0.538624 0.266141 0.031061 0.326450 0.593221 0.806730 0.946809 0.999758 0.959771 0.829672 0.620850 0.352368 0.049323 0.259441 0.544056 0.776512 0.933478 0.998705 0.964818 0.834253 0.619242 0.340776 0.026675 0.291137 0.579846 0.809146 0.954471 0.999729 0.939184 0.778307 0.533436 0.230232 0.098893 0.418194 0.692456 0.890914 0.990773 0.979953 0.858670 0.639682 0.347089 0.013820 0.322016 0.621430 0.849114 0.977671 0.991025 0.886573 0.675780 0.383081 0.043194 0.302914 0.612907 0.848289 0.979264 0.988610 0.874117 0.649157 0.341306 0.010893 0.362662 0.668646 0.888780 0.993646 0.968526 0.815651 0.554235 0.218227 0.147935 0.495132 0.776141 0.952118 0.998085
1.000000 1.000000 1.000000 1.000000 1.000000 1.000000 1.000000 1.000000 1.000000 1.000000 1.000000 1.000000 1.000000 1.000000 1.000000 1.000000 1.000000 1.000000 1.000000 1.000000 1.000000 1.000000 1.000000 1.000000 1.000000 1.000000 1.000000 1.000000 1.000000 1.000000 1.000000 1.000000 1.000000 1.000000 1.000000 1.000000 1.000000 1.000000 1.000000 1.000000 1.000000 1.000000 1.000000 1.000000 1.000000 1.000000 1.000000 1.000000 1.000000 1.000000 1.000000 1.000000 0.918921 0.918921 0.905176 0.905176 0.905176 0.905176 0.905176 0.905176 0.905176 0.905176 0.905176 0.905176 0.905176 0.905176 0.905176 0.905176 0.905176 0.905176 0.905176 0.905176 0.905176 0.905176 0.905176 0.905176 0.905176 0.905176 0.905176 0.905176 0.905176 0.905176 0.905176 0.905176 0.905176 0.905176 0.905176 0.905176 0.905176 0.905176 0.905176 0.905176 0.905176 0.905176 0.905176 0.901039 0.905894 0.907786 0.906235 0.909790 0.909857 0.909145 0.909473 0.909124 0.909448 0.910841 0.921352 0.932381 0.943636 0.944163 0.949304 0.953713 0.956117 0.956996 0.958544 0.968487 0.967167 0.966667 0.967351 0.968807 0.970940 0.969649 0.969247 0.972413 0.973074 0.971458 0.969242 0.968637 0.968039 0.968140 0.967767 0.967654 0.967527 0.968034 0.968236 0.968395 0.968539 0.968589 0.969607 0.970761 0.973123 0.974102 0.973948 0.972862 0.970968 0.975002 0.975900 0.975631 0.975572 0.975094 0.975359 0.961780 0.957909 0.957829 0.954624 0.953662 0.950820 0.949258 0.947397 0.947609 0.946351 0.946373 0.942967 0.929600 0.915960 0.904902 0.925687 0.910531 0.899189 0.875183 0.875737 0.872271 0.872786 0.865244 0.859342 0.854589 0.851849 0.853253 0.850053 0.853789 0.850697 0.837292 0.840438 0.837214 0.808228 0.790808 0.775881 0.776789 0.774006 0.775126 0.774709 0.770779 0.779172 0.771108 0.769406 0.761218 0.741875 0.708045 0.694612 0.704984 0.714575 0.712936 0.709166 0.693988 0.661425 0.674517 0.695071 0.692522 0.695027 0.686593 0.680195 0.683001 0.683581 0.680037 0.672609 0.671735 0.671139 0.680125 0.684672 0.679986 0.671002 0.656579 0.644479 0.630360 0.643860 0.652123 0.619650 0.613769 0.602526 0.596068 0.582541 0.553326 0.553251 0.530077 0.519358 0.522646 0.525926 0.517472 0.524932 0.526168 0.511179 0.533142 0.540154 0.566487 0.550655 0.549040 0.550460 0.558049 0.543109 0.526684 0.521591 0.522423 0.534583 0.564620 0.604854 0.590915 0.578087 0.565572 0.580220 0.546417 0.555077 0.576305 0.553439 0.482009 0.434024 0.431945 0.391270 0.386482 0.375588 0.367099 0.371353 0.364367 0.353877 0.340450 0.328167 0.270030 0.230088 0.213669 0.193168 0.201008 0.217753 0.208139 0.200790 0.226077 0.273833 0.273734 0.264953 0.251003 0.255276 0.227478 0.238602 0.266307 0.221200 0.214080 0.206957 0.180838 0.179861 0.145834 0.168815 0.087077 0.061482 0.060489 0.076932 0.090675 0.088937 0.092551 0.064672 0.084750 0.080014 0.050020 0.039262 0.056091 0.043233 0.012687 0.022044 0.039856 0.027395 0.000126 0.025820 0.039242 0.053563 0.044641 0.041748 0.095923 0.126778 0.113971 0.114890 0.107858 0.111816 0.087605 0.079063 0.066913 0.056251 0.005060 -0.023436 -0.023436 -0.018584 -0.018584 -0.018584 -0.018584 -0.018584 -0.018584 -0.018584 -0.018584 -0.018584 -0.022130 -0.022130 -0.022130 -0.022130 -0.022130 -0.022130 -0.022130 -0.022130 -0.022130 0.003159 0.003159 0.003159 0.003159 0.003159 0.003159 0.003159 0.003159 0.003159
0.000000 0.000000 0.000000 0.000000 0.000000 0.000000 0.000000 0.000000 0.000000 0.000000 0.000000 0.000000 0.000000 0.000000 0.000000 0.000000 0.000000 0.000000 0.000000 0.000000 0.000000 0.000000 0.000000 0.000000 0.000000 7.000000 4.000000 0.000000 0.000000 0.000000 0.000000 0.000000 0.000000 0.000000 0.000000 0.000000 0.000000 0.000000 0.000000 0.000000 0.000000 0.000000 0.000000 0.000000 0.000000 0.000000 0.000000 0.000000 0.000000 0.000000 0.000000 0.000000 0.181818 0.181818 0.199007 0.199007 0.199007 0.199007 0.199007 0.199007 0.199007 0.199007 0.199007 0.199007 0.199007 0.199007 0.199007 0.199007 0.199007 0.199007 0.199007 0.199007 0.199007 0.199007 0.199007 0.199007 0.199007 0.199007 0.199007 0.199007 0.199007 0.199007 0.199007 0.199007 0.199007 0.199007 0.199007 0.199007 0.199007 0.199007 0.199007 0.199007 0.199007 0.199007 0.199007 0.230940 0.230940 0.230940 0.230940 0.230940 0.230940 0.230940 0.230940 0.230940 0.230940 0.230940 0.230940 0.230940 0.230940 0.230940 0.230940 0.230940 0.230940 0.230940 0.230940 0.230940 0.230940 0.230940 0.230940 0.230940 0.230940 0.230940 0.230940 0.244339 0.244339 0.244339 0.244339 0.244339 0.244339 0.244339 0.244339 0.244339 0.244339 0.244339 0.244339 0.244339 0.244339 0.244339 0.244339 0.244339 0.244339 0.244339 0.244339 0.244339 0.244339 0.244339 0.251976 0.251976 0.251976 0.251976 0.251976 0.251976 0.251976 0.251976 0.251976 0.251976 0.251976 0.251976 0.251976 0.251976 0.251976 0.251976 0.251976 0.251976 0.251976 0.251976 0.264906 0.264906 0.264906 0.264906 0.264906 0.264906 0.264906 0.264906 0.264906 0.264906 0.264906 0.264906 0.264906 0.264906 0.264906 0.264906 0.264906 0.264906 0.264906 0.264906 0.264906 0.264906 0.264906 0.264906 0.264906 0.264906 0.264906 0.264906 0.264906 0.264906 0.264906 0.264906 0.264906 0.264906 0.264906 0.264906 0.264906 0.264906 0.264906 0.264906 0.264906 0.264906 0.264906 0.264906 0.264906 0.264906 0.264906 0.264906 0.264906 0.264906 0.264906 0.264906 0.264906 0.264906 0.264906 0.264906 0.264906 0.264906 0.264906 0.264906 0.264906 0.264906 0.264906 0.264906 0.264906 0.264906 0.264906 0.264906 0.264906 0.264906 0.264906 0.264906 0.264906 0.264906 0.264906 0.269680 0.269680 0.269680 0.269680 0.269680 0.269680 0.269680 0.269680 0.269680 0.269680 0.269680 0.269680 0.264906 0.264906 0.264906 0.264906 0.264906 0.264906 0.264906 0.264906 0.264906 0.264906 0.264906 0.264906 0.269680 0.269680 0.269680 0.269680 0.269680 0.269680 0.269680 0.269680 0.269680 0.269680 0.269680 0.264906 0.264906 0.264906 0.264906 0.264906 0.264906 0.264906 0.264906 0.264906 0.264906 0.264906 0.256074 0.256074 0.256074 0.256074 0.256074 0.256074 0.256074 0.256074 0.256074 0.256074 0.256074 0.264906 0.264906 0.264906 0.264906 0.264906 0.264906 0.264906 0.264906 0.264906 0.264906 0.269680 0.269680 0.269680 0.269680 0.269680 0.269680 0.269680 0.269680 0.269680 0.256074 0.256074 0.256074 0.256074 0.256074 0.256074 0.256074 0.256074 0.256074 0.256074 0.260378 0.260378 0.260378 0.260378 0.260378 0.260378 0.260378 0.260378 0.260378 0.256074 0.256074 0.256074 0.256074 0.256074 0.256074 0.256074 0.256074 0.256074 0.251976 0.251976 0.251976 0.251976 0.251976 0.251976 0.251976 0.251976 0.251976 0.264906 0.264906 0.264906 0.264906 0.264906 0.264906 0.264906 0.264906 0.264906
