# Output from CTFFind version 4.1.9, run on 2019-11-01 22:45:43
# Input file: first_bm3d_averaged_1_2.2_1.00_1000_half.mrc ; Number of micrographs: 1
# Pixel size: 3.000 Angstroms ; acceleration voltage: 300.0 keV ; spherical aberration: 0.00 mm ; amplitude contrast: 0.07
# Box size: 512 pixels ; min. res.: 30.0 Angstroms ; max. res.: 5.0 Angstroms ; min. def.: 5000.0 um; max. def. 50000.0 um; num. frames averaged: 1
# 6 lines per micrograph: #1 - spatial frequency (1/Angstroms); #2 - 1D rotational average of spectrum (assuming no astigmatism); #3 - 1D rotational average of spectrum; #4 - CTF fit; #5 - cross-correlation between spectrum and CTF fit; #6 - 2sigma of expected cross correlation of noise
0.000000 0.000651 0.001302 0.001953 0.002604 0.003255 0.003906 0.004557 0.005208 0.005859 0.006510 0.007161 0.007812 0.008464 0.009115 0.009766 0.010417 0.011068 0.011719 0.012370 0.013021 0.013672 0.014323 0.014974 0.015625 0.016276 0.016927 0.017578 0.018229 0.018880 0.019531 0.020182 0.020833 0.021484 0.022135 0.022786 0.023438 0.024089 0.024740 0.025391 0.026042 0.026693 0.027344 0.027995 0.028646 0.029297 0.029948 0.030599 0.031250 0.031901 0.032552 0.033203 0.033854 0.034505 0.035156 0.035807 0.036458 0.037109 0.037760 0.038411 0.039062 0.039714 0.040365 0.041016 0.041667 0.042318 0.042969 0.043620 0.044271 0.044922 0.045573 0.046224 0.046875 0.047526 0.048177 0.048828 0.049479 0.050130 0.050781 0.051432 0.052083 0.052734 0.053385 0.054036 0.054688 0.055339 0.055990 0.056641 0.057292 0.057943 0.058594 0.059245 0.059896 0.060547 0.061198 0.061849 0.062500 0.063151 0.063802 0.064453 0.065104 0.065755 0.066406 0.067057 0.067708 0.068359 0.069010 0.069661 0.070312 0.070964 0.071615 0.072266 0.072917 0.073568 0.074219 0.074870 0.075521 0.076172 0.076823 0.077474 0.078125 0.078776 0.079427 0.080078 0.080729 0.081380 0.082031 0.082682 0.083333 0.083984 0.084635 0.085286 0.085938 0.086589 0.087240 0.087891 0.088542 0.089193 0.089844 0.090495 0.091146 0.091797 0.092448 0.093099 0.093750 0.094401 0.095052 0.095703 0.096354 0.097005 0.097656 0.098307 0.098958 0.099609 0.100260 0.100911 0.101562 0.102214 0.102865 0.103516 0.104167 0.104818 0.105469 0.106120 0.106771 0.107422 0.108073 0.108724 0.109375 0.110026 0.110677 0.111328 0.111979 0.112630 0.113281 0.113932 0.114583 0.115234 0.115885 0.116536 0.117188 0.117839 0.118490 0.119141 0.119792 0.120443 0.121094 0.121745 0.122396 0.123047 0.123698 0.124349 0.125000 0.125651 0.126302 0.126953 0.127604 0.128255 0.128906 0.129557 0.130208 0.130859 0.131510 0.132161 0.132812 0.133464 0.134115 0.134766 0.135417 0.136068 0.136719 0.137370 0.138021 0.138672 0.139323 0.139974 0.140625 0.141276 0.141927 0.142578 0.143229 0.143880 0.144531 0.145182 0.145833 0.146484 0.147135 0.147786 0.148438 0.149089 0.149740 0.150391 0.151042 0.151693 0.152344 0.152995 0.153646 0.154297 0.154948 0.155599 0.156250 0.156901 0.157552 0.158203 0.158854 0.159505 0.160156 0.160807 0.161458 0.162109 0.162760 0.163411 0.164062 0.164714 0.165365 0.166016 0.166667 0.167318 0.167969 0.168620 0.169271 0.169922 0.170573 0.171224 0.171875 0.172526 0.173177 0.173828 0.174479 0.175130 0.175781 0.176432 0.177083 0.177734 0.178385 0.179036 0.179688 0.180339 0.180990 0.181641 0.182292 0.182943 0.183594 0.184245 0.184896 0.185547 0.186198 0.186849 0.187500 0.188151 0.188802 0.189453 0.190104 0.190755 0.191406 0.192057 0.192708 0.193359 0.194010 0.194661 0.195312 0.195964 0.196615 0.197266 0.197917 0.198568 0.199219 0.199870 0.200521 0.201172 0.201823 0.202474 0.203125 0.203776 0.204427 0.205078 0.205729 0.206380 0.207031 0.207682 0.208333 0.208984 0.209635 0.210286 0.210938 0.211589 0.212240 0.212891 0.213542 0.214193 0.214844 0.215495 0.216146 0.216797 0.217448 0.218099 0.218750 0.219401 0.220052 0.220703 0.221354 0.222005 0.222656 0.223307 0.223958 0.224609 0.225260 0.225911 0.226562 0.227214 0.227865 0.228516 0.229167 0.229818 0.230469 0.231120 0.231771 0.232422 0.233073 0.233724 0.234375 0.235026 0.235677
       0.33595        0.33595        0.33595        0.33595        0.33595        0.33595        0.33595        0.33595        0.33595        0.33595        0.33595        0.33595        0.33595        0.33595        0.33595        0.33595        0.33595        0.33595        0.33595        0.33595        0.33595        0.33595        0.33595        0.33595        0.33595        0.33595        0.33595        0.33595        0.33595        0.33595        0.33595        0.33595        0.33595        0.33595        0.33595        0.33595        0.33595        0.33595        0.33595        0.33595        0.33595        0.33595        0.33595        0.33595        0.33595        0.33595        0.33595        0.33595        0.33595        0.33595        0.33595        0.50170        0.71975        0.42170        0.19600       -0.07130       -0.25153       -0.06390       -0.12634       -0.06700       -0.00073       -0.14727       -0.10588       -0.04270        0.00225       -0.15109       -0.22329       -0.33439       -0.46584       -0.57501       -0.52287       -0.46167       -0.37121       -0.55758       -0.45063       -0.61779       -0.50415       -0.47390       -0.39947       -0.37621       -0.32632       -0.23670       -0.16511       -0.13860        0.02931       -0.01412        0.11825        0.17381        0.32030        0.42525        0.47720        0.51131        0.55190        0.55897        0.69950        0.65226        0.68345        0.59043        0.56108        0.64869        0.52768        0.44459        0.40630        0.30616        0.24894        0.26873        0.25483        0.09802        0.08166        0.00506       -0.00514        0.02927       -0.01471        0.06916        0.09555        0.22559        0.28820        0.29468        0.40305        0.57083        0.54794        0.57456        0.66958        0.68546        0.63133        0.64767        0.64149        0.53901        0.56843        0.40200        0.35957        0.26927        0.18319        0.08216        0.14369        0.11312        0.11322        0.12321        0.20543        0.19129        0.31590        0.35330        0.41006        0.49481        0.55701        0.54846        0.55694        0.60619        0.53827        0.47739        0.48546        0.32557        0.25772        0.26088        0.24846        0.14721        0.15002        0.15516        0.22934        0.26329        0.33880        0.38383        0.41028        0.45445        0.45023        0.48247        0.44294        0.47972        0.44272        0.38735        0.36709        0.37064        0.33658        0.29431        0.21289        0.22133        0.23028        0.27613        0.26404        0.35189        0.38686        0.36015        0.41218        0.44979        0.44190        0.43170        0.44284        0.35957        0.33461        0.28680        0.25753        0.30070        0.26413        0.29709        0.31104        0.34531        0.33490        0.40140        0.39527        0.43747        0.40061        0.45226        0.40926        0.37601        0.28434        0.28212        0.28612        0.27859        0.27279        0.33782        0.36135        0.33400        0.36821        0.37552        0.34990        0.41700        0.40588        0.36765        0.34945        0.30369        0.30252        0.32194        0.31347        0.31244        0.29698        0.34156        0.36268        0.37886        0.34332        0.33403        0.32903        0.35511        0.32173        0.29711        0.32124        0.32426        0.32939        0.32945        0.34034        0.36640        0.33047        0.32563        0.34384        0.31265        0.26884        0.26014        0.27833        0.30815        0.31770        0.35996        0.29654        0.30646        0.33171        0.29837        0.32418        0.29200        0.27849        0.27837        0.28307        0.29348        0.34398        0.31629        0.33379        0.32009        0.34450        0.34992        0.31865        0.32869        0.33735        0.27027        0.28911        0.31327        0.28285        0.32552        0.32413        0.33265        0.32529        0.35513        0.34209        0.29263        0.24431        0.27730        0.33663        0.35912        0.35595        0.31627        0.30123        0.30313        0.31593        0.26556        0.29312        0.30563        0.32955        0.30471        0.28538        0.26218        0.34014        0.33538        0.34230        0.30330        0.30132        0.30832        0.39225        0.35743        0.33515        0.32623        0.30984        0.29282        0.30576        0.31047        0.29174        0.23222        0.26784        0.30048        0.30974        0.29813        0.27304        0.26378        0.23431        0.22637        0.29255        0.32341        0.30120        0.30913        0.31434        0.35399        0.24673        0.21707        0.25288        0.24515        0.28115        0.28997        0.33172        0.25981        0.28583        0.27839        0.23467        0.27850        0.28136        0.24578        0.19682        0.23644        0.23335        0.24677        0.30286        0.29483        0.34594        0.32765        0.28379        0.26597        0.18815        0.25959        0.29495        0.26074        0.19083        0.23807        0.26417        0.18464        0.25437        0.19717        0.10124       -0.48950       -0.82486
2.652351 2.624500 2.596798 2.569245 2.541842 2.514588 2.487483 2.460527 2.433721 2.407063 2.380555 2.354196 2.327986 2.301926 2.276015 2.250253 2.224640 2.199176 2.173862 2.148696 2.123680 2.098814 2.074096 2.049528 2.025109 2.000839 1.976718 1.952747 1.928924 1.905251 1.881727 1.858353 1.835127 1.812051 1.789124 1.766346 1.743718 1.721238 1.698908 1.676727 1.654696 1.632813 1.611080 1.589496 1.568061 1.546775 1.525639 1.504652 1.483814 1.463125 1.442585 1.506397 1.820926 1.489056 1.185966 0.930406 0.537265 0.904142 0.631299 0.839206 0.904780 0.585391 0.673337 0.772909 0.817493 0.607891 0.518696 0.353598 0.090194 0.046817 0.032317 0.042767 0.291874 -0.054596 0.061178 -0.133668 -0.035288 -0.017846 0.052142 0.062676 0.108833 0.180964 0.274290 0.240057 0.466905 0.392712 0.540992 0.529847 0.779895 0.792559 0.886744 0.949508 0.933573 0.961216 1.109851 0.961427 1.144858 0.938200 0.861386 1.008214 0.846110 0.767456 0.654045 0.574754 0.468924 0.431439 0.504310 0.260514 0.195693 0.165777 0.017918 0.192452 -0.015936 0.117364 0.170834 0.254440 0.342089 0.342326 0.446862 0.556497 0.686535 0.535855 0.744865 0.840101 0.632101 0.719391 0.686296 0.582394 0.531045 0.475283 0.318901 0.220585 0.122084 -0.022126 -0.014943 0.044392 -0.066268 -0.045425 0.073998 0.035870 0.098418 0.224653 0.239130 0.324384 0.419616 0.441372 0.463315 0.448203 0.459916 0.336176 0.343444 0.246624 0.049359 0.071208 0.026242 -0.042370 -0.093122 -0.087038 -0.022206 -0.021003 0.090599 0.136891 0.161209 0.253553 0.225057 0.267503 0.285852 0.238742 0.248128 0.215945 0.144795 0.126349 0.135466 0.039026 0.027539 -0.099831 -0.022985 0.013191 0.010383 0.016822 0.125672 0.091082 0.140314 0.182809 0.266071 0.160237 0.211381 0.118335 0.130296 0.029731 -0.028843 0.016584 -0.002912 0.001833 0.004433 0.053075 0.059960 0.068912 0.156485 0.121496 0.158383 0.087593 0.178853 0.102164 0.013535 -0.041503 -0.035607 -0.030348 -0.058569 -0.036347 0.067111 0.054077 -0.006570 0.076249 0.083142 0.064015 0.153874 0.077555 0.084507 0.050370 -0.031304 0.025359 0.009030 0.009393 0.023721 0.008835 0.052576 0.064506 0.069404 0.038855 0.036732 0.001341 0.078465 -0.003928 -0.004479 0.025381 0.011042 0.053688 0.042340 0.044149 0.057330 0.038777 0.019129 0.042499 -0.002667 -0.055547 -0.032437 -0.017632 0.001459 0.020022 0.100796 -0.023240 0.041489 0.062289 0.006913 0.066801 0.022872 0.002796 0.021004 0.034425 0.039964 0.095762 0.035358 0.097811 0.079569 0.108325 0.087481 0.088148 0.100032 0.070406 -0.003550 0.064998 0.057618 0.037352 0.103193 0.089825 0.026327 0.080091 0.105404 0.055195 0.039038 -0.067548 0.023876 0.114150 0.097728 0.084424 0.061815 0.007073 0.052879 0.049597 -0.032623 0.046831 0.042109 0.078596 0.063475 -0.032354 -0.006654 0.094153 0.043272 0.033481 0.024663 -0.015852 0.061865 0.122077 0.057347 0.014702 0.050620 0.008072 -0.032041 -0.013518 -0.003714 -0.039207 -0.103645 -0.043290 -0.019281 0.011369 -0.035240 -0.084331 -0.028880 -0.074887 -0.041245 -0.045781 0.055610 0.008638 0.024444 0.032012 0.090716 -0.087328 -0.064666 -0.061789 -0.058217 0.021676 -0.007559 0.084254 -0.070003 -0.005910 0.024756 -0.053802 0.008307 0.028363 -0.040053 -0.118578 -0.025366 -0.020709 -0.007882 0.016698 0.035249 0.152068 0.064003 0.052556 0.021219 -0.060395 0.000457 0.051769 0.310250 0.231517 0.291825 0.285420 0.241131 0.278796 0.140938 0.126131 -0.969053
0.072396 0.072910 0.074452 0.077020 0.080616 0.085237 0.090883 0.097552 0.105240 0.113947 0.123667 0.134397 0.146131 0.158861 0.172581 0.187279 0.202945 0.219564 0.237121 0.255598 0.274972 0.295220 0.316314 0.338223 0.360911 0.384340 0.408464 0.433235 0.458599 0.484496 0.510862 0.537624 0.564707 0.592025 0.619489 0.647000 0.674455 0.701742 0.728743 0.755331 0.781373 0.806731 0.831257 0.854798 0.877195 0.898283 0.917891 0.935846 0.951968 0.966077 0.977988 0.987518 0.994483 0.998700 0.999991 0.998182 0.993105 0.984601 0.972521 0.956727 0.937099 0.913530 0.885933 0.854245 0.818422 0.778449 0.734340 0.686136 0.633916 0.577788 0.517902 0.454442 0.387635 0.317747 0.245088 0.170008 0.092901 0.014201 0.065616 0.146033 0.226500 0.306428 0.385200 0.462170 0.536672 0.608021 0.675523 0.738480 0.796196 0.847990 0.893200 0.931193 0.961377 0.983209 0.996204 0.999948 0.994105 0.978429 0.952773 0.917097 0.871475 0.816103 0.751306 0.677540 0.595393 0.505591 0.408992 0.306582 0.199474 0.088894 0.023827 0.137265 0.249924 0.360247 0.466646 0.567518 0.661271 0.746353 0.821279 0.884660 0.935231 0.971880 0.993678 0.999906 0.990076 0.963958 0.921595 0.863320 0.789763 0.701857 0.600841 0.488239 0.365862 0.235777 0.100276 0.038148 0.176856 0.313099 0.444082 0.567013 0.679169 0.777962 0.861000 0.926152 0.971613 0.995959 0.998200 0.977827 0.934845 0.869797 0.783781 0.678442 0.555961 0.419020 0.270761 0.114718 0.045258 0.205082 0.360544 0.507419 0.641576 0.759112 0.856461 0.930521 0.978759 0.999317 0.991090 0.953796 0.888019 0.795225 0.677757 0.538795 0.382292 0.212872 0.035713 0.143605 0.319269 0.485417 0.636348 0.766709 0.871708 0.947295 0.990344 0.998800 0.971791 0.909708 0.814242 0.688366 0.536271 0.363259 0.175568 0.019828 0.215468 0.403686 0.576913 0.727985 0.850451 0.938871 0.989078 0.998397 0.965821 0.892102 0.779788 0.633177 0.458177 0.262106 0.053410 0.158690 0.364591 0.554743 0.720099 0.852561 0.945400 0.993623 0.994279 0.946669 0.852455 0.715653 0.542510 0.341261 0.121759 0.104971 0.327277 0.533479 0.712480 0.854389 0.951092 0.996751 0.988195 0.925184 0.810508 0.649926 0.451928 0.227329 0.011289 0.250255 0.475583 0.673802 0.832767 0.942443 0.995573 0.988210 0.920055 0.794585 0.618944 0.403591 0.161736 0.091443 0.339721 0.566869 0.757719 0.899206 0.981304 0.997788 0.946764 0.830925 0.657483 0.437799 0.186693 0.078508 0.339144 0.576513 0.773236 0.914567 0.989532 0.991851 0.920535 0.780097 0.580351 0.335813 0.064702 0.212375 0.473963 0.699428 0.870611 0.973327 0.998626 0.943633 0.811944 0.613495 0.363899 0.083299 0.205225 0.477501 0.710323 0.883431 0.981347 0.994824 0.921816 0.767823 0.545599 0.274188 0.022645 0.318430 0.586333 0.801624 0.943991 0.999528 0.962196 0.834567 0.627787 0.360721 0.058313 0.250681 0.536381 0.770693 0.930123 0.998189 0.967237 0.839413 0.626660 0.349737 0.036280 0.281872 0.571890 0.803353 0.951485 0.999910 0.942564 0.784574 0.541956 0.240117 0.088704 0.408820 0.684944 0.886130 0.989297 0.982001 0.864063 0.647855 0.357150 0.024629 0.311697 0.612818 0.843247 0.975283 0.992453 0.891702 0.684048 0.393532 0.054590 0.291955 0.603742 0.842085 0.976831 0.990310 0.879794 0.658149 0.352515 0.001126 0.351370 0.659554 0.883110 0.992186 0.971530 0.822787 0.564600 0.230487 0.135413 0.484042 0.768015 0.948107 0.998802
1.000000 1.000000 1.000000 1.000000 1.000000 1.000000 1.000000 1.000000 1.000000 1.000000 1.000000 1.000000 1.000000 1.000000 1.000000 1.000000 1.000000 1.000000 1.000000 1.000000 1.000000 1.000000 1.000000 1.000000 1.000000 1.000000 1.000000 1.000000 1.000000 1.000000 1.000000 1.000000 1.000000 1.000000 1.000000 1.000000 1.000000 1.000000 1.000000 1.000000 1.000000 1.000000 1.000000 1.000000 1.000000 1.000000 1.000000 1.000000 1.000000 1.000000 1.000000 1.000000 0.915832 0.915832 0.900993 0.900993 0.900993 0.900993 0.900993 0.900993 0.900993 0.900993 0.900993 0.900993 0.900993 0.900993 0.900993 0.900993 0.900993 0.900993 0.900993 0.900993 0.900993 0.900993 0.900993 0.900993 0.900993 0.900993 0.900993 0.900993 0.900993 0.900993 0.900993 0.900993 0.900993 0.900993 0.900993 0.900993 0.900993 0.900993 0.900993 0.900993 0.900993 0.900993 0.900993 0.897237 0.902109 0.904690 0.903141 0.906778 0.906857 0.904670 0.904163 0.903776 0.904098 0.905547 0.916125 0.930705 0.938223 0.940552 0.945584 0.949932 0.952230 0.953048 0.956617 0.966412 0.963822 0.963342 0.964090 0.965719 0.967955 0.968188 0.969617 0.968717 0.969474 0.969615 0.969196 0.968589 0.967986 0.968082 0.967698 0.967587 0.969032 0.969494 0.969025 0.969193 0.969333 0.969379 0.967819 0.967738 0.970131 0.971208 0.971044 0.969846 0.964280 0.968039 0.968620 0.968237 0.968191 0.967771 0.968099 0.955713 0.948926 0.949038 0.942649 0.941675 0.938885 0.937822 0.936391 0.936939 0.937057 0.938240 0.934485 0.922844 0.912093 0.895411 0.917745 0.909160 0.891467 0.870786 0.870799 0.867802 0.868375 0.862166 0.854043 0.849350 0.846702 0.848545 0.853032 0.857631 0.854858 0.845851 0.849064 0.843010 0.810255 0.799011 0.789759 0.781149 0.780489 0.781902 0.778541 0.774303 0.782577 0.773798 0.770733 0.762526 0.750169 0.726264 0.716693 0.724198 0.731600 0.735632 0.729700 0.704289 0.655876 0.670997 0.699793 0.697971 0.701055 0.698345 0.691988 0.690219 0.691735 0.688393 0.684568 0.685621 0.685248 0.692024 0.694234 0.681849 0.677058 0.667401 0.652867 0.630756 0.641617 0.654325 0.627580 0.622055 0.611466 0.604505 0.606971 0.604034 0.604859 0.578286 0.562866 0.557692 0.557518 0.561243 0.568914 0.569008 0.552770 0.571005 0.553129 0.579675 0.552985 0.548351 0.549415 0.559112 0.546531 0.538627 0.538269 0.537860 0.539923 0.557201 0.567765 0.552436 0.544605 0.539817 0.553712 0.533517 0.548874 0.577010 0.554121 0.505085 0.466780 0.462230 0.427458 0.427797 0.393567 0.369142 0.380467 0.362799 0.351948 0.337303 0.329915 0.298462 0.260018 0.240611 0.234478 0.248186 0.272158 0.270359 0.263420 0.301518 0.341278 0.347776 0.339364 0.295382 0.272484 0.229686 0.215187 0.224884 0.185188 0.189777 0.175189 0.169882 0.169729 0.119740 0.165335 0.072163 0.058753 0.058900 0.080972 0.058315 0.052422 0.053427 0.017867 0.021833 0.024810 0.002055 -0.004342 0.012037 -0.012183 -0.022154 -0.010611 0.002009 -0.006500 -0.024471 -0.015841 -0.025191 -0.023266 -0.032933 -0.033997 0.008999 0.054598 0.057930 0.066311 0.067647 0.058970 0.065993 0.062497 0.025237 0.003999 -0.040807 -0.067326 -0.067326 -0.048715 -0.048715 -0.048715 -0.048715 -0.048715 -0.048715 -0.048715 -0.048715 -0.048715 -0.053206 -0.053206 -0.053206 -0.053206 -0.053206 -0.053206 -0.053206 -0.053206 -0.053206 -0.039174 -0.039174 -0.039174 -0.039174 -0.039174 -0.039174 -0.039174 -0.039174 -0.039174
0.000000 0.000000 0.000000 0.000000 0.000000 0.000000 0.000000 0.000000 0.000000 0.000000 0.000000 0.000000 0.000000 0.000000 0.000000 0.000000 0.000000 0.000000 0.000000 0.000000 0.000000 0.000000 0.000000 0.000000 0.000000 7.000000 4.000000 0.000000 0.000000 0.000000 0.000000 0.000000 0.000000 0.000000 0.000000 0.000000 0.000000 0.000000 0.000000 0.000000 0.000000 0.000000 0.000000 0.000000 0.000000 0.000000 0.000000 0.000000 0.000000 0.000000 0.000000 0.000000 0.181818 0.181818 0.199007 0.199007 0.199007 0.199007 0.199007 0.199007 0.199007 0.199007 0.199007 0.199007 0.199007 0.199007 0.199007 0.199007 0.199007 0.199007 0.199007 0.199007 0.199007 0.199007 0.199007 0.199007 0.199007 0.199007 0.199007 0.199007 0.199007 0.199007 0.199007 0.199007 0.199007 0.199007 0.199007 0.199007 0.199007 0.199007 0.199007 0.199007 0.199007 0.199007 0.199007 0.230940 0.230940 0.230940 0.230940 0.230940 0.230940 0.230940 0.230940 0.230940 0.230940 0.230940 0.230940 0.230940 0.230940 0.230940 0.230940 0.230940 0.230940 0.230940 0.230940 0.230940 0.230940 0.230940 0.230940 0.230940 0.230940 0.230940 0.230940 0.244339 0.244339 0.244339 0.244339 0.244339 0.244339 0.244339 0.244339 0.244339 0.244339 0.244339 0.244339 0.244339 0.244339 0.244339 0.244339 0.244339 0.244339 0.244339 0.244339 0.244339 0.244339 0.244339 0.251976 0.251976 0.251976 0.251976 0.251976 0.251976 0.251976 0.251976 0.251976 0.251976 0.251976 0.251976 0.251976 0.251976 0.251976 0.251976 0.251976 0.251976 0.251976 0.251976 0.264906 0.264906 0.264906 0.264906 0.264906 0.264906 0.264906 0.264906 0.264906 0.264906 0.264906 0.264906 0.264906 0.264906 0.264906 0.264906 0.264906 0.264906 0.264906 0.264906 0.264906 0.264906 0.264906 0.264906 0.264906 0.264906 0.264906 0.264906 0.264906 0.264906 0.264906 0.264906 0.264906 0.264906 0.264906 0.264906 0.264906 0.264906 0.264906 0.264906 0.264906 0.264906 0.264906 0.264906 0.264906 0.264906 0.264906 0.264906 0.264906 0.264906 0.264906 0.264906 0.264906 0.264906 0.264906 0.264906 0.264906 0.264906 0.264906 0.264906 0.264906 0.264906 0.264906 0.264906 0.264906 0.264906 0.264906 0.264906 0.264906 0.264906 0.264906 0.264906 0.264906 0.264906 0.264906 0.269680 0.269680 0.269680 0.269680 0.269680 0.269680 0.269680 0.269680 0.269680 0.269680 0.269680 0.269680 0.264906 0.264906 0.264906 0.264906 0.264906 0.264906 0.264906 0.264906 0.264906 0.264906 0.264906 0.264906 0.269680 0.269680 0.269680 0.269680 0.269680 0.269680 0.269680 0.269680 0.269680 0.269680 0.269680 0.264906 0.264906 0.264906 0.264906 0.264906 0.264906 0.264906 0.264906 0.264906 0.264906 0.264906 0.256074 0.256074 0.256074 0.256074 0.256074 0.256074 0.256074 0.256074 0.256074 0.256074 0.256074 0.264906 0.264906 0.264906 0.264906 0.264906 0.264906 0.264906 0.264906 0.264906 0.264906 0.269680 0.269680 0.269680 0.269680 0.269680 0.269680 0.269680 0.269680 0.269680 0.256074 0.256074 0.256074 0.256074 0.256074 0.256074 0.256074 0.256074 0.256074 0.256074 0.260378 0.260378 0.260378 0.260378 0.260378 0.260378 0.260378 0.260378 0.260378 0.256074 0.256074 0.256074 0.256074 0.256074 0.256074 0.256074 0.256074 0.256074 0.251976 0.251976 0.251976 0.251976 0.251976 0.251976 0.251976 0.251976 0.251976 0.264906 0.264906 0.264906 0.264906 0.264906 0.264906 0.264906 0.264906 0.264906
