# Output from CTFFind version 4.1.9, run on 2019-11-01 22:43:35
# Input file: first_bm3d_averaged_1_1.2_1.00_2000_half.mrc ; Number of micrographs: 1
# Pixel size: 3.000 Angstroms ; acceleration voltage: 300.0 keV ; spherical aberration: 0.00 mm ; amplitude contrast: 0.07
# Box size: 512 pixels ; min. res.: 30.0 Angstroms ; max. res.: 5.0 Angstroms ; min. def.: 5000.0 um; max. def. 50000.0 um; num. frames averaged: 1
# 6 lines per micrograph: #1 - spatial frequency (1/Angstroms); #2 - 1D rotational average of spectrum (assuming no astigmatism); #3 - 1D rotational average of spectrum; #4 - CTF fit; #5 - cross-correlation between spectrum and CTF fit; #6 - 2sigma of expected cross correlation of noise
0.000000 0.000651 0.001302 0.001953 0.002604 0.003255 0.003906 0.004557 0.005208 0.005859 0.006510 0.007161 0.007812 0.008464 0.009115 0.009766 0.010417 0.011068 0.011719 0.012370 0.013021 0.013672 0.014323 0.014974 0.015625 0.016276 0.016927 0.017578 0.018229 0.018880 0.019531 0.020182 0.020833 0.021484 0.022135 0.022786 0.023438 0.024089 0.024740 0.025391 0.026042 0.026693 0.027344 0.027995 0.028646 0.029297 0.029948 0.030599 0.031250 0.031901 0.032552 0.033203 0.033854 0.034505 0.035156 0.035807 0.036458 0.037109 0.037760 0.038411 0.039062 0.039714 0.040365 0.041016 0.041667 0.042318 0.042969 0.043620 0.044271 0.044922 0.045573 0.046224 0.046875 0.047526 0.048177 0.048828 0.049479 0.050130 0.050781 0.051432 0.052083 0.052734 0.053385 0.054036 0.054688 0.055339 0.055990 0.056641 0.057292 0.057943 0.058594 0.059245 0.059896 0.060547 0.061198 0.061849 0.062500 0.063151 0.063802 0.064453 0.065104 0.065755 0.066406 0.067057 0.067708 0.068359 0.069010 0.069661 0.070312 0.070964 0.071615 0.072266 0.072917 0.073568 0.074219 0.074870 0.075521 0.076172 0.076823 0.077474 0.078125 0.078776 0.079427 0.080078 0.080729 0.081380 0.082031 0.082682 0.083333 0.083984 0.084635 0.085286 0.085938 0.086589 0.087240 0.087891 0.088542 0.089193 0.089844 0.090495 0.091146 0.091797 0.092448 0.093099 0.093750 0.094401 0.095052 0.095703 0.096354 0.097005 0.097656 0.098307 0.098958 0.099609 0.100260 0.100911 0.101562 0.102214 0.102865 0.103516 0.104167 0.104818 0.105469 0.106120 0.106771 0.107422 0.108073 0.108724 0.109375 0.110026 0.110677 0.111328 0.111979 0.112630 0.113281 0.113932 0.114583 0.115234 0.115885 0.116536 0.117188 0.117839 0.118490 0.119141 0.119792 0.120443 0.121094 0.121745 0.122396 0.123047 0.123698 0.124349 0.125000 0.125651 0.126302 0.126953 0.127604 0.128255 0.128906 0.129557 0.130208 0.130859 0.131510 0.132161 0.132812 0.133464 0.134115 0.134766 0.135417 0.136068 0.136719 0.137370 0.138021 0.138672 0.139323 0.139974 0.140625 0.141276 0.141927 0.142578 0.143229 0.143880 0.144531 0.145182 0.145833 0.146484 0.147135 0.147786 0.148438 0.149089 0.149740 0.150391 0.151042 0.151693 0.152344 0.152995 0.153646 0.154297 0.154948 0.155599 0.156250 0.156901 0.157552 0.158203 0.158854 0.159505 0.160156 0.160807 0.161458 0.162109 0.162760 0.163411 0.164062 0.164714 0.165365 0.166016 0.166667 0.167318 0.167969 0.168620 0.169271 0.169922 0.170573 0.171224 0.171875 0.172526 0.173177 0.173828 0.174479 0.175130 0.175781 0.176432 0.177083 0.177734 0.178385 0.179036 0.179688 0.180339 0.180990 0.181641 0.182292 0.182943 0.183594 0.184245 0.184896 0.185547 0.186198 0.186849 0.187500 0.188151 0.188802 0.189453 0.190104 0.190755 0.191406 0.192057 0.192708 0.193359 0.194010 0.194661 0.195312 0.195964 0.196615 0.197266 0.197917 0.198568 0.199219 0.199870 0.200521 0.201172 0.201823 0.202474 0.203125 0.203776 0.204427 0.205078 0.205729 0.206380 0.207031 0.207682 0.208333 0.208984 0.209635 0.210286 0.210938 0.211589 0.212240 0.212891 0.213542 0.214193 0.214844 0.215495 0.216146 0.216797 0.217448 0.218099 0.218750 0.219401 0.220052 0.220703 0.221354 0.222005 0.222656 0.223307 0.223958 0.224609 0.225260 0.225911 0.226562 0.227214 0.227865 0.228516 0.229167 0.229818 0.230469 0.231120 0.231771 0.232422 0.233073 0.233724 0.234375 0.235026 0.235677
       0.33373        0.33373        0.33373        0.33373        0.33373        0.33373        0.33373        0.33373        0.33373        0.33373        0.33373        0.33373        0.33373        0.33373        0.33373        0.33373        0.33373        0.33373        0.33373        0.33373        0.33373        0.33373        0.33373        0.33373        0.33373        0.33373        0.33373        0.33373        0.33373        0.33373        0.33373        0.33373        0.33373        0.33373        0.33373        0.33373        0.33373        0.33373        0.33373        0.33373        0.33373        0.33373        0.33373        0.33373        0.33373        0.33373        0.33373        0.33373        0.33373        0.33373        0.33373        0.50233        0.71822        0.42878        0.19187       -0.07891       -0.26106       -0.06791       -0.13161       -0.05500       -0.00087       -0.14647       -0.09326       -0.04754        0.00005       -0.15034       -0.21905       -0.34339       -0.46274       -0.56090       -0.51888       -0.45027       -0.37095       -0.54736       -0.44806       -0.62048       -0.50186       -0.47328       -0.39109       -0.38142       -0.33864       -0.24676       -0.16036       -0.13797        0.03301       -0.01188        0.12005        0.17004        0.30573        0.41061        0.46477        0.49504        0.54097        0.54960        0.69427        0.64692        0.67908        0.58984        0.55660        0.65475        0.52834        0.42911        0.38737        0.32075        0.23048        0.26545        0.25278        0.10610        0.08525        0.00123       -0.00688        0.03529       -0.00438        0.07560        0.09522        0.23182        0.28320        0.30506        0.38485        0.56077        0.53873        0.57875        0.67088        0.69757        0.63011        0.63482        0.63418        0.55007        0.57380        0.39461        0.34840        0.26745        0.18551        0.07342        0.14630        0.11944        0.09455        0.10880        0.20945        0.20925        0.31660        0.35823        0.41426        0.49384        0.58194        0.54565        0.55746        0.60787        0.54196        0.46465        0.48096        0.32470        0.25181        0.25651        0.24376        0.14378        0.14727        0.15327        0.22374        0.25013        0.33164        0.36694        0.39249        0.46635        0.44770        0.47680        0.44897        0.47086        0.44534        0.40513        0.37935        0.35631        0.31380        0.28673        0.20673        0.20347        0.22507        0.27093        0.26633        0.34799        0.37676        0.35756        0.41084        0.45735        0.44912        0.42434        0.43937        0.36665        0.33659        0.28259        0.26318        0.28914        0.26762        0.29581        0.30236        0.34911        0.33947        0.40213        0.40292        0.42491        0.41174        0.43258        0.40558        0.36761        0.28542        0.29258        0.30725        0.27889        0.25740        0.33244        0.37324        0.33996        0.35514        0.36267        0.35329        0.40661        0.40109        0.36083        0.34129        0.31121        0.31250        0.31712        0.31319        0.29985        0.28809        0.33892        0.35975        0.37620        0.33518        0.32988        0.33553        0.34606        0.30777        0.28166        0.30754        0.31976        0.33498        0.32312        0.33420        0.35586        0.33283        0.31742        0.33032        0.30260        0.26163        0.25114        0.26571        0.30574        0.32377        0.35319        0.30102        0.31521        0.33686        0.29429        0.32017        0.29331        0.28385        0.29212        0.29858        0.31051        0.34489        0.32273        0.32839        0.33208        0.31927        0.33466        0.31832        0.32138        0.31442        0.28017        0.29233        0.31225        0.29072        0.32760        0.33466        0.33494        0.31826        0.34415        0.32106        0.27659        0.25207        0.27420        0.33148        0.36278        0.35026        0.31697        0.29351        0.29928        0.31540        0.25107        0.29650        0.30182        0.32478        0.29540        0.31286        0.28085        0.33643        0.34427        0.34314        0.32770        0.29675        0.31405        0.39627        0.33429        0.31479        0.30718        0.29821        0.28414        0.29638        0.27400        0.31070        0.23532        0.27586        0.29730        0.31184        0.29711        0.27884        0.29585        0.24056        0.23083        0.26751        0.31010        0.30614        0.29408        0.28475        0.33711        0.25366        0.21922        0.30767        0.26834        0.26172        0.27742        0.38865        0.28928        0.28464        0.25703        0.24710        0.26415        0.24459        0.23431        0.16617        0.24289        0.23424        0.25138        0.31534        0.28261        0.34354        0.29231        0.26599        0.24833        0.21967        0.24137        0.28506        0.22170        0.12868        0.16223        0.24433        0.23377        0.33039        0.29487        0.04549       -0.41408       -0.92330
2.724338 2.695442 2.666703 2.638119 2.609692 2.581420 2.553305 2.525345 2.497542 2.469895 2.442403 2.415068 2.387889 2.360865 2.333998 2.307287 2.280732 2.254333 2.228089 2.202002 2.176071 2.150296 2.124677 2.099214 2.073907 2.048756 2.023761 1.998922 1.974239 1.949712 1.925342 1.901127 1.877068 1.853165 1.829418 1.805828 1.782393 1.759114 1.735992 1.713025 1.690214 1.667560 1.645061 1.622719 1.600532 1.578502 1.556627 1.534909 1.513346 1.491940 1.470690 1.540209 1.841893 1.534231 1.201285 0.949973 0.550501 0.920763 0.641971 0.878911 0.934783 0.597632 0.713598 0.790959 0.830130 0.633824 0.544974 0.353533 0.105356 0.078288 0.044169 0.078208 0.304452 -0.033742 0.083561 -0.134460 -0.013445 -0.015874 0.079821 0.067805 0.101064 0.180388 0.285923 0.250943 0.484066 0.399574 0.551883 0.530932 0.773359 0.792863 0.883804 0.924550 0.942193 0.950234 1.125804 0.942617 1.148977 0.950587 0.854169 1.021623 0.851819 0.763183 0.622860 0.597328 0.457451 0.421828 0.510416 0.265307 0.201272 0.157896 0.009889 0.204609 -0.006672 0.121666 0.175625 0.256418 0.333692 0.348850 0.431781 0.540008 0.668474 0.538708 0.742860 0.860859 0.640556 0.699043 0.669873 0.590100 0.540059 0.461107 0.300931 0.216494 0.117308 -0.043709 -0.016974 0.055024 -0.094982 -0.058699 0.049395 0.050665 0.111485 0.217884 0.240097 0.311978 0.444451 0.452174 0.436189 0.475182 0.455888 0.334946 0.334377 0.244714 0.052844 0.061621 0.016369 -0.043997 -0.096404 -0.095540 -0.013964 -0.046065 0.076317 0.128578 0.119348 0.262846 0.230200 0.244291 0.278588 0.239975 0.235782 0.210893 0.161196 0.110164 0.103879 0.021899 0.005922 -0.116766 -0.049623 0.004254 -0.002023 0.020920 0.096186 0.081887 0.119513 0.213357 0.268701 0.179419 0.187929 0.111467 0.145113 0.025168 -0.033535 0.027115 -0.021358 0.013474 -0.001846 0.042410 0.086871 0.058738 0.166943 0.104295 0.184497 0.080404 0.163733 0.105482 0.008073 -0.046183 -0.003778 -0.018569 -0.053487 -0.056414 0.077056 0.075632 -0.000668 0.096687 0.078632 0.077663 0.157271 0.082775 0.078946 0.067767 -0.007762 0.040427 0.012046 0.023923 0.014994 0.010270 0.058016 0.087470 0.076628 0.044686 0.057841 0.035098 0.073051 0.001530 -0.004944 0.034475 0.029189 0.069155 0.048715 0.067623 0.077070 0.052752 0.025560 0.038758 0.004498 -0.045156 -0.026683 -0.018470 0.028505 0.044745 0.104042 0.004247 0.063075 0.056369 -0.008147 0.068294 0.016766 0.004927 0.033391 0.048453 0.035596 0.088875 0.043067 0.066320 0.073793 0.079317 0.066550 0.070981 0.088663 0.042266 -0.010272 0.052927 0.044018 0.043217 0.077925 0.081435 0.027481 0.060230 0.085800 0.010204 0.003252 -0.061545 -0.014089 0.113285 0.086929 0.067620 0.025452 -0.004143 0.058099 0.024894 -0.061928 0.051333 0.030623 0.060783 0.038571 0.005697 0.043977 0.008968 0.059246 0.030256 0.043110 -0.045622 0.068340 0.114464 0.011111 -0.005565 0.007556 -0.010144 -0.036715 -0.022141 -0.042524 -0.014332 -0.098539 -0.024381 -0.032535 0.011987 -0.028128 -0.063191 0.020735 -0.061518 -0.045673 -0.077648 0.055659 0.011966 0.021048 -0.012721 0.088065 -0.053599 -0.076030 0.047880 -0.028314 0.002666 -0.010799 0.187892 -0.040809 0.018777 0.004076 -0.029732 -0.004695 -0.032437 -0.018791 -0.167231 0.009203 -0.030343 -0.014787 0.053393 0.026880 0.132881 0.033709 0.031121 0.004682 0.013929 -0.029046 0.332251 0.268830 0.161160 0.208997 0.252198 0.312894 0.360259 0.350452 0.055742 -1.088885
0.072396 0.072910 0.074453 0.077024 0.080623 0.085248 0.090899 0.097573 0.105269 0.113983 0.123712 0.134451 0.146195 0.158936 0.172667 0.187378 0.203057 0.219690 0.237262 0.255754 0.275144 0.295409 0.316520 0.338446 0.361152 0.384598 0.408740 0.433529 0.458911 0.484826 0.511208 0.537987 0.565085 0.592418 0.619895 0.647419 0.674884 0.702179 0.729186 0.755777 0.781820 0.807176 0.831696 0.855227 0.877611 0.898681 0.918267 0.936194 0.952284 0.966354 0.978221 0.987701 0.994609 0.998764 0.999985 0.998100 0.992940 0.984346 0.972169 0.956272 0.936535 0.912850 0.885133 0.853319 0.817366 0.777260 0.733014 0.684672 0.632312 0.576046 0.516023 0.452429 0.385493 0.315483 0.242709 0.167524 0.090324 0.011545 0.068335 0.148799 0.229292 0.309225 0.387978 0.464905 0.539337 0.610588 0.677963 0.740762 0.798290 0.849866 0.894826 0.932539 0.962414 0.983909 0.996541 0.999898 0.993649 0.977550 0.951458 0.915338 0.869269 0.813454 0.748222 0.674037 0.591493 0.501324 0.404393 0.301696 0.194351 0.083591 0.029246 0.142731 0.255361 0.365578 0.471788 0.572386 0.665781 0.750420 0.824822 0.887600 0.937495 0.973403 0.994405 0.999790 0.989084 0.962072 0.918811 0.859651 0.785239 0.696528 0.594771 0.481516 0.358587 0.228068 0.092269 0.046306 0.185005 0.321074 0.451710 0.574121 0.685587 0.783527 0.865559 0.929568 0.973769 0.996761 0.997582 0.975754 0.931315 0.864847 0.777481 0.670902 0.547328 0.409476 0.260518 0.104019 0.056146 0.215877 0.370953 0.517146 0.650331 0.766620 0.862471 0.934814 0.981158 0.999693 0.989371 0.949968 0.882134 0.787402 0.668180 0.527714 0.370011 0.199752 0.022155 0.157169 0.332387 0.497641 0.647233 0.775846 0.878728 0.951894 0.992292 0.997953 0.968102 0.903235 0.805147 0.676917 0.522839 0.348303 0.159625 0.036165 0.231564 0.418897 0.590603 0.739558 0.859378 0.944715 0.991514 0.997237 0.961021 0.883777 0.768215 0.618780 0.441526 0.243892 0.034418 0.177612 0.382569 0.570918 0.733666 0.862814 0.951769 0.995709 0.991879 0.939794 0.841342 0.700760 0.524504 0.320988 0.100211 0.126704 0.348059 0.552188 0.728072 0.865954 0.957911 0.998344 0.984360 0.916013 0.796401 0.631574 0.430289 0.203578 0.035812 0.274128 0.497382 0.692180 0.846546 0.950689 0.997667 0.983892 0.909461 0.778248 0.597777 0.378844 0.134926 0.118622 0.365503 0.589529 0.775692 0.911196 0.986382 0.995471 0.937065 0.814367 0.635083 0.411007 0.157319 0.108428 0.367474 0.601177 0.792369 0.926658 0.993555 0.987353 0.907693 0.759719 0.553851 0.305107 0.032084 0.244405 0.502884 0.722898 0.886662 0.980540 0.996257 0.931700 0.791251 0.585588 0.330967 0.048003 0.239954 0.508713 0.735289 0.899893 0.987731 0.990398 0.906779 0.743318 0.513647 0.237516 0.060810 0.354643 0.617254 0.824316 0.956212 0.999961 0.950601 0.811837 0.595903 0.322579 0.017486 0.290275 0.570853 0.796573 0.944706 0.999838 0.955577 0.815405 0.592539 0.308827 0.007322 0.323700 0.607555 0.829020 0.964293 0.998295 0.926470 0.755502 0.502845 0.195066 0.134860 0.451011 0.718438 0.907059 0.995120 0.971830 0.838808 0.610171 0.311175 0.024446 0.358219 0.651304 0.869047 0.985155 0.984984 0.867530 0.645835 0.345703 0.002829 0.341360 0.644666 0.869328 0.986799 0.981501 0.853048 0.616601 0.301251 0.053414 0.402195 0.700016 0.907779 0.997602 0.956707 0.789405 0.516853 0.174581 0.192048 0.533732 0.803884 0.965045 0.994210
1.000000 1.000000 1.000000 1.000000 1.000000 1.000000 1.000000 1.000000 1.000000 1.000000 1.000000 1.000000 1.000000 1.000000 1.000000 1.000000 1.000000 1.000000 1.000000 1.000000 1.000000 1.000000 1.000000 1.000000 1.000000 1.000000 1.000000 1.000000 1.000000 1.000000 1.000000 1.000000 1.000000 1.000000 1.000000 1.000000 1.000000 1.000000 1.000000 1.000000 1.000000 1.000000 1.000000 1.000000 1.000000 1.000000 1.000000 1.000000 1.000000 1.000000 1.000000 1.000000 0.919236 0.919236 0.906614 0.906614 0.906614 0.906614 0.906614 0.906614 0.906614 0.906614 0.906614 0.906614 0.906614 0.906614 0.906614 0.906614 0.906614 0.906614 0.906614 0.906614 0.906614 0.906614 0.906614 0.906614 0.906614 0.906614 0.906614 0.906614 0.906614 0.906614 0.906614 0.906614 0.906614 0.906614 0.906614 0.906614 0.906614 0.906614 0.906614 0.906614 0.906614 0.906614 0.906614 0.902562 0.907559 0.909523 0.908102 0.911568 0.911611 0.910913 0.911295 0.910987 0.911346 0.912727 0.923158 0.934089 0.945238 0.945731 0.950905 0.955239 0.957779 0.958605 0.960297 0.970618 0.968045 0.967627 0.968268 0.969575 0.971589 0.970448 0.969818 0.973046 0.973628 0.972166 0.969756 0.969161 0.967835 0.967183 0.966841 0.966718 0.966572 0.967096 0.967290 0.967399 0.967546 0.967610 0.968612 0.969763 0.972282 0.973332 0.973242 0.972219 0.967211 0.970719 0.971783 0.971211 0.971217 0.970859 0.971124 0.954139 0.951553 0.951452 0.947803 0.946620 0.943648 0.941884 0.940740 0.941551 0.940419 0.940300 0.937460 0.923957 0.910413 0.898434 0.918460 0.903339 0.891321 0.866390 0.866996 0.860160 0.860581 0.852707 0.846362 0.841712 0.839111 0.841167 0.839703 0.843949 0.840765 0.824781 0.828434 0.824758 0.791567 0.777071 0.761958 0.759977 0.756914 0.758006 0.758824 0.752613 0.761522 0.754290 0.752124 0.742061 0.719875 0.686442 0.674012 0.685474 0.695529 0.694237 0.690167 0.674114 0.641319 0.655147 0.683543 0.679036 0.680509 0.675182 0.668051 0.676283 0.677020 0.674153 0.668140 0.667509 0.667369 0.678010 0.681497 0.673883 0.665913 0.652031 0.641324 0.630946 0.645375 0.653155 0.622023 0.615337 0.609913 0.604793 0.592316 0.564105 0.563717 0.542198 0.529318 0.530428 0.533158 0.535590 0.546613 0.546161 0.522144 0.546389 0.546000 0.577413 0.552452 0.549756 0.551223 0.561507 0.541911 0.526285 0.517930 0.519338 0.535545 0.569968 0.610894 0.603618 0.591627 0.585849 0.596983 0.580194 0.588859 0.606631 0.584346 0.510486 0.468104 0.464864 0.433898 0.426827 0.414328 0.393273 0.372722 0.372585 0.367068 0.352374 0.342699 0.284698 0.250515 0.232590 0.214710 0.219895 0.234699 0.225657 0.222960 0.255875 0.303527 0.301427 0.291054 0.284648 0.287789 0.289812 0.250178 0.250689 0.214735 0.204324 0.234745 0.180423 0.185336 0.129368 0.121545 0.134847 0.163675 0.175988 0.129381 0.118092 0.142212 0.160235 0.153426 0.144871 0.098583 0.068728 0.056271 0.068830 0.054432 0.017455 0.030426 0.038077 0.023032 0.010224 0.022987 0.017883 0.025304 0.012825 0.012282 0.055855 0.082557 0.071588 0.075014 0.093767 0.088934 0.069618 0.061714 0.050310 0.043685 -0.009103 -0.034636 -0.034636 -0.030621 -0.030621 -0.030621 -0.030621 -0.030621 -0.030621 -0.030621 -0.030621 -0.030621 -0.031515 -0.031515 -0.031515 -0.031515 -0.031515 -0.031515 -0.031515 -0.031515 -0.031515 -0.009681 -0.009681 -0.009681 -0.009681 -0.009681 -0.009681 -0.009681 -0.009681 -0.009681
0.000000 0.000000 0.000000 0.000000 0.000000 0.000000 0.000000 0.000000 0.000000 0.000000 0.000000 0.000000 0.000000 0.000000 0.000000 0.000000 0.000000 0.000000 0.000000 0.000000 0.000000 0.000000 0.000000 0.000000 0.000000 7.000000 4.000000 0.000000 0.000000 0.000000 0.000000 0.000000 0.000000 0.000000 0.000000 0.000000 0.000000 0.000000 0.000000 0.000000 0.000000 0.000000 0.000000 0.000000 0.000000 0.000000 0.000000 0.000000 0.000000 0.000000 0.000000 0.000000 0.181818 0.181818 0.199007 0.199007 0.199007 0.199007 0.199007 0.199007 0.199007 0.199007 0.199007 0.199007 0.199007 0.199007 0.199007 0.199007 0.199007 0.199007 0.199007 0.199007 0.199007 0.199007 0.199007 0.199007 0.199007 0.199007 0.199007 0.199007 0.199007 0.199007 0.199007 0.199007 0.199007 0.199007 0.199007 0.199007 0.199007 0.199007 0.199007 0.199007 0.199007 0.199007 0.199007 0.230940 0.230940 0.230940 0.230940 0.230940 0.230940 0.230940 0.230940 0.230940 0.230940 0.230940 0.230940 0.230940 0.230940 0.230940 0.230940 0.230940 0.230940 0.230940 0.230940 0.230940 0.230940 0.230940 0.230940 0.230940 0.230940 0.230940 0.230940 0.244339 0.244339 0.244339 0.244339 0.244339 0.244339 0.244339 0.244339 0.244339 0.244339 0.244339 0.244339 0.244339 0.244339 0.244339 0.244339 0.244339 0.244339 0.244339 0.244339 0.244339 0.244339 0.244339 0.251976 0.251976 0.251976 0.251976 0.251976 0.251976 0.251976 0.251976 0.251976 0.251976 0.251976 0.251976 0.251976 0.251976 0.251976 0.251976 0.251976 0.251976 0.251976 0.251976 0.264906 0.264906 0.264906 0.264906 0.264906 0.264906 0.264906 0.264906 0.264906 0.264906 0.264906 0.264906 0.264906 0.264906 0.264906 0.264906 0.264906 0.264906 0.264906 0.264906 0.264906 0.264906 0.264906 0.264906 0.264906 0.264906 0.264906 0.264906 0.264906 0.264906 0.264906 0.264906 0.264906 0.264906 0.264906 0.264906 0.264906 0.264906 0.264906 0.264906 0.264906 0.264906 0.264906 0.264906 0.264906 0.264906 0.264906 0.264906 0.264906 0.264906 0.264906 0.264906 0.264906 0.264906 0.264906 0.264906 0.264906 0.264906 0.264906 0.264906 0.264906 0.264906 0.264906 0.264906 0.264906 0.264906 0.264906 0.264906 0.264906 0.264906 0.264906 0.264906 0.264906 0.264906 0.264906 0.269680 0.269680 0.269680 0.269680 0.269680 0.269680 0.269680 0.269680 0.269680 0.269680 0.269680 0.269680 0.264906 0.264906 0.264906 0.264906 0.264906 0.264906 0.264906 0.264906 0.264906 0.264906 0.264906 0.264906 0.269680 0.269680 0.269680 0.269680 0.269680 0.269680 0.269680 0.269680 0.269680 0.269680 0.269680 0.264906 0.264906 0.264906 0.264906 0.264906 0.264906 0.264906 0.264906 0.264906 0.264906 0.264906 0.269680 0.269680 0.269680 0.269680 0.269680 0.269680 0.269680 0.269680 0.269680 0.269680 0.251976 0.251976 0.251976 0.251976 0.251976 0.251976 0.251976 0.251976 0.251976 0.251976 0.251976 0.269680 0.269680 0.269680 0.269680 0.269680 0.269680 0.269680 0.269680 0.269680 0.256074 0.256074 0.256074 0.256074 0.256074 0.256074 0.256074 0.256074 0.256074 0.256074 0.260378 0.260378 0.260378 0.260378 0.260378 0.260378 0.260378 0.260378 0.260378 0.256074 0.256074 0.256074 0.256074 0.256074 0.256074 0.256074 0.256074 0.256074 0.251976 0.251976 0.251976 0.251976 0.251976 0.251976 0.251976 0.251976 0.251976 0.264906 0.264906 0.264906 0.264906 0.264906 0.264906 0.264906 0.264906 0.264906
