# Output from CTFFind version 4.1.9, run on 2019-11-01 22:41:37
# Input file: first_bm3d_averaged_1_0.7_1.00_250_half.mrc ; Number of micrographs: 1
# Pixel size: 3.000 Angstroms ; acceleration voltage: 300.0 keV ; spherical aberration: 0.00 mm ; amplitude contrast: 0.07
# Box size: 512 pixels ; min. res.: 30.0 Angstroms ; max. res.: 5.0 Angstroms ; min. def.: 5000.0 um; max. def. 50000.0 um; num. frames averaged: 1
# 6 lines per micrograph: #1 - spatial frequency (1/Angstroms); #2 - 1D rotational average of spectrum (assuming no astigmatism); #3 - 1D rotational average of spectrum; #4 - CTF fit; #5 - cross-correlation between spectrum and CTF fit; #6 - 2sigma of expected cross correlation of noise
0.000000 0.000651 0.001302 0.001953 0.002604 0.003255 0.003906 0.004557 0.005208 0.005859 0.006510 0.007161 0.007812 0.008464 0.009115 0.009766 0.010417 0.011068 0.011719 0.012370 0.013021 0.013672 0.014323 0.014974 0.015625 0.016276 0.016927 0.017578 0.018229 0.018880 0.019531 0.020182 0.020833 0.021484 0.022135 0.022786 0.023438 0.024089 0.024740 0.025391 0.026042 0.026693 0.027344 0.027995 0.028646 0.029297 0.029948 0.030599 0.031250 0.031901 0.032552 0.033203 0.033854 0.034505 0.035156 0.035807 0.036458 0.037109 0.037760 0.038411 0.039062 0.039714 0.040365 0.041016 0.041667 0.042318 0.042969 0.043620 0.044271 0.044922 0.045573 0.046224 0.046875 0.047526 0.048177 0.048828 0.049479 0.050130 0.050781 0.051432 0.052083 0.052734 0.053385 0.054036 0.054688 0.055339 0.055990 0.056641 0.057292 0.057943 0.058594 0.059245 0.059896 0.060547 0.061198 0.061849 0.062500 0.063151 0.063802 0.064453 0.065104 0.065755 0.066406 0.067057 0.067708 0.068359 0.069010 0.069661 0.070312 0.070964 0.071615 0.072266 0.072917 0.073568 0.074219 0.074870 0.075521 0.076172 0.076823 0.077474 0.078125 0.078776 0.079427 0.080078 0.080729 0.081380 0.082031 0.082682 0.083333 0.083984 0.084635 0.085286 0.085938 0.086589 0.087240 0.087891 0.088542 0.089193 0.089844 0.090495 0.091146 0.091797 0.092448 0.093099 0.093750 0.094401 0.095052 0.095703 0.096354 0.097005 0.097656 0.098307 0.098958 0.099609 0.100260 0.100911 0.101562 0.102214 0.102865 0.103516 0.104167 0.104818 0.105469 0.106120 0.106771 0.107422 0.108073 0.108724 0.109375 0.110026 0.110677 0.111328 0.111979 0.112630 0.113281 0.113932 0.114583 0.115234 0.115885 0.116536 0.117188 0.117839 0.118490 0.119141 0.119792 0.120443 0.121094 0.121745 0.122396 0.123047 0.123698 0.124349 0.125000 0.125651 0.126302 0.126953 0.127604 0.128255 0.128906 0.129557 0.130208 0.130859 0.131510 0.132161 0.132812 0.133464 0.134115 0.134766 0.135417 0.136068 0.136719 0.137370 0.138021 0.138672 0.139323 0.139974 0.140625 0.141276 0.141927 0.142578 0.143229 0.143880 0.144531 0.145182 0.145833 0.146484 0.147135 0.147786 0.148438 0.149089 0.149740 0.150391 0.151042 0.151693 0.152344 0.152995 0.153646 0.154297 0.154948 0.155599 0.156250 0.156901 0.157552 0.158203 0.158854 0.159505 0.160156 0.160807 0.161458 0.162109 0.162760 0.163411 0.164062 0.164714 0.165365 0.166016 0.166667 0.167318 0.167969 0.168620 0.169271 0.169922 0.170573 0.171224 0.171875 0.172526 0.173177 0.173828 0.174479 0.175130 0.175781 0.176432 0.177083 0.177734 0.178385 0.179036 0.179688 0.180339 0.180990 0.181641 0.182292 0.182943 0.183594 0.184245 0.184896 0.185547 0.186198 0.186849 0.187500 0.188151 0.188802 0.189453 0.190104 0.190755 0.191406 0.192057 0.192708 0.193359 0.194010 0.194661 0.195312 0.195964 0.196615 0.197266 0.197917 0.198568 0.199219 0.199870 0.200521 0.201172 0.201823 0.202474 0.203125 0.203776 0.204427 0.205078 0.205729 0.206380 0.207031 0.207682 0.208333 0.208984 0.209635 0.210286 0.210938 0.211589 0.212240 0.212891 0.213542 0.214193 0.214844 0.215495 0.216146 0.216797 0.217448 0.218099 0.218750 0.219401 0.220052 0.220703 0.221354 0.222005 0.222656 0.223307 0.223958 0.224609 0.225260 0.225911 0.226562 0.227214 0.227865 0.228516 0.229167 0.229818 0.230469 0.231120 0.231771 0.232422 0.233073 0.233724 0.234375 0.235026 0.235677
       0.33317        0.33317        0.33317        0.33317        0.33317        0.33317        0.33317        0.33317        0.33317        0.33317        0.33317        0.33317        0.33317        0.33317        0.33317        0.33317        0.33317        0.33317        0.33317        0.33317        0.33317        0.33317        0.33317        0.33317        0.33317        0.33317        0.33317        0.33317        0.33317        0.33317        0.33317        0.33317        0.33317        0.33317        0.33317        0.33316        0.33317        0.33317        0.33317        0.33317        0.33317        0.33316        0.33317        0.33317        0.33317        0.33317        0.33317        0.33317        0.33317        0.33317        0.33317        0.50324        0.71962        0.43067        0.18901       -0.08167       -0.25926       -0.06667       -0.13371       -0.04972       -0.00402       -0.14734       -0.08980       -0.05618       -0.00512       -0.15358       -0.22214       -0.34784       -0.45965       -0.55279       -0.51219       -0.44310       -0.36907       -0.54315       -0.45044       -0.62065       -0.50297       -0.47314       -0.38832       -0.38806       -0.34004       -0.25266       -0.15939       -0.13873        0.03273       -0.01245        0.12079        0.16478        0.30678        0.41174        0.46203        0.50133        0.54288        0.55152        0.68865        0.64406        0.67634        0.59012        0.55458        0.65272        0.52807        0.42488        0.38084        0.32192        0.23104        0.26128        0.25206        0.10687        0.08143        0.00057       -0.00252        0.04259       -0.00759        0.07415        0.10576        0.23345        0.28626        0.30059        0.37877        0.56285        0.53224        0.58030        0.66790        0.70388        0.63017        0.64039        0.63262        0.55931        0.57524        0.40242        0.34525        0.26490        0.18323        0.07471        0.14372        0.11974        0.09249        0.10448        0.20780        0.21466        0.31785        0.36249        0.41207        0.49516        0.58302        0.54319        0.55784        0.60578        0.53594        0.46086        0.48457        0.32989        0.24687        0.26073        0.24002        0.14235        0.14434        0.15463        0.21873        0.23975        0.33225        0.36657        0.39017        0.46781        0.44516        0.48295        0.45269        0.46830        0.44959        0.40970        0.38627        0.35150        0.31357        0.29384        0.20477        0.19093        0.21816        0.26818        0.26844        0.35060        0.37520        0.35959        0.41293        0.44783        0.44254        0.42526        0.44467        0.38339        0.33595        0.28304        0.25863        0.29387        0.26822        0.29440        0.30073        0.34456        0.34351        0.39409        0.40646        0.43034        0.40833        0.43483        0.40231        0.35789        0.28196        0.29206        0.30893        0.27031        0.25258        0.32233        0.37081        0.34150        0.35128        0.36095        0.35950        0.41074        0.40698        0.36583        0.33831        0.30505        0.31265        0.31916        0.32014        0.30112        0.28121        0.33721        0.36239        0.38058        0.33396        0.32872        0.33769        0.34648        0.30916        0.28388        0.30247        0.30920        0.33943        0.31824        0.32612        0.35963        0.32741        0.31439        0.32629        0.30113        0.26556        0.25732        0.26684        0.30893        0.32179        0.35284        0.30210        0.30871        0.32970        0.29592        0.31479        0.28487        0.28591        0.29432        0.29390        0.30664        0.34626        0.33450        0.33245        0.34339        0.31619        0.33904        0.31994        0.31815        0.30810        0.28218        0.29234        0.30817        0.29480        0.32634        0.33350        0.33347        0.32893        0.34561        0.32266        0.28072        0.24916        0.26676        0.32973        0.35351        0.33861        0.31082        0.29087        0.29344        0.30966        0.25165        0.30091        0.31112        0.34111        0.30102        0.31027        0.28670        0.33719        0.33841        0.34031        0.31160        0.29003        0.31864        0.40012        0.32320        0.31135        0.31919        0.28452        0.28293        0.30734        0.27445        0.32524        0.23272        0.26913        0.29753        0.31183        0.29749        0.26240        0.29210        0.24387        0.22323        0.26356        0.29683        0.30925        0.27630        0.28206        0.33200        0.25938        0.22309        0.30219        0.27109        0.26179        0.28514        0.38539        0.29475        0.28882        0.25341        0.24429        0.27381        0.25865        0.23991        0.17839        0.26708        0.23342        0.24347        0.31829        0.25627        0.36188        0.31309        0.23524        0.21849        0.21163        0.23712        0.32417        0.23474        0.13350        0.17693        0.23529        0.24567        0.25091        0.20686        0.01428       -0.46311       -0.95252
2.718245 2.689511 2.660931 2.632506 2.604235 2.576118 2.548155 2.520346 2.492692 2.465192 2.437846 2.410654 2.383616 2.356733 2.330004 2.303429 2.277008 2.250741 2.224629 2.198671 2.172867 2.147217 2.121721 2.096380 2.071193 2.046160 2.021281 1.996556 1.971986 1.947570 1.923308 1.899200 1.875246 1.851447 1.827802 1.804311 1.780974 1.757791 1.734763 1.711889 1.689169 1.666603 1.644191 1.621934 1.599831 1.577882 1.556087 1.534446 1.512960 1.491628 1.470450 1.541848 1.846739 1.541714 1.167332 0.945266 0.549811 0.920912 0.635450 0.884678 0.931552 0.593060 0.718912 0.777723 0.822542 0.632303 0.537836 0.346541 0.103497 0.081757 0.047854 0.087407 0.305208 -0.037376 0.080776 -0.139174 -0.016741 -0.018179 0.084220 0.051648 0.101155 0.172194 0.282681 0.248193 0.483928 0.397882 0.554285 0.525943 0.772106 0.799294 0.884155 0.932107 0.949781 0.953823 1.111467 0.957530 1.149577 0.949549 0.858111 1.021591 0.854810 0.760392 0.619149 0.596363 0.464976 0.415015 0.512777 0.266882 0.193966 0.153360 0.014272 0.217522 -0.007759 0.113359 0.187161 0.261523 0.336886 0.345237 0.426177 0.547459 0.659783 0.545442 0.748265 0.863751 0.644768 0.705134 0.673843 0.601998 0.539656 0.473377 0.300568 0.214141 0.113651 -0.045009 -0.020930 0.055441 -0.102437 -0.059346 0.045774 0.050218 0.111307 0.224686 0.238570 0.313953 0.438446 0.441030 0.440979 0.485588 0.444614 0.321946 0.339696 0.248493 0.042481 0.061445 0.020373 -0.061904 -0.095457 -0.106331 -0.015267 -0.065371 0.066964 0.127226 0.123370 0.254984 0.224478 0.244925 0.289089 0.256812 0.245312 0.210564 0.181188 0.106532 0.101251 0.031463 0.011996 -0.129130 -0.060963 -0.003150 0.002020 0.016636 0.097333 0.084633 0.137859 0.177291 0.248634 0.168001 0.191636 0.114603 0.149594 0.012436 -0.032647 0.015944 -0.019150 -0.009312 -0.005005 0.031110 0.073086 0.055733 0.144213 0.118630 0.159857 0.066182 0.150652 0.085254 -0.015805 -0.059908 -0.016522 -0.033601 -0.083033 -0.068073 0.042106 0.066351 -0.012741 0.053040 0.060206 0.072993 0.147011 0.076022 0.064664 0.038765 -0.028130 0.027705 0.004594 0.013097 0.002224 -0.014558 0.035591 0.071692 0.074285 0.028857 0.044960 0.022406 0.064824 -0.012047 -0.018632 0.014502 0.007830 0.064323 0.029504 0.038385 0.077535 0.026463 0.015298 0.032376 -0.002965 -0.041805 -0.027322 -0.027739 0.026706 0.044461 0.095735 -0.000215 0.051292 0.063655 -0.002698 0.066247 0.016055 0.020926 0.047157 0.046965 0.046209 0.106392 0.068617 0.078347 0.097762 0.077607 0.076081 0.068673 0.083925 0.033772 0.001365 0.046150 0.037741 0.062373 0.065990 0.093155 -0.000207 0.072392 0.076368 0.009401 0.011969 -0.076529 -0.024644 0.104502 0.069317 0.039031 0.030990 -0.023215 0.032868 0.015142 -0.063985 0.043232 0.044908 0.073263 0.032004 0.003180 0.000806 0.058470 0.043800 0.022898 0.030642 -0.036087 0.069039 0.121245 0.008177 -0.004916 0.014994 -0.015455 -0.033219 -0.006392 -0.048496 0.021394 -0.103195 -0.026712 -0.027410 0.020907 -0.029905 -0.028918 -0.012030 -0.066044 -0.059447 -0.058696 0.040326 0.017124 0.007290 -0.001149 0.094055 -0.050072 -0.036292 0.040461 -0.008217 0.028892 0.013766 0.189639 -0.002838 0.020877 0.028840 -0.023759 0.004887 0.002821 -0.013571 -0.147210 0.032021 -0.030220 0.011039 0.023259 -0.024683 0.160112 0.047570 -0.024560 -0.054176 -0.026118 -0.070020 0.092728 0.283876 0.159418 0.227343 0.225801 0.340758 0.286368 0.247975 0.019469 -1.128982
0.072396 0.072910 0.074451 0.077019 0.080613 0.085232 0.090876 0.097542 0.105228 0.113931 0.123648 0.134374 0.146103 0.158828 0.172543 0.187235 0.202895 0.219508 0.237059 0.255529 0.274896 0.295137 0.316224 0.338125 0.360806 0.384226 0.408342 0.433105 0.458461 0.484351 0.510709 0.537465 0.564541 0.591852 0.619310 0.646816 0.674267 0.701550 0.728548 0.755134 0.781177 0.806535 0.831064 0.854609 0.877012 0.898108 0.917726 0.935693 0.951829 0.965955 0.977885 0.987437 0.994427 0.998672 0.999994 0.998218 0.993178 0.984713 0.972675 0.956927 0.937346 0.913827 0.886284 0.854651 0.818885 0.778971 0.734922 0.686779 0.634619 0.578553 0.518727 0.455325 0.388575 0.318742 0.246133 0.171099 0.094033 0.015368 0.064420 0.144818 0.225273 0.305198 0.383978 0.460967 0.535500 0.606891 0.674449 0.737474 0.795273 0.847163 0.892482 0.930598 0.960917 0.982897 0.996051 0.999964 0.994300 0.978810 0.953346 0.917864 0.872438 0.817262 0.752656 0.679074 0.597103 0.507463 0.411009 0.308727 0.201723 0.091223 0.021445 0.134862 0.247532 0.357901 0.464382 0.565372 0.659281 0.744557 0.819712 0.883357 0.934223 0.971197 0.993345 0.999942 0.990497 0.964772 0.922804 0.864918 0.791737 0.704187 0.603496 0.491184 0.369053 0.239159 0.103793 0.034563 0.173272 0.309588 0.440720 0.563875 0.676332 0.775497 0.858974 0.924626 0.970639 0.995579 0.998443 0.978709 0.936367 0.871945 0.786524 0.681733 0.559735 0.423200 0.275252 0.119414 0.040471 0.200330 0.355956 0.503124 0.637703 0.755781 0.853783 0.928592 0.977660 0.999105 0.991798 0.955431 0.890560 0.798621 0.681929 0.543636 0.387666 0.218625 0.041669 0.137636 0.313482 0.480017 0.631525 0.762645 0.868564 0.945208 0.989419 0.999101 0.973341 0.912485 0.818177 0.693342 0.542131 0.369802 0.182558 0.012647 0.208375 0.396968 0.570846 0.722833 0.846448 0.936214 0.987911 0.998808 0.967831 0.895666 0.784791 0.639434 0.465443 0.270080 0.061750 0.150356 0.356647 0.547569 0.714048 0.847948 0.942479 0.992576 0.995202 0.949562 0.857220 0.722097 0.550346 0.350120 0.131212 0.095404 0.318095 0.525173 0.705514 0.849168 0.947939 0.995883 0.989711 0.929052 0.816564 0.657874 0.461354 0.237723 0.000511 0.239714 0.465910 0.665591 0.826541 0.938623 0.994443 0.989896 0.924511 0.801589 0.628105 0.414373 0.173481 0.079477 0.328310 0.556774 0.749634 0.893711 0.978822 0.998546 0.950776 0.837979 0.667149 0.449453 0.199550 0.065340 0.326594 0.565503 0.764598 0.908977 0.987459 0.993518 0.925887 0.788798 0.591806 0.349195 0.079015 0.198225 0.461088 0.688868 0.863245 0.969805 0.999300 0.948524 0.820730 0.625524 0.378231 0.098779 0.189878 0.463589 0.699058 0.875827 0.978124 0.996341 0.928021 0.778252 0.559398 0.290177 0.005862 0.302362 0.572464 0.791265 0.938160 0.998844 0.966809 0.844132 0.641480 0.377300 0.076224 0.233144 0.520936 0.758897 0.923196 0.996901 0.971810 0.849479 0.641292 0.367510 0.055421 0.263320 0.555861 0.791567 0.945253 0.999980 0.949026 0.796836 0.558785 0.259755 0.068358 0.389991 0.669743 0.876303 0.986028 0.985759 0.874529 0.663939 0.377091 0.046183 0.291008 0.595425 0.831240 0.970165 0.994933 0.901598 0.700280 0.414229 0.077295 0.269989 0.585228 0.829368 0.971581 0.993292 0.890752 0.675810 0.374724 0.025103 0.328692 0.641131 0.871403 0.988827 0.977080 0.836629 0.585014 0.254822 0.110374 0.461684 0.751428 0.939640 0.999732
1.000000 1.000000 1.000000 1.000000 1.000000 1.000000 1.000000 1.000000 1.000000 1.000000 1.000000 1.000000 1.000000 1.000000 1.000000 1.000000 1.000000 1.000000 1.000000 1.000000 1.000000 1.000000 1.000000 1.000000 1.000000 1.000000 1.000000 1.000000 1.000000 1.000000 1.000000 1.000000 1.000000 1.000000 1.000000 1.000000 1.000000 1.000000 1.000000 1.000000 1.000000 1.000000 1.000000 1.000000 1.000000 1.000000 1.000000 1.000000 1.000000 1.000000 1.000000 1.000000 0.920659 0.920659 0.907349 0.907349 0.907349 0.907349 0.907349 0.907349 0.907349 0.907349 0.907349 0.907349 0.907349 0.907349 0.907349 0.907349 0.907349 0.907349 0.907349 0.907349 0.907349 0.907349 0.907349 0.907349 0.907349 0.907349 0.907349 0.907349 0.907349 0.907349 0.907349 0.907349 0.907349 0.907349 0.907349 0.907349 0.907349 0.907349 0.907349 0.907349 0.907349 0.907349 0.907349 0.904453 0.909020 0.910839 0.909103 0.912648 0.912732 0.912042 0.912386 0.912024 0.912310 0.913661 0.924197 0.935269 0.946594 0.946691 0.951770 0.956236 0.958591 0.959617 0.961207 0.967514 0.966284 0.965738 0.966451 0.968031 0.970261 0.968837 0.968622 0.971751 0.972475 0.970720 0.968661 0.968040 0.967418 0.967497 0.967089 0.966983 0.966880 0.967379 0.967599 0.967810 0.967949 0.967984 0.969007 0.970162 0.972413 0.973375 0.973160 0.971970 0.969925 0.973966 0.974792 0.974456 0.974354 0.973823 0.974125 0.963346 0.957912 0.957857 0.954298 0.953555 0.951475 0.949008 0.946162 0.946125 0.945163 0.945715 0.941291 0.929043 0.915500 0.903976 0.925379 0.910404 0.898431 0.876053 0.876425 0.876065 0.876679 0.870562 0.863912 0.859946 0.857050 0.858267 0.854132 0.856436 0.853737 0.843107 0.845449 0.843643 0.815675 0.798868 0.781748 0.781934 0.779614 0.780882 0.780581 0.779398 0.787515 0.778164 0.776851 0.769179 0.750120 0.712951 0.696098 0.706087 0.715568 0.711662 0.707833 0.692437 0.660313 0.672977 0.693772 0.696213 0.699198 0.690974 0.682163 0.679853 0.683936 0.673710 0.664731 0.664048 0.662642 0.672854 0.676872 0.674509 0.663731 0.648089 0.635042 0.621295 0.632385 0.638536 0.605022 0.598772 0.583073 0.574984 0.560497 0.544295 0.542799 0.517630 0.509138 0.514600 0.521261 0.518390 0.525329 0.526983 0.513444 0.531078 0.541183 0.565252 0.550224 0.549676 0.551274 0.555868 0.544363 0.529249 0.527825 0.528543 0.538671 0.562292 0.599938 0.586176 0.571977 0.559698 0.570558 0.540359 0.545255 0.566418 0.543109 0.481803 0.419056 0.416676 0.375396 0.375193 0.353705 0.349975 0.355981 0.347900 0.339392 0.326355 0.313236 0.249117 0.206386 0.192133 0.178611 0.182003 0.198832 0.197973 0.193954 0.208724 0.257314 0.259513 0.251430 0.248980 0.237293 0.205078 0.201198 0.225945 0.178996 0.166728 0.159712 0.133282 0.129007 0.080065 0.109009 0.014447 -0.012012 -0.017180 0.001867 0.015940 0.013716 0.017397 -0.014916 0.001030 0.041019 0.044437 0.030492 -0.040472 -0.025141 -0.015319 -0.014244 -0.029698 -0.050180 -0.050442 -0.061376 -0.065025 -0.049280 0.017557 0.071894 0.073820 0.051911 0.081183 0.076928 0.061109 0.073291 0.054459 0.053844 0.032786 0.025460 -0.019583 -0.050597 -0.050597 -0.048674 -0.048674 -0.048674 -0.048674 -0.048674 -0.048674 -0.048674 -0.048674 -0.048674 -0.051086 -0.051086 -0.051086 -0.051086 -0.051086 -0.051086 -0.051086 -0.051086 -0.051086 -0.021884 -0.021884 -0.021884 -0.021884 -0.021884 -0.021884 -0.021884 -0.021884 -0.021884
0.000000 0.000000 0.000000 0.000000 0.000000 0.000000 0.000000 0.000000 0.000000 0.000000 0.000000 0.000000 0.000000 0.000000 0.000000 0.000000 0.000000 0.000000 0.000000 0.000000 0.000000 0.000000 0.000000 0.000000 0.000000 0.000000 0.000000 0.000000 0.000000 0.000000 0.000000 0.000000 0.000000 0.000000 0.000000 0.000000 0.000000 0.000000 0.000000 0.000000 0.000000 0.000000 0.000000 0.000000 0.000000 0.000000 0.000000 0.000000 0.000000 0.000000 0.000000 0.000000 0.181818 0.181818 0.199007 0.199007 0.199007 0.199007 0.199007 0.199007 0.199007 0.199007 0.199007 0.199007 0.199007 0.199007 0.199007 0.199007 0.199007 0.199007 0.199007 0.199007 0.199007 0.199007 0.199007 0.199007 0.199007 0.199007 0.199007 0.199007 0.199007 0.199007 0.199007 0.199007 0.199007 0.199007 0.199007 0.199007 0.199007 0.199007 0.199007 0.199007 0.199007 0.199007 0.199007 0.230940 0.230940 0.230940 0.230940 0.230940 0.230940 0.230940 0.230940 0.230940 0.230940 0.230940 0.230940 0.230940 0.230940 0.230940 0.230940 0.230940 0.230940 0.230940 0.230940 0.230940 0.230940 0.230940 0.230940 0.230940 0.230940 0.230940 0.230940 0.244339 0.244339 0.244339 0.244339 0.244339 0.244339 0.244339 0.244339 0.244339 0.244339 0.244339 0.244339 0.244339 0.244339 0.244339 0.244339 0.244339 0.244339 0.244339 0.244339 0.244339 0.244339 0.244339 0.251976 0.251976 0.251976 0.251976 0.251976 0.251976 0.251976 0.251976 0.251976 0.251976 0.251976 0.251976 0.251976 0.251976 0.251976 0.251976 0.251976 0.251976 0.251976 0.251976 0.264906 0.264906 0.264906 0.264906 0.264906 0.264906 0.264906 0.264906 0.264906 0.264906 0.264906 0.264906 0.264906 0.264906 0.264906 0.264906 0.264906 0.264906 0.264906 0.264906 0.264906 0.264906 0.264906 0.264906 0.264906 0.264906 0.264906 0.264906 0.264906 0.264906 0.264906 0.264906 0.264906 0.264906 0.264906 0.264906 0.264906 0.264906 0.264906 0.264906 0.264906 0.264906 0.264906 0.264906 0.264906 0.264906 0.264906 0.264906 0.264906 0.264906 0.264906 0.264906 0.264906 0.264906 0.264906 0.264906 0.264906 0.264906 0.264906 0.264906 0.264906 0.264906 0.264906 0.264906 0.264906 0.264906 0.264906 0.264906 0.264906 0.264906 0.264906 0.264906 0.264906 0.264906 0.264906 0.269680 0.269680 0.269680 0.269680 0.269680 0.269680 0.269680 0.269680 0.269680 0.269680 0.269680 0.269680 0.264906 0.264906 0.264906 0.264906 0.264906 0.264906 0.264906 0.264906 0.264906 0.264906 0.264906 0.264906 0.269680 0.269680 0.269680 0.269680 0.269680 0.269680 0.269680 0.269680 0.269680 0.269680 0.269680 0.264906 0.264906 0.264906 0.264906 0.264906 0.264906 0.264906 0.264906 0.264906 0.264906 0.264906 0.256074 0.256074 0.256074 0.256074 0.256074 0.256074 0.256074 0.256074 0.256074 0.256074 0.256074 0.264906 0.264906 0.264906 0.264906 0.264906 0.264906 0.264906 0.264906 0.264906 0.264906 0.260378 0.260378 0.260378 0.260378 0.260378 0.260378 0.260378 0.260378 0.260378 0.260378 0.264906 0.264906 0.264906 0.264906 0.264906 0.264906 0.264906 0.264906 0.264906 0.260378 0.260378 0.260378 0.260378 0.260378 0.260378 0.260378 0.260378 0.260378 0.256074 0.256074 0.256074 0.256074 0.256074 0.256074 0.256074 0.256074 0.256074 0.251976 0.251976 0.251976 0.251976 0.251976 0.251976 0.251976 0.251976 0.251976 0.264906 0.264906 0.264906 0.264906 0.264906 0.264906 0.264906 0.264906 0.264906
