# Output from CTFFind version 4.1.9, run on 2019-11-01 22:18:05
# Input file: first_bm3d_averaged_1_0.7_0.66_3000_half.mrc ; Number of micrographs: 1
# Pixel size: 3.000 Angstroms ; acceleration voltage: 300.0 keV ; spherical aberration: 0.00 mm ; amplitude contrast: 0.07
# Box size: 512 pixels ; min. res.: 30.0 Angstroms ; max. res.: 5.0 Angstroms ; min. def.: 5000.0 um; max. def. 50000.0 um; num. frames averaged: 1
# 6 lines per micrograph: #1 - spatial frequency (1/Angstroms); #2 - 1D rotational average of spectrum (assuming no astigmatism); #3 - 1D rotational average of spectrum; #4 - CTF fit; #5 - cross-correlation between spectrum and CTF fit; #6 - 2sigma of expected cross correlation of noise
0.000000 0.000651 0.001302 0.001953 0.002604 0.003255 0.003906 0.004557 0.005208 0.005859 0.006510 0.007161 0.007812 0.008464 0.009115 0.009766 0.010417 0.011068 0.011719 0.012370 0.013021 0.013672 0.014323 0.014974 0.015625 0.016276 0.016927 0.017578 0.018229 0.018880 0.019531 0.020182 0.020833 0.021484 0.022135 0.022786 0.023438 0.024089 0.024740 0.025391 0.026042 0.026693 0.027344 0.027995 0.028646 0.029297 0.029948 0.030599 0.031250 0.031901 0.032552 0.033203 0.033854 0.034505 0.035156 0.035807 0.036458 0.037109 0.037760 0.038411 0.039062 0.039714 0.040365 0.041016 0.041667 0.042318 0.042969 0.043620 0.044271 0.044922 0.045573 0.046224 0.046875 0.047526 0.048177 0.048828 0.049479 0.050130 0.050781 0.051432 0.052083 0.052734 0.053385 0.054036 0.054688 0.055339 0.055990 0.056641 0.057292 0.057943 0.058594 0.059245 0.059896 0.060547 0.061198 0.061849 0.062500 0.063151 0.063802 0.064453 0.065104 0.065755 0.066406 0.067057 0.067708 0.068359 0.069010 0.069661 0.070312 0.070964 0.071615 0.072266 0.072917 0.073568 0.074219 0.074870 0.075521 0.076172 0.076823 0.077474 0.078125 0.078776 0.079427 0.080078 0.080729 0.081380 0.082031 0.082682 0.083333 0.083984 0.084635 0.085286 0.085938 0.086589 0.087240 0.087891 0.088542 0.089193 0.089844 0.090495 0.091146 0.091797 0.092448 0.093099 0.093750 0.094401 0.095052 0.095703 0.096354 0.097005 0.097656 0.098307 0.098958 0.099609 0.100260 0.100911 0.101562 0.102214 0.102865 0.103516 0.104167 0.104818 0.105469 0.106120 0.106771 0.107422 0.108073 0.108724 0.109375 0.110026 0.110677 0.111328 0.111979 0.112630 0.113281 0.113932 0.114583 0.115234 0.115885 0.116536 0.117188 0.117839 0.118490 0.119141 0.119792 0.120443 0.121094 0.121745 0.122396 0.123047 0.123698 0.124349 0.125000 0.125651 0.126302 0.126953 0.127604 0.128255 0.128906 0.129557 0.130208 0.130859 0.131510 0.132161 0.132812 0.133464 0.134115 0.134766 0.135417 0.136068 0.136719 0.137370 0.138021 0.138672 0.139323 0.139974 0.140625 0.141276 0.141927 0.142578 0.143229 0.143880 0.144531 0.145182 0.145833 0.146484 0.147135 0.147786 0.148438 0.149089 0.149740 0.150391 0.151042 0.151693 0.152344 0.152995 0.153646 0.154297 0.154948 0.155599 0.156250 0.156901 0.157552 0.158203 0.158854 0.159505 0.160156 0.160807 0.161458 0.162109 0.162760 0.163411 0.164062 0.164714 0.165365 0.166016 0.166667 0.167318 0.167969 0.168620 0.169271 0.169922 0.170573 0.171224 0.171875 0.172526 0.173177 0.173828 0.174479 0.175130 0.175781 0.176432 0.177083 0.177734 0.178385 0.179036 0.179688 0.180339 0.180990 0.181641 0.182292 0.182943 0.183594 0.184245 0.184896 0.185547 0.186198 0.186849 0.187500 0.188151 0.188802 0.189453 0.190104 0.190755 0.191406 0.192057 0.192708 0.193359 0.194010 0.194661 0.195312 0.195964 0.196615 0.197266 0.197917 0.198568 0.199219 0.199870 0.200521 0.201172 0.201823 0.202474 0.203125 0.203776 0.204427 0.205078 0.205729 0.206380 0.207031 0.207682 0.208333 0.208984 0.209635 0.210286 0.210938 0.211589 0.212240 0.212891 0.213542 0.214193 0.214844 0.215495 0.216146 0.216797 0.217448 0.218099 0.218750 0.219401 0.220052 0.220703 0.221354 0.222005 0.222656 0.223307 0.223958 0.224609 0.225260 0.225911 0.226562 0.227214 0.227865 0.228516 0.229167 0.229818 0.230469 0.231120 0.231771 0.232422 0.233073 0.233724 0.234375 0.235026 0.235677
       0.33633        0.33633        0.33633        0.33633        0.33633        0.33633        0.33633        0.33633        0.33633        0.33633        0.33633        0.33633        0.33633        0.33633        0.33633        0.33633        0.33633        0.33633        0.33633        0.33633        0.33633        0.33633        0.33633        0.33633        0.33633        0.33633        0.33633        0.33633        0.33633        0.33633        0.33633        0.33633        0.33633        0.33633        0.33633        0.33633        0.33633        0.33633        0.33633        0.33633        0.33633        0.33633        0.33633        0.33633        0.33633        0.33633        0.33633        0.33633        0.33633        0.33633        0.33633        0.50413        0.71972        0.43189        0.19207       -0.07915       -0.26249       -0.06799       -0.13080       -0.05139        0.00011       -0.14294       -0.08849       -0.04631        0.00163       -0.14820       -0.21575       -0.34315       -0.46012       -0.55645       -0.51472       -0.44640       -0.36989       -0.54380       -0.44389       -0.61765       -0.49774       -0.47216       -0.38739       -0.38093       -0.34017       -0.24726       -0.15605       -0.13344        0.03602       -0.00829        0.12284        0.17254        0.30633        0.41024        0.46656        0.49645        0.54235        0.55212        0.69812        0.64917        0.68169        0.59258        0.55796        0.65775        0.53122        0.43025        0.38687        0.32560        0.23155        0.26935        0.25633        0.11043        0.08798        0.00257       -0.00352        0.03926        0.00011        0.07944        0.10051        0.23488        0.28459        0.31030        0.38343        0.56024        0.53920        0.58244        0.67378        0.70038        0.63316        0.63877        0.63431        0.55465        0.57789        0.39687        0.34847        0.26985        0.18849        0.07465        0.14817        0.12312        0.09224        0.10786        0.21159        0.21672        0.31971        0.36108        0.41679        0.49978        0.58994        0.54508        0.55828        0.61136        0.54766        0.46819        0.47956        0.32773        0.25619        0.25929        0.24593        0.14859        0.15042        0.15654        0.22378        0.25255        0.33072        0.36456        0.39183        0.47067        0.45117        0.48227        0.45756        0.47105        0.44775        0.41125        0.38409        0.35499        0.31222        0.28792        0.20605        0.20125        0.22431        0.27192        0.27244        0.35331        0.37903        0.36236        0.41480        0.46234        0.45448        0.42582        0.43953        0.37122        0.34081        0.28808        0.26739        0.29290        0.27411        0.29914        0.30332        0.35299        0.34547        0.40554        0.41182        0.43070        0.41316        0.42969        0.40541        0.36793        0.28768        0.29705        0.31437        0.27935        0.25940        0.33576        0.37539        0.34429        0.35624        0.36252        0.35826        0.40879        0.40321        0.36065        0.34247        0.31497        0.31277        0.31755        0.31823        0.30091        0.28948        0.33894        0.36041        0.38232        0.33638        0.32856        0.33802        0.34665        0.30798        0.28407        0.30927        0.31904        0.33887        0.32600        0.33644        0.36129        0.33411        0.31758        0.33285        0.30737        0.26891        0.25666        0.26829        0.30784        0.32500        0.35085        0.30264        0.31878        0.34289        0.29846        0.32110        0.29117        0.28900        0.29750        0.30407        0.31113        0.34771        0.32508        0.33127        0.33869        0.31575        0.33862        0.31902        0.32149        0.31116        0.28637        0.29882        0.32106        0.29735        0.33302        0.34361        0.33560        0.31764        0.33979        0.31921        0.27515        0.25685        0.27558        0.33596        0.36355        0.35123        0.31894        0.29711        0.29660        0.31736        0.25000        0.29955        0.30329        0.32915        0.30234        0.32536        0.28911        0.33926        0.34662        0.34883        0.33184        0.29695        0.32008        0.39858        0.32958        0.31988        0.31684        0.29411        0.28754        0.30155        0.26638        0.31076        0.24290        0.28374        0.29931        0.31742        0.29851        0.28271        0.30373        0.24321        0.23471        0.26329        0.30964        0.30659        0.29339        0.28959        0.33826        0.25626        0.21428        0.31971        0.27925        0.25817        0.28084        0.39770        0.30565        0.28910        0.25270        0.25123        0.26293        0.23459        0.23323        0.15941        0.25418        0.23609        0.24982        0.32154        0.28515        0.34570        0.28488        0.27198        0.24963        0.22617        0.23842        0.29254        0.23060        0.11372        0.14263        0.24950        0.24203        0.33387        0.30459        0.03459       -0.43151       -0.93051
2.732402 2.703397 2.674549 2.645858 2.617322 2.588944 2.560722 2.532657 2.504749 2.476997 2.449402 2.421964 2.394682 2.367556 2.340588 2.313776 2.287121 2.260622 2.234280 2.208095 2.182066 2.156194 2.130479 2.104920 2.079518 2.054272 2.029183 2.004251 1.979476 1.954857 1.930394 1.906089 1.881940 1.857948 1.834112 1.810433 1.786910 1.763545 1.740335 1.717283 1.694387 1.671648 1.649065 1.626639 1.604370 1.582258 1.560302 1.538502 1.516860 1.495374 1.474044 1.542993 1.841751 1.529222 1.207211 0.951173 0.549446 0.921015 0.642051 0.884619 0.937051 0.600631 0.719980 0.793638 0.830421 0.638898 0.549298 0.352353 0.109373 0.083713 0.048712 0.085572 0.305454 -0.030497 0.089688 -0.131972 -0.006992 -0.016063 0.085679 0.068433 0.098170 0.179974 0.288312 0.256031 0.487013 0.402221 0.553629 0.530649 0.772469 0.791529 0.884176 0.920051 0.944737 0.947507 1.120481 0.944102 1.149529 0.950889 0.852867 1.020572 0.851742 0.763897 0.617460 0.599301 0.456259 0.422750 0.514378 0.265808 0.201970 0.157333 0.009655 0.208534 -0.004742 0.121776 0.181520 0.256396 0.329614 0.352161 0.427646 0.534310 0.664079 0.540275 0.744121 0.857395 0.639875 0.700189 0.665022 0.590662 0.541341 0.458560 0.297676 0.215425 0.116312 -0.046645 -0.018266 0.056747 -0.101393 -0.060775 0.043685 0.052478 0.116135 0.215802 0.238660 0.311463 0.449733 0.442865 0.436995 0.481814 0.454803 0.339163 0.329807 0.240960 0.058075 0.060972 0.015267 -0.041239 -0.095132 -0.097488 -0.011874 -0.050061 0.072428 0.121071 0.114164 0.263566 0.232043 0.231449 0.286722 0.246484 0.230678 0.213107 0.164046 0.106322 0.097342 0.020497 -0.000552 -0.121182 -0.054393 -0.001583 -0.002683 0.026204 0.093084 0.085213 0.123861 0.209193 0.267223 0.185656 0.178069 0.109282 0.140520 0.031674 -0.030086 0.028827 -0.023050 0.016453 -0.004333 0.041086 0.090301 0.057245 0.168012 0.108668 0.183808 0.071023 0.155934 0.101403 0.005855 -0.051594 0.002196 -0.020453 -0.055979 -0.056713 0.072626 0.074847 0.000641 0.090421 0.070610 0.083536 0.155222 0.078209 0.071250 0.066905 -0.010790 0.033435 0.011152 0.024514 0.009140 0.008021 0.053505 0.074996 0.086644 0.040947 0.053687 0.037971 0.069772 0.000846 -0.007325 0.034283 0.026444 0.070642 0.048160 0.068075 0.074703 0.051312 0.030295 0.040199 0.008972 -0.037545 -0.024762 -0.017725 0.029698 0.043764 0.101966 -0.001612 0.073760 0.045813 -0.011452 0.061464 0.007502 0.007160 0.034034 0.047976 0.028223 0.089206 0.038958 0.062748 0.072886 0.070043 0.068671 0.062243 0.083901 0.032380 -0.007861 0.051844 0.049409 0.044950 0.075803 0.089761 0.009068 0.053156 0.075787 0.003905 -0.005540 -0.059137 -0.020059 0.110437 0.083255 0.050201 0.037562 -0.025593 0.052649 0.019713 -0.072026 0.052263 0.022749 0.060261 0.037187 0.016555 -0.000166 0.078215 0.032969 0.025573 0.034967 -0.046668 0.070529 0.111165 -0.003915 -0.001404 -0.002904 -0.010922 -0.033196 -0.021663 -0.057960 -0.015878 -0.090260 -0.018456 -0.038868 0.016258 -0.032928 -0.036443 0.028960 -0.072617 -0.049552 -0.080676 0.050712 0.013722 0.018623 -0.010029 0.073219 -0.034554 -0.076654 0.064619 -0.004934 0.002071 -0.001748 0.199739 -0.015258 0.032070 -0.017634 -0.018841 -0.015629 -0.050531 -0.022506 -0.194744 0.011877 -0.038795 -0.022752 0.040271 0.013414 0.103268 -0.016772 0.010532 -0.023298 -0.014455 -0.075121 0.033825 0.277314 0.136202 0.187023 0.259258 0.323522 0.363686 0.369660 0.043005 -1.095454
0.072396 0.072910 0.074452 0.077022 0.080619 0.085243 0.090891 0.097562 0.105254 0.113964 0.123689 0.134423 0.146161 0.158897 0.172622 0.187326 0.202998 0.219625 0.237189 0.255673 0.275055 0.295311 0.316413 0.338330 0.361027 0.384464 0.408596 0.433376 0.458748 0.484654 0.511028 0.537799 0.564889 0.592214 0.619684 0.647201 0.674661 0.701952 0.728955 0.755545 0.781588 0.806944 0.831468 0.855004 0.877395 0.898474 0.918072 0.936013 0.952120 0.966210 0.978100 0.987606 0.994543 0.998731 0.999989 0.998143 0.993026 0.984479 0.972352 0.956509 0.936828 0.913204 0.885550 0.853801 0.817916 0.777879 0.733704 0.685434 0.633147 0.576953 0.517000 0.453476 0.386607 0.316661 0.243947 0.168817 0.091665 0.012927 0.066921 0.147360 0.227839 0.307770 0.386533 0.463483 0.537951 0.609253 0.676695 0.739576 0.797202 0.848891 0.893981 0.931840 0.961877 0.983547 0.996368 0.999926 0.993888 0.978009 0.952144 0.916255 0.870418 0.814834 0.749829 0.675861 0.593524 0.503546 0.406787 0.304239 0.197017 0.086350 0.026427 0.139888 0.252533 0.362806 0.469115 0.569856 0.663437 0.748308 0.822983 0.886075 0.936322 0.972616 0.994032 0.999856 0.989606 0.963059 0.920265 0.861565 0.787598 0.699306 0.597933 0.485016 0.362375 0.232080 0.096436 0.042063 0.180767 0.316928 0.447746 0.570428 0.682255 0.780640 0.863196 0.927801 0.972658 0.996355 0.997915 0.976844 0.933163 0.867433 0.780768 0.674833 0.551826 0.414446 0.265851 0.109586 0.050483 0.210264 0.365544 0.512093 0.645788 0.762727 0.859359 0.932597 0.979928 0.999516 0.990284 0.951978 0.885213 0.791487 0.673177 0.533490 0.376408 0.206581 0.029208 0.150115 0.325570 0.491294 0.641588 0.771113 0.875099 0.949526 0.991306 0.998422 0.970049 0.906629 0.809903 0.682894 0.529844 0.356095 0.167925 0.027666 0.223198 0.410999 0.583503 0.733564 0.854765 0.941710 0.990284 0.997880 0.963556 0.888144 0.774268 0.626296 0.450208 0.253378 0.044300 0.167776 0.373235 0.562529 0.726643 0.857523 0.948503 0.994675 0.993180 0.943421 0.847169 0.708547 0.533902 0.331553 0.111427 0.115405 0.337269 0.542489 0.720006 0.859993 0.954426 0.997582 0.986422 0.920847 0.803796 0.641167 0.441579 0.215950 0.023056 0.261728 0.486080 0.682672 0.839445 0.946477 0.996660 0.986222 0.915051 0.786816 0.608841 0.391754 0.148886 0.104493 0.352124 0.577799 0.766418 0.905049 0.983840 0.996778 0.942209 0.823067 0.646806 0.424993 0.172617 0.092875 0.352777 0.588414 0.782508 0.920480 0.991582 0.989816 0.914488 0.770419 0.567710 0.321124 0.049060 0.227773 0.487906 0.710789 0.878436 0.976928 0.997635 0.938046 0.802134 0.600197 0.348154 0.066375 0.221920 0.492555 0.722419 0.891477 0.984575 0.992869 0.914758 0.756199 0.530364 0.256638 0.040965 0.335866 0.601280 0.812667 0.950037 0.999931 0.956822 0.823826 0.612613 0.342491 0.038732 0.269734 0.553038 0.783280 0.937326 0.999203 0.961860 0.828083 0.610433 0.330186 0.015364 0.302012 0.589147 0.815868 0.957869 0.999388 0.935082 0.770825 0.523328 0.218560 0.110877 0.429179 0.701208 0.896422 0.992372 0.977401 0.852194 0.629958 0.335191 0.001083 0.334120 0.631477 0.855891 0.980329 0.989185 0.880389 0.665932 0.370708 0.029764 0.315766 0.623593 0.855451 0.981957 0.986433 0.867273 0.638447 0.328042 0.025047 0.375896 0.679226 0.895289 0.995171 0.964798 0.807089 0.541913 0.203744 0.162654 0.508094 0.785554 0.956641 0.997027
1.000000 1.000000 1.000000 1.000000 1.000000 1.000000 1.000000 1.000000 1.000000 1.000000 1.000000 1.000000 1.000000 1.000000 1.000000 1.000000 1.000000 1.000000 1.000000 1.000000 1.000000 1.000000 1.000000 1.000000 1.000000 1.000000 1.000000 1.000000 1.000000 1.000000 1.000000 1.000000 1.000000 1.000000 1.000000 1.000000 1.000000 1.000000 1.000000 1.000000 1.000000 1.000000 1.000000 1.000000 1.000000 1.000000 1.000000 1.000000 1.000000 1.000000 1.000000 1.000000 0.918363 0.918363 0.905526 0.905526 0.905526 0.905526 0.905526 0.905526 0.905526 0.905526 0.905526 0.905526 0.905526 0.905526 0.905526 0.905526 0.905526 0.905526 0.905526 0.905526 0.905526 0.905526 0.905526 0.905526 0.905526 0.905526 0.905526 0.905526 0.905526 0.905526 0.905526 0.905526 0.905526 0.905526 0.905526 0.905526 0.905526 0.905526 0.905526 0.905526 0.905526 0.905526 0.905526 0.901104 0.906051 0.907942 0.906439 0.909984 0.910049 0.909406 0.909748 0.909411 0.909748 0.911141 0.921628 0.932627 0.943636 0.944169 0.949345 0.953648 0.957048 0.957969 0.959578 0.969660 0.968333 0.967867 0.968522 0.969892 0.971966 0.970724 0.970241 0.973476 0.974095 0.972536 0.970265 0.969681 0.968296 0.967690 0.967327 0.967211 0.967078 0.967591 0.967792 0.967936 0.968081 0.968137 0.969151 0.970306 0.972724 0.973733 0.973602 0.972535 0.970660 0.974672 0.975560 0.975316 0.975275 0.974825 0.975082 0.958989 0.956014 0.955927 0.952916 0.951344 0.947890 0.946553 0.945455 0.945852 0.944410 0.944057 0.941495 0.927319 0.913500 0.902446 0.922854 0.907486 0.896314 0.870728 0.871492 0.865789 0.866285 0.856620 0.851516 0.847386 0.844586 0.846277 0.842569 0.846015 0.843089 0.828015 0.831466 0.828026 0.796193 0.780921 0.763905 0.764874 0.761975 0.763142 0.765048 0.758441 0.767060 0.760791 0.758911 0.750090 0.727700 0.695543 0.682613 0.693162 0.703361 0.701328 0.697621 0.682200 0.652234 0.665226 0.686215 0.683351 0.685336 0.678798 0.672415 0.680229 0.681003 0.677619 0.671796 0.670963 0.670717 0.679660 0.685031 0.679704 0.672262 0.658140 0.646167 0.630791 0.646166 0.648938 0.618433 0.612176 0.603363 0.596992 0.583764 0.551555 0.552604 0.529941 0.516362 0.519404 0.522478 0.522628 0.533661 0.534580 0.512420 0.535639 0.543272 0.570358 0.542259 0.536293 0.537617 0.548384 0.532297 0.507050 0.497112 0.498052 0.512903 0.548884 0.588672 0.579207 0.569179 0.556759 0.573054 0.547768 0.556653 0.572795 0.551426 0.476689 0.438927 0.435838 0.401612 0.391589 0.383066 0.376404 0.389833 0.380456 0.374596 0.361531 0.349357 0.285459 0.250372 0.234939 0.213818 0.217007 0.234751 0.220675 0.223832 0.260336 0.307041 0.305799 0.297286 0.290364 0.291733 0.264203 0.275486 0.300274 0.258268 0.255501 0.251618 0.226202 0.214148 0.174281 0.203632 0.119400 0.104420 0.108297 0.123633 0.133798 0.133660 0.142875 0.120517 0.139702 0.129844 0.093424 0.078513 0.094288 0.085638 0.054010 0.063480 0.078515 0.064989 0.052491 0.078465 0.066627 0.073329 0.064808 0.063257 0.107302 0.139325 0.125639 0.125959 0.109385 0.107694 0.083894 0.073915 0.063479 0.057748 0.001683 -0.025524 -0.025524 -0.024420 -0.024420 -0.024420 -0.024420 -0.024420 -0.024420 -0.024420 -0.024420 -0.024420 -0.025694 -0.025694 -0.025694 -0.025694 -0.025694 -0.025694 -0.025694 -0.025694 -0.025694 -0.000562 -0.000562 -0.000562 -0.000562 -0.000562 -0.000562 -0.000562 -0.000562 -0.000562
0.000000 0.000000 0.000000 0.000000 0.000000 0.000000 0.000000 0.000000 0.000000 0.000000 0.000000 0.000000 0.000000 0.000000 0.000000 0.000000 0.000000 0.000000 0.000000 0.000000 0.000000 0.000000 0.000000 0.000000 0.000000 7.000000 4.000000 0.000000 0.000000 0.000000 0.000000 0.000000 0.000000 0.000000 0.000000 0.000000 0.000000 0.000000 0.000000 0.000000 0.000000 0.000000 0.000000 0.000000 0.000000 0.000000 0.000000 0.000000 0.000000 0.000000 0.000000 0.000000 0.181818 0.181818 0.199007 0.199007 0.199007 0.199007 0.199007 0.199007 0.199007 0.199007 0.199007 0.199007 0.199007 0.199007 0.199007 0.199007 0.199007 0.199007 0.199007 0.199007 0.199007 0.199007 0.199007 0.199007 0.199007 0.199007 0.199007 0.199007 0.199007 0.199007 0.199007 0.199007 0.199007 0.199007 0.199007 0.199007 0.199007 0.199007 0.199007 0.199007 0.199007 0.199007 0.199007 0.230940 0.230940 0.230940 0.230940 0.230940 0.230940 0.230940 0.230940 0.230940 0.230940 0.230940 0.230940 0.230940 0.230940 0.230940 0.230940 0.230940 0.230940 0.230940 0.230940 0.230940 0.230940 0.230940 0.230940 0.230940 0.230940 0.230940 0.230940 0.244339 0.244339 0.244339 0.244339 0.244339 0.244339 0.244339 0.244339 0.244339 0.244339 0.244339 0.244339 0.244339 0.244339 0.244339 0.244339 0.244339 0.244339 0.244339 0.244339 0.244339 0.244339 0.244339 0.251976 0.251976 0.251976 0.251976 0.251976 0.251976 0.251976 0.251976 0.251976 0.251976 0.251976 0.251976 0.251976 0.251976 0.251976 0.251976 0.251976 0.251976 0.251976 0.251976 0.264906 0.264906 0.264906 0.264906 0.264906 0.264906 0.264906 0.264906 0.264906 0.264906 0.264906 0.264906 0.264906 0.264906 0.264906 0.264906 0.264906 0.264906 0.264906 0.264906 0.264906 0.264906 0.264906 0.264906 0.264906 0.264906 0.264906 0.264906 0.264906 0.264906 0.264906 0.264906 0.264906 0.264906 0.264906 0.264906 0.264906 0.264906 0.264906 0.264906 0.264906 0.264906 0.264906 0.264906 0.264906 0.264906 0.264906 0.264906 0.264906 0.264906 0.264906 0.264906 0.264906 0.264906 0.264906 0.264906 0.264906 0.264906 0.264906 0.264906 0.264906 0.264906 0.264906 0.264906 0.264906 0.264906 0.264906 0.264906 0.264906 0.264906 0.264906 0.264906 0.264906 0.264906 0.264906 0.269680 0.269680 0.269680 0.269680 0.269680 0.269680 0.269680 0.269680 0.269680 0.269680 0.269680 0.269680 0.264906 0.264906 0.264906 0.264906 0.264906 0.264906 0.264906 0.264906 0.264906 0.264906 0.264906 0.264906 0.269680 0.269680 0.269680 0.269680 0.269680 0.269680 0.269680 0.269680 0.269680 0.269680 0.269680 0.264906 0.264906 0.264906 0.264906 0.264906 0.264906 0.264906 0.264906 0.264906 0.264906 0.264906 0.256074 0.256074 0.256074 0.256074 0.256074 0.256074 0.256074 0.256074 0.256074 0.256074 0.256074 0.264906 0.264906 0.264906 0.264906 0.264906 0.264906 0.264906 0.264906 0.264906 0.264906 0.269680 0.269680 0.269680 0.269680 0.269680 0.269680 0.269680 0.269680 0.269680 0.256074 0.256074 0.256074 0.256074 0.256074 0.256074 0.256074 0.256074 0.256074 0.256074 0.260378 0.260378 0.260378 0.260378 0.260378 0.260378 0.260378 0.260378 0.260378 0.256074 0.256074 0.256074 0.256074 0.256074 0.256074 0.256074 0.256074 0.256074 0.251976 0.251976 0.251976 0.251976 0.251976 0.251976 0.251976 0.251976 0.251976 0.264906 0.264906 0.264906 0.264906 0.264906 0.264906 0.264906 0.264906 0.264906
