# Output from CTFFind version 4.1.9, run on 2019-11-01 22:42:19
# Input file: first_bm3d_averaged_1_0.7_1.00_2000_half.mrc ; Number of micrographs: 1
# Pixel size: 3.000 Angstroms ; acceleration voltage: 300.0 keV ; spherical aberration: 0.00 mm ; amplitude contrast: 0.07
# Box size: 512 pixels ; min. res.: 30.0 Angstroms ; max. res.: 5.0 Angstroms ; min. def.: 5000.0 um; max. def. 50000.0 um; num. frames averaged: 1
# 6 lines per micrograph: #1 - spatial frequency (1/Angstroms); #2 - 1D rotational average of spectrum (assuming no astigmatism); #3 - 1D rotational average of spectrum; #4 - CTF fit; #5 - cross-correlation between spectrum and CTF fit; #6 - 2sigma of expected cross correlation of noise
0.000000 0.000651 0.001302 0.001953 0.002604 0.003255 0.003906 0.004557 0.005208 0.005859 0.006510 0.007161 0.007812 0.008464 0.009115 0.009766 0.010417 0.011068 0.011719 0.012370 0.013021 0.013672 0.014323 0.014974 0.015625 0.016276 0.016927 0.017578 0.018229 0.018880 0.019531 0.020182 0.020833 0.021484 0.022135 0.022786 0.023438 0.024089 0.024740 0.025391 0.026042 0.026693 0.027344 0.027995 0.028646 0.029297 0.029948 0.030599 0.031250 0.031901 0.032552 0.033203 0.033854 0.034505 0.035156 0.035807 0.036458 0.037109 0.037760 0.038411 0.039062 0.039714 0.040365 0.041016 0.041667 0.042318 0.042969 0.043620 0.044271 0.044922 0.045573 0.046224 0.046875 0.047526 0.048177 0.048828 0.049479 0.050130 0.050781 0.051432 0.052083 0.052734 0.053385 0.054036 0.054688 0.055339 0.055990 0.056641 0.057292 0.057943 0.058594 0.059245 0.059896 0.060547 0.061198 0.061849 0.062500 0.063151 0.063802 0.064453 0.065104 0.065755 0.066406 0.067057 0.067708 0.068359 0.069010 0.069661 0.070312 0.070964 0.071615 0.072266 0.072917 0.073568 0.074219 0.074870 0.075521 0.076172 0.076823 0.077474 0.078125 0.078776 0.079427 0.080078 0.080729 0.081380 0.082031 0.082682 0.083333 0.083984 0.084635 0.085286 0.085938 0.086589 0.087240 0.087891 0.088542 0.089193 0.089844 0.090495 0.091146 0.091797 0.092448 0.093099 0.093750 0.094401 0.095052 0.095703 0.096354 0.097005 0.097656 0.098307 0.098958 0.099609 0.100260 0.100911 0.101562 0.102214 0.102865 0.103516 0.104167 0.104818 0.105469 0.106120 0.106771 0.107422 0.108073 0.108724 0.109375 0.110026 0.110677 0.111328 0.111979 0.112630 0.113281 0.113932 0.114583 0.115234 0.115885 0.116536 0.117188 0.117839 0.118490 0.119141 0.119792 0.120443 0.121094 0.121745 0.122396 0.123047 0.123698 0.124349 0.125000 0.125651 0.126302 0.126953 0.127604 0.128255 0.128906 0.129557 0.130208 0.130859 0.131510 0.132161 0.132812 0.133464 0.134115 0.134766 0.135417 0.136068 0.136719 0.137370 0.138021 0.138672 0.139323 0.139974 0.140625 0.141276 0.141927 0.142578 0.143229 0.143880 0.144531 0.145182 0.145833 0.146484 0.147135 0.147786 0.148438 0.149089 0.149740 0.150391 0.151042 0.151693 0.152344 0.152995 0.153646 0.154297 0.154948 0.155599 0.156250 0.156901 0.157552 0.158203 0.158854 0.159505 0.160156 0.160807 0.161458 0.162109 0.162760 0.163411 0.164062 0.164714 0.165365 0.166016 0.166667 0.167318 0.167969 0.168620 0.169271 0.169922 0.170573 0.171224 0.171875 0.172526 0.173177 0.173828 0.174479 0.175130 0.175781 0.176432 0.177083 0.177734 0.178385 0.179036 0.179688 0.180339 0.180990 0.181641 0.182292 0.182943 0.183594 0.184245 0.184896 0.185547 0.186198 0.186849 0.187500 0.188151 0.188802 0.189453 0.190104 0.190755 0.191406 0.192057 0.192708 0.193359 0.194010 0.194661 0.195312 0.195964 0.196615 0.197266 0.197917 0.198568 0.199219 0.199870 0.200521 0.201172 0.201823 0.202474 0.203125 0.203776 0.204427 0.205078 0.205729 0.206380 0.207031 0.207682 0.208333 0.208984 0.209635 0.210286 0.210938 0.211589 0.212240 0.212891 0.213542 0.214193 0.214844 0.215495 0.216146 0.216797 0.217448 0.218099 0.218750 0.219401 0.220052 0.220703 0.221354 0.222005 0.222656 0.223307 0.223958 0.224609 0.225260 0.225911 0.226562 0.227214 0.227865 0.228516 0.229167 0.229818 0.230469 0.231120 0.231771 0.232422 0.233073 0.233724 0.234375 0.235026 0.235677
       0.33453        0.33453        0.33453        0.33453        0.33453        0.33453        0.33453        0.33453        0.33453        0.33453        0.33453        0.33453        0.33453        0.33453        0.33453        0.33453        0.33453        0.33453        0.33453        0.33453        0.33453        0.33453        0.33453        0.33453        0.33453        0.33453        0.33453        0.33453        0.33453        0.33453        0.33453        0.33453        0.33453        0.33453        0.33453        0.33453        0.33453        0.33453        0.33453        0.33453        0.33453        0.33453        0.33453        0.33453        0.33453        0.33453        0.33453        0.33453        0.33453        0.33453        0.33453        0.50344        0.71967        0.43026        0.19159       -0.07943       -0.26267       -0.06887       -0.13215       -0.05264       -0.00105       -0.14523       -0.09108       -0.04858       -0.00077       -0.15029       -0.21857       -0.34489       -0.46193       -0.55842       -0.51719       -0.44797       -0.37130       -0.54637       -0.44727       -0.61972       -0.50065       -0.47407       -0.38898       -0.38264       -0.34031       -0.24937       -0.15882       -0.13460        0.03425       -0.01052        0.12062        0.17041        0.30517        0.40993        0.46549        0.49685        0.54155        0.55157        0.69588        0.64752        0.67957        0.59248        0.55780        0.65663        0.53008        0.42910        0.38564        0.32294        0.22953        0.26615        0.25335        0.10877        0.08586        0.00150       -0.00547        0.03691       -0.00227        0.07655        0.09891        0.23306        0.28376        0.30580        0.38216        0.56067        0.53831        0.57999        0.67233        0.70043        0.63164        0.63594        0.63334        0.55387        0.57559        0.39659        0.34667        0.26802        0.18657        0.07309        0.14683        0.12077        0.09188        0.10743        0.21029        0.21458        0.31820        0.36002        0.41470        0.49563        0.58640        0.54389        0.55623        0.60968        0.54338        0.46486        0.47918        0.32550        0.25394        0.25885        0.24461        0.14578        0.14703        0.15360        0.22146        0.25041        0.33006        0.36414        0.39155        0.46880        0.44911        0.47921        0.45542        0.46917        0.44639        0.40868        0.38281        0.35412        0.31101        0.28654        0.20538        0.19980        0.22253        0.27126        0.27017        0.35174        0.37721        0.36001        0.41332        0.45928        0.45130        0.42517        0.43876        0.37012        0.33766        0.28508        0.26578        0.29069        0.27174        0.29667        0.30180        0.35091        0.34356        0.40179        0.40710        0.42784        0.41235        0.43012        0.40445        0.36695        0.28516        0.29387        0.31073        0.27633        0.25775        0.33308        0.37299        0.34280        0.35517        0.36077        0.35615        0.40823        0.40147        0.35935        0.34050        0.31245        0.31103        0.31691        0.31718        0.30123        0.28865        0.33714        0.35955        0.37954        0.33420        0.32928        0.33611        0.34619        0.30738        0.28359        0.30837        0.31765        0.33723        0.32376        0.33483        0.35935        0.33201        0.31539        0.33047        0.30551        0.26647        0.25354        0.26662        0.30755        0.32375        0.35105        0.30219        0.31679        0.33993        0.29554        0.31791        0.28900        0.28479        0.29466        0.30113        0.31068        0.34549        0.32417        0.32985        0.33652        0.31337        0.33540        0.31876        0.32053        0.31072        0.28450        0.29477        0.31636        0.29372        0.32911        0.34053        0.33567        0.31898        0.34017        0.31821        0.27642        0.25557        0.27293        0.33350        0.36132        0.34848        0.31771        0.29615        0.29755        0.31557        0.24835        0.29878        0.30357        0.32821        0.29979        0.32029        0.28801        0.33797        0.34526        0.34652        0.32807        0.29463        0.31661        0.39748        0.33060        0.31610        0.31202        0.29411        0.28731        0.29921        0.26503        0.31098        0.24100        0.27943        0.29823        0.31670        0.29716        0.27903        0.30133        0.23897        0.23026        0.26194        0.30665        0.30532        0.28581        0.28867        0.33579        0.25629        0.21420        0.31454        0.27569        0.25672        0.28216        0.39650        0.29999        0.28777        0.24948        0.25345        0.26575        0.23726        0.23379        0.16490        0.25310        0.23334        0.25106        0.31934        0.27950        0.34675        0.28132        0.25841        0.23953        0.21703        0.23721        0.29462        0.22963        0.12238        0.15599        0.24706        0.24443        0.33086        0.30501        0.03641       -0.42498       -0.91441
2.728522 2.699534 2.670704 2.642029 2.613512 2.585152 2.556948 2.528901 2.501010 2.473277 2.445700 2.418279 2.391016 2.363909 2.336959 2.310165 2.283529 2.257048 2.230725 2.204558 2.178549 2.152695 2.126999 2.101459 2.076076 2.050849 2.025780 2.000867 1.976110 1.951511 1.927068 1.902782 1.878653 1.854680 1.830864 1.807204 1.783702 1.760356 1.737167 1.714134 1.691258 1.668539 1.645977 1.623571 1.601322 1.579230 1.557295 1.535516 1.513894 1.492428 1.471119 1.540450 1.840918 1.526208 1.206379 0.951048 0.551109 0.920152 0.641947 0.883338 0.935932 0.599351 0.717601 0.791369 0.827947 0.637277 0.546103 0.353016 0.108830 0.083662 0.048089 0.085888 0.305521 -0.030996 0.087274 -0.131356 -0.007851 -0.016211 0.086109 0.067103 0.100975 0.179323 0.286523 0.255037 0.486423 0.400292 0.551715 0.529738 0.770617 0.789803 0.883022 0.920798 0.942586 0.946225 1.117384 0.943123 1.144951 0.949945 0.852581 1.018559 0.850300 0.761776 0.617043 0.596823 0.455014 0.419682 0.510945 0.265065 0.199925 0.157818 0.009864 0.206170 -0.005832 0.120564 0.178972 0.256641 0.329792 0.348380 0.425534 0.534922 0.663790 0.538943 0.740446 0.858870 0.638724 0.695946 0.664471 0.590848 0.537667 0.459269 0.297186 0.213346 0.115967 -0.045435 -0.019917 0.056888 -0.100506 -0.060018 0.045065 0.052679 0.113198 0.217492 0.237726 0.308725 0.445849 0.440658 0.435662 0.480977 0.451266 0.334125 0.330838 0.240803 0.055676 0.062571 0.016299 -0.041909 -0.096978 -0.098044 -0.014001 -0.049634 0.073062 0.120737 0.117511 0.262804 0.231360 0.231272 0.285894 0.243919 0.232751 0.211368 0.164913 0.106982 0.098179 0.021287 0.001807 -0.119412 -0.053899 -0.000216 -0.000239 0.024175 0.095892 0.085164 0.132218 0.198802 0.266405 0.184642 0.182424 0.110793 0.140856 0.030224 -0.028648 0.028794 -0.020251 0.015117 -0.002604 0.042080 0.090542 0.058839 0.165832 0.106183 0.184039 0.073958 0.158654 0.103361 0.005017 -0.050457 0.000071 -0.021376 -0.056565 -0.055093 0.071453 0.076215 0.000265 0.087047 0.076075 0.086666 0.156717 0.078861 0.073388 0.066134 -0.010651 0.036089 0.013632 0.026033 0.014123 0.008398 0.054663 0.077948 0.084056 0.042422 0.057415 0.036632 0.071218 0.002891 -0.005115 0.035826 0.025148 0.072152 0.048000 0.067907 0.070564 0.052651 0.029137 0.039621 0.008771 -0.038925 -0.025153 -0.018761 0.030704 0.044560 0.103375 -0.000451 0.071516 0.046791 -0.012357 0.059924 0.007066 0.004462 0.032754 0.047598 0.030329 0.087088 0.041438 0.062474 0.071237 0.070133 0.065659 0.063613 0.083743 0.033250 -0.008358 0.047737 0.045548 0.043936 0.071919 0.089525 0.009887 0.056141 0.075203 0.004818 -0.001552 -0.059464 -0.023100 0.110320 0.081666 0.047562 0.037955 -0.022182 0.051476 0.020827 -0.070746 0.051908 0.026850 0.060424 0.035762 0.011673 0.002199 0.075179 0.034956 0.025530 0.032495 -0.043800 0.066436 0.113657 0.001154 -0.005594 -0.004204 0.000221 -0.035357 -0.021094 -0.056622 -0.010874 -0.090212 -0.019285 -0.035117 0.018850 -0.030215 -0.046827 0.028069 -0.075729 -0.051754 -0.081601 0.050163 0.011615 0.011659 -0.007854 0.070996 -0.030691 -0.073541 0.060630 -0.005868 0.005391 0.004203 0.201638 -0.021069 0.033851 -0.015355 -0.010051 -0.007594 -0.043661 -0.019164 -0.177027 0.013519 -0.039678 -0.016634 0.040648 0.008359 0.110956 -0.015300 -0.002520 -0.033208 -0.026302 -0.071611 0.038949 0.275602 0.146334 0.201608 0.249868 0.328537 0.359968 0.370794 0.045055 -1.073765
0.072396 0.072910 0.074452 0.077022 0.080619 0.085242 0.090889 0.097560 0.105252 0.113961 0.123685 0.134418 0.146156 0.158891 0.172615 0.187318 0.202989 0.219613 0.237176 0.255659 0.275039 0.295294 0.316395 0.338311 0.361006 0.384441 0.408572 0.433350 0.458721 0.484625 0.510997 0.537767 0.564855 0.592179 0.619648 0.647164 0.674623 0.701914 0.728916 0.755506 0.781549 0.806905 0.831429 0.854966 0.877358 0.898439 0.918039 0.935983 0.952092 0.966186 0.978079 0.987590 0.994532 0.998725 0.999989 0.998150 0.993041 0.984501 0.972383 0.956549 0.936878 0.913264 0.885620 0.853882 0.818008 0.777983 0.733820 0.685563 0.633288 0.577106 0.517165 0.453653 0.386795 0.316860 0.244156 0.169035 0.091891 0.013160 0.066682 0.147117 0.227594 0.307525 0.386289 0.463243 0.537717 0.609028 0.676480 0.739375 0.797018 0.848727 0.893839 0.931722 0.961785 0.983485 0.996338 0.999930 0.993928 0.978087 0.952260 0.916409 0.870612 0.815067 0.750099 0.676169 0.593866 0.503920 0.407191 0.304668 0.197466 0.086815 0.025951 0.139408 0.252056 0.362338 0.468664 0.569428 0.663041 0.747950 0.822672 0.885817 0.936123 0.972482 0.993968 0.999866 0.989693 0.963224 0.920510 0.861887 0.787995 0.699773 0.598466 0.485607 0.363014 0.232757 0.097139 0.041346 0.180052 0.316228 0.447076 0.569804 0.681691 0.780151 0.862795 0.927500 0.972468 0.996284 0.997969 0.977025 0.933472 0.867867 0.781321 0.675495 0.552584 0.415285 0.266750 0.110525 0.049525 0.209316 0.364630 0.511239 0.645018 0.762067 0.858831 0.932219 0.979716 0.999482 0.990434 0.952314 0.885729 0.792174 0.674017 0.534463 0.377486 0.207734 0.030400 0.148924 0.324417 0.490219 0.640630 0.770310 0.874482 0.949122 0.991134 0.998495 0.970372 0.907197 0.810700 0.683899 0.531022 0.357407 0.169323 0.026231 0.221785 0.409661 0.582299 0.732547 0.853980 0.941195 0.990069 0.997980 0.963976 0.888873 0.775282 0.627559 0.451668 0.254978 0.045969 0.166113 0.371654 0.561108 0.725451 0.856621 0.947942 0.994489 0.993388 0.944023 0.848143 0.709854 0.535482 0.333334 0.113321 0.113495 0.335442 0.540844 0.718635 0.858974 0.953824 0.997439 0.986755 0.921650 0.805032 0.642777 0.443477 0.218035 0.020903 0.259631 0.484164 0.681057 0.838232 0.945749 0.996473 0.986597 0.915978 0.788247 0.610699 0.393925 0.151241 0.102105 0.349858 0.575804 0.764836 0.903991 0.983389 0.996977 0.943056 0.824518 0.648771 0.427343 0.175198 0.090246 0.350288 0.586243 0.780824 0.919412 0.991224 0.990205 0.915611 0.772203 0.570035 0.323817 0.051925 0.224956 0.485360 0.708722 0.877021 0.976288 0.997836 0.939088 0.803946 0.602645 0.351045 0.069473 0.218869 0.489811 0.720221 0.890024 0.984007 0.993250 0.916072 0.758346 0.533165 0.259859 0.037611 0.332680 0.598561 0.810666 0.948955 0.999884 0.957832 0.825815 0.615410 0.345840 0.042319 0.266254 0.550002 0.780999 0.936035 0.999048 0.962875 0.830184 0.613423 0.333777 0.019193 0.298337 0.586008 0.813605 0.956733 0.999519 0.936485 0.773371 0.526760 0.222515 0.106824 0.425468 0.698257 0.894573 0.991847 0.978282 0.854400 0.633262 0.339224 0.005394 0.330029 0.628087 0.853614 0.979448 0.989827 0.882500 0.669278 0.374906 0.034313 0.311423 0.619986 0.853046 0.981067 0.987191 0.869609 0.642087 0.332539 0.020257 0.371423 0.675659 0.893107 0.994678 0.966083 0.810007 0.546093 0.208649 0.157676 0.503718 0.782386 0.955135 0.997411
1.000000 1.000000 1.000000 1.000000 1.000000 1.000000 1.000000 1.000000 1.000000 1.000000 1.000000 1.000000 1.000000 1.000000 1.000000 1.000000 1.000000 1.000000 1.000000 1.000000 1.000000 1.000000 1.000000 1.000000 1.000000 1.000000 1.000000 1.000000 1.000000 1.000000 1.000000 1.000000 1.000000 1.000000 1.000000 1.000000 1.000000 1.000000 1.000000 1.000000 1.000000 1.000000 1.000000 1.000000 1.000000 1.000000 1.000000 1.000000 1.000000 1.000000 1.000000 1.000000 0.918862 0.918862 0.905102 0.905102 0.905102 0.905102 0.905102 0.905102 0.905102 0.905102 0.905102 0.905102 0.905102 0.905102 0.905102 0.905102 0.905102 0.905102 0.905102 0.905102 0.905102 0.905102 0.905102 0.905102 0.905102 0.905102 0.905102 0.905102 0.905102 0.905102 0.905102 0.905102 0.905102 0.905102 0.905102 0.905102 0.905102 0.905102 0.905102 0.905102 0.905102 0.905102 0.905102 0.901159 0.906056 0.907946 0.906427 0.909967 0.910029 0.909319 0.909656 0.909315 0.909648 0.911040 0.921536 0.932545 0.943565 0.944101 0.949271 0.953586 0.956017 0.956866 0.958432 0.968444 0.967088 0.966591 0.967272 0.968708 0.970823 0.969566 0.969116 0.972277 0.972928 0.971344 0.969083 0.968475 0.967877 0.967980 0.967615 0.967499 0.967368 0.967878 0.968078 0.968226 0.968371 0.968425 0.969440 0.970594 0.972991 0.973984 0.973846 0.972776 0.970902 0.974925 0.975824 0.975572 0.975524 0.975063 0.975322 0.961347 0.957102 0.957014 0.953925 0.952598 0.949245 0.947940 0.946620 0.946926 0.945536 0.945291 0.942509 0.928520 0.914803 0.903835 0.924326 0.909075 0.897919 0.872672 0.873153 0.866928 0.867434 0.858393 0.853052 0.848833 0.845969 0.847635 0.845020 0.849264 0.846283 0.831761 0.835124 0.831924 0.800077 0.783538 0.768428 0.770001 0.767066 0.768228 0.767961 0.762261 0.770804 0.763706 0.761848 0.753298 0.732835 0.700619 0.687807 0.698573 0.708524 0.707052 0.703437 0.688279 0.655837 0.668542 0.689350 0.685471 0.687674 0.679834 0.673459 0.680087 0.680960 0.677389 0.671006 0.670063 0.669776 0.678383 0.683358 0.678129 0.669877 0.655722 0.643951 0.629493 0.644923 0.648827 0.618001 0.612188 0.604164 0.597884 0.584857 0.551647 0.551117 0.528935 0.516392 0.518363 0.520662 0.520875 0.531181 0.532136 0.510143 0.535835 0.541422 0.568475 0.543938 0.539543 0.540784 0.550536 0.534046 0.509508 0.500303 0.501206 0.514606 0.549752 0.590671 0.581514 0.570167 0.557056 0.572494 0.547692 0.556664 0.574908 0.553112 0.478864 0.438197 0.435350 0.400597 0.390093 0.382494 0.376275 0.388353 0.378750 0.371983 0.358889 0.346680 0.287906 0.252176 0.235222 0.212429 0.220736 0.235337 0.220741 0.222021 0.256517 0.303032 0.303056 0.294602 0.283119 0.284605 0.256600 0.269222 0.295427 0.253193 0.249426 0.244274 0.220201 0.206525 0.167999 0.197244 0.114357 0.097138 0.100131 0.115849 0.126159 0.125257 0.133344 0.108593 0.128022 0.119619 0.083191 0.068109 0.084220 0.075898 0.046383 0.055498 0.068354 0.053437 0.040398 0.065011 0.063021 0.072168 0.063102 0.062825 0.111389 0.143373 0.130230 0.130569 0.114364 0.116166 0.090383 0.080306 0.070859 0.063066 0.009351 -0.018880 -0.018880 -0.016248 -0.016248 -0.016248 -0.016248 -0.016248 -0.016248 -0.016248 -0.016248 -0.016248 -0.017650 -0.017650 -0.017650 -0.017650 -0.017650 -0.017650 -0.017650 -0.017650 -0.017650 0.007412 0.007412 0.007412 0.007412 0.007412 0.007412 0.007412 0.007412 0.007412
0.000000 0.000000 0.000000 0.000000 0.000000 0.000000 0.000000 0.000000 0.000000 0.000000 0.000000 0.000000 0.000000 0.000000 0.000000 0.000000 0.000000 0.000000 0.000000 0.000000 0.000000 0.000000 0.000000 0.000000 0.000000 7.000000 4.000000 0.000000 0.000000 0.000000 0.000000 0.000000 0.000000 0.000000 0.000000 0.000000 0.000000 0.000000 0.000000 0.000000 0.000000 0.000000 0.000000 0.000000 0.000000 0.000000 0.000000 0.000000 0.000000 0.000000 0.000000 0.000000 0.181818 0.181818 0.199007 0.199007 0.199007 0.199007 0.199007 0.199007 0.199007 0.199007 0.199007 0.199007 0.199007 0.199007 0.199007 0.199007 0.199007 0.199007 0.199007 0.199007 0.199007 0.199007 0.199007 0.199007 0.199007 0.199007 0.199007 0.199007 0.199007 0.199007 0.199007 0.199007 0.199007 0.199007 0.199007 0.199007 0.199007 0.199007 0.199007 0.199007 0.199007 0.199007 0.199007 0.230940 0.230940 0.230940 0.230940 0.230940 0.230940 0.230940 0.230940 0.230940 0.230940 0.230940 0.230940 0.230940 0.230940 0.230940 0.230940 0.230940 0.230940 0.230940 0.230940 0.230940 0.230940 0.230940 0.230940 0.230940 0.230940 0.230940 0.230940 0.244339 0.244339 0.244339 0.244339 0.244339 0.244339 0.244339 0.244339 0.244339 0.244339 0.244339 0.244339 0.244339 0.244339 0.244339 0.244339 0.244339 0.244339 0.244339 0.244339 0.244339 0.244339 0.244339 0.251976 0.251976 0.251976 0.251976 0.251976 0.251976 0.251976 0.251976 0.251976 0.251976 0.251976 0.251976 0.251976 0.251976 0.251976 0.251976 0.251976 0.251976 0.251976 0.251976 0.264906 0.264906 0.264906 0.264906 0.264906 0.264906 0.264906 0.264906 0.264906 0.264906 0.264906 0.264906 0.264906 0.264906 0.264906 0.264906 0.264906 0.264906 0.264906 0.264906 0.264906 0.264906 0.264906 0.264906 0.264906 0.264906 0.264906 0.264906 0.264906 0.264906 0.264906 0.264906 0.264906 0.264906 0.264906 0.264906 0.264906 0.264906 0.264906 0.264906 0.264906 0.264906 0.264906 0.264906 0.264906 0.264906 0.264906 0.264906 0.264906 0.264906 0.264906 0.264906 0.264906 0.264906 0.264906 0.264906 0.264906 0.264906 0.264906 0.264906 0.264906 0.264906 0.264906 0.264906 0.264906 0.264906 0.264906 0.264906 0.264906 0.264906 0.264906 0.264906 0.264906 0.264906 0.264906 0.269680 0.269680 0.269680 0.269680 0.269680 0.269680 0.269680 0.269680 0.269680 0.269680 0.269680 0.269680 0.264906 0.264906 0.264906 0.264906 0.264906 0.264906 0.264906 0.264906 0.264906 0.264906 0.264906 0.264906 0.269680 0.269680 0.269680 0.269680 0.269680 0.269680 0.269680 0.269680 0.269680 0.269680 0.269680 0.264906 0.264906 0.264906 0.264906 0.264906 0.264906 0.264906 0.264906 0.264906 0.264906 0.264906 0.256074 0.256074 0.256074 0.256074 0.256074 0.256074 0.256074 0.256074 0.256074 0.256074 0.256074 0.264906 0.264906 0.264906 0.264906 0.264906 0.264906 0.264906 0.264906 0.264906 0.264906 0.269680 0.269680 0.269680 0.269680 0.269680 0.269680 0.269680 0.269680 0.269680 0.256074 0.256074 0.256074 0.256074 0.256074 0.256074 0.256074 0.256074 0.256074 0.256074 0.260378 0.260378 0.260378 0.260378 0.260378 0.260378 0.260378 0.260378 0.260378 0.256074 0.256074 0.256074 0.256074 0.256074 0.256074 0.256074 0.256074 0.256074 0.251976 0.251976 0.251976 0.251976 0.251976 0.251976 0.251976 0.251976 0.251976 0.264906 0.264906 0.264906 0.264906 0.264906 0.264906 0.264906 0.264906 0.264906
