# Output from CTFFind version 4.1.9, run on 2019-11-01 22:16:39
# Input file: first_bm3d_averaged_1_0.7_0.11_750_half.mrc ; Number of micrographs: 1
# Pixel size: 3.000 Angstroms ; acceleration voltage: 300.0 keV ; spherical aberration: 0.00 mm ; amplitude contrast: 0.07
# Box size: 512 pixels ; min. res.: 30.0 Angstroms ; max. res.: 5.0 Angstroms ; min. def.: 5000.0 um; max. def. 50000.0 um; num. frames averaged: 1
# 6 lines per micrograph: #1 - spatial frequency (1/Angstroms); #2 - 1D rotational average of spectrum (assuming no astigmatism); #3 - 1D rotational average of spectrum; #4 - CTF fit; #5 - cross-correlation between spectrum and CTF fit; #6 - 2sigma of expected cross correlation of noise
0.000000 0.000651 0.001302 0.001953 0.002604 0.003255 0.003906 0.004557 0.005208 0.005859 0.006510 0.007161 0.007812 0.008464 0.009115 0.009766 0.010417 0.011068 0.011719 0.012370 0.013021 0.013672 0.014323 0.014974 0.015625 0.016276 0.016927 0.017578 0.018229 0.018880 0.019531 0.020182 0.020833 0.021484 0.022135 0.022786 0.023438 0.024089 0.024740 0.025391 0.026042 0.026693 0.027344 0.027995 0.028646 0.029297 0.029948 0.030599 0.031250 0.031901 0.032552 0.033203 0.033854 0.034505 0.035156 0.035807 0.036458 0.037109 0.037760 0.038411 0.039062 0.039714 0.040365 0.041016 0.041667 0.042318 0.042969 0.043620 0.044271 0.044922 0.045573 0.046224 0.046875 0.047526 0.048177 0.048828 0.049479 0.050130 0.050781 0.051432 0.052083 0.052734 0.053385 0.054036 0.054688 0.055339 0.055990 0.056641 0.057292 0.057943 0.058594 0.059245 0.059896 0.060547 0.061198 0.061849 0.062500 0.063151 0.063802 0.064453 0.065104 0.065755 0.066406 0.067057 0.067708 0.068359 0.069010 0.069661 0.070312 0.070964 0.071615 0.072266 0.072917 0.073568 0.074219 0.074870 0.075521 0.076172 0.076823 0.077474 0.078125 0.078776 0.079427 0.080078 0.080729 0.081380 0.082031 0.082682 0.083333 0.083984 0.084635 0.085286 0.085938 0.086589 0.087240 0.087891 0.088542 0.089193 0.089844 0.090495 0.091146 0.091797 0.092448 0.093099 0.093750 0.094401 0.095052 0.095703 0.096354 0.097005 0.097656 0.098307 0.098958 0.099609 0.100260 0.100911 0.101562 0.102214 0.102865 0.103516 0.104167 0.104818 0.105469 0.106120 0.106771 0.107422 0.108073 0.108724 0.109375 0.110026 0.110677 0.111328 0.111979 0.112630 0.113281 0.113932 0.114583 0.115234 0.115885 0.116536 0.117188 0.117839 0.118490 0.119141 0.119792 0.120443 0.121094 0.121745 0.122396 0.123047 0.123698 0.124349 0.125000 0.125651 0.126302 0.126953 0.127604 0.128255 0.128906 0.129557 0.130208 0.130859 0.131510 0.132161 0.132812 0.133464 0.134115 0.134766 0.135417 0.136068 0.136719 0.137370 0.138021 0.138672 0.139323 0.139974 0.140625 0.141276 0.141927 0.142578 0.143229 0.143880 0.144531 0.145182 0.145833 0.146484 0.147135 0.147786 0.148438 0.149089 0.149740 0.150391 0.151042 0.151693 0.152344 0.152995 0.153646 0.154297 0.154948 0.155599 0.156250 0.156901 0.157552 0.158203 0.158854 0.159505 0.160156 0.160807 0.161458 0.162109 0.162760 0.163411 0.164062 0.164714 0.165365 0.166016 0.166667 0.167318 0.167969 0.168620 0.169271 0.169922 0.170573 0.171224 0.171875 0.172526 0.173177 0.173828 0.174479 0.175130 0.175781 0.176432 0.177083 0.177734 0.178385 0.179036 0.179688 0.180339 0.180990 0.181641 0.182292 0.182943 0.183594 0.184245 0.184896 0.185547 0.186198 0.186849 0.187500 0.188151 0.188802 0.189453 0.190104 0.190755 0.191406 0.192057 0.192708 0.193359 0.194010 0.194661 0.195312 0.195964 0.196615 0.197266 0.197917 0.198568 0.199219 0.199870 0.200521 0.201172 0.201823 0.202474 0.203125 0.203776 0.204427 0.205078 0.205729 0.206380 0.207031 0.207682 0.208333 0.208984 0.209635 0.210286 0.210938 0.211589 0.212240 0.212891 0.213542 0.214193 0.214844 0.215495 0.216146 0.216797 0.217448 0.218099 0.218750 0.219401 0.220052 0.220703 0.221354 0.222005 0.222656 0.223307 0.223958 0.224609 0.225260 0.225911 0.226562 0.227214 0.227865 0.228516 0.229167 0.229818 0.230469 0.231120 0.231771 0.232422 0.233073 0.233724 0.234375 0.235026 0.235677
       0.33303        0.33303        0.33303        0.33303        0.33303        0.33303        0.33303        0.33303        0.33303        0.33303        0.33303        0.33303        0.33303        0.33303        0.33303        0.33303        0.33303        0.33303        0.33303        0.33303        0.33303        0.33303        0.33303        0.33303        0.33303        0.33303        0.33303        0.33303        0.33303        0.33303        0.33303        0.33303        0.33303        0.33303        0.33303        0.33303        0.33303        0.33303        0.33303        0.33303        0.33303        0.33303        0.33303        0.33303        0.33303        0.33303        0.33303        0.33303        0.33303        0.33303        0.33303        0.50302        0.71973        0.42942        0.19030       -0.08070       -0.26118       -0.06816       -0.13362       -0.05231       -0.00298       -0.14731       -0.09195       -0.05345       -0.00420       -0.15255       -0.22160       -0.34699       -0.46184       -0.55696       -0.51604       -0.44703       -0.37076       -0.54611       -0.45064       -0.62137       -0.50318       -0.47425       -0.38931       -0.38611       -0.34029       -0.25169       -0.16022       -0.13667        0.03283       -0.01218        0.12035        0.16719        0.30534        0.41057        0.46336        0.49951        0.54178        0.55095        0.69173        0.64541        0.67704        0.59135        0.55620        0.65433        0.52879        0.42696        0.38254        0.32100        0.22968        0.26225        0.25128        0.10720        0.08226        0.00014       -0.00524        0.03886       -0.00530        0.07421        0.10158        0.23232        0.28511        0.30168        0.38052        0.56228        0.53501        0.57903        0.66974        0.70195        0.62976        0.63660        0.63279        0.55642        0.57442        0.39987        0.34538        0.26579        0.18355        0.07280        0.14405        0.11924        0.09217        0.10554        0.20853        0.21384        0.31711        0.36039        0.41260        0.49324        0.58330        0.54236        0.55600        0.60719        0.53770        0.46141        0.48136        0.32593        0.24967        0.25965        0.24183        0.14190        0.14395        0.15204        0.21902        0.24436        0.33066        0.36571        0.39183        0.46751        0.44675        0.47979        0.45278        0.46801        0.44713        0.40757        0.38421        0.35236        0.31158        0.28892        0.20543        0.19531        0.21973        0.27038        0.26825        0.35056        0.37537        0.35868        0.41224        0.45236        0.44543        0.42387        0.44103        0.37600        0.33444        0.28190        0.26178        0.29141        0.26926        0.29441        0.30034        0.34733        0.34333        0.39628        0.40446        0.42694        0.40979        0.43159        0.40331        0.36326        0.28279        0.29161        0.30802        0.27194        0.25357        0.32608        0.37020        0.34167        0.35292        0.36029        0.35596        0.40918        0.40299        0.36268        0.33837        0.30812        0.31058        0.31804        0.31860        0.30088        0.28473        0.33633        0.36143        0.37911        0.33362        0.33011        0.33597        0.34589        0.30685        0.28279        0.30557        0.31349        0.33789        0.31952        0.32951        0.35894        0.32868        0.31268        0.32722        0.30221        0.26474        0.25375        0.26662        0.30784        0.32168        0.35190        0.30154        0.31207        0.33355        0.29432        0.31480        0.28551        0.28340        0.29310        0.29678        0.30859        0.34483        0.32927        0.33125        0.33933        0.31396        0.33542        0.31905        0.31864        0.30920        0.28252        0.29115        0.31020        0.29227        0.32592        0.33626        0.33587        0.32409        0.34348        0.31976        0.27833        0.25171        0.26956        0.33112        0.35707        0.34241        0.31452        0.29264        0.29687        0.31241        0.24977        0.29954        0.30640        0.33459        0.30037        0.31399        0.28670        0.33756        0.34089        0.34240        0.31727        0.29028        0.31683        0.39977        0.32765        0.31383        0.31333        0.28847        0.28438        0.30173        0.26862        0.31739        0.23638        0.27208        0.29668        0.31302        0.29581        0.26905        0.29654        0.23908        0.22403        0.26205        0.29910        0.30613        0.27617        0.28434        0.33354        0.25727        0.21790        0.30771        0.27358        0.25794        0.28337        0.39095        0.29533        0.28812        0.24779        0.25010        0.27213        0.25103        0.23660        0.17438        0.26049        0.23125        0.24633        0.31743        0.26499        0.35543        0.29440        0.23910        0.22306        0.21254        0.23899        0.31049        0.22991        0.12836        0.17119        0.24361        0.24727        0.29869        0.25931        0.02634       -0.43882       -0.93089
2.688505 2.660110 2.631868 2.603778 2.575840 2.548055 2.520422 2.492941 2.465613 2.438437 2.411413 2.384541 2.357822 2.331255 2.304840 2.278578 2.252468 2.226510 2.200705 2.175052 2.149551 2.124202 2.099006 2.073962 2.049071 2.024331 1.999744 1.975310 1.951027 1.926897 1.902919 1.879094 1.855421 1.831900 1.808531 1.785315 1.762251 1.739339 1.716580 1.693973 1.671518 1.649216 1.627066 1.605068 1.583222 1.561529 1.539988 1.518599 1.497363 1.476279 1.455347 1.525599 1.827472 1.511664 1.192305 0.938088 0.543912 0.910483 0.631141 0.873855 0.924152 0.588801 0.709130 0.775982 0.815764 0.627891 0.534616 0.345923 0.102912 0.079575 0.045197 0.083554 0.301779 -0.035976 0.080675 -0.135501 -0.014264 -0.017926 0.084099 0.057504 0.100436 0.174169 0.281532 0.249519 0.481869 0.395690 0.549272 0.524681 0.765600 0.788437 0.877650 0.921199 0.939793 0.943008 1.110265 0.941186 1.138548 0.944051 0.850508 1.013522 0.847480 0.757171 0.614589 0.592572 0.457357 0.414862 0.507728 0.265425 0.195622 0.155390 0.013156 0.210574 -0.005514 0.117807 0.182161 0.258652 0.332796 0.345410 0.423945 0.540377 0.659103 0.539745 0.737290 0.864122 0.637181 0.695688 0.666233 0.594461 0.535133 0.465977 0.298318 0.213492 0.114716 -0.043119 -0.020355 0.056957 -0.098643 -0.057995 0.047487 0.052731 0.111113 0.221579 0.237167 0.309035 0.433460 0.441370 0.438686 0.477977 0.443784 0.324792 0.333511 0.242826 0.048498 0.062347 0.019471 -0.051384 -0.097091 -0.101915 -0.015713 -0.056101 0.070297 0.123518 0.120775 0.259385 0.228602 0.247228 0.286696 0.244264 0.241209 0.210810 0.174679 0.108442 0.101734 0.027362 0.009440 -0.120191 -0.055170 -0.000973 0.004460 0.019138 0.097675 0.084716 0.136384 0.180895 0.253116 0.171713 0.184418 0.109909 0.141135 0.016437 -0.033199 0.019765 -0.021550 -0.000681 -0.006183 0.033451 0.078178 0.054781 0.151630 0.101776 0.161794 0.063378 0.145567 0.091300 -0.010958 -0.061165 -0.015672 -0.034986 -0.076410 -0.068583 0.050927 0.059077 -0.010186 0.046991 0.064197 0.071258 0.143834 0.068768 0.062107 0.043792 -0.027465 0.024379 0.002998 0.012101 0.001969 -0.010275 0.040586 0.064217 0.069109 0.028270 0.044310 0.020576 0.059092 -0.013611 -0.018678 0.018595 0.008123 0.061000 0.032800 0.040919 0.054725 0.042714 0.017308 0.028604 -0.003483 -0.046418 -0.031535 -0.026975 0.022967 0.039419 0.094633 -0.004794 0.048000 0.067115 -0.008486 0.063070 0.012035 0.012584 0.040213 0.050565 0.039550 0.097255 0.058180 0.073150 0.093201 0.065730 0.069446 0.064891 0.083159 0.034216 -0.004496 0.044354 0.040604 0.050770 0.067828 0.086860 0.014527 0.065543 0.076291 0.007476 0.007856 -0.068085 -0.023501 0.107683 0.075604 0.043255 0.039986 -0.027795 0.046635 0.019681 -0.064191 0.047669 0.036999 0.068903 0.035291 0.006692 0.005207 0.057503 0.042128 0.017794 0.033651 -0.038880 0.066242 0.119077 0.007107 -0.005828 0.004456 -0.005824 -0.032917 -0.017516 -0.053472 0.005801 -0.096615 -0.023319 -0.031122 0.019692 -0.031999 -0.065641 0.028961 -0.074533 -0.057694 -0.076091 0.046251 0.012208 0.006438 -0.008101 0.081431 -0.032512 -0.066771 0.054078 -0.004657 0.017043 0.010983 0.196020 -0.014067 0.025700 0.003638 -0.006290 0.003330 -0.014973 -0.014573 -0.151106 0.024865 -0.036999 0.004493 0.027578 -0.009125 0.142955 0.017128 -0.019872 -0.047775 -0.028242 -0.062363 0.070206 0.275214 0.152489 0.218474 0.237675 0.331949 0.330226 0.311074 0.033130 -1.090013
0.072396 0.072910 0.074452 0.077021 0.080617 0.085239 0.090885 0.097555 0.105245 0.113952 0.123674 0.134405 0.146140 0.158872 0.172593 0.187294 0.202961 0.219583 0.237142 0.255620 0.274997 0.295248 0.316344 0.338256 0.360947 0.384378 0.408504 0.433278 0.458644 0.484544 0.510913 0.537678 0.564763 0.592083 0.619549 0.647062 0.674518 0.701807 0.728808 0.755396 0.781439 0.806796 0.831321 0.854861 0.877256 0.898341 0.917947 0.935897 0.952015 0.966118 0.978022 0.987545 0.994501 0.998710 0.999991 0.998170 0.993081 0.984564 0.972469 0.956661 0.937016 0.913430 0.885816 0.854109 0.818267 0.778274 0.734145 0.685921 0.633680 0.577532 0.517625 0.454146 0.387320 0.317415 0.244739 0.169643 0.092522 0.013810 0.066016 0.146440 0.226911 0.306839 0.385609 0.462573 0.537064 0.608399 0.675882 0.738816 0.796505 0.848266 0.893440 0.931392 0.961531 0.983313 0.996255 0.999941 0.994039 0.978301 0.952581 0.916839 0.871151 0.815715 0.750854 0.677026 0.594821 0.504965 0.408316 0.305864 0.198721 0.088114 0.024623 0.138069 0.250724 0.361032 0.467403 0.568235 0.661935 0.746953 0.821802 0.885095 0.935566 0.972106 0.993788 0.999892 0.989933 0.963684 0.921189 0.862783 0.789100 0.701077 0.599950 0.487252 0.364795 0.234644 0.099099 0.039348 0.178055 0.314274 0.445206 0.568060 0.680116 0.778784 0.861675 0.926660 0.971935 0.996082 0.998115 0.977528 0.934331 0.869074 0.782860 0.677337 0.554695 0.417620 0.269257 0.113145 0.046859 0.206670 0.362078 0.508853 0.642870 0.760222 0.857352 0.931160 0.979121 0.999382 0.990847 0.953243 0.887162 0.794083 0.676356 0.537171 0.380490 0.210944 0.033720 0.145601 0.321200 0.487221 0.637957 0.768063 0.872752 0.947984 0.990645 0.998690 0.971262 0.908769 0.812916 0.686692 0.534304 0.361065 0.173226 0.022230 0.217838 0.405929 0.578937 0.729700 0.851780 0.939748 0.989455 0.998246 0.965134 0.890895 0.778103 0.631073 0.455737 0.259434 0.050619 0.161477 0.367243 0.557135 0.722112 0.854090 0.946360 0.993955 0.993952 0.945684 0.850844 0.713482 0.539878 0.338291 0.118595 0.108170 0.330343 0.536246 0.714796 0.856117 0.952126 0.997019 0.987665 0.923868 0.808462 0.647250 0.448762 0.223845 0.014896 0.253774 0.478808 0.676531 0.834827 0.943694 0.995923 0.987617 0.918537 0.792218 0.615857 0.399970 0.157801 0.095445 0.343528 0.570230 0.760401 0.901014 0.982101 0.997498 0.945388 0.828534 0.654226 0.433885 0.182381 0.082915 0.343329 0.580173 0.776097 0.916401 0.990184 0.991251 0.918704 0.777148 0.576492 0.331321 0.059908 0.217099 0.478250 0.702929 0.873032 0.974458 0.998351 0.941948 0.808960 0.609435 0.359083 0.078113 0.210348 0.482129 0.714053 0.885926 0.982368 0.994258 0.919683 0.764287 0.540949 0.268817 0.028262 0.323784 0.590937 0.805038 0.945880 0.999690 0.960585 0.831308 0.623162 0.355151 0.052314 0.256530 0.541506 0.774585 0.932371 0.998543 0.965632 0.835978 0.621716 0.343759 0.029871 0.288059 0.577207 0.807227 0.953488 0.999800 0.940319 0.780401 0.536276 0.233524 0.095507 0.415080 0.689967 0.889333 0.990294 0.980646 0.860475 0.642407 0.350439 0.017413 0.318590 0.618575 0.847174 0.976890 0.991513 0.888291 0.678539 0.386564 0.046982 0.299272 0.609867 0.846239 0.978469 0.989190 0.876019 0.652158 0.345039 0.006896 0.358912 0.665634 0.886909 0.993176 0.969542 0.818041 0.557692 0.222305 0.143776 0.491455 0.773455 0.950803 0.998342
1.000000 1.000000 1.000000 1.000000 1.000000 1.000000 1.000000 1.000000 1.000000 1.000000 1.000000 1.000000 1.000000 1.000000 1.000000 1.000000 1.000000 1.000000 1.000000 1.000000 1.000000 1.000000 1.000000 1.000000 1.000000 1.000000 1.000000 1.000000 1.000000 1.000000 1.000000 1.000000 1.000000 1.000000 1.000000 1.000000 1.000000 1.000000 1.000000 1.000000 1.000000 1.000000 1.000000 1.000000 1.000000 1.000000 1.000000 1.000000 1.000000 1.000000 1.000000 1.000000 0.918608 0.918608 0.905115 0.905115 0.905115 0.905115 0.905115 0.905115 0.905115 0.905115 0.905115 0.905115 0.905115 0.905115 0.905115 0.905115 0.905115 0.905115 0.905115 0.905115 0.905115 0.905115 0.905115 0.905115 0.905115 0.905115 0.905115 0.905115 0.905115 0.905115 0.905115 0.905115 0.905115 0.905115 0.905115 0.905115 0.905115 0.905115 0.905115 0.905115 0.905115 0.905115 0.905115 0.900987 0.905824 0.907716 0.906152 0.909713 0.909783 0.909070 0.909394 0.909041 0.909362 0.910755 0.921272 0.932310 0.943574 0.944103 0.949239 0.953657 0.956049 0.956937 0.958474 0.968383 0.967074 0.966569 0.967256 0.968726 0.970871 0.969565 0.969184 0.972345 0.973014 0.971382 0.969184 0.968578 0.967977 0.968076 0.967699 0.967587 0.967463 0.967969 0.968185 0.967875 0.968019 0.968068 0.969087 0.970244 0.972605 0.973598 0.973439 0.972330 0.970395 0.974420 0.975281 0.975006 0.974944 0.974466 0.974739 0.963045 0.957704 0.957625 0.954253 0.953378 0.950803 0.949008 0.946890 0.947083 0.945883 0.946029 0.942332 0.929239 0.915615 0.904406 0.925279 0.910146 0.898627 0.875211 0.876004 0.872876 0.873402 0.866297 0.860106 0.855421 0.852712 0.854153 0.850693 0.854122 0.851010 0.838115 0.841128 0.838197 0.809555 0.791584 0.776873 0.777425 0.774699 0.775857 0.775368 0.772296 0.780695 0.772534 0.770863 0.762701 0.743073 0.709113 0.695515 0.705819 0.715344 0.713201 0.709393 0.694123 0.660581 0.673897 0.694487 0.693175 0.695710 0.686968 0.679949 0.680858 0.682247 0.678549 0.671446 0.670519 0.669748 0.679178 0.683370 0.678756 0.669593 0.655003 0.642865 0.628778 0.640783 0.650870 0.617917 0.611795 0.600306 0.593528 0.579372 0.552534 0.552202 0.528848 0.518802 0.522694 0.526684 0.520524 0.528203 0.529459 0.514819 0.536744 0.543756 0.570012 0.555207 0.553958 0.555644 0.562296 0.547721 0.532765 0.528753 0.529559 0.541649 0.570191 0.610486 0.596581 0.583480 0.571037 0.584425 0.550155 0.558184 0.580268 0.556842 0.488639 0.438242 0.436467 0.395688 0.392009 0.380787 0.371252 0.375176 0.367413 0.357302 0.344034 0.331793 0.272455 0.231638 0.215325 0.196250 0.203952 0.221218 0.216535 0.206042 0.227316 0.275676 0.275403 0.266853 0.242822 0.248134 0.220448 0.229366 0.257155 0.212385 0.204324 0.196941 0.170176 0.168749 0.131998 0.155931 0.072452 0.046099 0.044307 0.060614 0.073265 0.071204 0.073702 0.045356 0.065258 0.061438 0.032548 0.022227 0.039173 0.024131 -0.006054 0.007274 0.024704 0.013885 -0.020015 0.003985 0.023970 0.040135 0.031439 0.027122 0.080395 0.110011 0.097488 0.099000 0.092526 0.098699 0.077691 0.071380 0.056386 0.046849 -0.002415 -0.030887 -0.030887 -0.026805 -0.026805 -0.026805 -0.026805 -0.026805 -0.026805 -0.026805 -0.026805 -0.026805 -0.029994 -0.029994 -0.029994 -0.029994 -0.029994 -0.029994 -0.029994 -0.029994 -0.029994 -0.004279 -0.004279 -0.004279 -0.004279 -0.004279 -0.004279 -0.004279 -0.004279 -0.004279
0.000000 0.000000 0.000000 0.000000 0.000000 0.000000 0.000000 0.000000 0.000000 0.000000 0.000000 0.000000 0.000000 0.000000 0.000000 0.000000 0.000000 0.000000 0.000000 0.000000 0.000000 0.000000 0.000000 0.000000 0.000000 0.000000 0.000000 0.000000 0.000000 0.000000 0.000000 0.000000 0.000000 0.000000 0.000000 0.000000 0.000000 0.000000 0.000000 0.000000 0.000000 0.000000 0.000000 0.000000 0.000000 0.000000 0.000000 0.000000 0.000000 0.000000 0.000000 0.000000 0.181818 0.181818 0.199007 0.199007 0.199007 0.199007 0.199007 0.199007 0.199007 0.199007 0.199007 0.199007 0.199007 0.199007 0.199007 0.199007 0.199007 0.199007 0.199007 0.199007 0.199007 0.199007 0.199007 0.199007 0.199007 0.199007 0.199007 0.199007 0.199007 0.199007 0.199007 0.199007 0.199007 0.199007 0.199007 0.199007 0.199007 0.199007 0.199007 0.199007 0.199007 0.199007 0.199007 0.230940 0.230940 0.230940 0.230940 0.230940 0.230940 0.230940 0.230940 0.230940 0.230940 0.230940 0.230940 0.230940 0.230940 0.230940 0.230940 0.230940 0.230940 0.230940 0.230940 0.230940 0.230940 0.230940 0.230940 0.230940 0.230940 0.230940 0.230940 0.244339 0.244339 0.244339 0.244339 0.244339 0.244339 0.244339 0.244339 0.244339 0.244339 0.244339 0.244339 0.244339 0.244339 0.244339 0.244339 0.244339 0.244339 0.244339 0.244339 0.244339 0.244339 0.244339 0.251976 0.251976 0.251976 0.251976 0.251976 0.251976 0.251976 0.251976 0.251976 0.251976 0.251976 0.251976 0.251976 0.251976 0.251976 0.251976 0.251976 0.251976 0.251976 0.251976 0.264906 0.264906 0.264906 0.264906 0.264906 0.264906 0.264906 0.264906 0.264906 0.264906 0.264906 0.264906 0.264906 0.264906 0.264906 0.264906 0.264906 0.264906 0.264906 0.264906 0.264906 0.264906 0.264906 0.264906 0.264906 0.264906 0.264906 0.264906 0.264906 0.264906 0.264906 0.264906 0.264906 0.264906 0.264906 0.264906 0.264906 0.264906 0.264906 0.264906 0.264906 0.264906 0.264906 0.264906 0.264906 0.264906 0.264906 0.264906 0.264906 0.264906 0.264906 0.264906 0.264906 0.264906 0.264906 0.264906 0.264906 0.264906 0.264906 0.264906 0.264906 0.264906 0.264906 0.264906 0.264906 0.264906 0.264906 0.264906 0.264906 0.264906 0.264906 0.264906 0.264906 0.264906 0.264906 0.269680 0.269680 0.269680 0.269680 0.269680 0.269680 0.269680 0.269680 0.269680 0.269680 0.269680 0.269680 0.264906 0.264906 0.264906 0.264906 0.264906 0.264906 0.264906 0.264906 0.264906 0.264906 0.264906 0.264906 0.269680 0.269680 0.269680 0.269680 0.269680 0.269680 0.269680 0.269680 0.269680 0.269680 0.269680 0.264906 0.264906 0.264906 0.264906 0.264906 0.264906 0.264906 0.264906 0.264906 0.264906 0.264906 0.256074 0.256074 0.256074 0.256074 0.256074 0.256074 0.256074 0.256074 0.256074 0.256074 0.256074 0.264906 0.264906 0.264906 0.264906 0.264906 0.264906 0.264906 0.264906 0.264906 0.264906 0.269680 0.269680 0.269680 0.269680 0.269680 0.269680 0.269680 0.269680 0.269680 0.256074 0.256074 0.256074 0.256074 0.256074 0.256074 0.256074 0.256074 0.256074 0.256074 0.260378 0.260378 0.260378 0.260378 0.260378 0.260378 0.260378 0.260378 0.260378 0.256074 0.256074 0.256074 0.256074 0.256074 0.256074 0.256074 0.256074 0.256074 0.251976 0.251976 0.251976 0.251976 0.251976 0.251976 0.251976 0.251976 0.251976 0.264906 0.264906 0.264906 0.264906 0.264906 0.264906 0.264906 0.264906 0.264906
