# Output from CTFFind version 4.1.9, run on 2019-11-01 22:45:33
# Input file: first_bm3d_averaged_1_2.2_1.00_750_half.mrc ; Number of micrographs: 1
# Pixel size: 3.000 Angstroms ; acceleration voltage: 300.0 keV ; spherical aberration: 0.00 mm ; amplitude contrast: 0.07
# Box size: 512 pixels ; min. res.: 30.0 Angstroms ; max. res.: 5.0 Angstroms ; min. def.: 5000.0 um; max. def. 50000.0 um; num. frames averaged: 1
# 6 lines per micrograph: #1 - spatial frequency (1/Angstroms); #2 - 1D rotational average of spectrum (assuming no astigmatism); #3 - 1D rotational average of spectrum; #4 - CTF fit; #5 - cross-correlation between spectrum and CTF fit; #6 - 2sigma of expected cross correlation of noise
0.000000 0.000651 0.001302 0.001953 0.002604 0.003255 0.003906 0.004557 0.005208 0.005859 0.006510 0.007161 0.007812 0.008464 0.009115 0.009766 0.010417 0.011068 0.011719 0.012370 0.013021 0.013672 0.014323 0.014974 0.015625 0.016276 0.016927 0.017578 0.018229 0.018880 0.019531 0.020182 0.020833 0.021484 0.022135 0.022786 0.023438 0.024089 0.024740 0.025391 0.026042 0.026693 0.027344 0.027995 0.028646 0.029297 0.029948 0.030599 0.031250 0.031901 0.032552 0.033203 0.033854 0.034505 0.035156 0.035807 0.036458 0.037109 0.037760 0.038411 0.039062 0.039714 0.040365 0.041016 0.041667 0.042318 0.042969 0.043620 0.044271 0.044922 0.045573 0.046224 0.046875 0.047526 0.048177 0.048828 0.049479 0.050130 0.050781 0.051432 0.052083 0.052734 0.053385 0.054036 0.054688 0.055339 0.055990 0.056641 0.057292 0.057943 0.058594 0.059245 0.059896 0.060547 0.061198 0.061849 0.062500 0.063151 0.063802 0.064453 0.065104 0.065755 0.066406 0.067057 0.067708 0.068359 0.069010 0.069661 0.070312 0.070964 0.071615 0.072266 0.072917 0.073568 0.074219 0.074870 0.075521 0.076172 0.076823 0.077474 0.078125 0.078776 0.079427 0.080078 0.080729 0.081380 0.082031 0.082682 0.083333 0.083984 0.084635 0.085286 0.085938 0.086589 0.087240 0.087891 0.088542 0.089193 0.089844 0.090495 0.091146 0.091797 0.092448 0.093099 0.093750 0.094401 0.095052 0.095703 0.096354 0.097005 0.097656 0.098307 0.098958 0.099609 0.100260 0.100911 0.101562 0.102214 0.102865 0.103516 0.104167 0.104818 0.105469 0.106120 0.106771 0.107422 0.108073 0.108724 0.109375 0.110026 0.110677 0.111328 0.111979 0.112630 0.113281 0.113932 0.114583 0.115234 0.115885 0.116536 0.117188 0.117839 0.118490 0.119141 0.119792 0.120443 0.121094 0.121745 0.122396 0.123047 0.123698 0.124349 0.125000 0.125651 0.126302 0.126953 0.127604 0.128255 0.128906 0.129557 0.130208 0.130859 0.131510 0.132161 0.132812 0.133464 0.134115 0.134766 0.135417 0.136068 0.136719 0.137370 0.138021 0.138672 0.139323 0.139974 0.140625 0.141276 0.141927 0.142578 0.143229 0.143880 0.144531 0.145182 0.145833 0.146484 0.147135 0.147786 0.148438 0.149089 0.149740 0.150391 0.151042 0.151693 0.152344 0.152995 0.153646 0.154297 0.154948 0.155599 0.156250 0.156901 0.157552 0.158203 0.158854 0.159505 0.160156 0.160807 0.161458 0.162109 0.162760 0.163411 0.164062 0.164714 0.165365 0.166016 0.166667 0.167318 0.167969 0.168620 0.169271 0.169922 0.170573 0.171224 0.171875 0.172526 0.173177 0.173828 0.174479 0.175130 0.175781 0.176432 0.177083 0.177734 0.178385 0.179036 0.179688 0.180339 0.180990 0.181641 0.182292 0.182943 0.183594 0.184245 0.184896 0.185547 0.186198 0.186849 0.187500 0.188151 0.188802 0.189453 0.190104 0.190755 0.191406 0.192057 0.192708 0.193359 0.194010 0.194661 0.195312 0.195964 0.196615 0.197266 0.197917 0.198568 0.199219 0.199870 0.200521 0.201172 0.201823 0.202474 0.203125 0.203776 0.204427 0.205078 0.205729 0.206380 0.207031 0.207682 0.208333 0.208984 0.209635 0.210286 0.210938 0.211589 0.212240 0.212891 0.213542 0.214193 0.214844 0.215495 0.216146 0.216797 0.217448 0.218099 0.218750 0.219401 0.220052 0.220703 0.221354 0.222005 0.222656 0.223307 0.223958 0.224609 0.225260 0.225911 0.226562 0.227214 0.227865 0.228516 0.229167 0.229818 0.230469 0.231120 0.231771 0.232422 0.233073 0.233724 0.234375 0.235026 0.235677
       0.33461        0.33461        0.33461        0.33461        0.33461        0.33461        0.33461        0.33461        0.33461        0.33461        0.33461        0.33461        0.33461        0.33461        0.33461        0.33461        0.33461        0.33461        0.33461        0.33461        0.33461        0.33461        0.33461        0.33461        0.33461        0.33461        0.33461        0.33461        0.33461        0.33461        0.33461        0.33461        0.33461        0.33461        0.33461        0.33461        0.33461        0.33461        0.33461        0.33461        0.33461        0.33461        0.33461        0.33461        0.33461        0.33461        0.33461        0.33461        0.33461        0.33461        0.33461        0.50092        0.71905        0.42105        0.19499       -0.07239       -0.25211       -0.06483       -0.12691       -0.06674       -0.00158       -0.14879       -0.10672       -0.04406        0.00084       -0.15239       -0.22497       -0.33617       -0.46664       -0.57582       -0.52449       -0.46224       -0.37292       -0.55960       -0.45275       -0.61891       -0.50599       -0.47546       -0.40112       -0.37815       -0.32674       -0.23875       -0.16708       -0.13954        0.02802       -0.01545        0.11610        0.17269        0.31989        0.42538        0.47550        0.51088        0.55103        0.55804        0.69687        0.65047        0.68175        0.58962        0.56010        0.64707        0.52598        0.44293        0.40452        0.30497        0.24669        0.26632        0.25298        0.09647        0.08023        0.00490       -0.00558        0.02736       -0.01670        0.06662        0.09514        0.22436        0.28713        0.29206        0.40141        0.57093        0.54777        0.57399        0.66853        0.68621        0.63023        0.64665        0.64091        0.53891        0.56773        0.40095        0.35800        0.26797        0.18194        0.08075        0.14206        0.11165        0.11138        0.12125        0.20482        0.19040        0.31494        0.35194        0.40800        0.49342        0.55506        0.54768        0.55588        0.60542        0.53630        0.47511        0.48384        0.32466        0.25606        0.25937        0.24649        0.14447        0.14686        0.15460        0.22790        0.26133        0.33845        0.38325        0.40948        0.45282        0.44835        0.48271        0.44276        0.47825        0.44193        0.38653        0.36627        0.36942        0.33531        0.29398        0.21106        0.21818        0.22709        0.27379        0.26283        0.35155        0.38522        0.35909        0.41182        0.44855        0.43993        0.43100        0.44155        0.35963        0.33378        0.28602        0.25533        0.29960        0.26214        0.29555        0.30947        0.34345        0.33300        0.39895        0.39322        0.43719        0.40001        0.45320        0.40855        0.37278        0.28213        0.28077        0.28532        0.27632        0.27131        0.33491        0.35939        0.33184        0.36696        0.37407        0.34929        0.41687        0.40412        0.36714        0.34753        0.30133        0.30213        0.32093        0.31273        0.31229        0.29532        0.34070        0.36144        0.37681        0.34166        0.33249        0.32856        0.35353        0.32104        0.29656        0.31983        0.32145        0.32871        0.32850        0.33823        0.36527        0.32935        0.32443        0.34242        0.31202        0.26733        0.25835        0.27655        0.30743        0.31649        0.35909        0.29507        0.30442        0.32933        0.29671        0.32234        0.28975        0.27613        0.27654        0.28153        0.29279        0.34282        0.31684        0.33261        0.32015        0.34146        0.34883        0.31715        0.32703        0.33671        0.26953        0.28820        0.31230        0.28282        0.32479        0.32253        0.33187        0.32472        0.35300        0.33934        0.29110        0.24255        0.27590        0.33439        0.35574        0.35219        0.31473        0.30025        0.30259        0.31392        0.26446        0.29115        0.30581        0.32927        0.30398        0.28292        0.26078        0.33888        0.33362        0.34224        0.30165        0.29997        0.30582        0.39167        0.35474        0.33181        0.32313        0.30776        0.29331        0.30662        0.31085        0.29341        0.23050        0.26623        0.30187        0.30952        0.29656        0.26867        0.26325        0.23236        0.22452        0.29310        0.32062        0.30095        0.30672        0.31088        0.35223        0.24535        0.21631        0.24958        0.24333        0.27800        0.28766        0.33021        0.25651        0.28471        0.27680        0.23284        0.28045        0.28251        0.24608        0.19788        0.23575        0.22897        0.24520        0.30138        0.29110        0.34995        0.33215        0.28433        0.26397        0.18713        0.25890        0.29905        0.25584        0.19456        0.24241        0.25722        0.17847        0.24115        0.19113        0.09438       -0.48495       -0.81737
2.651084 2.623231 2.595528 2.567974 2.540569 2.513314 2.486208 2.459251 2.432444 2.405786 2.379277 2.352917 2.326707 2.300646 2.274734 2.248972 2.223359 2.197895 2.172581 2.147416 2.122400 2.097534 2.072816 2.048248 2.023830 1.999561 1.975441 1.951470 1.927648 1.903976 1.880454 1.857080 1.833856 1.810781 1.787856 1.765079 1.742452 1.719975 1.697646 1.675467 1.653438 1.631557 1.609826 1.588244 1.566812 1.545528 1.524395 1.503410 1.482575 1.461889 1.441352 1.505246 1.820273 1.488600 1.184690 0.930118 0.538353 0.903697 0.632155 0.840300 0.904883 0.584697 0.673649 0.772141 0.816815 0.607925 0.517445 0.353374 0.090607 0.048019 0.032104 0.044158 0.291400 -0.054761 0.059842 -0.132762 -0.034968 -0.018379 0.052477 0.061058 0.110698 0.180517 0.272692 0.240179 0.466772 0.391891 0.539207 0.529812 0.779415 0.793243 0.885610 0.949028 0.932687 0.960247 1.114236 0.951833 1.142284 0.937362 0.860602 1.006568 0.844596 0.765344 0.652844 0.573909 0.467826 0.428504 0.503350 0.259815 0.194157 0.166728 0.018924 0.191751 -0.016646 0.115053 0.170227 0.255398 0.341526 0.340394 0.444589 0.556821 0.687238 0.535855 0.737465 0.851496 0.631679 0.717605 0.685853 0.583690 0.530149 0.474786 0.318062 0.219376 0.122263 -0.022270 -0.016159 0.044634 -0.066938 -0.046944 0.074504 0.035833 0.097621 0.225618 0.236828 0.324221 0.418061 0.440799 0.461655 0.449621 0.459043 0.333333 0.343627 0.245711 0.049180 0.070971 0.026492 -0.044173 -0.095031 -0.087376 -0.020358 -0.022710 0.090672 0.138353 0.162918 0.252113 0.226472 0.264559 0.289434 0.238829 0.248915 0.216767 0.146752 0.126556 0.136500 0.040363 0.029482 -0.100612 -0.024327 0.011073 0.011971 0.017316 0.127517 0.090692 0.142279 0.182953 0.265617 0.160535 0.211515 0.119312 0.131743 0.031512 -0.027705 0.015211 -0.000963 -0.000471 0.005767 0.052638 0.059612 0.068082 0.151654 0.127230 0.159205 0.088044 0.182368 0.099971 0.010535 -0.041109 -0.035877 -0.031314 -0.059085 -0.036713 0.063857 0.053434 -0.007555 0.078092 0.080259 0.065814 0.154589 0.077109 0.084810 0.048565 -0.031625 0.027027 0.008498 0.010954 0.024564 0.008512 0.052547 0.065587 0.067085 0.037776 0.036456 0.001302 0.077660 -0.002609 -0.005307 0.024673 0.008993 0.053933 0.041913 0.043507 0.056113 0.038515 0.020941 0.039696 -0.002708 -0.055453 -0.034109 -0.017952 0.001657 0.020266 0.100077 -0.023189 0.038259 0.062586 0.008533 0.066682 0.020486 0.002641 0.020810 0.034453 0.040310 0.096658 0.037814 0.096593 0.082466 0.103898 0.086994 0.086488 0.099058 0.069661 -0.003288 0.064342 0.057041 0.039180 0.101372 0.083180 0.039068 0.078070 0.103083 0.052297 0.039104 -0.068230 0.022148 0.113105 0.093506 0.081513 0.062863 0.006694 0.052074 0.050095 -0.033093 0.045913 0.044331 0.080754 0.062237 -0.033739 -0.008698 0.097004 0.042023 0.036041 0.025479 -0.013975 0.059753 0.123220 0.056667 0.013721 0.049160 0.011263 -0.029790 -0.010651 0.001743 -0.034466 -0.103492 -0.041112 -0.013947 0.014969 -0.035524 -0.083072 -0.024734 -0.072644 -0.039096 -0.040953 0.056845 0.012297 0.030279 0.028560 0.092028 -0.084707 -0.073066 -0.053228 -0.059228 0.020016 -0.007062 0.083843 -0.071123 -0.006099 0.026784 -0.060005 0.021440 0.033971 -0.040583 -0.111879 -0.025967 -0.023442 -0.006885 0.016823 0.034363 0.158111 0.072048 0.056461 0.018465 -0.057162 0.000085 0.063497 0.303765 0.236933 0.296287 0.272870 0.236573 0.263169 0.139441 0.117680 -0.958890
0.072396 0.072910 0.074452 0.077021 0.080617 0.085239 0.090885 0.097555 0.105244 0.113952 0.123674 0.134405 0.146140 0.158872 0.172593 0.187293 0.202960 0.219581 0.237140 0.255619 0.274996 0.295246 0.316343 0.338254 0.360945 0.384375 0.408502 0.433275 0.458642 0.484541 0.510909 0.537674 0.564759 0.592079 0.619545 0.647058 0.674514 0.701802 0.728804 0.755392 0.781435 0.806792 0.831317 0.854857 0.877252 0.898338 0.917943 0.935894 0.952012 0.966115 0.978020 0.987543 0.994500 0.998709 0.999991 0.998171 0.993083 0.984566 0.972472 0.956665 0.937021 0.913436 0.885823 0.854117 0.818277 0.778286 0.734157 0.685935 0.633695 0.577548 0.517643 0.454165 0.387340 0.317436 0.244761 0.169666 0.092546 0.013835 0.065990 0.146414 0.226884 0.306813 0.385583 0.462547 0.537039 0.608375 0.675860 0.738795 0.796485 0.848249 0.893425 0.931379 0.961521 0.983306 0.996251 0.999942 0.994043 0.978309 0.952593 0.916856 0.871172 0.815739 0.750883 0.677058 0.594857 0.505005 0.408359 0.305910 0.198769 0.088164 0.024573 0.138018 0.250673 0.360982 0.467355 0.568190 0.661893 0.746915 0.821769 0.885067 0.935545 0.972092 0.993781 0.999892 0.989942 0.963701 0.921215 0.862817 0.789142 0.701126 0.600006 0.487315 0.364862 0.234716 0.099174 0.039272 0.177979 0.314199 0.445135 0.567994 0.680056 0.778732 0.861632 0.926627 0.971915 0.996074 0.998120 0.977547 0.934364 0.869121 0.782918 0.677408 0.554775 0.417709 0.269353 0.113245 0.046757 0.206569 0.361980 0.508762 0.642787 0.760152 0.857296 0.931120 0.979098 0.999378 0.990862 0.953278 0.887217 0.794155 0.676445 0.537275 0.380604 0.211067 0.033845 0.145474 0.321077 0.487106 0.637855 0.767978 0.872685 0.947940 0.990626 0.998697 0.971296 0.908829 0.813001 0.686799 0.534430 0.361205 0.173375 0.022078 0.217687 0.405788 0.578809 0.729591 0.851696 0.939693 0.989431 0.998256 0.965178 0.890972 0.778210 0.631207 0.455894 0.259604 0.050796 0.161300 0.367076 0.556983 0.721984 0.853993 0.946299 0.993934 0.993973 0.945747 0.850947 0.713621 0.540045 0.338479 0.118796 0.107967 0.330148 0.536071 0.714649 0.856008 0.952061 0.997002 0.987699 0.923952 0.808592 0.647420 0.448963 0.224066 0.014667 0.253551 0.478604 0.676357 0.834696 0.943615 0.995901 0.987655 0.918634 0.792368 0.616054 0.400199 0.158049 0.095190 0.343288 0.570017 0.760231 0.900900 0.982051 0.997517 0.945476 0.828687 0.654431 0.434132 0.182655 0.082634 0.343064 0.579940 0.775914 0.916285 0.990143 0.991290 0.918822 0.777338 0.576735 0.331606 0.060213 0.216797 0.477975 0.702709 0.872880 0.974387 0.998369 0.942055 0.809151 0.609696 0.359389 0.078443 0.210023 0.481839 0.713818 0.885769 0.982304 0.994295 0.919819 0.764511 0.541244 0.269159 0.027904 0.323445 0.590645 0.804823 0.945761 0.999680 0.960688 0.831516 0.623457 0.355504 0.052695 0.256161 0.541182 0.774339 0.932230 0.998522 0.965735 0.836198 0.622029 0.344138 0.030279 0.287668 0.576871 0.806982 0.953363 0.999808 0.940463 0.780666 0.536636 0.233943 0.095074 0.414684 0.689649 0.889131 0.990232 0.980733 0.860704 0.642755 0.350868 0.017875 0.318153 0.618209 0.846926 0.976790 0.991575 0.888510 0.678889 0.387007 0.047466 0.298810 0.609480 0.845976 0.978367 0.989263 0.876260 0.652539 0.345516 0.006385 0.358435 0.665247 0.886669 0.993115 0.969670 0.818343 0.558128 0.222826 0.143240 0.490983 0.773111 0.950633 0.998373
1.000000 1.000000 1.000000 1.000000 1.000000 1.000000 1.000000 1.000000 1.000000 1.000000 1.000000 1.000000 1.000000 1.000000 1.000000 1.000000 1.000000 1.000000 1.000000 1.000000 1.000000 1.000000 1.000000 1.000000 1.000000 1.000000 1.000000 1.000000 1.000000 1.000000 1.000000 1.000000 1.000000 1.000000 1.000000 1.000000 1.000000 1.000000 1.000000 1.000000 1.000000 1.000000 1.000000 1.000000 1.000000 1.000000 1.000000 1.000000 1.000000 1.000000 1.000000 1.000000 0.915933 0.915933 0.901107 0.901107 0.901107 0.901107 0.901107 0.901107 0.901107 0.901107 0.901107 0.901107 0.901107 0.901107 0.901107 0.901107 0.901107 0.901107 0.901107 0.901107 0.901107 0.901107 0.901107 0.901107 0.901107 0.901107 0.901107 0.901107 0.901107 0.901107 0.901107 0.901107 0.901107 0.901107 0.901107 0.901107 0.901107 0.901107 0.901107 0.901107 0.901107 0.901107 0.901107 0.897335 0.902242 0.904821 0.903298 0.906923 0.906998 0.904833 0.904315 0.903935 0.904263 0.905713 0.916279 0.930841 0.938343 0.940662 0.945705 0.950034 0.952355 0.953157 0.956751 0.966608 0.964004 0.963527 0.964269 0.965872 0.968088 0.968316 0.969736 0.968847 0.969590 0.969725 0.969305 0.968702 0.968103 0.968203 0.967826 0.967714 0.969155 0.969618 0.969156 0.969313 0.969454 0.969503 0.967978 0.967855 0.970271 0.971352 0.971200 0.970021 0.967955 0.971922 0.972640 0.972363 0.972310 0.971860 0.972152 0.960108 0.953365 0.953456 0.947184 0.946274 0.943655 0.942653 0.941320 0.941729 0.941964 0.942999 0.938663 0.926968 0.915956 0.899050 0.922599 0.913656 0.895637 0.874487 0.873375 0.870923 0.871411 0.865067 0.856820 0.852463 0.849777 0.851726 0.856034 0.860646 0.857723 0.848529 0.851520 0.845190 0.812118 0.801498 0.791574 0.783662 0.782838 0.784256 0.780746 0.776805 0.784999 0.775567 0.772510 0.764522 0.752383 0.728500 0.719033 0.727023 0.734225 0.738385 0.732790 0.708266 0.659122 0.673597 0.694560 0.696263 0.699148 0.696140 0.689877 0.687951 0.689373 0.686200 0.683013 0.684195 0.683880 0.691173 0.694000 0.681698 0.676109 0.666522 0.652026 0.629853 0.640149 0.653248 0.628781 0.623914 0.612179 0.605504 0.608109 0.605500 0.605722 0.578264 0.563904 0.558781 0.559125 0.562791 0.570736 0.570686 0.553699 0.572341 0.554714 0.581069 0.554306 0.549716 0.551283 0.560528 0.546477 0.543671 0.542931 0.542484 0.544820 0.561833 0.573631 0.559036 0.551125 0.546854 0.560882 0.539749 0.554062 0.582566 0.560318 0.512910 0.473920 0.469791 0.435110 0.436409 0.400777 0.374220 0.385449 0.366831 0.356404 0.341690 0.333851 0.304890 0.266840 0.246635 0.239331 0.252978 0.277271 0.277039 0.269253 0.304243 0.344118 0.351070 0.342199 0.298295 0.276538 0.234221 0.220214 0.228845 0.189671 0.192947 0.179072 0.170622 0.171477 0.121034 0.167624 0.074092 0.058816 0.059625 0.082755 0.061022 0.056762 0.053080 0.016795 0.019959 0.023443 0.000563 -0.008729 0.007216 -0.018373 -0.024684 -0.014238 -0.001593 -0.010798 -0.031608 -0.024059 -0.032504 -0.029520 -0.039801 -0.042234 0.001549 0.042819 0.045908 0.054305 0.055161 0.053435 0.062756 0.061561 0.024256 0.001545 -0.041773 -0.068362 -0.068362 -0.048384 -0.048384 -0.048384 -0.048384 -0.048384 -0.048384 -0.048384 -0.048384 -0.048384 -0.052225 -0.052225 -0.052225 -0.052225 -0.052225 -0.052225 -0.052225 -0.052225 -0.052225 -0.040304 -0.040304 -0.040304 -0.040304 -0.040304 -0.040304 -0.040304 -0.040304 -0.040304
0.000000 0.000000 0.000000 0.000000 0.000000 0.000000 0.000000 0.000000 0.000000 0.000000 0.000000 0.000000 0.000000 0.000000 0.000000 0.000000 0.000000 0.000000 0.000000 0.000000 0.000000 0.000000 0.000000 0.000000 0.000000 0.000000 0.000000 0.000000 0.000000 0.000000 0.000000 0.000000 0.000000 0.000000 0.000000 0.000000 0.000000 0.000000 0.000000 0.000000 0.000000 0.000000 0.000000 0.000000 0.000000 0.000000 0.000000 0.000000 0.000000 0.000000 0.000000 0.000000 0.181818 0.181818 0.199007 0.199007 0.199007 0.199007 0.199007 0.199007 0.199007 0.199007 0.199007 0.199007 0.199007 0.199007 0.199007 0.199007 0.199007 0.199007 0.199007 0.199007 0.199007 0.199007 0.199007 0.199007 0.199007 0.199007 0.199007 0.199007 0.199007 0.199007 0.199007 0.199007 0.199007 0.199007 0.199007 0.199007 0.199007 0.199007 0.199007 0.199007 0.199007 0.199007 0.199007 0.230940 0.230940 0.230940 0.230940 0.230940 0.230940 0.230940 0.230940 0.230940 0.230940 0.230940 0.230940 0.230940 0.230940 0.230940 0.230940 0.230940 0.230940 0.230940 0.230940 0.230940 0.230940 0.230940 0.230940 0.230940 0.230940 0.230940 0.230940 0.244339 0.244339 0.244339 0.244339 0.244339 0.244339 0.244339 0.244339 0.244339 0.244339 0.244339 0.244339 0.244339 0.244339 0.244339 0.244339 0.244339 0.244339 0.244339 0.244339 0.244339 0.244339 0.244339 0.251976 0.251976 0.251976 0.251976 0.251976 0.251976 0.251976 0.251976 0.251976 0.251976 0.251976 0.251976 0.251976 0.251976 0.251976 0.251976 0.251976 0.251976 0.251976 0.251976 0.264906 0.264906 0.264906 0.264906 0.264906 0.264906 0.264906 0.264906 0.264906 0.264906 0.264906 0.264906 0.264906 0.264906 0.264906 0.264906 0.264906 0.264906 0.264906 0.264906 0.264906 0.264906 0.264906 0.264906 0.264906 0.264906 0.264906 0.264906 0.264906 0.264906 0.264906 0.264906 0.264906 0.264906 0.264906 0.264906 0.264906 0.264906 0.264906 0.264906 0.264906 0.264906 0.264906 0.264906 0.264906 0.264906 0.264906 0.264906 0.264906 0.264906 0.264906 0.264906 0.264906 0.264906 0.264906 0.264906 0.264906 0.264906 0.264906 0.264906 0.264906 0.264906 0.264906 0.264906 0.264906 0.264906 0.264906 0.264906 0.264906 0.264906 0.264906 0.264906 0.264906 0.264906 0.264906 0.269680 0.269680 0.269680 0.269680 0.269680 0.269680 0.269680 0.269680 0.269680 0.269680 0.269680 0.269680 0.264906 0.264906 0.264906 0.264906 0.264906 0.264906 0.264906 0.264906 0.264906 0.264906 0.264906 0.264906 0.269680 0.269680 0.269680 0.269680 0.269680 0.269680 0.269680 0.269680 0.269680 0.269680 0.269680 0.264906 0.264906 0.264906 0.264906 0.264906 0.264906 0.264906 0.264906 0.264906 0.264906 0.264906 0.256074 0.256074 0.256074 0.256074 0.256074 0.256074 0.256074 0.256074 0.256074 0.256074 0.256074 0.264906 0.264906 0.264906 0.264906 0.264906 0.264906 0.264906 0.264906 0.264906 0.264906 0.269680 0.269680 0.269680 0.269680 0.269680 0.269680 0.269680 0.269680 0.269680 0.256074 0.256074 0.256074 0.256074 0.256074 0.256074 0.256074 0.256074 0.256074 0.256074 0.260378 0.260378 0.260378 0.260378 0.260378 0.260378 0.260378 0.260378 0.260378 0.256074 0.256074 0.256074 0.256074 0.256074 0.256074 0.256074 0.256074 0.256074 0.251976 0.251976 0.251976 0.251976 0.251976 0.251976 0.251976 0.251976 0.251976 0.264906 0.264906 0.264906 0.264906 0.264906 0.264906 0.264906 0.264906 0.264906
