# Output from CTFFind version 4.1.9, run on 2019-11-01 22:45:22
# Input file: first_bm3d_averaged_1_2.2_1.00_250_half.mrc ; Number of micrographs: 1
# Pixel size: 3.000 Angstroms ; acceleration voltage: 300.0 keV ; spherical aberration: 0.00 mm ; amplitude contrast: 0.07
# Box size: 512 pixels ; min. res.: 30.0 Angstroms ; max. res.: 5.0 Angstroms ; min. def.: 5000.0 um; max. def. 50000.0 um; num. frames averaged: 1
# 6 lines per micrograph: #1 - spatial frequency (1/Angstroms); #2 - 1D rotational average of spectrum (assuming no astigmatism); #3 - 1D rotational average of spectrum; #4 - CTF fit; #5 - cross-correlation between spectrum and CTF fit; #6 - 2sigma of expected cross correlation of noise
0.000000 0.000651 0.001302 0.001953 0.002604 0.003255 0.003906 0.004557 0.005208 0.005859 0.006510 0.007161 0.007812 0.008464 0.009115 0.009766 0.010417 0.011068 0.011719 0.012370 0.013021 0.013672 0.014323 0.014974 0.015625 0.016276 0.016927 0.017578 0.018229 0.018880 0.019531 0.020182 0.020833 0.021484 0.022135 0.022786 0.023438 0.024089 0.024740 0.025391 0.026042 0.026693 0.027344 0.027995 0.028646 0.029297 0.029948 0.030599 0.031250 0.031901 0.032552 0.033203 0.033854 0.034505 0.035156 0.035807 0.036458 0.037109 0.037760 0.038411 0.039062 0.039714 0.040365 0.041016 0.041667 0.042318 0.042969 0.043620 0.044271 0.044922 0.045573 0.046224 0.046875 0.047526 0.048177 0.048828 0.049479 0.050130 0.050781 0.051432 0.052083 0.052734 0.053385 0.054036 0.054688 0.055339 0.055990 0.056641 0.057292 0.057943 0.058594 0.059245 0.059896 0.060547 0.061198 0.061849 0.062500 0.063151 0.063802 0.064453 0.065104 0.065755 0.066406 0.067057 0.067708 0.068359 0.069010 0.069661 0.070312 0.070964 0.071615 0.072266 0.072917 0.073568 0.074219 0.074870 0.075521 0.076172 0.076823 0.077474 0.078125 0.078776 0.079427 0.080078 0.080729 0.081380 0.082031 0.082682 0.083333 0.083984 0.084635 0.085286 0.085938 0.086589 0.087240 0.087891 0.088542 0.089193 0.089844 0.090495 0.091146 0.091797 0.092448 0.093099 0.093750 0.094401 0.095052 0.095703 0.096354 0.097005 0.097656 0.098307 0.098958 0.099609 0.100260 0.100911 0.101562 0.102214 0.102865 0.103516 0.104167 0.104818 0.105469 0.106120 0.106771 0.107422 0.108073 0.108724 0.109375 0.110026 0.110677 0.111328 0.111979 0.112630 0.113281 0.113932 0.114583 0.115234 0.115885 0.116536 0.117188 0.117839 0.118490 0.119141 0.119792 0.120443 0.121094 0.121745 0.122396 0.123047 0.123698 0.124349 0.125000 0.125651 0.126302 0.126953 0.127604 0.128255 0.128906 0.129557 0.130208 0.130859 0.131510 0.132161 0.132812 0.133464 0.134115 0.134766 0.135417 0.136068 0.136719 0.137370 0.138021 0.138672 0.139323 0.139974 0.140625 0.141276 0.141927 0.142578 0.143229 0.143880 0.144531 0.145182 0.145833 0.146484 0.147135 0.147786 0.148438 0.149089 0.149740 0.150391 0.151042 0.151693 0.152344 0.152995 0.153646 0.154297 0.154948 0.155599 0.156250 0.156901 0.157552 0.158203 0.158854 0.159505 0.160156 0.160807 0.161458 0.162109 0.162760 0.163411 0.164062 0.164714 0.165365 0.166016 0.166667 0.167318 0.167969 0.168620 0.169271 0.169922 0.170573 0.171224 0.171875 0.172526 0.173177 0.173828 0.174479 0.175130 0.175781 0.176432 0.177083 0.177734 0.178385 0.179036 0.179688 0.180339 0.180990 0.181641 0.182292 0.182943 0.183594 0.184245 0.184896 0.185547 0.186198 0.186849 0.187500 0.188151 0.188802 0.189453 0.190104 0.190755 0.191406 0.192057 0.192708 0.193359 0.194010 0.194661 0.195312 0.195964 0.196615 0.197266 0.197917 0.198568 0.199219 0.199870 0.200521 0.201172 0.201823 0.202474 0.203125 0.203776 0.204427 0.205078 0.205729 0.206380 0.207031 0.207682 0.208333 0.208984 0.209635 0.210286 0.210938 0.211589 0.212240 0.212891 0.213542 0.214193 0.214844 0.215495 0.216146 0.216797 0.217448 0.218099 0.218750 0.219401 0.220052 0.220703 0.221354 0.222005 0.222656 0.223307 0.223958 0.224609 0.225260 0.225911 0.226562 0.227214 0.227865 0.228516 0.229167 0.229818 0.230469 0.231120 0.231771 0.232422 0.233073 0.233724 0.234375 0.235026 0.235677
       0.33233        0.33233        0.33233        0.33233        0.33233        0.33233        0.33233        0.33233        0.33233        0.33233        0.33233        0.33233        0.33233        0.33233        0.33233        0.33233        0.33233        0.33233        0.33233        0.33233        0.33233        0.33233        0.33233        0.33233        0.33233        0.33233        0.33233        0.33233        0.33233        0.33233        0.33233        0.33233        0.33233        0.33233        0.33233        0.33233        0.33233        0.33233        0.33233        0.33233        0.33233        0.33233        0.33233        0.33233        0.33233        0.33233        0.33233        0.33233        0.33233        0.33233        0.33233        0.49860        0.71945        0.42013        0.19402       -0.07047       -0.25055       -0.06597       -0.12381       -0.06954       -0.00389       -0.15422       -0.10794       -0.04888       -0.00342       -0.15348       -0.22969       -0.33791       -0.46661       -0.57371       -0.52079       -0.45704       -0.37494       -0.56175       -0.45469       -0.61855       -0.50943       -0.47440       -0.40178       -0.37744       -0.32453       -0.24126       -0.17175       -0.14006        0.02824       -0.01370        0.11451        0.17079        0.31755        0.42504        0.47007        0.51324        0.55241        0.55970        0.68999        0.64125        0.67493        0.59038        0.56005        0.63637        0.51853        0.44058        0.40206        0.30270        0.24840        0.26097        0.25443        0.08988        0.07208        0.00545       -0.00138        0.02766       -0.02142        0.06024        0.10237        0.22418        0.28859        0.28365        0.39719        0.56971        0.54424        0.57298        0.66247        0.68906        0.62953        0.64752        0.63976        0.54188        0.56704        0.40533        0.35558        0.26319        0.17781        0.08293        0.13868        0.10514        0.11635        0.12153        0.20360        0.19032        0.31438        0.34945        0.40869        0.49428        0.54919        0.54756        0.54626        0.59724        0.51797        0.46445        0.48070        0.32439        0.25602        0.25598        0.24144        0.13863        0.14401        0.15458        0.22136        0.25182        0.33652        0.38706        0.41178        0.45130        0.44659        0.48774        0.44480        0.48044        0.43804        0.38047        0.36392        0.36850        0.33635        0.28955        0.20768        0.21238        0.22381        0.27493        0.25916        0.35451        0.38874        0.35623        0.40735        0.44915        0.43626        0.43374        0.44425        0.36352        0.32894        0.28976        0.25405        0.29631        0.25846        0.29700        0.30882        0.33274        0.32679        0.39066        0.38713        0.43441        0.39844        0.45777        0.40379        0.36497        0.28089        0.27709        0.27775        0.27023        0.26582        0.32960        0.34779        0.32807        0.36697        0.37132        0.34582        0.42290        0.39736        0.36883        0.34495        0.29558        0.30229        0.32195        0.31436        0.31702        0.29291        0.33398        0.35405        0.37292        0.34299        0.33331        0.32974        0.35132        0.32562        0.29390        0.31652        0.31559        0.33432        0.32577        0.33488        0.35391        0.32047        0.32606        0.34160        0.31431        0.27494        0.26243        0.27082        0.30779        0.31237        0.35697        0.28773        0.30039        0.32326        0.29717        0.31573        0.28406        0.27538        0.27738        0.27958        0.29011        0.33754        0.31524        0.33047        0.31647        0.34194        0.34689        0.31303        0.32396        0.33552        0.26101        0.27252        0.31486        0.28674        0.31368        0.31908        0.32326        0.33095        0.35367        0.33845        0.29222        0.24487        0.27839        0.33078        0.34336        0.35011        0.31794        0.30150        0.30997        0.31299        0.27162        0.28916        0.30545        0.32952        0.30421        0.27100        0.24997        0.32704        0.33250        0.33673        0.29530        0.29729        0.30756        0.38253        0.35390        0.32526        0.31985        0.29959        0.29485        0.29738        0.31710        0.29870        0.23668        0.26675        0.30364        0.30379        0.29488        0.25990        0.26280        0.22957        0.22312        0.29648        0.30809        0.29705        0.28867        0.30234        0.34960        0.25560        0.22169        0.23285        0.24566        0.26821        0.28598        0.33516        0.24899        0.28628        0.29111        0.22485        0.28678        0.29347        0.24818        0.21099        0.24562        0.20927        0.21720        0.29038        0.28301        0.36329        0.34617        0.27775        0.23562        0.16831        0.26243        0.32386        0.25591        0.21260        0.25799        0.27892        0.18618        0.21337        0.14428        0.06612       -0.49341       -0.74521
2.689802 2.661386 2.633124 2.605015 2.577061 2.549260 2.521613 2.494121 2.466782 2.439597 2.412565 2.385688 2.358965 2.332395 2.305980 2.279718 2.253610 2.227656 2.201856 2.176210 2.150718 2.125379 2.100195 2.075164 2.050288 2.025565 2.000996 1.976581 1.952320 1.928213 1.904259 1.880460 1.856814 1.833323 1.809985 1.786801 1.763771 1.740895 1.718173 1.695604 1.673190 1.650930 1.628823 1.606870 1.585071 1.563426 1.541935 1.520598 1.499415 1.478385 1.457510 1.520983 1.847085 1.514338 1.192477 0.926186 0.572034 0.912758 0.642282 0.847423 0.913203 0.584619 0.680508 0.773405 0.820211 0.614518 0.513046 0.356151 0.090657 0.046093 0.034728 0.049425 0.294705 -0.064667 0.056613 -0.137506 -0.040797 -0.019581 0.050868 0.055449 0.116394 0.181187 0.266345 0.238541 0.470837 0.398897 0.545177 0.533677 0.784167 0.802262 0.890441 0.965569 0.940629 0.978010 1.130546 0.974771 1.134759 0.946390 0.878416 1.006372 0.847772 0.768786 0.661202 0.574847 0.483492 0.425195 0.509855 0.259109 0.183407 0.167883 0.025530 0.195018 -0.019097 0.106163 0.174611 0.266043 0.347194 0.340736 0.445440 0.563824 0.693170 0.543817 0.761364 0.830134 0.641170 0.732066 0.694895 0.600016 0.537765 0.490106 0.323030 0.219017 0.124567 -0.018936 -0.014285 0.035402 -0.057420 -0.046307 0.083342 0.036866 0.101126 0.232862 0.240918 0.341614 0.438025 0.454888 0.447599 0.455456 0.452733 0.321989 0.354688 0.251456 0.056934 0.074194 0.031248 -0.047563 -0.094127 -0.084819 -0.013548 -0.028998 0.090672 0.151578 0.180710 0.258266 0.235912 0.263565 0.307067 0.236544 0.255750 0.218372 0.151745 0.126597 0.149805 0.044957 0.029194 -0.099117 -0.024168 0.019619 0.025854 0.016608 0.151702 0.100557 0.146379 0.205368 0.262922 0.168432 0.242294 0.139569 0.152493 0.041633 -0.008872 0.020271 0.016346 0.002733 0.034421 0.062169 0.058165 0.087099 0.167682 0.128606 0.180038 0.121895 0.219811 0.105798 0.031325 -0.015807 -0.022761 -0.016727 -0.044923 -0.013619 0.075032 0.077101 0.000962 0.139560 0.103068 0.092806 0.189979 0.099668 0.116216 0.070787 -0.008651 0.057120 0.042359 0.039060 0.061395 0.027267 0.076396 0.072558 0.098448 0.071857 0.065978 0.033590 0.102810 0.034323 0.013996 0.052438 0.031888 0.091802 0.062571 0.075653 0.076687 0.047612 0.044325 0.062571 0.026270 -0.021615 -0.012400 -0.007125 0.023994 0.040270 0.115814 -0.006063 0.051218 0.086082 0.007211 0.070444 0.019847 0.009883 0.024975 0.034756 0.040880 0.099058 0.033813 0.098191 0.079336 0.122219 0.087717 0.092710 0.106818 0.063350 -0.001129 0.043252 0.074786 0.043608 0.087830 0.075835 0.047838 0.096013 0.099468 0.049506 0.042345 -0.063820 0.028792 0.101500 0.079497 0.089430 0.034256 0.040165 0.032508 0.043682 -0.035898 0.030731 0.038387 0.074031 0.052439 -0.044908 -0.007696 0.063533 0.070302 0.046777 0.020307 -0.000697 0.067658 0.124564 0.068628 0.013498 0.049616 0.007267 -0.015755 0.000153 0.038689 -0.001301 -0.079163 -0.014176 0.010755 0.018252 -0.008625 -0.025517 0.014045 -0.037674 -0.020666 0.001020 0.078970 0.036124 0.047400 0.061282 0.105908 0.012721 -0.037519 -0.013392 -0.033574 0.058552 0.031503 0.117883 -0.026138 0.056970 0.047871 -0.050256 0.062994 0.088659 -0.042983 -0.065523 -0.004899 -0.033399 -0.095088 0.034539 0.035055 0.161518 0.085896 0.037997 -0.039499 -0.107864 0.007060 0.385502 0.218290 0.257726 0.321284 0.310414 0.240275 0.244540 0.079285 0.086514 -0.887153
0.072396 0.072911 0.074456 0.077030 0.080632 0.085263 0.090920 0.097601 0.105305 0.114029 0.123768 0.134519 0.146276 0.159031 0.172777 0.187504 0.203200 0.219851 0.237442 0.255953 0.275364 0.295649 0.316782 0.338730 0.361458 0.384927 0.409092 0.433904 0.459308 0.485245 0.511649 0.538449 0.565567 0.592919 0.620412 0.647951 0.675429 0.702735 0.729749 0.756345 0.782389 0.807741 0.832254 0.855773 0.878140 0.899187 0.918744 0.936636 0.952684 0.966705 0.978516 0.987932 0.994768 0.998842 0.999975 0.997992 0.992726 0.984017 0.971718 0.955690 0.935813 0.911982 0.884111 0.852137 0.816018 0.775742 0.731322 0.682804 0.630267 0.573825 0.513627 0.449863 0.382763 0.312597 0.239678 0.164361 0.087043 0.008164 0.071796 0.152317 0.232843 0.312781 0.391509 0.468380 0.542721 0.613846 0.681057 0.743654 0.800942 0.852237 0.896878 0.934234 0.963714 0.984778 0.996947 0.999812 0.993044 0.976405 0.949758 0.913073 0.866436 0.810056 0.744273 0.669555 0.586509 0.495874 0.398525 0.295465 0.187822 0.076837 0.036142 0.149681 0.262271 0.372346 0.478309 0.578554 0.671486 0.755557 0.829285 0.891291 0.940321 0.975282 0.995265 0.999576 0.987754 0.959603 0.915200 0.854915 0.779419 0.689687 0.586996 0.472915 0.349294 0.218235 0.082069 0.056685 0.195360 0.331192 0.461372 0.583107 0.693681 0.790522 0.871260 0.933804 0.976391 0.997653 0.996663 0.972983 0.926693 0.858422 0.769348 0.661204 0.536253 0.397261 0.247438 0.090384 0.069996 0.229580 0.384135 0.529431 0.661352 0.776027 0.869949 0.940087 0.984006 0.999957 0.986963 0.944881 0.874439 0.777258 0.655829 0.513477 0.354286 0.183000 0.004892 0.174391 0.348994 0.513056 0.660900 0.787244 0.887397 0.957452 0.994456 0.996550 0.963085 0.894687 0.793291 0.662106 0.505554 0.329138 0.139269 0.056946 0.251962 0.438089 0.607785 0.753978 0.870373 0.951739 0.994172 0.995305 0.954465 0.872764 0.753111 0.600150 0.420111 0.220584 0.010224 0.201603 0.405245 0.591188 0.750521 0.875370 0.959319 0.997770 0.988219 0.930461 0.826665 0.681354 0.501240 0.294968 0.072714 0.154278 0.374266 0.575606 0.747386 0.880029 0.965865 0.999603 0.978706 0.903609 0.777797 0.607693 0.402384 0.173176 0.066995 0.304273 0.524680 0.714938 0.863297 0.960286 0.999371 0.977433 0.895070 0.756665 0.570220 0.346950 0.100658 0.153089 0.397919 0.617715 0.797688 0.925405 0.991690 0.991339 0.923589 0.792292 0.605778 0.376389 0.119727 0.146367 0.403043 0.631757 0.815637 0.940762 0.997274 0.980214 0.890025 0.732664 0.519294 0.265562 0.009483 0.284787 0.538893 0.751602 0.905641 0.988092 0.991563 0.914920 0.763540 0.549042 0.288462 0.002993 0.283717 0.547490 0.765673 0.919122 0.993938 0.982814 0.885829 0.710629 0.471924 0.190349 0.109251 0.399972 0.655268 0.851386 0.969636 0.998255 0.933669 0.781029 0.553921 0.273266 0.034516 0.339953 0.613310 0.827508 0.960862 0.999360 0.938243 0.782691 0.547526 0.255924 0.062792 0.376025 0.651232 0.859321 0.977803 0.993313 0.903238 0.716234 0.451544 0.137129 0.193178 0.503282 0.758767 0.930757 0.999270 0.955661 0.803849 0.560134 0.251593 0.086820 0.416157 0.697955 0.898741 0.994117 0.971836 0.833522 0.594762 0.283513 0.063051 0.402892 0.694187 0.900507 0.995473 0.966254 0.815462 0.561133 0.234733 0.122588 0.465121 0.748419 0.935126 0.999998 0.933483 0.743287 0.453686 0.102621 0.263193 0.594386 0.845607 0.981841 0.983412
1.000000 1.000000 1.000000 1.000000 1.000000 1.000000 1.000000 1.000000 1.000000 1.000000 1.000000 1.000000 1.000000 1.000000 1.000000 1.000000 1.000000 1.000000 1.000000 1.000000 1.000000 1.000000 1.000000 1.000000 1.000000 1.000000 1.000000 1.000000 1.000000 1.000000 1.000000 1.000000 1.000000 1.000000 1.000000 1.000000 1.000000 1.000000 1.000000 1.000000 1.000000 1.000000 1.000000 1.000000 1.000000 1.000000 1.000000 1.000000 1.000000 1.000000 1.000000 1.000000 0.914689 0.914689 0.907467 0.907467 0.907467 0.907467 0.907467 0.907467 0.907467 0.907467 0.907467 0.907467 0.907467 0.907467 0.907467 0.907467 0.907467 0.907467 0.907467 0.907467 0.907467 0.907467 0.907467 0.907467 0.907467 0.907467 0.907467 0.907467 0.907467 0.907467 0.907467 0.907467 0.907467 0.907467 0.907467 0.907467 0.907467 0.907467 0.907467 0.907467 0.907467 0.907467 0.907467 0.902685 0.908023 0.910146 0.908931 0.912286 0.912279 0.910591 0.909958 0.909690 0.910111 0.912250 0.922583 0.936847 0.944954 0.945422 0.950601 0.954665 0.957405 0.958016 0.959837 0.970661 0.967842 0.967394 0.967982 0.969096 0.970933 0.970024 0.969019 0.971745 0.972222 0.971073 0.968302 0.967660 0.967060 0.966830 0.966532 0.966633 0.966886 0.967422 0.967211 0.966652 0.966795 0.965152 0.964191 0.958410 0.961401 0.962914 0.962902 0.961659 0.959407 0.960938 0.963383 0.961097 0.960718 0.960585 0.960878 0.948295 0.944589 0.944433 0.938968 0.936075 0.934903 0.932700 0.931921 0.933594 0.935692 0.936195 0.928220 0.917464 0.904116 0.880650 0.910202 0.897994 0.874195 0.854024 0.851113 0.843340 0.842848 0.837337 0.827022 0.823269 0.821033 0.824161 0.829579 0.834693 0.830483 0.820666 0.822293 0.814833 0.776535 0.767072 0.755121 0.753332 0.749622 0.750561 0.744883 0.740600 0.749577 0.740527 0.735760 0.725515 0.713635 0.685998 0.675232 0.679302 0.687383 0.706527 0.701689 0.683232 0.627770 0.633704 0.655539 0.658236 0.657079 0.648835 0.639964 0.643034 0.642859 0.632710 0.628294 0.632248 0.632856 0.647395 0.654580 0.650342 0.642021 0.632927 0.624133 0.591681 0.593252 0.614981 0.582468 0.577015 0.569744 0.567287 0.569538 0.573647 0.574975 0.555238 0.536585 0.532960 0.525667 0.531053 0.537693 0.537316 0.519547 0.538804 0.529394 0.557332 0.552904 0.548077 0.550420 0.559649 0.543970 0.547908 0.550488 0.546768 0.545129 0.555675 0.568913 0.561706 0.562218 0.559249 0.555956 0.559008 0.563555 0.596650 0.589261 0.544971 0.513105 0.512700 0.484424 0.481359 0.437159 0.393365 0.391964 0.389850 0.385063 0.370805 0.359750 0.315953 0.283936 0.261245 0.278547 0.278926 0.308019 0.318372 0.293050 0.326486 0.362997 0.368757 0.357288 0.312734 0.310137 0.308495 0.280679 0.256039 0.238414 0.228099 0.239103 0.193622 0.199856 0.214679 0.234569 0.162930 0.129631 0.136950 0.174209 0.155797 0.151600 0.149607 0.103367 0.126263 0.100966 0.100613 0.078000 0.059966 0.081037 0.088296 0.067606 0.018968 0.012689 0.006104 -0.019238 -0.027747 -0.025247 -0.045176 -0.021900 0.023722 0.042515 0.044151 0.051154 0.079877 0.052659 0.053863 0.051230 0.007248 -0.010720 -0.049793 -0.071756 -0.071756 -0.057035 -0.057035 -0.057035 -0.057035 -0.057035 -0.057035 -0.057035 -0.057035 -0.057035 -0.068236 -0.068236 -0.068236 -0.068236 -0.068236 -0.068236 -0.068236 -0.068236 -0.047024 -0.047024 -0.047024 -0.047024 -0.047024 -0.047024 -0.047024 -0.047024 -0.047024 -0.047024
0.000000 0.000000 0.000000 0.000000 0.000000 0.000000 0.000000 0.000000 0.000000 0.000000 0.000000 0.000000 0.000000 0.000000 0.000000 0.000000 0.000000 0.000000 0.000000 0.000000 0.000000 0.000000 0.000000 0.000000 0.000000 0.000000 0.000000 0.000000 0.000000 0.000000 0.000000 0.000000 0.000000 0.000000 0.000000 0.000000 0.000000 0.000000 0.000000 0.000000 0.000000 0.000000 0.000000 0.000000 0.000000 0.000000 0.000000 0.000000 0.000000 0.000000 0.000000 0.000000 0.181818 0.181818 0.199007 0.199007 0.199007 0.199007 0.199007 0.199007 0.199007 0.199007 0.199007 0.199007 0.199007 0.199007 0.199007 0.199007 0.199007 0.199007 0.199007 0.199007 0.199007 0.199007 0.199007 0.199007 0.199007 0.199007 0.199007 0.199007 0.199007 0.199007 0.199007 0.199007 0.199007 0.199007 0.199007 0.199007 0.199007 0.199007 0.199007 0.199007 0.199007 0.199007 0.199007 0.230940 0.230940 0.230940 0.230940 0.230940 0.230940 0.230940 0.230940 0.230940 0.230940 0.230940 0.230940 0.230940 0.230940 0.230940 0.230940 0.230940 0.230940 0.230940 0.230940 0.230940 0.230940 0.230940 0.230940 0.230940 0.230940 0.230940 0.230940 0.244339 0.244339 0.244339 0.244339 0.244339 0.244339 0.244339 0.244339 0.244339 0.244339 0.244339 0.244339 0.244339 0.244339 0.244339 0.244339 0.244339 0.244339 0.244339 0.244339 0.244339 0.244339 0.244339 0.251976 0.251976 0.251976 0.251976 0.251976 0.251976 0.251976 0.251976 0.251976 0.251976 0.251976 0.251976 0.251976 0.251976 0.251976 0.251976 0.251976 0.251976 0.251976 0.251976 0.264906 0.264906 0.264906 0.264906 0.264906 0.264906 0.264906 0.264906 0.264906 0.264906 0.264906 0.264906 0.264906 0.264906 0.264906 0.264906 0.264906 0.264906 0.264906 0.264906 0.264906 0.264906 0.264906 0.264906 0.264906 0.264906 0.264906 0.264906 0.264906 0.264906 0.264906 0.264906 0.264906 0.264906 0.264906 0.264906 0.264906 0.264906 0.264906 0.264906 0.264906 0.264906 0.264906 0.264906 0.264906 0.264906 0.264906 0.264906 0.264906 0.264906 0.264906 0.264906 0.264906 0.264906 0.264906 0.264906 0.264906 0.264906 0.264906 0.264906 0.264906 0.264906 0.264906 0.264906 0.264906 0.264906 0.264906 0.264906 0.264906 0.264906 0.264906 0.264906 0.264906 0.264906 0.264906 0.269680 0.269680 0.269680 0.269680 0.269680 0.269680 0.269680 0.269680 0.269680 0.269680 0.269680 0.269680 0.264906 0.264906 0.264906 0.264906 0.264906 0.264906 0.264906 0.264906 0.264906 0.264906 0.264906 0.264906 0.269680 0.269680 0.269680 0.269680 0.269680 0.269680 0.269680 0.269680 0.269680 0.269680 0.269680 0.264906 0.264906 0.264906 0.264906 0.264906 0.264906 0.264906 0.264906 0.264906 0.264906 0.264906 0.269680 0.269680 0.269680 0.269680 0.269680 0.269680 0.269680 0.269680 0.269680 0.269680 0.264906 0.264906 0.264906 0.264906 0.264906 0.264906 0.264906 0.264906 0.264906 0.264906 0.260378 0.260378 0.260378 0.260378 0.260378 0.260378 0.260378 0.260378 0.260378 0.260378 0.256074 0.256074 0.256074 0.256074 0.256074 0.256074 0.256074 0.256074 0.256074 0.256074 0.260378 0.260378 0.260378 0.260378 0.260378 0.260378 0.260378 0.260378 0.260378 0.256074 0.256074 0.256074 0.256074 0.256074 0.256074 0.256074 0.256074 0.256074 0.269680 0.269680 0.269680 0.269680 0.269680 0.269680 0.269680 0.269680 0.248069 0.248069 0.248069 0.248069 0.248069 0.248069 0.248069 0.248069 0.248069 0.248069
