# Output from CTFFind version 4.1.9, run on 2019-11-01 22:43:24
# Input file: first_bm3d_averaged_1_1.2_1.00_1500_half.mrc ; Number of micrographs: 1
# Pixel size: 3.000 Angstroms ; acceleration voltage: 300.0 keV ; spherical aberration: 0.00 mm ; amplitude contrast: 0.07
# Box size: 512 pixels ; min. res.: 30.0 Angstroms ; max. res.: 5.0 Angstroms ; min. def.: 5000.0 um; max. def. 50000.0 um; num. frames averaged: 1
# 6 lines per micrograph: #1 - spatial frequency (1/Angstroms); #2 - 1D rotational average of spectrum (assuming no astigmatism); #3 - 1D rotational average of spectrum; #4 - CTF fit; #5 - cross-correlation between spectrum and CTF fit; #6 - 2sigma of expected cross correlation of noise
0.000000 0.000651 0.001302 0.001953 0.002604 0.003255 0.003906 0.004557 0.005208 0.005859 0.006510 0.007161 0.007812 0.008464 0.009115 0.009766 0.010417 0.011068 0.011719 0.012370 0.013021 0.013672 0.014323 0.014974 0.015625 0.016276 0.016927 0.017578 0.018229 0.018880 0.019531 0.020182 0.020833 0.021484 0.022135 0.022786 0.023438 0.024089 0.024740 0.025391 0.026042 0.026693 0.027344 0.027995 0.028646 0.029297 0.029948 0.030599 0.031250 0.031901 0.032552 0.033203 0.033854 0.034505 0.035156 0.035807 0.036458 0.037109 0.037760 0.038411 0.039062 0.039714 0.040365 0.041016 0.041667 0.042318 0.042969 0.043620 0.044271 0.044922 0.045573 0.046224 0.046875 0.047526 0.048177 0.048828 0.049479 0.050130 0.050781 0.051432 0.052083 0.052734 0.053385 0.054036 0.054688 0.055339 0.055990 0.056641 0.057292 0.057943 0.058594 0.059245 0.059896 0.060547 0.061198 0.061849 0.062500 0.063151 0.063802 0.064453 0.065104 0.065755 0.066406 0.067057 0.067708 0.068359 0.069010 0.069661 0.070312 0.070964 0.071615 0.072266 0.072917 0.073568 0.074219 0.074870 0.075521 0.076172 0.076823 0.077474 0.078125 0.078776 0.079427 0.080078 0.080729 0.081380 0.082031 0.082682 0.083333 0.083984 0.084635 0.085286 0.085938 0.086589 0.087240 0.087891 0.088542 0.089193 0.089844 0.090495 0.091146 0.091797 0.092448 0.093099 0.093750 0.094401 0.095052 0.095703 0.096354 0.097005 0.097656 0.098307 0.098958 0.099609 0.100260 0.100911 0.101562 0.102214 0.102865 0.103516 0.104167 0.104818 0.105469 0.106120 0.106771 0.107422 0.108073 0.108724 0.109375 0.110026 0.110677 0.111328 0.111979 0.112630 0.113281 0.113932 0.114583 0.115234 0.115885 0.116536 0.117188 0.117839 0.118490 0.119141 0.119792 0.120443 0.121094 0.121745 0.122396 0.123047 0.123698 0.124349 0.125000 0.125651 0.126302 0.126953 0.127604 0.128255 0.128906 0.129557 0.130208 0.130859 0.131510 0.132161 0.132812 0.133464 0.134115 0.134766 0.135417 0.136068 0.136719 0.137370 0.138021 0.138672 0.139323 0.139974 0.140625 0.141276 0.141927 0.142578 0.143229 0.143880 0.144531 0.145182 0.145833 0.146484 0.147135 0.147786 0.148438 0.149089 0.149740 0.150391 0.151042 0.151693 0.152344 0.152995 0.153646 0.154297 0.154948 0.155599 0.156250 0.156901 0.157552 0.158203 0.158854 0.159505 0.160156 0.160807 0.161458 0.162109 0.162760 0.163411 0.164062 0.164714 0.165365 0.166016 0.166667 0.167318 0.167969 0.168620 0.169271 0.169922 0.170573 0.171224 0.171875 0.172526 0.173177 0.173828 0.174479 0.175130 0.175781 0.176432 0.177083 0.177734 0.178385 0.179036 0.179688 0.180339 0.180990 0.181641 0.182292 0.182943 0.183594 0.184245 0.184896 0.185547 0.186198 0.186849 0.187500 0.188151 0.188802 0.189453 0.190104 0.190755 0.191406 0.192057 0.192708 0.193359 0.194010 0.194661 0.195312 0.195964 0.196615 0.197266 0.197917 0.198568 0.199219 0.199870 0.200521 0.201172 0.201823 0.202474 0.203125 0.203776 0.204427 0.205078 0.205729 0.206380 0.207031 0.207682 0.208333 0.208984 0.209635 0.210286 0.210938 0.211589 0.212240 0.212891 0.213542 0.214193 0.214844 0.215495 0.216146 0.216797 0.217448 0.218099 0.218750 0.219401 0.220052 0.220703 0.221354 0.222005 0.222656 0.223307 0.223958 0.224609 0.225260 0.225911 0.226562 0.227214 0.227865 0.228516 0.229167 0.229818 0.230469 0.231120 0.231771 0.232422 0.233073 0.233724 0.234375 0.235026 0.235677
       0.33249        0.33249        0.33249        0.33249        0.33249        0.33249        0.33249        0.33249        0.33249        0.33249        0.33249        0.33249        0.33249        0.33249        0.33249        0.33249        0.33249        0.33249        0.33249        0.33249        0.33249        0.33249        0.33249        0.33249        0.33249        0.33249        0.33249        0.33249        0.33249        0.33249        0.33249        0.33249        0.33249        0.33249        0.33249        0.33249        0.33249        0.33249        0.33249        0.33249        0.33249        0.33249        0.33249        0.33249        0.33249        0.33249        0.33249        0.33249        0.33249        0.33249        0.33249        0.50164        0.71807        0.42759        0.19097       -0.07973       -0.26143       -0.06857       -0.13304       -0.05619       -0.00226       -0.14842       -0.09488       -0.05002       -0.00206       -0.15192       -0.22113       -0.34507       -0.46406       -0.56223       -0.52008       -0.45126       -0.37216       -0.54912       -0.45030       -0.62221       -0.50430       -0.47458       -0.39225       -0.38343       -0.33954       -0.24871       -0.16212       -0.13919        0.03183       -0.01331        0.11903        0.16829        0.30492        0.41025        0.46372        0.49569        0.54084        0.54926        0.69241        0.64564        0.67765        0.58965        0.55613        0.65363        0.52745        0.42800        0.38606        0.31920        0.22972        0.26337        0.25122        0.10469        0.08288       -0.00011       -0.00817        0.03431       -0.00648        0.07361        0.09481        0.23078        0.28299        0.30201        0.38353        0.56096        0.53743        0.57737        0.66994        0.69797        0.62914        0.63391        0.63356        0.55030        0.57279        0.39533        0.34715        0.26575        0.18352        0.07249        0.14493        0.11768        0.09407        0.10776        0.20808        0.20821        0.31569        0.35751        0.41307        0.49188        0.58004        0.54456        0.55626        0.60628        0.53886        0.46252        0.48085        0.32356        0.25007        0.25595        0.24262        0.14149        0.14524        0.15147        0.22174        0.24740        0.33115        0.36722        0.39233        0.46487        0.44611        0.47568        0.44769        0.47010        0.44462        0.40351        0.37907        0.35542        0.31288        0.28578        0.20595        0.20154        0.22351        0.27015        0.26514        0.34724        0.37592        0.35620        0.40967        0.45500        0.44673        0.42379        0.43985        0.36757        0.33448        0.28066        0.26166        0.28834        0.26598        0.29446        0.30133        0.34707        0.33875        0.39933        0.40033        0.42314        0.41050        0.43230        0.40418        0.36640        0.28389        0.29039        0.30497        0.27667        0.25508        0.32958        0.37125        0.33916        0.35416        0.36162        0.35221        0.40656        0.40055        0.36073        0.33966        0.30922        0.31127        0.31685        0.31317        0.29939        0.28671        0.33735        0.35923        0.37509        0.33436        0.32996        0.33434        0.34563        0.30727        0.28110        0.30664        0.31820        0.33455        0.32128        0.33243        0.35475        0.33078        0.31581        0.32857        0.30102        0.26024        0.24990        0.26482        0.30500        0.32243        0.35295        0.30001        0.31352        0.33444        0.29245        0.31810        0.29119        0.28189        0.29079        0.29665        0.30952        0.34385        0.32313        0.32813        0.33160        0.31785        0.33328        0.31744        0.31997        0.31356        0.27837        0.28905        0.30937        0.28896        0.32533        0.33294        0.33466        0.31959        0.34485        0.32013        0.27726        0.25051        0.27285        0.33044        0.36049        0.34779        0.31607        0.29236        0.29933        0.31363        0.25043        0.29629        0.30190        0.32536        0.29462        0.30929        0.27939        0.33510        0.34209        0.34189        0.32403        0.29479        0.31291        0.39582        0.33372        0.31275        0.30489        0.29658        0.28341        0.29568        0.27391        0.31113        0.23369        0.27230        0.29663        0.31146        0.29626        0.27503        0.29383        0.23858        0.22737        0.26722        0.30688        0.30458        0.28780        0.28364        0.33560        0.25346        0.21985        0.30408        0.26606        0.26011        0.27781        0.38807        0.28633        0.28359        0.25486        0.24724        0.26636        0.24863        0.23418        0.16965        0.24377        0.23221        0.24932        0.31407        0.27777        0.34496        0.29385        0.25790        0.23964        0.21430        0.24285        0.28936        0.22258        0.13269        0.16805        0.24348        0.23419        0.32552        0.28489        0.04038       -0.41665       -0.92062
2.679163 2.650932 2.622852 2.594923 2.567145 2.539518 2.512043 2.484718 2.457545 2.430523 2.403653 2.376933 2.350365 2.323948 2.297682 2.271567 2.245603 2.219791 2.194129 2.168619 2.143260 2.118053 2.092996 2.068091 2.043337 2.018734 1.994282 1.969981 1.945832 1.921833 1.897986 1.874291 1.850746 1.827352 1.804110 1.781019 1.758079 1.735290 1.712652 1.690166 1.667831 1.645647 1.623614 1.601732 1.580002 1.558422 1.536994 1.515717 1.494592 1.473617 1.452794 1.522413 1.823720 1.508675 1.192150 0.937397 0.541692 0.909164 0.631724 0.867481 0.923057 0.587909 0.703643 0.779295 0.819058 0.625249 0.535827 0.347625 0.101047 0.074127 0.040901 0.075469 0.300273 -0.037114 0.079710 -0.135745 -0.016518 -0.017423 0.078292 0.064105 0.100420 0.177443 0.282435 0.247940 0.480440 0.396369 0.548233 0.527168 0.768011 0.788234 0.878523 0.921067 0.937128 0.945584 1.105341 0.948262 1.141527 0.945774 0.851124 1.015905 0.847950 0.759410 0.620418 0.594466 0.457384 0.419769 0.507961 0.265775 0.200121 0.158668 0.012243 0.205651 -0.005000 0.121976 0.176534 0.258152 0.335067 0.347489 0.430410 0.540511 0.666434 0.539348 0.747572 0.851228 0.638972 0.696735 0.668908 0.590713 0.537924 0.463480 0.301752 0.216739 0.118347 -0.040569 -0.015130 0.056555 -0.091639 -0.055619 0.051786 0.052510 0.111773 0.220244 0.240030 0.312003 0.429983 0.438891 0.456423 0.472093 0.450693 0.330075 0.333891 0.244058 0.051161 0.061909 0.017709 -0.045058 -0.096539 -0.095538 -0.014552 -0.047325 0.075716 0.125758 0.124889 0.261007 0.225849 0.246491 0.285568 0.247311 0.241261 0.213437 0.166031 0.113983 0.107494 0.025575 0.010160 -0.113778 -0.047523 0.009463 -0.001887 0.020041 0.097763 0.084236 0.134267 0.186425 0.259426 0.173469 0.185598 0.107965 0.136124 0.021624 -0.037938 0.020774 -0.025463 0.005080 -0.006619 0.035506 0.078168 0.053059 0.152462 0.096312 0.165943 0.066832 0.146873 0.095536 -0.005179 -0.058298 -0.018574 -0.032024 -0.067978 -0.069553 0.061255 0.058493 -0.010133 0.052457 0.063274 0.069925 0.142398 0.067229 0.064668 0.050136 -0.023434 0.026117 -0.000714 0.009627 0.001930 -0.003465 0.037017 0.066058 0.068314 0.030772 0.044156 0.019402 0.059329 -0.011941 -0.018455 0.021139 0.014364 0.057206 0.038120 0.043103 0.050191 0.050197 0.018312 0.032949 -0.004582 -0.052999 -0.033768 -0.028549 0.023571 0.038526 0.101438 -0.006772 0.061799 0.051817 -0.002795 0.066107 0.021457 0.010601 0.039600 0.054508 0.043535 0.096024 0.053024 0.074948 0.088945 0.071542 0.065851 0.073043 0.089292 0.043471 -0.008892 0.051549 0.042597 0.045129 0.076560 0.095313 -0.001047 0.065765 0.086403 0.011146 0.009886 -0.065071 -0.013471 0.111297 0.084988 0.057304 0.042342 -0.019508 0.057387 0.025559 -0.059092 0.051242 0.034298 0.063109 0.038800 0.003435 0.000901 0.051382 0.050056 0.021007 0.042423 -0.035498 0.067545 0.115325 0.014502 -0.006947 -0.006170 -0.002595 -0.028688 -0.027251 -0.041394 -0.009910 -0.099479 -0.024732 -0.029290 0.017583 -0.030483 -0.067473 0.025963 -0.072896 -0.047005 -0.075116 0.054146 0.010365 0.013327 -0.008686 0.086526 -0.053364 -0.056830 0.035658 -0.016589 0.010576 -0.002588 0.191449 -0.038281 0.018232 0.016492 -0.031404 0.000443 -0.024972 -0.021317 -0.159909 0.005024 -0.038184 0.004183 0.014731 0.007802 0.128833 0.022787 0.002931 -0.026908 -0.029789 -0.045811 0.033016 0.267845 0.164297 0.214212 0.247367 0.309800 0.354343 0.335309 0.049386 -1.078264
0.072396 0.072910 0.074451 0.077020 0.080615 0.085235 0.090880 0.097548 0.105235 0.113940 0.123659 0.134387 0.146119 0.158848 0.172565 0.187261 0.202924 0.219541 0.237095 0.255569 0.274940 0.295186 0.316277 0.338182 0.360867 0.384292 0.408413 0.433181 0.458541 0.484436 0.510798 0.537558 0.564638 0.591953 0.619414 0.646924 0.674377 0.701662 0.728661 0.755249 0.781291 0.806649 0.831176 0.854719 0.877119 0.898210 0.917822 0.935782 0.951910 0.966026 0.977945 0.987484 0.994459 0.998688 0.999992 0.998197 0.993136 0.984648 0.972585 0.956811 0.937202 0.913654 0.886080 0.854414 0.818615 0.778667 0.734582 0.686405 0.634209 0.578107 0.518246 0.454810 0.388027 0.318162 0.245524 0.170463 0.093373 0.014688 0.065117 0.145526 0.225988 0.305915 0.384690 0.461669 0.536183 0.607550 0.675075 0.738060 0.795811 0.847645 0.892901 0.930945 0.961186 0.983079 0.996141 0.999955 0.994187 0.978588 0.953013 0.917418 0.871877 0.816587 0.751870 0.678180 0.596107 0.506372 0.409834 0.307477 0.200412 0.089865 0.022833 0.136263 0.248926 0.359269 0.465702 0.566623 0.660442 0.745604 0.820626 0.884117 0.934811 0.971596 0.993540 0.999922 0.990253 0.964299 0.922101 0.863987 0.790587 0.702830 0.601949 0.489469 0.367193 0.237188 0.101743 0.036653 0.175361 0.311635 0.442680 0.565705 0.677987 0.776935 0.860157 0.925517 0.971209 0.995802 0.998304 0.978197 0.935482 0.870695 0.784927 0.679816 0.557536 0.420765 0.272636 0.116677 0.043261 0.203100 0.358632 0.505629 0.639963 0.757725 0.855347 0.929719 0.978304 0.999232 0.991389 0.954482 0.889082 0.796645 0.679499 0.540817 0.384535 0.215272 0.038197 0.141115 0.316856 0.483166 0.634339 0.765018 0.870401 0.946429 0.989964 0.998931 0.972443 0.910872 0.815888 0.690445 0.538719 0.365990 0.178486 0.016832 0.212511 0.400886 0.574387 0.725841 0.848787 0.937769 0.988598 0.998576 0.966667 0.893595 0.781882 0.635792 0.461211 0.265434 0.056889 0.155215 0.361281 0.551754 0.717581 0.850644 0.944190 0.993196 0.994674 0.947885 0.854451 0.718348 0.545785 0.344961 0.125703 0.100981 0.323450 0.530021 0.709583 0.852221 0.949788 0.996401 0.988840 0.926809 0.813045 0.653251 0.455866 0.231667 0.006794 0.245861 0.471554 0.670387 0.830183 0.940864 0.995117 0.988929 0.921929 0.797520 0.622776 0.408095 0.166637 0.086453 0.334968 0.562670 0.754361 0.896931 0.980287 0.998123 0.948457 0.833884 0.661529 0.442670 0.192061 0.073020 0.333918 0.571932 0.769651 0.912255 0.988690 0.992569 0.922790 0.783745 0.585144 0.341405 0.070673 0.206478 0.468603 0.695042 0.867561 0.971885 0.998935 0.945700 0.815630 0.618529 0.369889 0.089760 0.198828 0.471715 0.705646 0.880287 0.980033 0.995488 0.924434 0.772199 0.551376 0.280866 0.015646 0.311739 0.580568 0.797332 0.941592 0.999279 0.964156 0.838588 0.633524 0.367649 0.065786 0.243377 0.529959 0.765805 0.927273 0.997693 0.969185 0.843648 0.632791 0.357167 0.044265 0.274144 0.565231 0.798474 0.948930 0.999987 0.945306 0.789729 0.549002 0.248322 0.080220 0.400986 0.678637 0.882077 0.987986 0.983621 0.868476 0.654600 0.365488 0.033624 0.303087 0.605598 0.838289 0.973206 0.993547 0.895885 0.690861 0.402191 0.064064 0.282809 0.596060 0.836835 0.974705 0.991620 0.884425 0.665561 0.361804 0.011128 0.341935 0.651916 0.878289 0.990857 0.973917 0.828622 0.573159 0.240652 0.124981 0.474756 0.761156 0.944651 0.999270
1.000000 1.000000 1.000000 1.000000 1.000000 1.000000 1.000000 1.000000 1.000000 1.000000 1.000000 1.000000 1.000000 1.000000 1.000000 1.000000 1.000000 1.000000 1.000000 1.000000 1.000000 1.000000 1.000000 1.000000 1.000000 1.000000 1.000000 1.000000 1.000000 1.000000 1.000000 1.000000 1.000000 1.000000 1.000000 1.000000 1.000000 1.000000 1.000000 1.000000 1.000000 1.000000 1.000000 1.000000 1.000000 1.000000 1.000000 1.000000 1.000000 1.000000 1.000000 1.000000 0.919080 0.919080 0.905393 0.905393 0.905393 0.905393 0.905393 0.905393 0.905393 0.905393 0.905393 0.905393 0.905393 0.905393 0.905393 0.905393 0.905393 0.905393 0.905393 0.905393 0.905393 0.905393 0.905393 0.905393 0.905393 0.905393 0.905393 0.905393 0.905393 0.905393 0.905393 0.905393 0.905393 0.905393 0.905393 0.905393 0.905393 0.905393 0.905393 0.905393 0.905393 0.905393 0.905393 0.901749 0.906452 0.908434 0.906790 0.910361 0.910440 0.909731 0.910052 0.909689 0.909991 0.911372 0.921909 0.932976 0.944068 0.944611 0.949732 0.954134 0.956474 0.957430 0.958939 0.968719 0.966267 0.965823 0.966531 0.968076 0.970275 0.968904 0.968619 0.971744 0.972450 0.970748 0.968626 0.968007 0.967389 0.967474 0.967079 0.966970 0.966859 0.967362 0.967578 0.967772 0.967913 0.967955 0.968977 0.970134 0.972435 0.973414 0.973225 0.972069 0.966550 0.970419 0.971082 0.970732 0.970664 0.970199 0.970516 0.957950 0.952904 0.952847 0.949197 0.948154 0.945116 0.943661 0.942115 0.942327 0.940690 0.941144 0.938665 0.926388 0.913669 0.902684 0.921907 0.907808 0.896398 0.872765 0.873238 0.868207 0.868814 0.861182 0.855470 0.850835 0.847853 0.849189 0.848383 0.852250 0.849671 0.835041 0.838382 0.834738 0.803968 0.787773 0.772375 0.772602 0.770031 0.771211 0.770667 0.766471 0.774969 0.766617 0.765243 0.756541 0.736499 0.704496 0.688922 0.699412 0.709266 0.708609 0.705008 0.689754 0.656242 0.669098 0.697469 0.690685 0.692684 0.685190 0.679654 0.682097 0.681551 0.679013 0.672249 0.671492 0.670703 0.678434 0.682267 0.676391 0.667671 0.653184 0.640569 0.626797 0.641183 0.644476 0.611614 0.606108 0.597708 0.590777 0.580402 0.549697 0.548072 0.524629 0.513109 0.513324 0.516236 0.513499 0.521590 0.522902 0.505488 0.528109 0.530121 0.558000 0.533939 0.531789 0.532964 0.541476 0.526913 0.500742 0.493676 0.494737 0.506985 0.538464 0.575288 0.566012 0.551751 0.540439 0.554587 0.524351 0.535159 0.555280 0.531256 0.459526 0.413138 0.410248 0.371211 0.366097 0.358446 0.345777 0.345969 0.340426 0.330381 0.316932 0.305155 0.248450 0.211487 0.194357 0.169971 0.178858 0.197473 0.182839 0.184377 0.217188 0.264818 0.264101 0.255061 0.224508 0.224332 0.192131 0.200185 0.227801 0.185155 0.182316 0.175173 0.147300 0.140392 0.095897 0.131909 0.039590 0.021342 0.021018 0.040918 0.054898 0.056509 0.065201 0.033581 0.051233 0.047487 0.027761 0.016704 0.034695 0.021760 -0.009395 0.001134 0.013855 -0.002474 -0.025407 -0.006391 -0.001187 0.012646 0.005027 0.005111 0.054895 0.086292 0.075206 0.076627 0.072005 0.070361 0.049564 0.036951 0.026799 0.020490 -0.023357 -0.052067 -0.052067 -0.049361 -0.049361 -0.049361 -0.049361 -0.049361 -0.049361 -0.049361 -0.049361 -0.049361 -0.052078 -0.052078 -0.052078 -0.052078 -0.052078 -0.052078 -0.052078 -0.052078 -0.052078 -0.024664 -0.024664 -0.024664 -0.024664 -0.024664 -0.024664 -0.024664 -0.024664 -0.024664
0.000000 0.000000 0.000000 0.000000 0.000000 0.000000 0.000000 0.000000 0.000000 0.000000 0.000000 0.000000 0.000000 0.000000 0.000000 0.000000 0.000000 0.000000 0.000000 0.000000 0.000000 0.000000 0.000000 0.000000 0.000000 7.000000 4.000000 0.000000 0.000000 0.000000 0.000000 0.000000 0.000000 0.000000 0.000000 0.000000 0.000000 0.000000 0.000000 0.000000 0.000000 0.000000 0.000000 0.000000 0.000000 0.000000 0.000000 0.000000 0.000000 0.000000 0.000000 0.000000 0.181818 0.181818 0.199007 0.199007 0.199007 0.199007 0.199007 0.199007 0.199007 0.199007 0.199007 0.199007 0.199007 0.199007 0.199007 0.199007 0.199007 0.199007 0.199007 0.199007 0.199007 0.199007 0.199007 0.199007 0.199007 0.199007 0.199007 0.199007 0.199007 0.199007 0.199007 0.199007 0.199007 0.199007 0.199007 0.199007 0.199007 0.199007 0.199007 0.199007 0.199007 0.199007 0.199007 0.230940 0.230940 0.230940 0.230940 0.230940 0.230940 0.230940 0.230940 0.230940 0.230940 0.230940 0.230940 0.230940 0.230940 0.230940 0.230940 0.230940 0.230940 0.230940 0.230940 0.230940 0.230940 0.230940 0.230940 0.230940 0.230940 0.230940 0.230940 0.244339 0.244339 0.244339 0.244339 0.244339 0.244339 0.244339 0.244339 0.244339 0.244339 0.244339 0.244339 0.244339 0.244339 0.244339 0.244339 0.244339 0.244339 0.244339 0.244339 0.244339 0.244339 0.244339 0.251976 0.251976 0.251976 0.251976 0.251976 0.251976 0.251976 0.251976 0.251976 0.251976 0.251976 0.251976 0.251976 0.251976 0.251976 0.251976 0.251976 0.251976 0.251976 0.251976 0.264906 0.264906 0.264906 0.264906 0.264906 0.264906 0.264906 0.264906 0.264906 0.264906 0.264906 0.264906 0.264906 0.264906 0.264906 0.264906 0.264906 0.264906 0.264906 0.264906 0.264906 0.264906 0.264906 0.264906 0.264906 0.264906 0.264906 0.264906 0.264906 0.264906 0.264906 0.264906 0.264906 0.264906 0.264906 0.264906 0.264906 0.264906 0.264906 0.264906 0.264906 0.264906 0.264906 0.264906 0.264906 0.264906 0.264906 0.264906 0.264906 0.264906 0.264906 0.264906 0.264906 0.264906 0.264906 0.264906 0.264906 0.264906 0.264906 0.264906 0.264906 0.264906 0.264906 0.264906 0.264906 0.264906 0.264906 0.264906 0.264906 0.264906 0.264906 0.264906 0.264906 0.264906 0.264906 0.269680 0.269680 0.269680 0.269680 0.269680 0.269680 0.269680 0.269680 0.269680 0.269680 0.269680 0.269680 0.264906 0.264906 0.264906 0.264906 0.264906 0.264906 0.264906 0.264906 0.264906 0.264906 0.264906 0.264906 0.269680 0.269680 0.269680 0.269680 0.269680 0.269680 0.269680 0.269680 0.269680 0.269680 0.269680 0.264906 0.264906 0.264906 0.264906 0.264906 0.264906 0.264906 0.264906 0.264906 0.264906 0.264906 0.256074 0.256074 0.256074 0.256074 0.256074 0.256074 0.256074 0.256074 0.256074 0.256074 0.256074 0.264906 0.264906 0.264906 0.264906 0.264906 0.264906 0.264906 0.264906 0.264906 0.264906 0.269680 0.269680 0.269680 0.269680 0.269680 0.269680 0.269680 0.269680 0.269680 0.256074 0.256074 0.256074 0.256074 0.256074 0.256074 0.256074 0.256074 0.256074 0.256074 0.260378 0.260378 0.260378 0.260378 0.260378 0.260378 0.260378 0.260378 0.260378 0.256074 0.256074 0.256074 0.256074 0.256074 0.256074 0.256074 0.256074 0.256074 0.251976 0.251976 0.251976 0.251976 0.251976 0.251976 0.251976 0.251976 0.251976 0.264906 0.264906 0.264906 0.264906 0.264906 0.264906 0.264906 0.264906 0.264906
