# Output from CTFFind version 4.1.9, run on 2019-11-01 22:43:03
# Input file: first_bm3d_averaged_1_1.2_1.00_750_half.mrc ; Number of micrographs: 1
# Pixel size: 3.000 Angstroms ; acceleration voltage: 300.0 keV ; spherical aberration: 0.00 mm ; amplitude contrast: 0.07
# Box size: 512 pixels ; min. res.: 30.0 Angstroms ; max. res.: 5.0 Angstroms ; min. def.: 5000.0 um; max. def. 50000.0 um; num. frames averaged: 1
# 6 lines per micrograph: #1 - spatial frequency (1/Angstroms); #2 - 1D rotational average of spectrum (assuming no astigmatism); #3 - 1D rotational average of spectrum; #4 - CTF fit; #5 - cross-correlation between spectrum and CTF fit; #6 - 2sigma of expected cross correlation of noise
0.000000 0.000651 0.001302 0.001953 0.002604 0.003255 0.003906 0.004557 0.005208 0.005859 0.006510 0.007161 0.007812 0.008464 0.009115 0.009766 0.010417 0.011068 0.011719 0.012370 0.013021 0.013672 0.014323 0.014974 0.015625 0.016276 0.016927 0.017578 0.018229 0.018880 0.019531 0.020182 0.020833 0.021484 0.022135 0.022786 0.023438 0.024089 0.024740 0.025391 0.026042 0.026693 0.027344 0.027995 0.028646 0.029297 0.029948 0.030599 0.031250 0.031901 0.032552 0.033203 0.033854 0.034505 0.035156 0.035807 0.036458 0.037109 0.037760 0.038411 0.039062 0.039714 0.040365 0.041016 0.041667 0.042318 0.042969 0.043620 0.044271 0.044922 0.045573 0.046224 0.046875 0.047526 0.048177 0.048828 0.049479 0.050130 0.050781 0.051432 0.052083 0.052734 0.053385 0.054036 0.054688 0.055339 0.055990 0.056641 0.057292 0.057943 0.058594 0.059245 0.059896 0.060547 0.061198 0.061849 0.062500 0.063151 0.063802 0.064453 0.065104 0.065755 0.066406 0.067057 0.067708 0.068359 0.069010 0.069661 0.070312 0.070964 0.071615 0.072266 0.072917 0.073568 0.074219 0.074870 0.075521 0.076172 0.076823 0.077474 0.078125 0.078776 0.079427 0.080078 0.080729 0.081380 0.082031 0.082682 0.083333 0.083984 0.084635 0.085286 0.085938 0.086589 0.087240 0.087891 0.088542 0.089193 0.089844 0.090495 0.091146 0.091797 0.092448 0.093099 0.093750 0.094401 0.095052 0.095703 0.096354 0.097005 0.097656 0.098307 0.098958 0.099609 0.100260 0.100911 0.101562 0.102214 0.102865 0.103516 0.104167 0.104818 0.105469 0.106120 0.106771 0.107422 0.108073 0.108724 0.109375 0.110026 0.110677 0.111328 0.111979 0.112630 0.113281 0.113932 0.114583 0.115234 0.115885 0.116536 0.117188 0.117839 0.118490 0.119141 0.119792 0.120443 0.121094 0.121745 0.122396 0.123047 0.123698 0.124349 0.125000 0.125651 0.126302 0.126953 0.127604 0.128255 0.128906 0.129557 0.130208 0.130859 0.131510 0.132161 0.132812 0.133464 0.134115 0.134766 0.135417 0.136068 0.136719 0.137370 0.138021 0.138672 0.139323 0.139974 0.140625 0.141276 0.141927 0.142578 0.143229 0.143880 0.144531 0.145182 0.145833 0.146484 0.147135 0.147786 0.148438 0.149089 0.149740 0.150391 0.151042 0.151693 0.152344 0.152995 0.153646 0.154297 0.154948 0.155599 0.156250 0.156901 0.157552 0.158203 0.158854 0.159505 0.160156 0.160807 0.161458 0.162109 0.162760 0.163411 0.164062 0.164714 0.165365 0.166016 0.166667 0.167318 0.167969 0.168620 0.169271 0.169922 0.170573 0.171224 0.171875 0.172526 0.173177 0.173828 0.174479 0.175130 0.175781 0.176432 0.177083 0.177734 0.178385 0.179036 0.179688 0.180339 0.180990 0.181641 0.182292 0.182943 0.183594 0.184245 0.184896 0.185547 0.186198 0.186849 0.187500 0.188151 0.188802 0.189453 0.190104 0.190755 0.191406 0.192057 0.192708 0.193359 0.194010 0.194661 0.195312 0.195964 0.196615 0.197266 0.197917 0.198568 0.199219 0.199870 0.200521 0.201172 0.201823 0.202474 0.203125 0.203776 0.204427 0.205078 0.205729 0.206380 0.207031 0.207682 0.208333 0.208984 0.209635 0.210286 0.210938 0.211589 0.212240 0.212891 0.213542 0.214193 0.214844 0.215495 0.216146 0.216797 0.217448 0.218099 0.218750 0.219401 0.220052 0.220703 0.221354 0.222005 0.222656 0.223307 0.223958 0.224609 0.225260 0.225911 0.226562 0.227214 0.227865 0.228516 0.229167 0.229818 0.230469 0.231120 0.231771 0.232422 0.233073 0.233724 0.234375 0.235026 0.235677
       0.33227        0.33227        0.33227        0.33227        0.33227        0.33227        0.33227        0.33227        0.33227        0.33227        0.33227        0.33227        0.33227        0.33227        0.33227        0.33227        0.33227        0.33226        0.33227        0.33227        0.33227        0.33227        0.33227        0.33227        0.33227        0.33227        0.33227        0.33227        0.33226        0.33227        0.33226        0.33227        0.33227        0.33227        0.33226        0.33227        0.33227        0.33227        0.33227        0.33226        0.33227        0.33227        0.33227        0.33227        0.33227        0.33227        0.33227        0.33227        0.33227        0.33227        0.33227        0.50178        0.71866        0.42796        0.19033       -0.08011       -0.25939       -0.06691       -0.13329       -0.05496       -0.00308       -0.14853       -0.09376       -0.05303       -0.00348       -0.15244       -0.22201       -0.34553       -0.46223       -0.55916       -0.51691       -0.44862       -0.37081       -0.54699       -0.45067       -0.62188       -0.50462       -0.47300       -0.39071       -0.38524       -0.33906       -0.24963       -0.16139       -0.13965        0.03219       -0.01297        0.12018        0.16648        0.30566        0.41097        0.46258        0.49839        0.54185        0.54951        0.68992        0.64477        0.67661        0.58950        0.55521        0.65225        0.52732        0.42638        0.38393        0.31920        0.23132        0.26191        0.25120        0.10454        0.08068       -0.00011       -0.00679        0.03728       -0.00786        0.07316        0.09890        0.23154        0.28522        0.29997        0.38231        0.56204        0.53462        0.57773        0.66861        0.69971        0.62872        0.63593        0.63323        0.55292        0.57278        0.39930        0.34693        0.26473        0.18193        0.07347        0.14371        0.11763        0.09483        0.10623        0.20706        0.20948        0.31599        0.35895        0.41255        0.49207        0.57968        0.54368        0.55673        0.60453        0.53571        0.46099        0.48303        0.32515        0.24796        0.25738        0.24132        0.13975        0.14468        0.15207        0.22095        0.24318        0.33208        0.36861        0.39248        0.46497        0.44522        0.47782        0.44693        0.47011        0.44593        0.40349        0.38129        0.35426        0.31364        0.28815        0.20577        0.19779        0.22156        0.26982        0.26562        0.34756        0.37592        0.35663        0.40952        0.45098        0.44375        0.42381        0.44301        0.37434        0.33379        0.27968        0.25960        0.29065        0.26549        0.29444        0.30063        0.34475        0.34005        0.39603        0.40080        0.42358        0.40839        0.43279        0.40261        0.36419        0.28329        0.28997        0.30463        0.27468        0.25224        0.32474        0.37007        0.33972        0.35287        0.36189        0.35340        0.40825        0.40367        0.36425        0.33868        0.30671        0.31107        0.31807        0.31554        0.29911        0.28372        0.33729        0.36080        0.37731        0.33537        0.33066        0.33536        0.34611        0.30789        0.28103        0.30559        0.31557        0.33658        0.31893        0.32913        0.35543        0.32870        0.31493        0.32655        0.29914        0.26038        0.25254        0.26559        0.30540        0.32153        0.35337        0.29990        0.31110        0.33109        0.29263        0.31691        0.28846        0.28309        0.29149        0.29522        0.30778        0.34440        0.32811        0.33068        0.33554        0.31859        0.33509        0.31708        0.31918        0.31235        0.27729        0.28684        0.30608        0.28979        0.32482        0.33160        0.33453        0.32477        0.34751        0.32116        0.27950        0.24868        0.27088        0.33054        0.35755        0.34329        0.31408        0.29098        0.29873        0.31143        0.25277        0.29853        0.30501        0.33240        0.29760        0.30632        0.27909        0.33568        0.33873        0.34044        0.31646        0.29167        0.31526        0.39808        0.33031        0.31335        0.30804        0.29129        0.28127        0.29930        0.27700        0.31747        0.23224        0.26844        0.29707        0.31031        0.29593        0.26685        0.29215        0.24028        0.22282        0.26824        0.30041        0.30452        0.28067        0.28035        0.33418        0.25606        0.22389        0.30187        0.26674        0.26104        0.27962        0.38540        0.28701        0.28489        0.25197        0.24418        0.27114        0.25916        0.23614        0.17472        0.25214        0.23348        0.24691        0.31473        0.26865        0.35143        0.30452        0.24570        0.22585        0.21286        0.24724        0.30671        0.22686        0.13096        0.17347        0.24211        0.23832        0.30239        0.24340        0.02776       -0.43621       -0.94829
2.673406 2.645240 2.617226 2.589362 2.561649 2.534087 2.506676 2.479415 2.452306 2.425346 2.398538 2.371881 2.345374 2.319019 2.292814 2.266759 2.240856 2.215103 2.189502 2.164051 2.138750 2.113601 2.088602 2.063754 2.039057 2.014511 1.990116 1.965871 1.941777 1.917834 1.894042 1.870400 1.846909 1.823570 1.800380 1.777342 1.754455 1.731718 1.709132 1.686697 1.664412 1.642279 1.620296 1.598464 1.576783 1.555252 1.533873 1.512644 1.491566 1.470639 1.449862 1.520060 1.822585 1.506510 1.188397 0.933590 0.540722 0.908155 0.628063 0.866090 0.919475 0.584763 0.703024 0.771825 0.814811 0.622620 0.531207 0.344663 0.099642 0.073236 0.041484 0.076496 0.299483 -0.039988 0.077784 -0.138396 -0.020122 -0.017570 0.078432 0.057086 0.099857 0.173857 0.280402 0.244776 0.478596 0.395233 0.548462 0.524051 0.765658 0.789284 0.876349 0.922990 0.937626 0.945359 1.102633 0.948368 1.140171 0.942911 0.851275 1.013388 0.847472 0.756800 0.617858 0.592263 0.460147 0.416889 0.506595 0.265819 0.195510 0.155810 0.013183 0.209431 -0.006308 0.118166 0.179842 0.259207 0.337011 0.345416 0.428368 0.543527 0.661828 0.540133 0.745405 0.856018 0.638498 0.698491 0.669891 0.593776 0.535735 0.469543 0.302057 0.216365 0.116049 -0.041023 -0.015862 0.055010 -0.092355 -0.055568 0.051250 0.051562 0.110816 0.223213 0.239201 0.313575 0.431924 0.441107 0.447063 0.475787 0.446312 0.325064 0.337288 0.246900 0.047004 0.061722 0.020859 -0.051797 -0.095966 -0.098000 -0.013979 -0.053724 0.073874 0.128686 0.126367 0.259432 0.223273 0.248665 0.280195 0.256560 0.244622 0.210053 0.171035 0.112319 0.107531 0.027894 0.012373 -0.117837 -0.051849 0.008269 0.001429 0.017154 0.099161 0.085683 0.134672 0.181725 0.254878 0.168068 0.190813 0.112274 0.142173 0.016023 -0.036855 0.019079 -0.022287 -0.001247 -0.004060 0.033518 0.073578 0.056193 0.149087 0.101103 0.161872 0.066992 0.148108 0.091803 -0.006537 -0.057581 -0.019637 -0.031715 -0.073520 -0.070466 0.051595 0.062885 -0.010508 0.051912 0.066069 0.069501 0.145362 0.073266 0.067748 0.044739 -0.024736 0.027740 0.003604 0.010561 0.002549 -0.006720 0.036806 0.070865 0.070134 0.032803 0.045418 0.019627 0.062597 -0.012665 -0.018552 0.020452 0.012770 0.060958 0.033227 0.040794 0.069442 0.031639 0.016316 0.031406 -0.006230 -0.050367 -0.030346 -0.028311 0.023301 0.040935 0.099179 -0.004152 0.057262 0.055606 -0.002138 0.066850 0.021384 0.015051 0.043218 0.053221 0.045186 0.100404 0.061004 0.079348 0.092103 0.078784 0.070337 0.070942 0.089525 0.042078 -0.006989 0.048316 0.039042 0.051657 0.073530 0.092793 0.008191 0.069180 0.085784 0.010784 0.014104 -0.070369 -0.014722 0.109439 0.079274 0.051353 0.039815 -0.018386 0.047049 0.021537 -0.055012 0.046874 0.040220 0.069866 0.038632 0.000036 -0.001274 0.050769 0.049454 0.022958 0.033612 -0.034234 0.069412 0.117512 0.015306 -0.004808 0.000562 -0.016616 -0.025525 -0.018546 -0.040332 0.005047 -0.103724 -0.025954 -0.025797 0.016171 -0.030233 -0.025799 -0.014940 -0.070583 -0.052795 -0.068327 0.048476 0.009585 0.010797 -0.008548 0.087931 -0.050435 -0.038689 0.035079 -0.012626 0.020094 0.003789 0.189680 -0.026296 0.017477 0.025483 -0.029242 0.006577 -0.002318 -0.017485 -0.146250 0.016870 -0.029601 0.009892 0.022196 -0.000686 0.143903 0.047386 -0.008336 -0.039519 -0.028716 -0.036092 0.063804 0.273041 0.160499 0.221831 0.238027 0.312901 0.336352 0.281646 0.034649 -1.112275
0.072396 0.072910 0.074451 0.077019 0.080613 0.085233 0.090877 0.097544 0.105230 0.113934 0.123651 0.134378 0.146107 0.158834 0.172549 0.187243 0.202904 0.219518 0.237070 0.255540 0.274909 0.295151 0.316239 0.338142 0.360824 0.384245 0.408363 0.433127 0.458485 0.484376 0.510735 0.537492 0.564569 0.591882 0.619340 0.646848 0.674299 0.701583 0.728581 0.755168 0.781210 0.806569 0.831097 0.854641 0.877043 0.898137 0.917754 0.935719 0.951853 0.965975 0.977903 0.987451 0.994436 0.998677 0.999993 0.998212 0.993165 0.984694 0.972649 0.956893 0.937304 0.913777 0.886225 0.854582 0.818806 0.778883 0.734823 0.686670 0.634500 0.578423 0.518586 0.455176 0.388416 0.318573 0.245956 0.170914 0.093841 0.015170 0.064623 0.145024 0.225481 0.305407 0.384185 0.461172 0.535699 0.607083 0.674631 0.737645 0.795430 0.847303 0.892604 0.930699 0.960996 0.982950 0.996077 0.999962 0.994267 0.978746 0.953249 0.917735 0.872275 0.817066 0.752427 0.678814 0.596813 0.507145 0.410667 0.308363 0.201342 0.090828 0.021849 0.135270 0.247938 0.358299 0.464767 0.565737 0.659619 0.744862 0.819979 0.883578 0.934395 0.971313 0.993402 0.999937 0.990426 0.964634 0.922599 0.864647 0.791403 0.703793 0.603046 0.490685 0.368512 0.238585 0.103196 0.035172 0.173879 0.310184 0.441291 0.564408 0.676814 0.775916 0.859319 0.924886 0.970806 0.995644 0.998403 0.978561 0.936110 0.871582 0.786059 0.681175 0.559096 0.422491 0.274491 0.118618 0.041284 0.201136 0.356736 0.503853 0.638362 0.756347 0.854239 0.928921 0.977848 0.999143 0.991680 0.955156 0.890131 0.798047 0.681223 0.542816 0.386755 0.217648 0.040658 0.138649 0.314466 0.480934 0.632345 0.763336 0.869100 0.945565 0.989579 0.999053 0.973081 0.912017 0.817512 0.692501 0.541139 0.368692 0.181373 0.013866 0.209580 0.398109 0.571878 0.723709 0.847131 0.936669 0.988113 0.998743 0.967495 0.895066 0.783947 0.638375 0.464212 0.268730 0.060335 0.151772 0.357998 0.548787 0.715078 0.848735 0.942980 0.992759 0.995051 0.949077 0.856417 0.721007 0.549020 0.348619 0.129608 0.097027 0.319655 0.526586 0.706701 0.850060 0.948480 0.996037 0.989461 0.928403 0.815543 0.656530 0.459759 0.235960 0.002338 0.241504 0.467555 0.666989 0.827605 0.939279 0.994644 0.989619 0.923763 0.800409 0.626558 0.412548 0.171489 0.081507 0.330248 0.558491 0.751013 0.894654 0.979254 0.998428 0.950106 0.836791 0.665516 0.447479 0.197370 0.067574 0.328728 0.567379 0.766074 0.909936 0.987824 0.993249 0.924992 0.787333 0.589873 0.346932 0.076589 0.200629 0.463281 0.690671 0.864508 0.970417 0.999201 0.947710 0.819252 0.623492 0.375807 0.096152 0.192484 0.465960 0.700982 0.877133 0.978689 0.996102 0.926986 0.776498 0.557069 0.287471 0.008711 0.305095 0.574829 0.793039 0.939169 0.998981 0.966047 0.842527 0.639171 0.374493 0.073188 0.236126 0.523571 0.760916 0.924394 0.997143 0.971057 0.847793 0.638824 0.364503 0.052175 0.266472 0.558595 0.793589 0.946336 0.999995 0.947956 0.794780 0.555947 0.256431 0.071810 0.393196 0.672342 0.877997 0.986613 0.985152 0.872781 0.661230 0.373718 0.042529 0.294528 0.598394 0.833306 0.971066 0.994546 0.899951 0.697549 0.410733 0.073445 0.273726 0.588391 0.831557 0.972508 0.992824 0.888928 0.672841 0.370972 0.021038 0.332555 0.644285 0.873426 0.989439 0.976179 0.834319 0.581574 0.250703 0.114627 0.465504 0.754275 0.941119 0.999621
1.000000 1.000000 1.000000 1.000000 1.000000 1.000000 1.000000 1.000000 1.000000 1.000000 1.000000 1.000000 1.000000 1.000000 1.000000 1.000000 1.000000 1.000000 1.000000 1.000000 1.000000 1.000000 1.000000 1.000000 1.000000 1.000000 1.000000 1.000000 1.000000 1.000000 1.000000 1.000000 1.000000 1.000000 1.000000 1.000000 1.000000 1.000000 1.000000 1.000000 1.000000 1.000000 1.000000 1.000000 1.000000 1.000000 1.000000 1.000000 1.000000 1.000000 1.000000 1.000000 0.918298 0.918298 0.904455 0.904455 0.904455 0.904455 0.904455 0.904455 0.904455 0.904455 0.904455 0.904455 0.904455 0.904455 0.904455 0.904455 0.904455 0.904455 0.904455 0.904455 0.904455 0.904455 0.904455 0.904455 0.904455 0.904455 0.904455 0.904455 0.904455 0.904455 0.904455 0.904455 0.904455 0.904455 0.904455 0.904455 0.904455 0.904455 0.904455 0.904455 0.904455 0.904455 0.904455 0.900516 0.905207 0.907215 0.905553 0.909157 0.909241 0.908521 0.908817 0.908438 0.908734 0.910125 0.920689 0.931786 0.942905 0.943465 0.948590 0.953004 0.955307 0.956244 0.957694 0.967361 0.966111 0.965564 0.966280 0.967858 0.970084 0.968676 0.968442 0.971558 0.972280 0.970540 0.968461 0.967837 0.967212 0.967291 0.966886 0.966779 0.966674 0.967176 0.967396 0.967604 0.967744 0.967781 0.968804 0.969961 0.972231 0.973204 0.972998 0.971813 0.966201 0.970116 0.970708 0.970390 0.970309 0.969830 0.970157 0.958119 0.952820 0.952771 0.948790 0.947913 0.945433 0.943561 0.941435 0.941600 0.940129 0.940820 0.937755 0.926123 0.913218 0.901673 0.921691 0.907400 0.895367 0.873094 0.873695 0.870323 0.870953 0.864077 0.857883 0.853441 0.850557 0.851915 0.850519 0.853778 0.851057 0.837479 0.840315 0.837710 0.808146 0.791136 0.776153 0.775553 0.773128 0.774420 0.773745 0.771389 0.779764 0.770894 0.769548 0.761150 0.741475 0.707683 0.691384 0.701641 0.711392 0.710299 0.706614 0.691092 0.658266 0.671271 0.699682 0.694524 0.697051 0.689342 0.682111 0.682317 0.685368 0.677885 0.670545 0.669880 0.668677 0.677327 0.680406 0.675295 0.666170 0.651070 0.637947 0.624529 0.637947 0.642148 0.607987 0.602141 0.591346 0.583967 0.571746 0.545757 0.544228 0.519783 0.509839 0.511601 0.515928 0.514908 0.523037 0.524738 0.507459 0.528739 0.531475 0.559096 0.538715 0.537285 0.539025 0.545651 0.531577 0.513483 0.508875 0.509823 0.521471 0.549326 0.585957 0.575452 0.561149 0.549943 0.561347 0.528540 0.536971 0.556624 0.531893 0.467608 0.417122 0.414343 0.374857 0.372905 0.353888 0.344458 0.344708 0.338703 0.329287 0.315710 0.304180 0.244434 0.204713 0.188516 0.167391 0.171360 0.193173 0.185113 0.185345 0.208244 0.256911 0.255435 0.246000 0.246296 0.229350 0.194832 0.198719 0.226032 0.181297 0.176443 0.168167 0.138737 0.128754 0.080313 0.116670 0.020802 0.000061 -0.002364 0.018179 0.032183 0.034325 0.037130 0.003697 0.018791 0.057241 0.060472 0.046115 -0.022682 -0.006419 0.003932 0.004829 -0.015446 -0.043491 -0.041903 -0.059348 -0.063259 -0.043975 0.021260 0.077756 0.079482 0.059693 0.090158 0.091520 0.075863 0.078315 0.057986 0.048263 0.032331 0.026506 -0.018376 -0.048476 -0.048476 -0.047127 -0.047127 -0.047127 -0.047127 -0.047127 -0.047127 -0.047127 -0.047127 -0.047127 -0.049639 -0.049639 -0.049639 -0.049639 -0.049639 -0.049639 -0.049639 -0.049639 -0.049639 -0.019755 -0.019755 -0.019755 -0.019755 -0.019755 -0.019755 -0.019755 -0.019755 -0.019755
0.000000 0.000000 0.000000 0.000000 0.000000 0.000000 0.000000 0.000000 0.000000 0.000000 0.000000 0.000000 0.000000 0.000000 0.000000 0.000000 0.000000 0.000000 0.000000 0.000000 0.000000 0.000000 0.000000 0.000000 0.000000 0.000000 0.000000 0.000000 0.000000 0.000000 0.000000 0.000000 0.000000 0.000000 0.000000 0.000000 0.000000 0.000000 0.000000 0.000000 0.000000 0.000000 0.000000 0.000000 0.000000 0.000000 0.000000 0.000000 0.000000 0.000000 0.000000 0.000000 0.181818 0.181818 0.199007 0.199007 0.199007 0.199007 0.199007 0.199007 0.199007 0.199007 0.199007 0.199007 0.199007 0.199007 0.199007 0.199007 0.199007 0.199007 0.199007 0.199007 0.199007 0.199007 0.199007 0.199007 0.199007 0.199007 0.199007 0.199007 0.199007 0.199007 0.199007 0.199007 0.199007 0.199007 0.199007 0.199007 0.199007 0.199007 0.199007 0.199007 0.199007 0.199007 0.199007 0.230940 0.230940 0.230940 0.230940 0.230940 0.230940 0.230940 0.230940 0.230940 0.230940 0.230940 0.230940 0.230940 0.230940 0.230940 0.230940 0.230940 0.230940 0.230940 0.230940 0.230940 0.230940 0.230940 0.230940 0.230940 0.230940 0.230940 0.230940 0.244339 0.244339 0.244339 0.244339 0.244339 0.244339 0.244339 0.244339 0.244339 0.244339 0.244339 0.244339 0.244339 0.244339 0.244339 0.244339 0.244339 0.244339 0.244339 0.244339 0.244339 0.244339 0.244339 0.251976 0.251976 0.251976 0.251976 0.251976 0.251976 0.251976 0.251976 0.251976 0.251976 0.251976 0.251976 0.251976 0.251976 0.251976 0.251976 0.251976 0.251976 0.251976 0.251976 0.264906 0.264906 0.264906 0.264906 0.264906 0.264906 0.264906 0.264906 0.264906 0.264906 0.264906 0.264906 0.264906 0.264906 0.264906 0.264906 0.264906 0.264906 0.264906 0.264906 0.264906 0.264906 0.264906 0.264906 0.264906 0.264906 0.264906 0.264906 0.264906 0.264906 0.264906 0.264906 0.264906 0.264906 0.264906 0.264906 0.264906 0.264906 0.264906 0.264906 0.264906 0.264906 0.264906 0.264906 0.264906 0.264906 0.264906 0.264906 0.264906 0.264906 0.264906 0.264906 0.264906 0.264906 0.264906 0.264906 0.264906 0.264906 0.264906 0.264906 0.264906 0.264906 0.264906 0.264906 0.264906 0.264906 0.264906 0.264906 0.264906 0.264906 0.264906 0.264906 0.264906 0.264906 0.264906 0.269680 0.269680 0.269680 0.269680 0.269680 0.269680 0.269680 0.269680 0.269680 0.269680 0.269680 0.269680 0.264906 0.264906 0.264906 0.264906 0.264906 0.264906 0.264906 0.264906 0.264906 0.264906 0.264906 0.264906 0.269680 0.269680 0.269680 0.269680 0.269680 0.269680 0.269680 0.269680 0.269680 0.269680 0.269680 0.264906 0.264906 0.264906 0.264906 0.264906 0.264906 0.264906 0.264906 0.264906 0.264906 0.264906 0.256074 0.256074 0.256074 0.256074 0.256074 0.256074 0.256074 0.256074 0.256074 0.256074 0.256074 0.264906 0.264906 0.264906 0.264906 0.264906 0.264906 0.264906 0.264906 0.264906 0.264906 0.260378 0.260378 0.260378 0.260378 0.260378 0.260378 0.260378 0.260378 0.260378 0.260378 0.264906 0.264906 0.264906 0.264906 0.264906 0.264906 0.264906 0.264906 0.264906 0.260378 0.260378 0.260378 0.260378 0.260378 0.260378 0.260378 0.260378 0.260378 0.256074 0.256074 0.256074 0.256074 0.256074 0.256074 0.256074 0.256074 0.256074 0.251976 0.251976 0.251976 0.251976 0.251976 0.251976 0.251976 0.251976 0.251976 0.264906 0.264906 0.264906 0.264906 0.264906 0.264906 0.264906 0.264906 0.264906
