# Output from CTFFind version 4.1.9, run on 2019-11-01 22:43:14
# Input file: first_bm3d_averaged_1_1.2_1.00_1000_half.mrc ; Number of micrographs: 1
# Pixel size: 3.000 Angstroms ; acceleration voltage: 300.0 keV ; spherical aberration: 0.00 mm ; amplitude contrast: 0.07
# Box size: 512 pixels ; min. res.: 30.0 Angstroms ; max. res.: 5.0 Angstroms ; min. def.: 5000.0 um; max. def. 50000.0 um; num. frames averaged: 1
# 6 lines per micrograph: #1 - spatial frequency (1/Angstroms); #2 - 1D rotational average of spectrum (assuming no astigmatism); #3 - 1D rotational average of spectrum; #4 - CTF fit; #5 - cross-correlation between spectrum and CTF fit; #6 - 2sigma of expected cross correlation of noise
0.000000 0.000651 0.001302 0.001953 0.002604 0.003255 0.003906 0.004557 0.005208 0.005859 0.006510 0.007161 0.007812 0.008464 0.009115 0.009766 0.010417 0.011068 0.011719 0.012370 0.013021 0.013672 0.014323 0.014974 0.015625 0.016276 0.016927 0.017578 0.018229 0.018880 0.019531 0.020182 0.020833 0.021484 0.022135 0.022786 0.023438 0.024089 0.024740 0.025391 0.026042 0.026693 0.027344 0.027995 0.028646 0.029297 0.029948 0.030599 0.031250 0.031901 0.032552 0.033203 0.033854 0.034505 0.035156 0.035807 0.036458 0.037109 0.037760 0.038411 0.039062 0.039714 0.040365 0.041016 0.041667 0.042318 0.042969 0.043620 0.044271 0.044922 0.045573 0.046224 0.046875 0.047526 0.048177 0.048828 0.049479 0.050130 0.050781 0.051432 0.052083 0.052734 0.053385 0.054036 0.054688 0.055339 0.055990 0.056641 0.057292 0.057943 0.058594 0.059245 0.059896 0.060547 0.061198 0.061849 0.062500 0.063151 0.063802 0.064453 0.065104 0.065755 0.066406 0.067057 0.067708 0.068359 0.069010 0.069661 0.070312 0.070964 0.071615 0.072266 0.072917 0.073568 0.074219 0.074870 0.075521 0.076172 0.076823 0.077474 0.078125 0.078776 0.079427 0.080078 0.080729 0.081380 0.082031 0.082682 0.083333 0.083984 0.084635 0.085286 0.085938 0.086589 0.087240 0.087891 0.088542 0.089193 0.089844 0.090495 0.091146 0.091797 0.092448 0.093099 0.093750 0.094401 0.095052 0.095703 0.096354 0.097005 0.097656 0.098307 0.098958 0.099609 0.100260 0.100911 0.101562 0.102214 0.102865 0.103516 0.104167 0.104818 0.105469 0.106120 0.106771 0.107422 0.108073 0.108724 0.109375 0.110026 0.110677 0.111328 0.111979 0.112630 0.113281 0.113932 0.114583 0.115234 0.115885 0.116536 0.117188 0.117839 0.118490 0.119141 0.119792 0.120443 0.121094 0.121745 0.122396 0.123047 0.123698 0.124349 0.125000 0.125651 0.126302 0.126953 0.127604 0.128255 0.128906 0.129557 0.130208 0.130859 0.131510 0.132161 0.132812 0.133464 0.134115 0.134766 0.135417 0.136068 0.136719 0.137370 0.138021 0.138672 0.139323 0.139974 0.140625 0.141276 0.141927 0.142578 0.143229 0.143880 0.144531 0.145182 0.145833 0.146484 0.147135 0.147786 0.148438 0.149089 0.149740 0.150391 0.151042 0.151693 0.152344 0.152995 0.153646 0.154297 0.154948 0.155599 0.156250 0.156901 0.157552 0.158203 0.158854 0.159505 0.160156 0.160807 0.161458 0.162109 0.162760 0.163411 0.164062 0.164714 0.165365 0.166016 0.166667 0.167318 0.167969 0.168620 0.169271 0.169922 0.170573 0.171224 0.171875 0.172526 0.173177 0.173828 0.174479 0.175130 0.175781 0.176432 0.177083 0.177734 0.178385 0.179036 0.179688 0.180339 0.180990 0.181641 0.182292 0.182943 0.183594 0.184245 0.184896 0.185547 0.186198 0.186849 0.187500 0.188151 0.188802 0.189453 0.190104 0.190755 0.191406 0.192057 0.192708 0.193359 0.194010 0.194661 0.195312 0.195964 0.196615 0.197266 0.197917 0.198568 0.199219 0.199870 0.200521 0.201172 0.201823 0.202474 0.203125 0.203776 0.204427 0.205078 0.205729 0.206380 0.207031 0.207682 0.208333 0.208984 0.209635 0.210286 0.210938 0.211589 0.212240 0.212891 0.213542 0.214193 0.214844 0.215495 0.216146 0.216797 0.217448 0.218099 0.218750 0.219401 0.220052 0.220703 0.221354 0.222005 0.222656 0.223307 0.223958 0.224609 0.225260 0.225911 0.226562 0.227214 0.227865 0.228516 0.229167 0.229818 0.230469 0.231120 0.231771 0.232422 0.233073 0.233724 0.234375 0.235026 0.235677
       0.33201        0.33201        0.33201        0.33201        0.33201        0.33201        0.33201        0.33201        0.33201        0.33201        0.33201        0.33201        0.33201        0.33201        0.33201        0.33201        0.33201        0.33201        0.33201        0.33201        0.33201        0.33201        0.33201        0.33201        0.33201        0.33201        0.33201        0.33201        0.33201        0.33201        0.33201        0.33201        0.33201        0.33201        0.33201        0.33201        0.33201        0.33201        0.33201        0.33201        0.33201        0.33201        0.33201        0.33201        0.33201        0.33201        0.33201        0.33201        0.33201        0.33201        0.33201        0.50149        0.71824        0.42754        0.19039       -0.08023       -0.26051       -0.06797       -0.13342       -0.05561       -0.00287       -0.14873       -0.09452       -0.05201       -0.00314       -0.15246       -0.22200       -0.34559       -0.46322       -0.56079       -0.51881       -0.45008       -0.37175       -0.54831       -0.45101       -0.62229       -0.50495       -0.47409       -0.39171       -0.38477       -0.33940       -0.24969       -0.16213       -0.13958        0.03171       -0.01344        0.11919        0.16701        0.30508        0.41049        0.46274        0.49699        0.54099        0.54912        0.69055        0.64479        0.67659        0.58940        0.55546        0.65251        0.52703        0.42681        0.38454        0.31878        0.23009        0.26208        0.25071        0.10435        0.08147       -0.00016       -0.00769        0.03557       -0.00745        0.07285        0.09670        0.23081        0.28397        0.30034        0.38247        0.56143        0.53568        0.57714        0.66884        0.69880        0.62852        0.63443        0.63305        0.55154        0.57242        0.39724        0.34658        0.26487        0.18239        0.07266        0.14394        0.11732        0.09403        0.10666        0.20745        0.20868        0.31555        0.35799        0.41229        0.49130        0.57933        0.54364        0.55620        0.60512        0.53667        0.46120        0.48166        0.32393        0.24852        0.25656        0.24167        0.14001        0.14414        0.15130        0.22095        0.24474        0.33133        0.36764        0.39224        0.46459        0.44521        0.47653        0.44705        0.46972        0.44498        0.40317        0.38012        0.35456        0.31292        0.28675        0.20560        0.19907        0.22199        0.26973        0.26505        0.34711        0.37528        0.35604        0.40935        0.45236        0.44458        0.42346        0.44125        0.37094        0.33355        0.27950        0.26030        0.28931        0.26545        0.29395        0.30048        0.34545        0.33917        0.39684        0.39985        0.42310        0.40906        0.43220        0.40303        0.36493        0.28309        0.28982        0.30432        0.27496        0.25307        0.32647        0.37017        0.33915        0.35318        0.36137        0.35261        0.40727        0.40183        0.36226        0.33869        0.30757        0.31089        0.31714        0.31417        0.29913        0.28484        0.33692        0.35980        0.37599        0.33443        0.33029        0.33462        0.34569        0.30731        0.28102        0.30596        0.31648        0.33541        0.31946        0.33022        0.35476        0.32930        0.31469        0.32699        0.29964        0.25988        0.25079        0.26510        0.30495        0.32151        0.35297        0.29986        0.31192        0.33204        0.29196        0.31694        0.28932        0.28169        0.29067        0.29555        0.30836        0.34365        0.32562        0.32919        0.33355        0.31744        0.33367        0.31713        0.31943        0.31285        0.27760        0.28743        0.30672        0.28894        0.32457        0.33181        0.33453        0.32234        0.34585        0.32012        0.27832        0.24904        0.27123        0.32998        0.35845        0.34482        0.31499        0.29153        0.29897        0.31210        0.25141        0.29738        0.30358        0.32902        0.29580        0.30708        0.27912        0.33501        0.33976        0.34071        0.31929        0.29294        0.31341        0.39680        0.33193        0.31246        0.30573        0.29335        0.28214        0.29729        0.27501        0.31437        0.23282        0.26966        0.29655        0.31081        0.29560        0.27011        0.29302        0.23900        0.22416        0.26742        0.30297        0.30416        0.28290        0.28182        0.33452        0.25508        0.22197        0.30256        0.26595        0.25978        0.27845        0.38642        0.28573        0.28374        0.25205        0.24587        0.26887        0.25373        0.23481        0.17329        0.24833        0.23252        0.24793        0.31419        0.27237        0.34840        0.29857        0.24965        0.23079        0.21284        0.24509        0.29956        0.22406        0.13179        0.17240        0.24219        0.23753        0.31436        0.26402        0.03460       -0.42752       -0.93696
2.675480 2.647286 2.619243 2.591351 2.563610 2.536020 2.508581 2.481293 2.454156 2.427170 2.400335 2.373651 2.347118 2.320735 2.294504 2.268424 2.242495 2.216716 2.191089 2.165613 2.140288 2.115113 2.090090 2.065218 2.040496 2.015926 1.991506 1.967238 1.943121 1.919154 1.895339 1.871674 1.848161 1.824798 1.801586 1.778526 1.755616 1.732858 1.710250 1.687793 1.665488 1.643333 1.621329 1.599477 1.577775 1.556224 1.534824 1.513575 1.492478 1.471531 1.450735 1.520704 1.822793 1.507096 1.189820 0.935137 0.541416 0.908317 0.629832 0.866766 0.921073 0.586170 0.703284 0.774975 0.816530 0.623838 0.533023 0.346128 0.100503 0.073953 0.041088 0.076330 0.299730 -0.038499 0.078437 -0.136864 -0.018426 -0.017599 0.078563 0.060105 0.100507 0.175380 0.281074 0.246274 0.479386 0.395564 0.547970 0.525389 0.766433 0.788553 0.877028 0.921828 0.936942 0.944894 1.103224 0.948001 1.139881 0.943974 0.850926 1.014002 0.847222 0.757583 0.618751 0.592899 0.458464 0.417674 0.506851 0.265600 0.197467 0.157382 0.012872 0.207381 -0.005649 0.119649 0.177972 0.258604 0.335963 0.346005 0.428718 0.541949 0.663831 0.539445 0.745730 0.853835 0.638312 0.696865 0.669040 0.592261 0.536188 0.466563 0.301596 0.216236 0.116954 -0.040730 -0.015947 0.055901 -0.092257 -0.055868 0.051801 0.052141 0.110796 0.222043 0.239158 0.312147 0.430556 0.436575 0.452932 0.476077 0.447839 0.326925 0.335551 0.245268 0.048713 0.061896 0.019606 -0.048775 -0.096734 -0.097146 -0.014259 -0.050902 0.074664 0.127094 0.125907 0.260040 0.223528 0.248906 0.287037 0.245688 0.243279 0.211375 0.169047 0.113260 0.107573 0.026990 0.011623 -0.115846 -0.050341 0.009494 0.000256 0.018337 0.098649 0.084772 0.134710 0.183668 0.256813 0.170344 0.188669 0.110313 0.139276 0.018269 -0.037139 0.019863 -0.023276 0.001461 -0.005185 0.034308 0.075807 0.054784 0.150087 0.098962 0.163720 0.066648 0.147299 0.093607 -0.006440 -0.058067 -0.019368 -0.032488 -0.071133 -0.070418 0.057497 0.058519 -0.010363 0.051831 0.064548 0.069861 0.143857 0.070071 0.066074 0.046866 -0.024370 0.027155 0.001238 0.010034 0.002512 -0.005463 0.036447 0.070066 0.067738 0.031500 0.044974 0.019340 0.060611 -0.012358 -0.018343 0.020752 0.012941 0.059086 0.034965 0.041338 0.059739 0.040550 0.016432 0.031845 -0.005972 -0.051879 -0.032254 -0.028647 0.023108 0.039708 0.099926 -0.005311 0.058792 0.053871 -0.003523 0.066219 0.020984 0.012302 0.041285 0.053931 0.044317 0.097892 0.057575 0.076931 0.089224 0.076198 0.067832 0.071838 0.089637 0.042727 -0.007994 0.049390 0.039892 0.048627 0.074583 0.094797 0.000132 0.070182 0.085505 0.010833 0.012322 -0.067938 -0.014867 0.110393 0.081703 0.053587 0.041596 -0.022045 0.054587 0.023775 -0.056489 0.049185 0.038115 0.067223 0.038438 0.001221 0.001581 0.046545 0.051224 0.021630 0.037455 -0.034248 0.067556 0.116889 0.015419 -0.006190 -0.003008 -0.005649 -0.029736 -0.022551 -0.041123 -0.001350 -0.101485 -0.025402 -0.027169 0.016995 -0.037839 -0.059711 0.029188 -0.071787 -0.050649 -0.071293 0.051617 0.009678 0.011122 -0.007849 0.087259 -0.053711 -0.041746 0.035634 -0.014123 0.015649 0.001428 0.191006 -0.032476 0.017037 0.022121 -0.028599 0.004531 -0.012744 -0.019321 -0.149600 0.012016 -0.034040 0.008960 0.018402 0.003417 0.136785 0.035215 -0.005079 -0.035928 -0.030462 -0.040759 0.051223 0.269565 0.161709 0.219864 0.240340 0.313593 0.345832 0.307789 0.042627 -1.097729
0.072396 0.072910 0.074451 0.077019 0.080614 0.085234 0.090878 0.097545 0.105232 0.113937 0.123655 0.134382 0.146112 0.158840 0.172556 0.187251 0.202912 0.219528 0.237081 0.255553 0.274923 0.295166 0.316255 0.338159 0.360842 0.384266 0.408384 0.433150 0.458509 0.484402 0.510762 0.537520 0.564599 0.591913 0.619372 0.646881 0.674333 0.701617 0.728616 0.755203 0.781245 0.806604 0.831131 0.854675 0.877076 0.898169 0.917784 0.935746 0.951878 0.965997 0.977921 0.987465 0.994446 0.998682 0.999993 0.998206 0.993152 0.984674 0.972621 0.956857 0.937260 0.913724 0.886162 0.854509 0.818723 0.778789 0.734719 0.686555 0.634374 0.578286 0.518439 0.455018 0.388248 0.318395 0.245769 0.170719 0.093638 0.014961 0.064837 0.145241 0.225700 0.305627 0.384404 0.461387 0.535908 0.607285 0.674824 0.737825 0.795595 0.847451 0.892732 0.930805 0.961078 0.983006 0.996105 0.999959 0.994232 0.978678 0.953147 0.917597 0.872103 0.816859 0.752186 0.678540 0.596507 0.506811 0.410307 0.307980 0.200940 0.090411 0.022275 0.135700 0.248365 0.358719 0.465171 0.566121 0.659975 0.745183 0.820259 0.883812 0.934575 0.971436 0.993462 0.999931 0.990351 0.964489 0.922384 0.864362 0.791050 0.703376 0.602571 0.490159 0.367941 0.237980 0.102567 0.035812 0.174521 0.310812 0.441893 0.564969 0.677322 0.776357 0.859682 0.925160 0.970981 0.995713 0.998360 0.978404 0.935838 0.871199 0.785570 0.680588 0.558421 0.421744 0.273688 0.117778 0.042139 0.201986 0.357556 0.504622 0.639055 0.756944 0.854719 0.929267 0.978046 0.999182 0.991555 0.954865 0.889677 0.797441 0.680478 0.541951 0.385795 0.216621 0.039593 0.139717 0.315501 0.481902 0.633209 0.764065 0.869664 0.945940 0.989746 0.999001 0.972806 0.911522 0.816810 0.691611 0.540093 0.367523 0.180124 0.015150 0.210848 0.399311 0.572965 0.724633 0.847849 0.937146 0.988324 0.998672 0.967138 0.894430 0.783054 0.637259 0.462914 0.267304 0.058845 0.153263 0.359419 0.550073 0.716162 0.849562 0.943505 0.992950 0.994889 0.948563 0.855568 0.719858 0.547621 0.347037 0.127919 0.098739 0.321298 0.528074 0.707950 0.850998 0.949049 0.996197 0.989195 0.927716 0.814463 0.655112 0.458075 0.234103 0.004267 0.243390 0.469287 0.668461 0.828723 0.939968 0.994852 0.989323 0.922972 0.799161 0.624922 0.410622 0.169390 0.083648 0.332292 0.560302 0.752465 0.895642 0.979704 0.998300 0.949396 0.835535 0.663795 0.445400 0.195073 0.069930 0.330975 0.569350 0.767623 0.910944 0.988202 0.992958 0.924043 0.785783 0.587829 0.344541 0.074029 0.203162 0.465588 0.692567 0.865834 0.971057 0.999090 0.946845 0.817689 0.621348 0.373246 0.093387 0.195231 0.468453 0.703006 0.878502 0.979276 0.995842 0.925886 0.774641 0.554608 0.284616 0.011714 0.307971 0.577317 0.794901 0.940223 0.999116 0.965235 0.840827 0.636730 0.371534 0.069984 0.239264 0.526337 0.763038 0.925646 0.997389 0.970255 0.846005 0.636217 0.361332 0.048754 0.269794 0.561471 0.795708 0.947467 1.000000 0.946817 0.792599 0.552947 0.252923 0.075450 0.396571 0.675074 0.879770 0.987216 0.984499 0.870928 0.658370 0.370160 0.038675 0.298233 0.601519 0.835470 0.972002 0.994124 0.898201 0.694662 0.407040 0.069386 0.277661 0.591718 0.833851 0.973470 0.992314 0.886989 0.669699 0.367008 0.016751 0.336617 0.647596 0.875543 0.990065 0.975213 0.831863 0.577944 0.246358 0.119113 0.469510 0.757263 0.942662 0.999483
1.000000 1.000000 1.000000 1.000000 1.000000 1.000000 1.000000 1.000000 1.000000 1.000000 1.000000 1.000000 1.000000 1.000000 1.000000 1.000000 1.000000 1.000000 1.000000 1.000000 1.000000 1.000000 1.000000 1.000000 1.000000 1.000000 1.000000 1.000000 1.000000 1.000000 1.000000 1.000000 1.000000 1.000000 1.000000 1.000000 1.000000 1.000000 1.000000 1.000000 1.000000 1.000000 1.000000 1.000000 1.000000 1.000000 1.000000 1.000000 1.000000 1.000000 1.000000 1.000000 0.918099 0.918099 0.904518 0.904518 0.904518 0.904518 0.904518 0.904518 0.904518 0.904518 0.904518 0.904518 0.904518 0.904518 0.904518 0.904518 0.904518 0.904518 0.904518 0.904518 0.904518 0.904518 0.904518 0.904518 0.904518 0.904518 0.904518 0.904518 0.904518 0.904518 0.904518 0.904518 0.904518 0.904518 0.904518 0.904518 0.904518 0.904518 0.904518 0.904518 0.904518 0.904518 0.904518 0.900576 0.905287 0.907293 0.905647 0.909245 0.909326 0.908608 0.908908 0.908534 0.908833 0.910224 0.920781 0.931869 0.942978 0.943535 0.948665 0.953068 0.955385 0.956313 0.957775 0.967479 0.966218 0.965678 0.966390 0.967953 0.970168 0.968776 0.968520 0.971639 0.972355 0.970631 0.968533 0.967912 0.967290 0.967372 0.966971 0.966863 0.966756 0.967258 0.967475 0.967222 0.967363 0.967402 0.968425 0.969584 0.971878 0.972871 0.972674 0.971489 0.965892 0.969777 0.970372 0.970040 0.969966 0.969499 0.969825 0.957602 0.952393 0.952341 0.948488 0.947548 0.944807 0.943140 0.941254 0.941459 0.939941 0.940558 0.937747 0.925814 0.912963 0.901695 0.921284 0.907049 0.895344 0.872462 0.872920 0.868812 0.869436 0.862132 0.856187 0.851639 0.848657 0.849995 0.848987 0.852638 0.849943 0.835749 0.838916 0.835531 0.805399 0.788751 0.773611 0.773553 0.771074 0.772327 0.771713 0.768571 0.776994 0.768155 0.766803 0.758285 0.738456 0.706308 0.690276 0.700634 0.710476 0.709229 0.705605 0.690163 0.658132 0.671201 0.699670 0.694053 0.696561 0.689342 0.682790 0.683500 0.685084 0.680599 0.673449 0.672855 0.671842 0.680142 0.683501 0.677954 0.668947 0.654053 0.640808 0.627492 0.641450 0.645651 0.611894 0.606282 0.596647 0.589545 0.577455 0.548019 0.546019 0.521627 0.511133 0.512116 0.515551 0.514530 0.523041 0.524503 0.506314 0.528355 0.530322 0.558030 0.535500 0.533760 0.535329 0.542834 0.528636 0.505149 0.499844 0.500856 0.512618 0.542293 0.579327 0.569543 0.555164 0.544381 0.557823 0.523461 0.533742 0.552421 0.528000 0.460692 0.411860 0.408570 0.370276 0.367942 0.354112 0.343514 0.341381 0.336039 0.325984 0.312343 0.300699 0.243881 0.205894 0.189010 0.166013 0.174403 0.192898 0.181770 0.182116 0.209332 0.257376 0.256297 0.247067 0.216883 0.219361 0.187212 0.193953 0.221538 0.178622 0.174789 0.166987 0.138846 0.129185 0.082565 0.118801 0.025728 0.008012 0.006648 0.026481 0.039970 0.041320 0.048130 0.015011 0.030883 0.028427 0.009611 -0.001664 0.017043 0.002640 -0.025692 -0.012579 0.002296 -0.012200 -0.041859 -0.022675 -0.007877 0.010542 0.003434 0.001680 0.056962 0.089708 0.078411 0.080176 0.078902 0.078702 0.055383 0.043501 0.030984 0.024206 -0.019728 -0.048813 -0.048813 -0.046181 -0.046181 -0.046181 -0.046181 -0.046181 -0.046181 -0.046181 -0.046181 -0.046181 -0.048932 -0.048932 -0.048932 -0.048932 -0.048932 -0.048932 -0.048932 -0.048932 -0.048932 -0.021071 -0.021071 -0.021071 -0.021071 -0.021071 -0.021071 -0.021071 -0.021071 -0.021071
0.000000 0.000000 0.000000 0.000000 0.000000 0.000000 0.000000 0.000000 0.000000 0.000000 0.000000 0.000000 0.000000 0.000000 0.000000 0.000000 0.000000 0.000000 0.000000 0.000000 0.000000 0.000000 0.000000 0.000000 0.000000 7.000000 4.000000 0.000000 0.000000 0.000000 0.000000 0.000000 0.000000 0.000000 0.000000 0.000000 0.000000 0.000000 0.000000 0.000000 0.000000 0.000000 0.000000 0.000000 0.000000 0.000000 0.000000 0.000000 0.000000 0.000000 0.000000 0.000000 0.181818 0.181818 0.199007 0.199007 0.199007 0.199007 0.199007 0.199007 0.199007 0.199007 0.199007 0.199007 0.199007 0.199007 0.199007 0.199007 0.199007 0.199007 0.199007 0.199007 0.199007 0.199007 0.199007 0.199007 0.199007 0.199007 0.199007 0.199007 0.199007 0.199007 0.199007 0.199007 0.199007 0.199007 0.199007 0.199007 0.199007 0.199007 0.199007 0.199007 0.199007 0.199007 0.199007 0.230940 0.230940 0.230940 0.230940 0.230940 0.230940 0.230940 0.230940 0.230940 0.230940 0.230940 0.230940 0.230940 0.230940 0.230940 0.230940 0.230940 0.230940 0.230940 0.230940 0.230940 0.230940 0.230940 0.230940 0.230940 0.230940 0.230940 0.230940 0.244339 0.244339 0.244339 0.244339 0.244339 0.244339 0.244339 0.244339 0.244339 0.244339 0.244339 0.244339 0.244339 0.244339 0.244339 0.244339 0.244339 0.244339 0.244339 0.244339 0.244339 0.244339 0.244339 0.251976 0.251976 0.251976 0.251976 0.251976 0.251976 0.251976 0.251976 0.251976 0.251976 0.251976 0.251976 0.251976 0.251976 0.251976 0.251976 0.251976 0.251976 0.251976 0.251976 0.264906 0.264906 0.264906 0.264906 0.264906 0.264906 0.264906 0.264906 0.264906 0.264906 0.264906 0.264906 0.264906 0.264906 0.264906 0.264906 0.264906 0.264906 0.264906 0.264906 0.264906 0.264906 0.264906 0.264906 0.264906 0.264906 0.264906 0.264906 0.264906 0.264906 0.264906 0.264906 0.264906 0.264906 0.264906 0.264906 0.264906 0.264906 0.264906 0.264906 0.264906 0.264906 0.264906 0.264906 0.264906 0.264906 0.264906 0.264906 0.264906 0.264906 0.264906 0.264906 0.264906 0.264906 0.264906 0.264906 0.264906 0.264906 0.264906 0.264906 0.264906 0.264906 0.264906 0.264906 0.264906 0.264906 0.264906 0.264906 0.264906 0.264906 0.264906 0.264906 0.264906 0.264906 0.264906 0.269680 0.269680 0.269680 0.269680 0.269680 0.269680 0.269680 0.269680 0.269680 0.269680 0.269680 0.269680 0.264906 0.264906 0.264906 0.264906 0.264906 0.264906 0.264906 0.264906 0.264906 0.264906 0.264906 0.264906 0.269680 0.269680 0.269680 0.269680 0.269680 0.269680 0.269680 0.269680 0.269680 0.269680 0.269680 0.264906 0.264906 0.264906 0.264906 0.264906 0.264906 0.264906 0.264906 0.264906 0.264906 0.264906 0.256074 0.256074 0.256074 0.256074 0.256074 0.256074 0.256074 0.256074 0.256074 0.256074 0.256074 0.264906 0.264906 0.264906 0.264906 0.264906 0.264906 0.264906 0.264906 0.264906 0.264906 0.269680 0.269680 0.269680 0.269680 0.269680 0.269680 0.269680 0.269680 0.269680 0.256074 0.256074 0.256074 0.256074 0.256074 0.256074 0.256074 0.256074 0.256074 0.256074 0.260378 0.260378 0.260378 0.260378 0.260378 0.260378 0.260378 0.260378 0.260378 0.256074 0.256074 0.256074 0.256074 0.256074 0.256074 0.256074 0.256074 0.256074 0.251976 0.251976 0.251976 0.251976 0.251976 0.251976 0.251976 0.251976 0.251976 0.264906 0.264906 0.264906 0.264906 0.264906 0.264906 0.264906 0.264906 0.264906
