# Output from CTFFind version 4.1.9, run on 2019-11-01 20:51:26
# Input file: first_bm3d_averaged_1_1.7_0.33.mrc ; Number of micrographs: 1
# Pixel size: 3.000 Angstroms ; acceleration voltage: 300.0 keV ; spherical aberration: 0.00 mm ; amplitude contrast: 0.07
# Box size: 512 pixels ; min. res.: 30.0 Angstroms ; max. res.: 5.0 Angstroms ; min. def.: 5000.0 um; max. def. 50000.0 um; num. frames averaged: 1
# 6 lines per micrograph: #1 - spatial frequency (1/Angstroms); #2 - 1D rotational average of spectrum (assuming no astigmatism); #3 - 1D rotational average of spectrum; #4 - CTF fit; #5 - cross-correlation between spectrum and CTF fit; #6 - 2sigma of expected cross correlation of noise
0.000000 0.000651 0.001302 0.001953 0.002604 0.003255 0.003906 0.004557 0.005208 0.005859 0.006510 0.007161 0.007812 0.008464 0.009115 0.009766 0.010417 0.011068 0.011719 0.012370 0.013021 0.013672 0.014323 0.014974 0.015625 0.016276 0.016927 0.017578 0.018229 0.018880 0.019531 0.020182 0.020833 0.021484 0.022135 0.022786 0.023438 0.024089 0.024740 0.025391 0.026042 0.026693 0.027344 0.027995 0.028646 0.029297 0.029948 0.030599 0.031250 0.031901 0.032552 0.033203 0.033854 0.034505 0.035156 0.035807 0.036458 0.037109 0.037760 0.038411 0.039062 0.039714 0.040365 0.041016 0.041667 0.042318 0.042969 0.043620 0.044271 0.044922 0.045573 0.046224 0.046875 0.047526 0.048177 0.048828 0.049479 0.050130 0.050781 0.051432 0.052083 0.052734 0.053385 0.054036 0.054688 0.055339 0.055990 0.056641 0.057292 0.057943 0.058594 0.059245 0.059896 0.060547 0.061198 0.061849 0.062500 0.063151 0.063802 0.064453 0.065104 0.065755 0.066406 0.067057 0.067708 0.068359 0.069010 0.069661 0.070312 0.070964 0.071615 0.072266 0.072917 0.073568 0.074219 0.074870 0.075521 0.076172 0.076823 0.077474 0.078125 0.078776 0.079427 0.080078 0.080729 0.081380 0.082031 0.082682 0.083333 0.083984 0.084635 0.085286 0.085938 0.086589 0.087240 0.087891 0.088542 0.089193 0.089844 0.090495 0.091146 0.091797 0.092448 0.093099 0.093750 0.094401 0.095052 0.095703 0.096354 0.097005 0.097656 0.098307 0.098958 0.099609 0.100260 0.100911 0.101562 0.102214 0.102865 0.103516 0.104167 0.104818 0.105469 0.106120 0.106771 0.107422 0.108073 0.108724 0.109375 0.110026 0.110677 0.111328 0.111979 0.112630 0.113281 0.113932 0.114583 0.115234 0.115885 0.116536 0.117188 0.117839 0.118490 0.119141 0.119792 0.120443 0.121094 0.121745 0.122396 0.123047 0.123698 0.124349 0.125000 0.125651 0.126302 0.126953 0.127604 0.128255 0.128906 0.129557 0.130208 0.130859 0.131510 0.132161 0.132812 0.133464 0.134115 0.134766 0.135417 0.136068 0.136719 0.137370 0.138021 0.138672 0.139323 0.139974 0.140625 0.141276 0.141927 0.142578 0.143229 0.143880 0.144531 0.145182 0.145833 0.146484 0.147135 0.147786 0.148438 0.149089 0.149740 0.150391 0.151042 0.151693 0.152344 0.152995 0.153646 0.154297 0.154948 0.155599 0.156250 0.156901 0.157552 0.158203 0.158854 0.159505 0.160156 0.160807 0.161458 0.162109 0.162760 0.163411 0.164062 0.164714 0.165365 0.166016 0.166667 0.167318 0.167969 0.168620 0.169271 0.169922 0.170573 0.171224 0.171875 0.172526 0.173177 0.173828 0.174479 0.175130 0.175781 0.176432 0.177083 0.177734 0.178385 0.179036 0.179688 0.180339 0.180990 0.181641 0.182292 0.182943 0.183594 0.184245 0.184896 0.185547 0.186198 0.186849 0.187500 0.188151 0.188802 0.189453 0.190104 0.190755 0.191406 0.192057 0.192708 0.193359 0.194010 0.194661 0.195312 0.195964 0.196615 0.197266 0.197917 0.198568 0.199219 0.199870 0.200521 0.201172 0.201823 0.202474 0.203125 0.203776 0.204427 0.205078 0.205729 0.206380 0.207031 0.207682 0.208333 0.208984 0.209635 0.210286 0.210938 0.211589 0.212240 0.212891 0.213542 0.214193 0.214844 0.215495 0.216146 0.216797 0.217448 0.218099 0.218750 0.219401 0.220052 0.220703 0.221354 0.222005 0.222656 0.223307 0.223958 0.224609 0.225260 0.225911 0.226562 0.227214 0.227865 0.228516 0.229167 0.229818 0.230469 0.231120 0.231771 0.232422 0.233073 0.233724 0.234375 0.235026 0.235677
       0.33102        0.33102        0.33102        0.33102        0.33102        0.33102        0.33102        0.33102        0.33102        0.33102        0.33102        0.33102        0.33102        0.33102        0.33102        0.33102        0.33102        0.33102        0.33102        0.33102        0.33102        0.33102        0.33102        0.33102        0.33102        0.33102        0.33102        0.33102        0.33102        0.33102        0.33102        0.33102        0.33102        0.33102        0.33102        0.33102        0.33102        0.33102        0.33102        0.33102        0.33102        0.33102        0.33102        0.33102        0.33102        0.33102        0.33102        0.33102        0.33102        0.33102        0.33102        0.49878        0.71577        0.42332        0.19009       -0.07916       -0.26058       -0.06910       -0.12999       -0.06191       -0.00256       -0.14968       -0.10188       -0.04777       -0.00173       -0.15401       -0.22445       -0.34181       -0.46666       -0.57004       -0.52313       -0.45713       -0.37492       -0.55668       -0.45387       -0.62388       -0.50812       -0.47581       -0.39587       -0.38202       -0.33821       -0.24626       -0.16675       -0.14315        0.02769       -0.01703        0.11569        0.16777        0.30634        0.41317        0.46459        0.49756        0.54144        0.54908        0.69172        0.64436        0.67792        0.58731        0.55589        0.65059        0.52513        0.42979        0.39067        0.31286        0.23144        0.26141        0.25077        0.09923        0.08139       -0.00147       -0.01063        0.03096       -0.01197        0.06840        0.08879        0.22764        0.28294        0.29797        0.38807        0.56391        0.53882        0.57444        0.66771        0.69152        0.62770        0.63654        0.63570        0.54278        0.56841        0.39303        0.34965        0.26352        0.18419        0.07406        0.14131        0.11221        0.09838        0.11080        0.20314        0.19816        0.31233        0.35219        0.41086        0.49010        0.56966        0.54443        0.55456        0.60434        0.53616        0.46402        0.48025        0.32213        0.24879        0.25358        0.24223        0.13876        0.14257        0.14977        0.22145        0.25010        0.33179        0.37346        0.39622        0.45954        0.44575        0.47541        0.44378        0.47255        0.44391        0.39614        0.37077        0.36109        0.32037        0.28652        0.20643        0.20678        0.22505        0.26773        0.25793        0.34222        0.37410        0.35196        0.40791        0.45432        0.44417        0.42549        0.43951        0.35919        0.33135        0.28021        0.25688        0.28807        0.26003        0.29178        0.29996        0.34247        0.33247        0.39930        0.39245        0.42219        0.40674        0.43756        0.40398        0.36721        0.28080        0.28548        0.29502        0.27576        0.25762        0.33105        0.36638        0.33426        0.35863        0.36639        0.34769        0.40627        0.39808        0.36174        0.34026        0.30624        0.31069        0.31689        0.30804        0.30001        0.28499        0.33627        0.35563        0.37157        0.33660        0.33099        0.33263        0.34999        0.30940        0.28121        0.30798        0.31964        0.32838        0.32118        0.33278        0.35342        0.33016        0.31855        0.33363        0.30014        0.25716        0.24632        0.26395        0.30263        0.31982        0.35668        0.29674        0.30514        0.32770        0.29093        0.32021        0.29344        0.27831        0.28391        0.29107        0.30500        0.34410        0.31728        0.32578        0.32366        0.32758        0.33512        0.31530        0.32027        0.32004        0.27180        0.28891        0.30626        0.28314        0.32069        0.32531        0.33383        0.31759        0.34934        0.33108        0.28181        0.24077        0.27122        0.33104        0.35772        0.35022        0.31823        0.29272        0.30021        0.31369        0.25283        0.28906        0.29855        0.31599        0.29066        0.29318        0.26575        0.33055        0.33691        0.33741        0.31608        0.29665        0.30497        0.39107        0.33983        0.31689        0.30573        0.30762        0.28747        0.29457        0.28803        0.29881        0.22830        0.26701        0.29980        0.31310        0.29690        0.27190        0.28111        0.23179        0.22695        0.27841        0.31215        0.30196        0.30665        0.28766        0.33179        0.25047        0.22285        0.28664        0.24731        0.27064        0.27659        0.35935        0.26938        0.28976        0.27200        0.23198        0.26434        0.26081        0.23149        0.16991        0.22019        0.22423        0.24582        0.30323        0.27238        0.33711        0.31312        0.27512        0.25839        0.20843        0.25116        0.27006        0.21869        0.15690        0.20916        0.24257        0.21071        0.30429        0.25072        0.05523       -0.42266       -0.93802
2.688732 2.660346 2.632113 2.604033 2.576105 2.548331 2.520709 2.493240 2.465924 2.438761 2.411751 2.384894 2.358189 2.331637 2.305238 2.278992 2.252899 2.226958 2.201171 2.175536 2.150054 2.124725 2.099549 2.074526 2.049655 2.024938 2.000373 1.975961 1.951702 1.927596 1.903642 1.879842 1.856194 1.832699 1.809357 1.786168 1.763132 1.740249 1.717518 1.694940 1.672515 1.650243 1.628124 1.606158 1.584344 1.562684 1.541176 1.519821 1.498619 1.477569 1.456673 1.524275 1.830150 1.518186 1.189832 0.941260 0.544400 0.912236 0.640605 0.863328 0.923643 0.592466 0.696179 0.784032 0.825354 0.622462 0.533357 0.355189 0.098984 0.066460 0.040003 0.065899 0.298790 -0.042407 0.072321 -0.134935 -0.023608 -0.015352 0.070894 0.067204 0.104451 0.180778 0.280094 0.244525 0.477509 0.396571 0.546329 0.530925 0.773283 0.792392 0.882043 0.934315 0.937010 0.954776 1.121372 0.945313 1.146868 0.947405 0.856623 1.018347 0.850040 0.763080 0.633670 0.590968 0.461815 0.421607 0.509349 0.264021 0.201462 0.163317 0.010295 0.203681 -0.007883 0.119285 0.172044 0.256699 0.341895 0.347202 0.438364 0.549208 0.676371 0.538599 0.742741 0.860681 0.638834 0.707343 0.679846 0.588464 0.539019 0.464961 0.311656 0.216343 0.125051 -0.032816 -0.013458 0.051231 -0.080116 -0.054047 0.060890 0.045812 0.107810 0.220758 0.242869 0.318537 0.440565 0.450199 0.448028 0.466841 0.459898 0.334460 0.340130 0.250659 0.051791 0.067437 0.020774 -0.040199 -0.098053 -0.088290 -0.016079 -0.036518 0.085934 0.135581 0.139926 0.263843 0.230566 0.253051 0.281277 0.237699 0.243482 0.215730 0.153557 0.118797 0.117982 0.027736 0.017028 -0.109849 -0.037808 0.009035 -0.001098 0.016521 0.105208 0.077833 0.127296 0.209591 0.271748 0.174016 0.202917 0.115693 0.142130 0.026994 -0.032309 0.023708 -0.013923 0.009411 0.002399 0.043476 0.077525 0.067055 0.163844 0.105820 0.183331 0.091075 0.174169 0.107093 0.013680 -0.041665 -0.011955 -0.020162 -0.050901 -0.047589 0.082443 0.071240 -0.000001 0.111666 0.086893 0.076100 0.159904 0.088670 0.091200 0.066843 -0.003647 0.047940 0.015372 0.024976 0.023251 0.012967 0.063162 0.075861 0.084030 0.051207 0.059771 0.033143 0.083943 0.004050 -0.002740 0.038174 0.031109 0.066029 0.051805 0.066368 0.067688 0.056469 0.026681 0.044492 -0.000380 -0.048271 -0.034157 -0.016819 0.022779 0.039719 0.113152 -0.004959 0.052848 0.053943 0.001654 0.070844 0.022485 0.002722 0.030535 0.045028 0.039684 0.091809 0.042282 0.073818 0.070477 0.096832 0.067697 0.078626 0.094038 0.051788 -0.007433 0.058004 0.044679 0.039568 0.084941 0.081803 0.038238 0.067813 0.100813 0.033427 0.020215 -0.067634 0.000310 0.117260 0.091965 0.080077 0.041257 0.010758 0.060314 0.039748 -0.049451 0.048128 0.038311 0.061205 0.046180 -0.014358 0.047043 0.006386 0.061575 0.033847 0.042187 -0.033584 0.064925 0.117923 0.035554 -0.000304 0.024654 0.005139 -0.037276 -0.020496 -0.021610 -0.029587 -0.103488 -0.036189 -0.020635 0.011665 -0.032699 -0.071178 0.015141 -0.076744 -0.037877 -0.064960 0.058227 0.010908 0.035709 -0.003679 0.074097 -0.058145 -0.062997 0.014365 -0.055832 0.015386 -0.013701 0.143383 -0.067442 0.017732 0.023966 -0.054553 0.001687 -0.004468 -0.033937 -0.149012 -0.025384 -0.040120 -0.012924 0.030128 0.004340 0.135913 0.069560 0.041029 0.012828 -0.017873 -0.010742 0.297988 0.263965 0.189529 0.259070 0.252637 0.291247 0.326989 0.264590 0.067398 -1.102991
0.072396 0.072910 0.074453 0.077024 0.080623 0.085248 0.090899 0.097573 0.105269 0.113982 0.123711 0.134450 0.146194 0.158935 0.172666 0.187377 0.203055 0.219688 0.237260 0.255752 0.275142 0.295406 0.316517 0.338443 0.361149 0.384594 0.408736 0.433525 0.458906 0.484821 0.511203 0.537982 0.565080 0.592413 0.619889 0.647413 0.674878 0.702173 0.729179 0.755771 0.781814 0.807169 0.831690 0.855221 0.877605 0.898675 0.918262 0.936189 0.952279 0.966350 0.978218 0.987698 0.994607 0.998763 0.999985 0.998101 0.992942 0.984349 0.972174 0.956279 0.936543 0.912860 0.885145 0.853332 0.817381 0.777277 0.733033 0.684693 0.632335 0.576071 0.516049 0.452458 0.385524 0.315515 0.242743 0.167560 0.090361 0.011583 0.068296 0.148759 0.229252 0.309185 0.387938 0.464866 0.539299 0.610551 0.677928 0.740729 0.798261 0.849839 0.894803 0.932520 0.962399 0.983899 0.996536 0.999899 0.993655 0.977562 0.951477 0.915363 0.869300 0.813492 0.748266 0.674087 0.591549 0.501385 0.404459 0.301766 0.194424 0.083667 0.029168 0.142652 0.255283 0.365501 0.471714 0.572317 0.665716 0.750362 0.824772 0.887558 0.937463 0.973382 0.994394 0.999792 0.989099 0.962099 0.918852 0.859703 0.785304 0.696604 0.594858 0.481612 0.358691 0.228179 0.092384 0.046189 0.184889 0.320960 0.451601 0.574020 0.685496 0.783448 0.865494 0.929520 0.973739 0.996750 0.997591 0.975784 0.931367 0.864918 0.777572 0.671011 0.547451 0.409612 0.260665 0.104172 0.055990 0.215722 0.370805 0.517007 0.650207 0.766513 0.862386 0.934753 0.981125 0.999689 0.989396 0.950024 0.882219 0.787515 0.668318 0.527873 0.370187 0.199939 0.022349 0.156975 0.332200 0.497465 0.647078 0.775716 0.878629 0.951830 0.992266 0.997967 0.968156 0.903329 0.805279 0.677083 0.523033 0.348518 0.159853 0.035931 0.231333 0.418680 0.590409 0.739394 0.859252 0.944633 0.991481 0.997255 0.961091 0.883899 0.768382 0.618987 0.441766 0.244154 0.034690 0.177342 0.382314 0.570688 0.733474 0.862670 0.951681 0.995682 0.991916 0.939895 0.841504 0.700976 0.524764 0.321278 0.100520 0.126392 0.347762 0.551923 0.727851 0.865791 0.957817 0.998325 0.984418 0.916148 0.796606 0.631839 0.430600 0.203920 0.035462 0.273787 0.497073 0.691920 0.846353 0.950576 0.997641 0.983959 0.909617 0.778485 0.598082 0.379200 0.135309 0.118233 0.365138 0.589208 0.775439 0.911029 0.986315 0.995510 0.937210 0.814609 0.635407 0.411393 0.157741 0.108003 0.367070 0.600826 0.792102 0.926492 0.993504 0.987424 0.907881 0.760016 0.554236 0.305550 0.032549 0.243947 0.502472 0.722568 0.886440 0.980445 0.996299 0.931878 0.791554 0.585993 0.331442 0.048506 0.239458 0.508269 0.734937 0.899666 0.987649 0.990471 0.907002 0.743678 0.514108 0.238043 0.060265 0.354126 0.616819 0.824001 0.956047 0.999966 0.950778 0.812174 0.596365 0.323128 0.018069 0.289712 0.570367 0.796213 0.944510 0.999827 0.955757 0.815758 0.593037 0.309415 0.006700 0.323104 0.607055 0.828666 0.964124 0.998332 0.926714 0.755929 0.503412 0.195713 0.134198 0.450415 0.717971 0.906774 0.995053 0.971991 0.839184 0.610718 0.311838 0.023744 0.357560 0.650762 0.868692 0.985031 0.985109 0.867893 0.646394 0.346394 0.003569 0.340661 0.644094 0.868955 0.986676 0.981646 0.853448 0.617208 0.301993 0.052633 0.401475 0.699452 0.907444 0.997546 0.956940 0.789897 0.517552 0.175384 0.191240 0.533028 0.803389 0.964825 0.994299
1.000000 1.000000 1.000000 1.000000 1.000000 1.000000 1.000000 1.000000 1.000000 1.000000 1.000000 1.000000 1.000000 1.000000 1.000000 1.000000 1.000000 1.000000 1.000000 1.000000 1.000000 1.000000 1.000000 1.000000 1.000000 1.000000 1.000000 1.000000 1.000000 1.000000 1.000000 1.000000 1.000000 1.000000 1.000000 1.000000 1.000000 1.000000 1.000000 1.000000 1.000000 1.000000 1.000000 1.000000 1.000000 1.000000 1.000000 1.000000 1.000000 1.000000 1.000000 1.000000 0.916325 0.916325 0.904627 0.904627 0.904627 0.904627 0.904627 0.904627 0.904627 0.904627 0.904627 0.904627 0.904627 0.904627 0.904627 0.904627 0.904627 0.904627 0.904627 0.904627 0.904627 0.904627 0.904627 0.904627 0.904627 0.904627 0.904627 0.904627 0.904627 0.904627 0.904627 0.904627 0.904627 0.904627 0.904627 0.904627 0.904627 0.904627 0.904627 0.904627 0.904627 0.904627 0.904627 0.902553 0.907546 0.909510 0.908087 0.911555 0.911598 0.909533 0.908995 0.908674 0.909036 0.910444 0.920898 0.931851 0.942798 0.943330 0.948554 0.952775 0.955297 0.956024 0.957638 0.967878 0.965182 0.964722 0.965419 0.966851 0.968932 0.967793 0.967187 0.970247 0.970888 0.969403 0.966969 0.966317 0.965686 0.965780 0.965432 0.965308 0.966395 0.966900 0.966511 0.966120 0.966271 0.966334 0.965039 0.964652 0.967293 0.968532 0.968453 0.967281 0.961990 0.965379 0.966132 0.965563 0.965591 0.965293 0.965600 0.949860 0.946507 0.946412 0.941766 0.940742 0.937892 0.936304 0.935205 0.936229 0.935851 0.936278 0.932929 0.920118 0.906509 0.892188 0.913877 0.901761 0.887265 0.864528 0.865006 0.858257 0.858688 0.852417 0.844502 0.839843 0.837269 0.839537 0.840944 0.845555 0.842101 0.827448 0.831319 0.826814 0.792981 0.781946 0.768807 0.765060 0.762090 0.763199 0.760560 0.755923 0.764566 0.755838 0.752845 0.742343 0.722165 0.688868 0.676998 0.687865 0.696131 0.703943 0.699999 0.684660 0.638384 0.651571 0.679060 0.671994 0.672777 0.667332 0.660971 0.668939 0.667121 0.663052 0.656917 0.656415 0.655954 0.665631 0.671092 0.662500 0.656284 0.644718 0.634973 0.619111 0.630544 0.636485 0.604915 0.598545 0.592556 0.587029 0.582354 0.566529 0.567476 0.546504 0.531844 0.530411 0.530852 0.535149 0.543862 0.543093 0.521297 0.540958 0.534205 0.566088 0.541226 0.539345 0.540728 0.550529 0.532454 0.525312 0.518931 0.519613 0.531814 0.559562 0.594169 0.586302 0.576283 0.569116 0.579710 0.567886 0.576963 0.606331 0.585320 0.518170 0.473932 0.470977 0.438147 0.429105 0.412926 0.390834 0.364060 0.361687 0.355442 0.340790 0.329871 0.282702 0.248860 0.229163 0.216170 0.228246 0.246878 0.244925 0.245725 0.287055 0.331390 0.335220 0.325170 0.300085 0.301033 0.298698 0.253461 0.249322 0.212931 0.196883 0.224840 0.173009 0.178010 0.131886 0.126636 0.143317 0.159288 0.171850 0.125583 0.108628 0.129190 0.150382 0.137582 0.129595 0.087621 0.061015 0.047938 0.060041 0.040694 0.018602 0.024477 0.026490 0.006122 -0.019648 -0.021533 -0.028452 -0.022900 -0.038324 -0.038002 0.005871 0.033005 0.024088 0.027291 0.050208 0.046051 0.029328 0.021994 -0.000937 -0.011157 -0.056661 -0.081680 -0.081680 -0.072029 -0.072029 -0.072029 -0.072029 -0.072029 -0.072029 -0.072029 -0.072029 -0.072029 -0.073082 -0.073082 -0.073082 -0.073082 -0.073082 -0.073082 -0.073082 -0.073082 -0.073082 -0.055770 -0.055770 -0.055770 -0.055770 -0.055770 -0.055770 -0.055770 -0.055770 -0.055770
0.000000 0.000000 0.000000 0.000000 0.000000 0.000000 0.000000 0.000000 0.000000 0.000000 0.000000 0.000000 0.000000 0.000000 0.000000 0.000000 0.000000 0.000000 0.000000 0.000000 0.000000 0.000000 0.000000 0.000000 0.000000 0.000000 0.000000 0.000000 0.000000 0.000000 0.000000 0.000000 0.000000 0.000000 0.000000 0.000000 0.000000 0.000000 0.000000 0.000000 0.000000 0.000000 0.000000 0.000000 0.000000 0.000000 0.000000 0.000000 0.000000 0.000000 0.000000 0.000000 0.181818 0.181818 0.199007 0.199007 0.199007 0.199007 0.199007 0.199007 0.199007 0.199007 0.199007 0.199007 0.199007 0.199007 0.199007 0.199007 0.199007 0.199007 0.199007 0.199007 0.199007 0.199007 0.199007 0.199007 0.199007 0.199007 0.199007 0.199007 0.199007 0.199007 0.199007 0.199007 0.199007 0.199007 0.199007 0.199007 0.199007 0.199007 0.199007 0.199007 0.199007 0.199007 0.199007 0.230940 0.230940 0.230940 0.230940 0.230940 0.230940 0.230940 0.230940 0.230940 0.230940 0.230940 0.230940 0.230940 0.230940 0.230940 0.230940 0.230940 0.230940 0.230940 0.230940 0.230940 0.230940 0.230940 0.230940 0.230940 0.230940 0.230940 0.230940 0.244339 0.244339 0.244339 0.244339 0.244339 0.244339 0.244339 0.244339 0.244339 0.244339 0.244339 0.244339 0.244339 0.244339 0.244339 0.244339 0.244339 0.244339 0.244339 0.244339 0.244339 0.244339 0.244339 0.251976 0.251976 0.251976 0.251976 0.251976 0.251976 0.251976 0.251976 0.251976 0.251976 0.251976 0.251976 0.251976 0.251976 0.251976 0.251976 0.251976 0.251976 0.251976 0.251976 0.264906 0.264906 0.264906 0.264906 0.264906 0.264906 0.264906 0.264906 0.264906 0.264906 0.264906 0.264906 0.264906 0.264906 0.264906 0.264906 0.264906 0.264906 0.264906 0.264906 0.264906 0.264906 0.264906 0.264906 0.264906 0.264906 0.264906 0.264906 0.264906 0.264906 0.264906 0.264906 0.264906 0.264906 0.264906 0.264906 0.264906 0.264906 0.264906 0.264906 0.264906 0.264906 0.264906 0.264906 0.264906 0.264906 0.264906 0.264906 0.264906 0.264906 0.264906 0.264906 0.264906 0.264906 0.264906 0.264906 0.264906 0.264906 0.264906 0.264906 0.264906 0.264906 0.264906 0.264906 0.264906 0.264906 0.264906 0.264906 0.264906 0.264906 0.264906 0.264906 0.264906 0.264906 0.264906 0.269680 0.269680 0.269680 0.269680 0.269680 0.269680 0.269680 0.269680 0.269680 0.269680 0.269680 0.269680 0.264906 0.264906 0.264906 0.264906 0.264906 0.264906 0.264906 0.264906 0.264906 0.264906 0.264906 0.264906 0.269680 0.269680 0.269680 0.269680 0.269680 0.269680 0.269680 0.269680 0.269680 0.269680 0.269680 0.264906 0.264906 0.264906 0.264906 0.264906 0.264906 0.264906 0.264906 0.264906 0.264906 0.264906 0.269680 0.269680 0.269680 0.269680 0.269680 0.269680 0.269680 0.269680 0.269680 0.269680 0.251976 0.251976 0.251976 0.251976 0.251976 0.251976 0.251976 0.251976 0.251976 0.251976 0.251976 0.269680 0.269680 0.269680 0.269680 0.269680 0.269680 0.269680 0.269680 0.269680 0.256074 0.256074 0.256074 0.256074 0.256074 0.256074 0.256074 0.256074 0.256074 0.256074 0.260378 0.260378 0.260378 0.260378 0.260378 0.260378 0.260378 0.260378 0.260378 0.256074 0.256074 0.256074 0.256074 0.256074 0.256074 0.256074 0.256074 0.256074 0.251976 0.251976 0.251976 0.251976 0.251976 0.251976 0.251976 0.251976 0.251976 0.264906 0.264906 0.264906 0.264906 0.264906 0.264906 0.264906 0.264906 0.264906
