# Output from CTFFind version 4.1.9, run on 2019-11-01 22:43:56
# Input file: first_bm3d_averaged_1_1.7_1.00_50_half.mrc ; Number of micrographs: 1
# Pixel size: 3.000 Angstroms ; acceleration voltage: 300.0 keV ; spherical aberration: 0.00 mm ; amplitude contrast: 0.07
# Box size: 512 pixels ; min. res.: 30.0 Angstroms ; max. res.: 5.0 Angstroms ; min. def.: 5000.0 um; max. def. 50000.0 um; num. frames averaged: 1
# 6 lines per micrograph: #1 - spatial frequency (1/Angstroms); #2 - 1D rotational average of spectrum (assuming no astigmatism); #3 - 1D rotational average of spectrum; #4 - CTF fit; #5 - cross-correlation between spectrum and CTF fit; #6 - 2sigma of expected cross correlation of noise
0.000000 0.000651 0.001302 0.001953 0.002604 0.003255 0.003906 0.004557 0.005208 0.005859 0.006510 0.007161 0.007812 0.008464 0.009115 0.009766 0.010417 0.011068 0.011719 0.012370 0.013021 0.013672 0.014323 0.014974 0.015625 0.016276 0.016927 0.017578 0.018229 0.018880 0.019531 0.020182 0.020833 0.021484 0.022135 0.022786 0.023438 0.024089 0.024740 0.025391 0.026042 0.026693 0.027344 0.027995 0.028646 0.029297 0.029948 0.030599 0.031250 0.031901 0.032552 0.033203 0.033854 0.034505 0.035156 0.035807 0.036458 0.037109 0.037760 0.038411 0.039062 0.039714 0.040365 0.041016 0.041667 0.042318 0.042969 0.043620 0.044271 0.044922 0.045573 0.046224 0.046875 0.047526 0.048177 0.048828 0.049479 0.050130 0.050781 0.051432 0.052083 0.052734 0.053385 0.054036 0.054688 0.055339 0.055990 0.056641 0.057292 0.057943 0.058594 0.059245 0.059896 0.060547 0.061198 0.061849 0.062500 0.063151 0.063802 0.064453 0.065104 0.065755 0.066406 0.067057 0.067708 0.068359 0.069010 0.069661 0.070312 0.070964 0.071615 0.072266 0.072917 0.073568 0.074219 0.074870 0.075521 0.076172 0.076823 0.077474 0.078125 0.078776 0.079427 0.080078 0.080729 0.081380 0.082031 0.082682 0.083333 0.083984 0.084635 0.085286 0.085938 0.086589 0.087240 0.087891 0.088542 0.089193 0.089844 0.090495 0.091146 0.091797 0.092448 0.093099 0.093750 0.094401 0.095052 0.095703 0.096354 0.097005 0.097656 0.098307 0.098958 0.099609 0.100260 0.100911 0.101562 0.102214 0.102865 0.103516 0.104167 0.104818 0.105469 0.106120 0.106771 0.107422 0.108073 0.108724 0.109375 0.110026 0.110677 0.111328 0.111979 0.112630 0.113281 0.113932 0.114583 0.115234 0.115885 0.116536 0.117188 0.117839 0.118490 0.119141 0.119792 0.120443 0.121094 0.121745 0.122396 0.123047 0.123698 0.124349 0.125000 0.125651 0.126302 0.126953 0.127604 0.128255 0.128906 0.129557 0.130208 0.130859 0.131510 0.132161 0.132812 0.133464 0.134115 0.134766 0.135417 0.136068 0.136719 0.137370 0.138021 0.138672 0.139323 0.139974 0.140625 0.141276 0.141927 0.142578 0.143229 0.143880 0.144531 0.145182 0.145833 0.146484 0.147135 0.147786 0.148438 0.149089 0.149740 0.150391 0.151042 0.151693 0.152344 0.152995 0.153646 0.154297 0.154948 0.155599 0.156250 0.156901 0.157552 0.158203 0.158854 0.159505 0.160156 0.160807 0.161458 0.162109 0.162760 0.163411 0.164062 0.164714 0.165365 0.166016 0.166667 0.167318 0.167969 0.168620 0.169271 0.169922 0.170573 0.171224 0.171875 0.172526 0.173177 0.173828 0.174479 0.175130 0.175781 0.176432 0.177083 0.177734 0.178385 0.179036 0.179688 0.180339 0.180990 0.181641 0.182292 0.182943 0.183594 0.184245 0.184896 0.185547 0.186198 0.186849 0.187500 0.188151 0.188802 0.189453 0.190104 0.190755 0.191406 0.192057 0.192708 0.193359 0.194010 0.194661 0.195312 0.195964 0.196615 0.197266 0.197917 0.198568 0.199219 0.199870 0.200521 0.201172 0.201823 0.202474 0.203125 0.203776 0.204427 0.205078 0.205729 0.206380 0.207031 0.207682 0.208333 0.208984 0.209635 0.210286 0.210938 0.211589 0.212240 0.212891 0.213542 0.214193 0.214844 0.215495 0.216146 0.216797 0.217448 0.218099 0.218750 0.219401 0.220052 0.220703 0.221354 0.222005 0.222656 0.223307 0.223958 0.224609 0.225260 0.225911 0.226562 0.227214 0.227865 0.228516 0.229167 0.229818 0.230469 0.231120 0.231771 0.232422 0.233073 0.233724 0.234375 0.235026 0.235677
       0.32366        0.32366        0.32366        0.32366        0.32366        0.32366        0.32366        0.32366        0.32366        0.32366        0.32366        0.32366        0.32366        0.32366        0.32366        0.32366        0.32366        0.32366        0.32366        0.32366        0.32366        0.32366        0.32366        0.32366        0.32366        0.32366        0.32366        0.32366        0.32366        0.32366        0.32366        0.32366        0.32366        0.32366        0.32366        0.32366        0.32366        0.32366        0.32367        0.32366        0.32366        0.32366        0.32366        0.32366        0.32366        0.32366        0.32366        0.32366        0.32366        0.32366        0.32366        0.49521        0.71259        0.41983        0.18548       -0.08265       -0.25971       -0.07212       -0.13417       -0.05989       -0.00797       -0.16126       -0.10754       -0.05883       -0.01142       -0.16369       -0.23431       -0.35148       -0.47117       -0.57275       -0.53094       -0.45665       -0.38180       -0.56404       -0.46531       -0.63065       -0.51779       -0.48208       -0.40078       -0.38969       -0.33634       -0.25803       -0.17856       -0.14917        0.02172       -0.02491        0.10226        0.15870        0.30612        0.41367        0.45637        0.49780        0.53992        0.54640        0.67279        0.63152        0.66658        0.58377        0.55155        0.63994        0.51451        0.42070        0.38215        0.30645        0.21964        0.24619        0.23964        0.08943        0.07350        0.00113       -0.01095        0.02343       -0.02486        0.05578        0.08890        0.21946        0.27559        0.27840        0.37646        0.56521        0.53608        0.56855        0.65532        0.69531        0.62253        0.62910        0.62888        0.54330        0.56505        0.39208        0.33920        0.25286        0.17770        0.06984        0.13649        0.10409        0.09185        0.10579        0.20134        0.19197        0.30913        0.34779        0.39980        0.47976        0.55799        0.53999        0.54615        0.59602        0.51762        0.44876        0.47678        0.32243        0.23756        0.24982        0.23309        0.12743        0.12868        0.14742        0.21074        0.23402        0.32772        0.36970        0.39141        0.45108        0.43202        0.47671        0.44104        0.46305        0.43792        0.39158        0.36542        0.35716        0.31567        0.28618        0.20018        0.19121        0.21267        0.25441        0.24920        0.33816        0.36633        0.34779        0.40463        0.44177        0.42958        0.42540        0.43726        0.36182        0.32457        0.27853        0.24628        0.28333        0.24873        0.28028        0.29452        0.32849        0.32504        0.37981        0.37622        0.42180        0.40348        0.44397        0.39648        0.34866        0.26874        0.27690        0.28472        0.26042        0.25292        0.31497        0.35316        0.32516        0.35451        0.35856        0.34421        0.40550        0.39435        0.35846        0.33300        0.29329        0.30842        0.31217        0.30506        0.30374        0.27629        0.32970        0.34645        0.35933        0.32858        0.32752        0.32924        0.34460        0.30990        0.28092        0.30032        0.30557        0.32703        0.31448        0.31718        0.34271        0.32077        0.31517        0.32350        0.29495        0.25379        0.24028        0.25910        0.30380        0.30990        0.35716        0.29242        0.29044        0.31023        0.28202        0.30616        0.28049        0.26521        0.27710        0.28257        0.29724        0.33216        0.31668        0.31899        0.32207        0.31344        0.32891        0.30875        0.31526        0.31485        0.26495        0.27980        0.29570        0.28474        0.30785        0.31071        0.32382        0.32234        0.33641        0.32411        0.28358        0.23289        0.26463        0.32036        0.34087        0.33337        0.31214        0.28899        0.29670        0.30287        0.25015        0.28494        0.30035        0.32295        0.28003        0.27186        0.25702        0.31568        0.32161        0.32924        0.29887        0.29037        0.28522        0.37944        0.33068        0.28868        0.29289        0.29585        0.29212        0.29686        0.29491        0.30632        0.22690        0.26300        0.30948        0.31152        0.28230        0.24891        0.27004        0.22764        0.21645        0.29080        0.30073        0.29686        0.27868        0.26848        0.32204        0.25705        0.21953        0.25652        0.23284        0.26226        0.26661        0.34430        0.24411        0.27302        0.26390        0.22763        0.26846        0.26671        0.23623        0.18957        0.21641        0.21221        0.24209        0.30004        0.25008        0.35117        0.33746        0.26488        0.23740        0.19244        0.25704        0.31502        0.23404        0.19307        0.21130        0.20803        0.20258        0.22821        0.19575        0.03443       -0.45200       -0.89476
2.661252 2.633165 2.605230 2.577445 2.549812 2.522329 2.494997 2.467816 2.440786 2.413906 2.387178 2.360600 2.334173 2.307897 2.281772 2.255798 2.229975 2.204302 2.178780 2.153410 2.128190 2.103121 2.078202 2.053435 2.028819 2.004353 1.980038 1.955874 1.931861 1.907999 1.884288 1.860727 1.837318 1.814059 1.790951 1.767994 1.745188 1.722532 1.700028 1.677674 1.655472 1.633420 1.611519 1.589769 1.568169 1.546721 1.525423 1.504277 1.483281 1.462436 1.441742 1.510910 1.819828 1.499658 1.182823 0.934846 0.548205 0.906601 0.636811 0.862910 0.916767 0.579988 0.691501 0.766957 0.814777 0.612863 0.519715 0.350651 0.096596 0.068740 0.035460 0.073158 0.296257 -0.045300 0.061750 -0.134312 -0.024863 -0.019132 0.073289 0.056850 0.119241 0.173367 0.268437 0.238892 0.474076 0.388432 0.532396 0.525543 0.768731 0.791681 0.873592 0.935168 0.929480 0.952140 1.093918 0.936055 1.127200 0.938703 0.853142 1.005209 0.839153 0.746092 0.629409 0.583136 0.458915 0.399548 0.500482 0.257221 0.189751 0.171770 0.017085 0.200804 -0.012989 0.104658 0.167560 0.262665 0.336353 0.329021 0.422516 0.550610 0.673972 0.540075 0.723628 0.875388 0.636722 0.694064 0.673797 0.591637 0.531709 0.468366 0.304756 0.204084 0.124981 -0.029296 -0.020738 0.052949 -0.082855 -0.056864 0.067295 0.044855 0.098361 0.229177 0.232861 0.313843 0.425573 0.436486 0.442225 0.463474 0.442758 0.304596 0.342450 0.249211 0.041246 0.068338 0.022473 -0.056711 -0.105122 -0.093883 -0.012412 -0.053864 0.078332 0.136363 0.148078 0.251687 0.221337 0.242312 0.306031 0.237927 0.249332 0.221147 0.164780 0.122288 0.127419 0.036809 0.033269 -0.114047 -0.040063 0.000247 0.003332 0.015311 0.113094 0.081382 0.139691 0.189289 0.255537 0.169236 0.206130 0.119999 0.137925 0.029320 -0.025013 0.008477 -0.004625 -0.014445 0.000728 0.034790 0.064873 0.059243 0.140065 0.095188 0.176386 0.086203 0.178854 0.080273 -0.013320 -0.047371 -0.032453 -0.038835 -0.068418 -0.053341 0.046509 0.058975 -0.014235 0.069326 0.066851 0.077176 0.149291 0.076579 0.080367 0.039680 -0.018499 0.042903 -0.000401 0.018278 0.022304 -0.006110 0.046986 0.053302 0.062799 0.033563 0.046179 0.013273 0.067321 0.000955 -0.022436 0.020414 0.002529 0.057586 0.027475 0.041958 0.034172 0.042665 0.017647 0.028231 -0.010727 -0.053792 -0.045338 -0.024373 0.011335 0.032355 0.105562 -0.011176 0.032720 0.045813 0.002609 0.065645 0.013941 0.008511 0.035879 0.048883 0.043866 0.093221 0.060230 0.077080 0.084055 0.082082 0.061368 0.075784 0.083646 0.043902 -0.009122 0.049895 0.031190 0.052310 0.061783 0.078527 0.028053 0.078760 0.081573 0.037424 0.034469 -0.068297 -0.003920 0.114304 0.071668 0.061872 0.057537 0.006309 0.056193 0.046858 -0.044256 0.047660 0.056524 0.079226 0.033612 -0.026953 0.002778 0.074292 0.035230 0.045326 0.030380 -0.011021 0.040963 0.119769 0.043664 -0.020538 0.013400 0.011007 -0.015275 -0.011628 0.004136 0.002482 -0.096353 -0.024212 0.012541 0.034514 -0.047037 -0.070836 0.015513 -0.070185 -0.034913 -0.032424 0.059342 0.010307 0.027665 -0.012280 0.060907 -0.022997 -0.066589 -0.022192 -0.062108 0.022691 -0.016813 0.124971 -0.080626 0.000287 0.035666 -0.057770 0.010434 0.020293 -0.039955 -0.097717 -0.035775 -0.046950 -0.005465 0.019377 -0.029003 0.153381 0.091342 0.025674 -0.033125 -0.047660 -0.018285 0.078437 0.277323 0.227733 0.256095 0.213850 0.287621 0.248099 0.205729 0.043541 -1.043577
0.072396 0.072910 0.074452 0.077022 0.080619 0.085241 0.090889 0.097560 0.105251 0.113960 0.123684 0.134417 0.146154 0.158889 0.172613 0.187316 0.202986 0.219611 0.237173 0.255656 0.275036 0.295290 0.316391 0.338306 0.361001 0.384435 0.408566 0.433344 0.458714 0.484618 0.510990 0.537759 0.564847 0.592171 0.619640 0.647156 0.674614 0.701904 0.728907 0.755496 0.781539 0.806896 0.831420 0.854957 0.877349 0.898431 0.918031 0.935975 0.952086 0.966180 0.978075 0.987586 0.994530 0.998724 0.999989 0.998152 0.993044 0.984507 0.972390 0.956559 0.936890 0.913278 0.885637 0.853902 0.818030 0.778008 0.733848 0.685594 0.633321 0.577142 0.517205 0.453695 0.386840 0.316907 0.244206 0.169087 0.091945 0.013215 0.066625 0.147060 0.227536 0.307466 0.386231 0.463186 0.537661 0.608974 0.676429 0.739327 0.796974 0.848687 0.893804 0.931694 0.961764 0.983470 0.996331 0.999931 0.993938 0.978105 0.952287 0.916446 0.870658 0.815122 0.750164 0.676242 0.593948 0.504009 0.407287 0.304770 0.197574 0.086927 0.025838 0.139293 0.251942 0.362226 0.468556 0.569326 0.662947 0.747865 0.822597 0.885755 0.936075 0.972450 0.993953 0.999868 0.989714 0.963264 0.920568 0.861964 0.788089 0.699885 0.598592 0.485748 0.363165 0.232918 0.097307 0.041176 0.179881 0.316061 0.446916 0.569655 0.681556 0.780034 0.862700 0.927429 0.972423 0.996267 0.997981 0.977068 0.933546 0.867970 0.781453 0.675653 0.552764 0.415484 0.266964 0.110749 0.049298 0.209090 0.364412 0.511035 0.644835 0.761910 0.858705 0.932129 0.979666 0.999474 0.990470 0.952393 0.885852 0.792337 0.674217 0.534695 0.377743 0.208008 0.030683 0.148641 0.324143 0.489963 0.640402 0.770119 0.874334 0.949025 0.991093 0.998512 0.970448 0.907331 0.810890 0.684137 0.531304 0.357720 0.169658 0.025889 0.221446 0.409343 0.582012 0.732304 0.853793 0.941073 0.990017 0.998003 0.964076 0.889047 0.775524 0.627860 0.452017 0.255359 0.046365 0.165718 0.371279 0.560770 0.725166 0.856405 0.947807 0.994445 0.993437 0.944166 0.848375 0.710164 0.535859 0.333756 0.113770 0.113040 0.335007 0.540453 0.718307 0.858732 0.953680 0.997404 0.986835 0.921841 0.805326 0.643160 0.443928 0.218532 0.020390 0.259132 0.483707 0.680671 0.837942 0.945575 0.996427 0.986686 0.916198 0.788588 0.611140 0.394442 0.151801 0.101537 0.349318 0.575330 0.764459 0.903740 0.983281 0.997024 0.943258 0.824863 0.649238 0.427902 0.175810 0.089619 0.349695 0.585727 0.780423 0.919157 0.991137 0.990296 0.915877 0.772627 0.570586 0.324460 0.052607 0.224287 0.484756 0.708230 0.876682 0.976135 0.997883 0.939334 0.804377 0.603226 0.351731 0.070211 0.218143 0.489155 0.719697 0.889678 0.983870 0.993340 0.916383 0.758856 0.533833 0.260625 0.036814 0.331921 0.597910 0.810188 0.948696 0.999871 0.958070 0.826288 0.616075 0.346635 0.043173 0.265423 0.549282 0.780455 0.935727 0.999009 0.963114 0.830681 0.614134 0.334629 0.020105 0.297459 0.585259 0.813064 0.956461 0.999547 0.936816 0.773975 0.527573 0.223456 0.105856 0.424584 0.697552 0.894129 0.991720 0.978488 0.854925 0.634047 0.340186 0.006420 0.329053 0.627279 0.853069 0.979235 0.989977 0.883000 0.670074 0.375903 0.035392 0.310386 0.619127 0.852470 0.980851 0.987368 0.870162 0.642952 0.333607 0.019117 0.370361 0.674806 0.892585 0.994557 0.966386 0.810700 0.547090 0.209820 0.156486 0.502676 0.781630 0.954773 0.997499
1.000000 1.000000 1.000000 1.000000 1.000000 1.000000 1.000000 1.000000 1.000000 1.000000 1.000000 1.000000 1.000000 1.000000 1.000000 1.000000 1.000000 1.000000 1.000000 1.000000 1.000000 1.000000 1.000000 1.000000 1.000000 1.000000 1.000000 1.000000 1.000000 1.000000 1.000000 1.000000 1.000000 1.000000 1.000000 1.000000 1.000000 1.000000 1.000000 1.000000 1.000000 1.000000 1.000000 1.000000 1.000000 1.000000 1.000000 1.000000 1.000000 1.000000 1.000000 1.000000 0.915287 0.915287 0.903704 0.903704 0.903704 0.903704 0.903704 0.903704 0.903704 0.903704 0.903704 0.903704 0.903704 0.903704 0.903704 0.903704 0.903704 0.903704 0.903704 0.903704 0.903704 0.903704 0.903704 0.903704 0.903704 0.903704 0.903704 0.903704 0.903704 0.903704 0.903704 0.903704 0.903704 0.903704 0.903704 0.903704 0.903704 0.903704 0.903704 0.903704 0.903704 0.903704 0.903704 0.901605 0.906463 0.908450 0.906919 0.910451 0.910515 0.908354 0.907861 0.907509 0.907844 0.909256 0.919771 0.930799 0.941827 0.942382 0.947576 0.951872 0.954289 0.955071 0.956582 0.966534 0.965108 0.964566 0.965284 0.966810 0.968974 0.967716 0.967286 0.969765 0.970470 0.968865 0.966585 0.965927 0.965280 0.965359 0.964980 0.964863 0.964743 0.965266 0.965501 0.965195 0.965346 0.965399 0.963954 0.963761 0.966318 0.967560 0.967440 0.966174 0.963925 0.967784 0.968273 0.968016 0.967996 0.967615 0.967929 0.955718 0.951006 0.950930 0.946685 0.945721 0.943585 0.942090 0.940624 0.941152 0.942294 0.943034 0.936284 0.923289 0.908657 0.892980 0.918319 0.905280 0.889194 0.865950 0.863049 0.855577 0.856259 0.850402 0.841777 0.838321 0.834815 0.836946 0.839253 0.843953 0.841574 0.831044 0.833198 0.828938 0.796734 0.784687 0.769554 0.770988 0.768173 0.769555 0.766930 0.765954 0.773985 0.760460 0.758735 0.750205 0.735186 0.700230 0.687331 0.696130 0.704393 0.713026 0.709206 0.694600 0.647502 0.651993 0.673405 0.667934 0.670284 0.660793 0.652851 0.655951 0.649547 0.644405 0.637591 0.637273 0.636279 0.646295 0.653711 0.645408 0.634706 0.622457 0.610268 0.594475 0.605460 0.608754 0.576877 0.573017 0.562536 0.555573 0.547172 0.527447 0.524670 0.500793 0.491358 0.487502 0.489465 0.493401 0.500875 0.500774 0.480722 0.500467 0.497823 0.525961 0.499102 0.498564 0.502026 0.506309 0.488184 0.482461 0.477504 0.478336 0.485212 0.510369 0.547150 0.538653 0.532394 0.522289 0.533342 0.511270 0.519020 0.549347 0.534534 0.478911 0.429354 0.426759 0.392256 0.389129 0.370935 0.354939 0.361380 0.343989 0.338792 0.323769 0.308608 0.285689 0.247160 0.216582 0.195406 0.202985 0.224010 0.222517 0.226550 0.257326 0.301571 0.309609 0.297335 0.248652 0.240121 0.204791 0.206585 0.218052 0.177821 0.175518 0.167567 0.136412 0.121435 0.095890 0.113872 0.040193 0.030348 0.028416 0.051806 0.040113 0.037892 0.036963 -0.002622 0.005392 0.008567 -0.013442 -0.036780 -0.021335 -0.042427 -0.039366 -0.034230 -0.027354 -0.050334 -0.075745 -0.079975 -0.080250 -0.068323 -0.079433 -0.078905 -0.014090 0.011904 0.004881 0.015355 0.008024 0.042550 0.039250 0.042788 0.012060 -0.012491 -0.049641 -0.079780 -0.079780 -0.061444 -0.061444 -0.061444 -0.061444 -0.061444 -0.061444 -0.061444 -0.061444 -0.061444 -0.060650 -0.060650 -0.060650 -0.060650 -0.060650 -0.060650 -0.060650 -0.060650 -0.060650 -0.048216 -0.048216 -0.048216 -0.048216 -0.048216 -0.048216 -0.048216 -0.048216 -0.048216
0.000000 0.000000 0.000000 0.000000 0.000000 0.000000 0.000000 0.000000 0.000000 0.000000 0.000000 0.000000 0.000000 0.000000 0.000000 0.000000 0.000000 0.000000 0.000000 0.000000 0.000000 0.000000 0.000000 0.000000 0.000000 0.000000 0.000000 0.000000 0.000000 0.000000 0.000000 0.000000 0.000000 0.000000 0.000000 0.000000 0.000000 0.000000 0.000000 0.000000 0.000000 0.000000 0.000000 0.000000 0.000000 0.000000 0.000000 0.000000 0.000000 0.000000 0.000000 0.000000 0.181818 0.181818 0.199007 0.199007 0.199007 0.199007 0.199007 0.199007 0.199007 0.199007 0.199007 0.199007 0.199007 0.199007 0.199007 0.199007 0.199007 0.199007 0.199007 0.199007 0.199007 0.199007 0.199007 0.199007 0.199007 0.199007 0.199007 0.199007 0.199007 0.199007 0.199007 0.199007 0.199007 0.199007 0.199007 0.199007 0.199007 0.199007 0.199007 0.199007 0.199007 0.199007 0.199007 0.230940 0.230940 0.230940 0.230940 0.230940 0.230940 0.230940 0.230940 0.230940 0.230940 0.230940 0.230940 0.230940 0.230940 0.230940 0.230940 0.230940 0.230940 0.230940 0.230940 0.230940 0.230940 0.230940 0.230940 0.230940 0.230940 0.230940 0.230940 0.244339 0.244339 0.244339 0.244339 0.244339 0.244339 0.244339 0.244339 0.244339 0.244339 0.244339 0.244339 0.244339 0.244339 0.244339 0.244339 0.244339 0.244339 0.244339 0.244339 0.244339 0.244339 0.244339 0.251976 0.251976 0.251976 0.251976 0.251976 0.251976 0.251976 0.251976 0.251976 0.251976 0.251976 0.251976 0.251976 0.251976 0.251976 0.251976 0.251976 0.251976 0.251976 0.251976 0.264906 0.264906 0.264906 0.264906 0.264906 0.264906 0.264906 0.264906 0.264906 0.264906 0.264906 0.264906 0.264906 0.264906 0.264906 0.264906 0.264906 0.264906 0.264906 0.264906 0.264906 0.264906 0.264906 0.264906 0.264906 0.264906 0.264906 0.264906 0.264906 0.264906 0.264906 0.264906 0.264906 0.264906 0.264906 0.264906 0.264906 0.264906 0.264906 0.264906 0.264906 0.264906 0.264906 0.264906 0.264906 0.264906 0.264906 0.264906 0.264906 0.264906 0.264906 0.264906 0.264906 0.264906 0.264906 0.264906 0.264906 0.264906 0.264906 0.264906 0.264906 0.264906 0.264906 0.264906 0.264906 0.264906 0.264906 0.264906 0.264906 0.264906 0.264906 0.264906 0.264906 0.264906 0.264906 0.269680 0.269680 0.269680 0.269680 0.269680 0.269680 0.269680 0.269680 0.269680 0.269680 0.269680 0.269680 0.264906 0.264906 0.264906 0.264906 0.264906 0.264906 0.264906 0.264906 0.264906 0.264906 0.264906 0.264906 0.269680 0.269680 0.269680 0.269680 0.269680 0.269680 0.269680 0.269680 0.269680 0.269680 0.269680 0.264906 0.264906 0.264906 0.264906 0.264906 0.264906 0.264906 0.264906 0.264906 0.264906 0.264906 0.256074 0.256074 0.256074 0.256074 0.256074 0.256074 0.256074 0.256074 0.256074 0.256074 0.256074 0.264906 0.264906 0.264906 0.264906 0.264906 0.264906 0.264906 0.264906 0.264906 0.264906 0.269680 0.269680 0.269680 0.269680 0.269680 0.269680 0.269680 0.269680 0.269680 0.256074 0.256074 0.256074 0.256074 0.256074 0.256074 0.256074 0.256074 0.256074 0.256074 0.260378 0.260378 0.260378 0.260378 0.260378 0.260378 0.260378 0.260378 0.260378 0.256074 0.256074 0.256074 0.256074 0.256074 0.256074 0.256074 0.256074 0.256074 0.251976 0.251976 0.251976 0.251976 0.251976 0.251976 0.251976 0.251976 0.251976 0.264906 0.264906 0.264906 0.264906 0.264906 0.264906 0.264906 0.264906 0.264906
