# Output from CTFFind version 4.1.9, run on 2019-11-01 22:19:09
# Input file: first_bm3d_averaged_1_1.7_0.11_3000_half.mrc ; Number of micrographs: 1
# Pixel size: 3.000 Angstroms ; acceleration voltage: 300.0 keV ; spherical aberration: 0.00 mm ; amplitude contrast: 0.07
# Box size: 512 pixels ; min. res.: 30.0 Angstroms ; max. res.: 5.0 Angstroms ; min. def.: 5000.0 um; max. def. 50000.0 um; num. frames averaged: 1
# 6 lines per micrograph: #1 - spatial frequency (1/Angstroms); #2 - 1D rotational average of spectrum (assuming no astigmatism); #3 - 1D rotational average of spectrum; #4 - CTF fit; #5 - cross-correlation between spectrum and CTF fit; #6 - 2sigma of expected cross correlation of noise
0.000000 0.000651 0.001302 0.001953 0.002604 0.003255 0.003906 0.004557 0.005208 0.005859 0.006510 0.007161 0.007812 0.008464 0.009115 0.009766 0.010417 0.011068 0.011719 0.012370 0.013021 0.013672 0.014323 0.014974 0.015625 0.016276 0.016927 0.017578 0.018229 0.018880 0.019531 0.020182 0.020833 0.021484 0.022135 0.022786 0.023438 0.024089 0.024740 0.025391 0.026042 0.026693 0.027344 0.027995 0.028646 0.029297 0.029948 0.030599 0.031250 0.031901 0.032552 0.033203 0.033854 0.034505 0.035156 0.035807 0.036458 0.037109 0.037760 0.038411 0.039062 0.039714 0.040365 0.041016 0.041667 0.042318 0.042969 0.043620 0.044271 0.044922 0.045573 0.046224 0.046875 0.047526 0.048177 0.048828 0.049479 0.050130 0.050781 0.051432 0.052083 0.052734 0.053385 0.054036 0.054688 0.055339 0.055990 0.056641 0.057292 0.057943 0.058594 0.059245 0.059896 0.060547 0.061198 0.061849 0.062500 0.063151 0.063802 0.064453 0.065104 0.065755 0.066406 0.067057 0.067708 0.068359 0.069010 0.069661 0.070312 0.070964 0.071615 0.072266 0.072917 0.073568 0.074219 0.074870 0.075521 0.076172 0.076823 0.077474 0.078125 0.078776 0.079427 0.080078 0.080729 0.081380 0.082031 0.082682 0.083333 0.083984 0.084635 0.085286 0.085938 0.086589 0.087240 0.087891 0.088542 0.089193 0.089844 0.090495 0.091146 0.091797 0.092448 0.093099 0.093750 0.094401 0.095052 0.095703 0.096354 0.097005 0.097656 0.098307 0.098958 0.099609 0.100260 0.100911 0.101562 0.102214 0.102865 0.103516 0.104167 0.104818 0.105469 0.106120 0.106771 0.107422 0.108073 0.108724 0.109375 0.110026 0.110677 0.111328 0.111979 0.112630 0.113281 0.113932 0.114583 0.115234 0.115885 0.116536 0.117188 0.117839 0.118490 0.119141 0.119792 0.120443 0.121094 0.121745 0.122396 0.123047 0.123698 0.124349 0.125000 0.125651 0.126302 0.126953 0.127604 0.128255 0.128906 0.129557 0.130208 0.130859 0.131510 0.132161 0.132812 0.133464 0.134115 0.134766 0.135417 0.136068 0.136719 0.137370 0.138021 0.138672 0.139323 0.139974 0.140625 0.141276 0.141927 0.142578 0.143229 0.143880 0.144531 0.145182 0.145833 0.146484 0.147135 0.147786 0.148438 0.149089 0.149740 0.150391 0.151042 0.151693 0.152344 0.152995 0.153646 0.154297 0.154948 0.155599 0.156250 0.156901 0.157552 0.158203 0.158854 0.159505 0.160156 0.160807 0.161458 0.162109 0.162760 0.163411 0.164062 0.164714 0.165365 0.166016 0.166667 0.167318 0.167969 0.168620 0.169271 0.169922 0.170573 0.171224 0.171875 0.172526 0.173177 0.173828 0.174479 0.175130 0.175781 0.176432 0.177083 0.177734 0.178385 0.179036 0.179688 0.180339 0.180990 0.181641 0.182292 0.182943 0.183594 0.184245 0.184896 0.185547 0.186198 0.186849 0.187500 0.188151 0.188802 0.189453 0.190104 0.190755 0.191406 0.192057 0.192708 0.193359 0.194010 0.194661 0.195312 0.195964 0.196615 0.197266 0.197917 0.198568 0.199219 0.199870 0.200521 0.201172 0.201823 0.202474 0.203125 0.203776 0.204427 0.205078 0.205729 0.206380 0.207031 0.207682 0.208333 0.208984 0.209635 0.210286 0.210938 0.211589 0.212240 0.212891 0.213542 0.214193 0.214844 0.215495 0.216146 0.216797 0.217448 0.218099 0.218750 0.219401 0.220052 0.220703 0.221354 0.222005 0.222656 0.223307 0.223958 0.224609 0.225260 0.225911 0.226562 0.227214 0.227865 0.228516 0.229167 0.229818 0.230469 0.231120 0.231771 0.232422 0.233073 0.233724 0.234375 0.235026 0.235677
       0.33498        0.33498        0.33498        0.33498        0.33498        0.33498        0.33498        0.33498        0.33498        0.33498        0.33498        0.33498        0.33498        0.33498        0.33498        0.33498        0.33498        0.33498        0.33498        0.33498        0.33498        0.33498        0.33498        0.33498        0.33498        0.33498        0.33498        0.33498        0.33498        0.33498        0.33498        0.33498        0.33498        0.33498        0.33498        0.33498        0.33498        0.33498        0.33498        0.33498        0.33498        0.33498        0.33498        0.33498        0.33498        0.33498        0.33498        0.33498        0.33498        0.33498        0.33498        0.50054        0.71621        0.42669        0.19172       -0.07834       -0.26010       -0.06718       -0.12694       -0.05934        0.00044       -0.14361       -0.09681       -0.04225        0.00400       -0.14968       -0.21948       -0.33763       -0.46326       -0.56594       -0.51860       -0.45485       -0.37077       -0.55033       -0.44844       -0.62031       -0.50217       -0.47186       -0.39232       -0.37834       -0.33776       -0.24090       -0.16108       -0.14141        0.03048       -0.01327        0.12045        0.17209        0.30869        0.41384        0.46715        0.49684        0.54270        0.54971        0.69770        0.64903        0.68308        0.58817        0.55677        0.65393        0.52867        0.43280        0.39391        0.31811        0.23633        0.26812        0.25659        0.10406        0.08770        0.00087       -0.00698        0.03719       -0.00529        0.07505        0.09226        0.23226        0.28534        0.30899        0.39247        0.56327        0.54166        0.57960        0.67015        0.68951        0.63037        0.64126        0.63826        0.54321        0.57122        0.39291        0.35415        0.26793        0.18867        0.07665        0.14448        0.11819        0.10051        0.11235        0.20621        0.20195        0.31424        0.35500        0.41489        0.49622        0.57663        0.54711        0.56034        0.60858        0.54533        0.47108        0.48241        0.32674        0.25290        0.25644        0.24557        0.14615        0.14917        0.15517        0.22794        0.25765        0.33376        0.37318        0.39742        0.46420        0.45112        0.47869        0.44522        0.47466        0.44660        0.40153        0.37367        0.36307        0.32385        0.29145        0.21003        0.21168        0.22939        0.27280        0.26366        0.34442        0.37555        0.35535        0.41136        0.46043        0.45115        0.42551        0.43895        0.35997        0.33801        0.28440        0.26119        0.29173        0.26598        0.29735        0.30281        0.34787        0.33589        0.40734        0.40127        0.42720        0.40835        0.43717        0.40754        0.37206        0.28649        0.29316        0.30344        0.28249        0.26178        0.33823        0.37293        0.33749        0.36008        0.37087        0.35190        0.40626        0.40334        0.36401        0.34519        0.31320        0.31461        0.31895        0.30870        0.30013        0.28658        0.34102        0.35867        0.37761        0.33975        0.33142        0.33594        0.35173        0.30946        0.28111        0.30973        0.32458        0.33031        0.32547        0.33700        0.35724        0.33554        0.32297        0.33864        0.30395        0.26221        0.25320        0.26677        0.30375        0.32317        0.35566        0.30087        0.30992        0.33394        0.29707        0.32653        0.29937        0.28490        0.28732        0.29690        0.30759        0.34822        0.31917        0.32978        0.32756        0.33404        0.33959        0.31835        0.32530        0.32170        0.27643        0.29761        0.31175        0.28931        0.32914        0.33065        0.33601        0.31632        0.34913        0.33586        0.27837        0.24283        0.27309        0.33598        0.36690        0.35589        0.31997        0.29640        0.29822        0.31846        0.25636        0.29160        0.30124        0.31971        0.29617        0.30454        0.26934        0.33379        0.34080        0.34181        0.32327        0.30136        0.31284        0.39440        0.34226        0.32593        0.31469        0.30941        0.28706        0.29939        0.28873        0.30004        0.23485        0.27476        0.30005        0.31066        0.29913        0.28176        0.28939        0.24211        0.23488        0.27732        0.31756        0.30383        0.32482        0.29176        0.33491        0.25215        0.22355        0.30214        0.25807        0.27360        0.27645        0.35832        0.27787        0.29252        0.27190        0.22849        0.25861        0.25201        0.23026        0.16690        0.22452        0.23407        0.25013        0.30456        0.27947        0.33382        0.31078        0.28665        0.27738        0.23246        0.25223        0.26295        0.21662        0.13617        0.19222        0.24427        0.21370        0.32664        0.27204        0.07939       -0.42326       -0.98387
2.696261 2.667855 2.639600 2.611499 2.583550 2.555753 2.528109 2.500617 2.473278 2.446092 2.419058 2.392176 2.365447 2.338871 2.312447 2.286175 2.260056 2.234090 2.208276 2.182615 2.157106 2.131749 2.106546 2.081494 2.056595 2.031849 2.007255 1.982814 1.958525 1.934389 1.910405 1.886574 1.862895 1.839369 1.815995 1.792774 1.769705 1.746789 1.724025 1.701414 1.678955 1.656649 1.634496 1.612495 1.590646 1.568950 1.547406 1.526015 1.504777 1.483691 1.462757 1.529499 1.832649 1.524300 1.192025 0.941264 0.541011 0.913502 0.641309 0.865404 0.926401 0.595968 0.700577 0.789539 0.831389 0.625040 0.538741 0.354558 0.098437 0.066644 0.040628 0.063351 0.298856 -0.039927 0.075314 -0.137719 -0.022829 -0.014769 0.069637 0.069963 0.098016 0.182761 0.283559 0.245675 0.477774 0.398727 0.550491 0.532175 0.777385 0.795256 0.884615 0.932710 0.942061 0.956105 1.129123 0.949102 1.156818 0.950290 0.856599 1.023884 0.854173 0.768306 0.635669 0.595544 0.463836 0.428456 0.516005 0.266449 0.207698 0.162195 0.009166 0.209240 -0.004471 0.123461 0.177576 0.256066 0.342139 0.356024 0.445423 0.548590 0.677455 0.541987 0.749024 0.855015 0.639861 0.714616 0.681779 0.586052 0.544381 0.460994 0.313966 0.221091 0.124486 -0.035105 -0.010680 0.051210 -0.081028 -0.055594 0.058435 0.045674 0.110957 0.216283 0.245576 0.319547 0.448096 0.453848 0.452092 0.468101 0.467052 0.345368 0.338016 0.251858 0.054201 0.064565 0.019282 -0.038143 -0.094244 -0.087908 -0.014449 -0.033606 0.087578 0.132029 0.131767 0.266133 0.232480 0.244106 0.279118 0.243838 0.239489 0.215355 0.152046 0.115853 0.115218 0.027268 0.012517 -0.111185 -0.039804 0.007517 -0.004876 0.018402 0.096474 0.076585 0.122096 0.212211 0.272217 0.172377 0.192154 0.108712 0.139315 0.026698 -0.038512 0.023443 -0.021181 0.012933 -0.003588 0.039907 0.076474 0.062047 0.163014 0.111083 0.180477 0.084272 0.165612 0.106504 0.015358 -0.045974 -0.007474 -0.018178 -0.052280 -0.051245 0.087207 0.067742 -0.001995 0.103184 0.089183 0.070108 0.155061 0.087158 0.085374 0.070037 -0.003859 0.043012 0.008919 0.018624 0.014610 0.011388 0.061777 0.073539 0.086094 0.047160 0.054490 0.033745 0.081553 -0.003721 -0.006350 0.034570 0.036149 0.060038 0.051078 0.069750 0.067825 0.057818 0.032025 0.046358 0.000734 -0.045280 -0.031552 -0.016487 0.023428 0.037714 0.110685 -0.002952 0.057201 0.054202 0.005172 0.074940 0.027098 0.005049 0.032336 0.046681 0.038186 0.094856 0.040454 0.075246 0.071475 0.101877 0.071644 0.079474 0.098540 0.051368 -0.006109 0.066075 0.047425 0.041731 0.093027 0.084490 0.035302 0.061826 0.101921 0.034376 0.009726 -0.068934 -0.000034 0.116951 0.102988 0.081687 0.042104 -0.000161 0.060730 0.035932 -0.051439 0.047097 0.033095 0.058919 0.048815 -0.004297 0.039391 0.014141 0.054250 0.030039 0.043579 -0.040955 0.070402 0.114976 0.025773 0.007474 0.005387 0.018284 -0.043883 -0.018352 -0.032147 -0.038855 -0.101392 -0.036502 -0.030684 -0.003945 -0.033060 -0.066083 0.020414 -0.075770 -0.038482 -0.069571 0.057773 0.011386 0.049397 -0.007439 0.057275 -0.049993 -0.060509 0.031929 -0.040540 0.012316 -0.017060 0.143107 -0.060733 0.017674 0.015966 -0.063945 -0.012362 -0.025203 -0.037828 -0.172710 -0.027132 -0.041332 -0.022944 0.018411 0.002357 0.110364 0.048271 0.033694 0.015798 -0.024823 -0.020955 -0.018331 0.263700 0.167000 0.242425 0.251244 0.293481 0.352409 0.287523 0.096235 -1.163307
0.072396 0.072910 0.074453 0.077024 0.080622 0.085246 0.090896 0.097569 0.105264 0.113976 0.123704 0.134441 0.146183 0.158923 0.172651 0.187360 0.203037 0.219667 0.237237 0.255726 0.275113 0.295375 0.316483 0.338406 0.361108 0.384551 0.408690 0.433476 0.458854 0.484766 0.511145 0.537922 0.565017 0.592347 0.619822 0.647343 0.674806 0.702100 0.729105 0.755696 0.781740 0.807095 0.831617 0.855150 0.877536 0.898609 0.918199 0.936131 0.952227 0.966304 0.978179 0.987668 0.994586 0.998752 0.999986 0.998115 0.992970 0.984392 0.972233 0.956355 0.936637 0.912973 0.885278 0.853487 0.817557 0.777475 0.733254 0.684937 0.632603 0.576361 0.516362 0.452793 0.385880 0.315893 0.243139 0.167974 0.090790 0.012025 0.067843 0.148299 0.228787 0.308719 0.387476 0.464411 0.538855 0.610124 0.677522 0.740350 0.797912 0.849527 0.894532 0.932297 0.962228 0.983783 0.996481 0.999908 0.993732 0.977710 0.951697 0.915657 0.869669 0.813934 0.748781 0.674671 0.592200 0.502097 0.405226 0.302581 0.195278 0.084550 0.028266 0.141742 0.254378 0.364614 0.470859 0.571507 0.664967 0.749687 0.824184 0.887071 0.937088 0.973131 0.994276 0.999814 0.989267 0.962417 0.919318 0.860318 0.786060 0.697495 0.595872 0.482734 0.359905 0.229463 0.093718 0.044831 0.183532 0.319633 0.450332 0.572838 0.684431 0.782525 0.864740 0.928956 0.973385 0.996622 0.997701 0.976136 0.931960 0.865748 0.778626 0.672271 0.548894 0.411206 0.262373 0.105955 0.054177 0.213926 0.369074 0.515390 0.648754 0.765270 0.861393 0.934047 0.980735 0.999636 0.989693 0.950671 0.883209 0.788827 0.669921 0.529725 0.372237 0.202127 0.024607 0.154717 0.330019 0.495437 0.645274 0.774205 0.877472 0.951078 0.991956 0.998123 0.968786 0.904422 0.806806 0.679001 0.525279 0.351016 0.162511 0.033210 0.228657 0.416153 0.588139 0.737481 0.857782 0.943679 0.991096 0.997470 0.961912 0.885305 0.770328 0.621401 0.444549 0.247194 0.037854 0.174195 0.379328 0.568008 0.731232 0.860986 0.950645 0.995362 0.992344 0.941068 0.843379 0.703477 0.527779 0.324667 0.104112 0.122775 0.344312 0.548824 0.725278 0.863895 0.956715 0.998096 0.985093 0.917710 0.798986 0.634921 0.434222 0.207884 0.031378 0.269823 0.493462 0.688887 0.844093 0.949244 0.997337 0.984723 0.911424 0.781244 0.601637 0.383342 0.139783 0.113711 0.360860 0.585463 0.772485 0.909081 0.985523 0.995951 0.938878 0.817414 0.639175 0.415884 0.162644 0.103022 0.362374 0.596756 0.788964 0.924537 0.992899 0.988239 0.910084 0.763464 0.558689 0.310685 0.037989 0.238631 0.497691 0.718712 0.883832 0.979319 0.996772 0.933940 0.795063 0.590691 0.336958 0.054392 0.233694 0.503116 0.730842 0.897003 0.986674 0.991299 0.909592 0.747831 0.519481 0.244177 0.053909 0.348129 0.611729 0.820305 0.954110 0.999999 0.952810 0.816048 0.601744 0.329521 0.024873 0.283145 0.564689 0.791993 0.942191 0.999672 0.957816 0.819859 0.598796 0.316270 0.000567 0.316175 0.601191 0.824499 0.962119 0.998737 0.929523 0.760879 0.510003 0.203249 0.126528 0.443451 0.712495 0.903422 0.994234 0.973835 0.843522 0.617096 0.319548 0.015571 0.349864 0.644458 0.864539 0.983554 0.986522 0.872072 0.652876 0.354429 0.012194 0.332489 0.637393 0.864578 0.985200 0.983301 0.858070 0.624254 0.310596 0.043553 0.393087 0.692849 0.903520 0.996852 0.959614 0.795630 0.525617 0.184743 0.181840 0.524870 0.797591 0.962224 0.995295
1.000000 1.000000 1.000000 1.000000 1.000000 1.000000 1.000000 1.000000 1.000000 1.000000 1.000000 1.000000 1.000000 1.000000 1.000000 1.000000 1.000000 1.000000 1.000000 1.000000 1.000000 1.000000 1.000000 1.000000 1.000000 1.000000 1.000000 1.000000 1.000000 1.000000 1.000000 1.000000 1.000000 1.000000 1.000000 1.000000 1.000000 1.000000 1.000000 1.000000 1.000000 1.000000 1.000000 1.000000 1.000000 1.000000 1.000000 1.000000 1.000000 1.000000 1.000000 1.000000 0.914278 0.914278 0.902171 0.902171 0.902171 0.902171 0.902171 0.902171 0.902171 0.902171 0.902171 0.902171 0.902171 0.902171 0.902171 0.902171 0.902171 0.902171 0.902171 0.902171 0.902171 0.902171 0.902171 0.902171 0.902171 0.902171 0.902171 0.902171 0.902171 0.902171 0.902171 0.902171 0.902171 0.902171 0.902171 0.902171 0.902171 0.902171 0.902171 0.902171 0.902171 0.902171 0.902171 0.898678 0.903773 0.906019 0.904610 0.908173 0.908231 0.906301 0.905737 0.905393 0.905752 0.907195 0.917694 0.928694 0.939672 0.941118 0.946330 0.950565 0.953947 0.954767 0.958510 0.968705 0.966077 0.965632 0.966317 0.967735 0.969818 0.968645 0.968081 0.971189 0.971826 0.970317 0.967936 0.967304 0.966689 0.966790 0.966439 0.966318 0.966178 0.966701 0.966903 0.967029 0.967177 0.967238 0.965898 0.965563 0.968155 0.969353 0.969260 0.968097 0.962782 0.966244 0.966990 0.966453 0.966467 0.966145 0.966452 0.949860 0.946915 0.946829 0.942162 0.940957 0.937658 0.936103 0.935230 0.936178 0.935192 0.935611 0.933209 0.920295 0.906864 0.893172 0.914091 0.902204 0.888266 0.865095 0.865836 0.860767 0.861219 0.854130 0.847224 0.842479 0.839963 0.842061 0.841601 0.845213 0.841764 0.826449 0.830499 0.825598 0.791160 0.778565 0.767073 0.761875 0.758991 0.760139 0.758192 0.752043 0.760923 0.753564 0.751490 0.739993 0.716538 0.682085 0.670464 0.680978 0.689560 0.696162 0.692217 0.676583 0.635176 0.650273 0.678138 0.672557 0.672211 0.668385 0.662007 0.670860 0.669344 0.666241 0.661771 0.661202 0.660723 0.670095 0.675778 0.667839 0.663055 0.651670 0.641456 0.625891 0.637350 0.641597 0.611705 0.605065 0.597942 0.592206 0.588378 0.572239 0.575206 0.553444 0.537274 0.538501 0.539721 0.543949 0.552869 0.552585 0.530467 0.550923 0.543733 0.575316 0.545275 0.542937 0.544146 0.555836 0.539627 0.531160 0.523338 0.524313 0.538611 0.567866 0.601920 0.592120 0.581791 0.574997 0.587857 0.571008 0.579994 0.605102 0.583132 0.515737 0.472863 0.470439 0.437554 0.426025 0.414895 0.390026 0.369509 0.365656 0.359916 0.345688 0.334575 0.278898 0.245168 0.229376 0.210445 0.225638 0.238272 0.235244 0.239256 0.285912 0.329588 0.334569 0.325529 0.300558 0.296003 0.295851 0.256105 0.254855 0.218949 0.202191 0.231329 0.177899 0.182280 0.130391 0.124668 0.139420 0.158496 0.171104 0.125431 0.112749 0.134665 0.155670 0.142727 0.134073 0.090082 0.064906 0.053433 0.066598 0.049347 0.019113 0.024190 0.031240 0.013552 -0.019755 -0.015680 -0.028355 -0.025898 -0.040347 -0.039631 -0.005492 0.021623 0.013050 0.014829 0.032414 0.028260 0.014110 0.006283 -0.012695 -0.013662 -0.060005 -0.085993 -0.085993 -0.082987 -0.082987 -0.082987 -0.082987 -0.082987 -0.082987 -0.082987 -0.082987 -0.082987 -0.083686 -0.083686 -0.083686 -0.083686 -0.083686 -0.083686 -0.083686 -0.083686 -0.083686 -0.059356 -0.059356 -0.059356 -0.059356 -0.059356 -0.059356 -0.059356 -0.059356 -0.059356
0.000000 0.000000 0.000000 0.000000 0.000000 0.000000 0.000000 0.000000 0.000000 0.000000 0.000000 0.000000 0.000000 0.000000 0.000000 0.000000 0.000000 0.000000 0.000000 0.000000 0.000000 0.000000 0.000000 0.000000 0.000000 7.000000 4.000000 0.000000 0.000000 0.000000 0.000000 0.000000 0.000000 0.000000 0.000000 0.000000 0.000000 0.000000 0.000000 0.000000 0.000000 0.000000 0.000000 0.000000 0.000000 0.000000 0.000000 0.000000 0.000000 0.000000 0.000000 0.000000 0.181818 0.181818 0.199007 0.199007 0.199007 0.199007 0.199007 0.199007 0.199007 0.199007 0.199007 0.199007 0.199007 0.199007 0.199007 0.199007 0.199007 0.199007 0.199007 0.199007 0.199007 0.199007 0.199007 0.199007 0.199007 0.199007 0.199007 0.199007 0.199007 0.199007 0.199007 0.199007 0.199007 0.199007 0.199007 0.199007 0.199007 0.199007 0.199007 0.199007 0.199007 0.199007 0.199007 0.230940 0.230940 0.230940 0.230940 0.230940 0.230940 0.230940 0.230940 0.230940 0.230940 0.230940 0.230940 0.230940 0.230940 0.230940 0.230940 0.230940 0.230940 0.230940 0.230940 0.230940 0.230940 0.230940 0.230940 0.230940 0.230940 0.230940 0.230940 0.244339 0.244339 0.244339 0.244339 0.244339 0.244339 0.244339 0.244339 0.244339 0.244339 0.244339 0.244339 0.244339 0.244339 0.244339 0.244339 0.244339 0.244339 0.244339 0.244339 0.244339 0.244339 0.244339 0.251976 0.251976 0.251976 0.251976 0.251976 0.251976 0.251976 0.251976 0.251976 0.251976 0.251976 0.251976 0.251976 0.251976 0.251976 0.251976 0.251976 0.251976 0.251976 0.251976 0.264906 0.264906 0.264906 0.264906 0.264906 0.264906 0.264906 0.264906 0.264906 0.264906 0.264906 0.264906 0.264906 0.264906 0.264906 0.264906 0.264906 0.264906 0.264906 0.264906 0.264906 0.264906 0.264906 0.264906 0.264906 0.264906 0.264906 0.264906 0.264906 0.264906 0.264906 0.264906 0.264906 0.264906 0.264906 0.264906 0.264906 0.264906 0.264906 0.264906 0.264906 0.264906 0.264906 0.264906 0.264906 0.264906 0.264906 0.264906 0.264906 0.264906 0.264906 0.264906 0.264906 0.264906 0.264906 0.264906 0.264906 0.264906 0.264906 0.264906 0.264906 0.264906 0.264906 0.264906 0.264906 0.264906 0.264906 0.264906 0.264906 0.264906 0.264906 0.264906 0.264906 0.264906 0.264906 0.269680 0.269680 0.269680 0.269680 0.269680 0.269680 0.269680 0.269680 0.269680 0.269680 0.269680 0.269680 0.264906 0.264906 0.264906 0.264906 0.264906 0.264906 0.264906 0.264906 0.264906 0.264906 0.264906 0.264906 0.269680 0.269680 0.269680 0.269680 0.269680 0.269680 0.269680 0.269680 0.269680 0.269680 0.269680 0.264906 0.264906 0.264906 0.264906 0.264906 0.264906 0.264906 0.264906 0.264906 0.264906 0.264906 0.269680 0.269680 0.269680 0.269680 0.269680 0.269680 0.269680 0.269680 0.269680 0.269680 0.251976 0.251976 0.251976 0.251976 0.251976 0.251976 0.251976 0.251976 0.251976 0.251976 0.251976 0.269680 0.269680 0.269680 0.269680 0.269680 0.269680 0.269680 0.269680 0.269680 0.256074 0.256074 0.256074 0.256074 0.256074 0.256074 0.256074 0.256074 0.256074 0.256074 0.260378 0.260378 0.260378 0.260378 0.260378 0.260378 0.260378 0.260378 0.260378 0.256074 0.256074 0.256074 0.256074 0.256074 0.256074 0.256074 0.256074 0.256074 0.251976 0.251976 0.251976 0.251976 0.251976 0.251976 0.251976 0.251976 0.251976 0.264906 0.264906 0.264906 0.264906 0.264906 0.264906 0.264906 0.264906 0.264906
