# Output from CTFFind version 4.1.9, run on 2019-11-01 22:18:48
# Input file: first_bm3d_averaged_1_1.7_0.11_750_half.mrc ; Number of micrographs: 1
# Pixel size: 3.000 Angstroms ; acceleration voltage: 300.0 keV ; spherical aberration: 0.00 mm ; amplitude contrast: 0.07
# Box size: 512 pixels ; min. res.: 30.0 Angstroms ; max. res.: 5.0 Angstroms ; min. def.: 5000.0 um; max. def. 50000.0 um; num. frames averaged: 1
# 6 lines per micrograph: #1 - spatial frequency (1/Angstroms); #2 - 1D rotational average of spectrum (assuming no astigmatism); #3 - 1D rotational average of spectrum; #4 - CTF fit; #5 - cross-correlation between spectrum and CTF fit; #6 - 2sigma of expected cross correlation of noise
0.000000 0.000651 0.001302 0.001953 0.002604 0.003255 0.003906 0.004557 0.005208 0.005859 0.006510 0.007161 0.007812 0.008464 0.009115 0.009766 0.010417 0.011068 0.011719 0.012370 0.013021 0.013672 0.014323 0.014974 0.015625 0.016276 0.016927 0.017578 0.018229 0.018880 0.019531 0.020182 0.020833 0.021484 0.022135 0.022786 0.023438 0.024089 0.024740 0.025391 0.026042 0.026693 0.027344 0.027995 0.028646 0.029297 0.029948 0.030599 0.031250 0.031901 0.032552 0.033203 0.033854 0.034505 0.035156 0.035807 0.036458 0.037109 0.037760 0.038411 0.039062 0.039714 0.040365 0.041016 0.041667 0.042318 0.042969 0.043620 0.044271 0.044922 0.045573 0.046224 0.046875 0.047526 0.048177 0.048828 0.049479 0.050130 0.050781 0.051432 0.052083 0.052734 0.053385 0.054036 0.054688 0.055339 0.055990 0.056641 0.057292 0.057943 0.058594 0.059245 0.059896 0.060547 0.061198 0.061849 0.062500 0.063151 0.063802 0.064453 0.065104 0.065755 0.066406 0.067057 0.067708 0.068359 0.069010 0.069661 0.070312 0.070964 0.071615 0.072266 0.072917 0.073568 0.074219 0.074870 0.075521 0.076172 0.076823 0.077474 0.078125 0.078776 0.079427 0.080078 0.080729 0.081380 0.082031 0.082682 0.083333 0.083984 0.084635 0.085286 0.085938 0.086589 0.087240 0.087891 0.088542 0.089193 0.089844 0.090495 0.091146 0.091797 0.092448 0.093099 0.093750 0.094401 0.095052 0.095703 0.096354 0.097005 0.097656 0.098307 0.098958 0.099609 0.100260 0.100911 0.101562 0.102214 0.102865 0.103516 0.104167 0.104818 0.105469 0.106120 0.106771 0.107422 0.108073 0.108724 0.109375 0.110026 0.110677 0.111328 0.111979 0.112630 0.113281 0.113932 0.114583 0.115234 0.115885 0.116536 0.117188 0.117839 0.118490 0.119141 0.119792 0.120443 0.121094 0.121745 0.122396 0.123047 0.123698 0.124349 0.125000 0.125651 0.126302 0.126953 0.127604 0.128255 0.128906 0.129557 0.130208 0.130859 0.131510 0.132161 0.132812 0.133464 0.134115 0.134766 0.135417 0.136068 0.136719 0.137370 0.138021 0.138672 0.139323 0.139974 0.140625 0.141276 0.141927 0.142578 0.143229 0.143880 0.144531 0.145182 0.145833 0.146484 0.147135 0.147786 0.148438 0.149089 0.149740 0.150391 0.151042 0.151693 0.152344 0.152995 0.153646 0.154297 0.154948 0.155599 0.156250 0.156901 0.157552 0.158203 0.158854 0.159505 0.160156 0.160807 0.161458 0.162109 0.162760 0.163411 0.164062 0.164714 0.165365 0.166016 0.166667 0.167318 0.167969 0.168620 0.169271 0.169922 0.170573 0.171224 0.171875 0.172526 0.173177 0.173828 0.174479 0.175130 0.175781 0.176432 0.177083 0.177734 0.178385 0.179036 0.179688 0.180339 0.180990 0.181641 0.182292 0.182943 0.183594 0.184245 0.184896 0.185547 0.186198 0.186849 0.187500 0.188151 0.188802 0.189453 0.190104 0.190755 0.191406 0.192057 0.192708 0.193359 0.194010 0.194661 0.195312 0.195964 0.196615 0.197266 0.197917 0.198568 0.199219 0.199870 0.200521 0.201172 0.201823 0.202474 0.203125 0.203776 0.204427 0.205078 0.205729 0.206380 0.207031 0.207682 0.208333 0.208984 0.209635 0.210286 0.210938 0.211589 0.212240 0.212891 0.213542 0.214193 0.214844 0.215495 0.216146 0.216797 0.217448 0.218099 0.218750 0.219401 0.220052 0.220703 0.221354 0.222005 0.222656 0.223307 0.223958 0.224609 0.225260 0.225911 0.226562 0.227214 0.227865 0.228516 0.229167 0.229818 0.230469 0.231120 0.231771 0.232422 0.233073 0.233724 0.234375 0.235026 0.235677
       0.32727        0.32727        0.32727        0.32727        0.32727        0.32727        0.32727        0.32727        0.32727        0.32727        0.32727        0.32727        0.32727        0.32727        0.32727        0.32727        0.32727        0.32727        0.32727        0.32727        0.32727        0.32727        0.32727        0.32727        0.32727        0.32727        0.32727        0.32727        0.32727        0.32727        0.32727        0.32727        0.32727        0.32727        0.32727        0.32727        0.32727        0.32727        0.32727        0.32727        0.32727        0.32727        0.32727        0.32727        0.32727        0.32727        0.32727        0.32727        0.32727        0.32727        0.32727        0.49658        0.71431        0.42060        0.18775       -0.08107       -0.26132       -0.07115       -0.13253       -0.06315       -0.00549       -0.15502       -0.10553       -0.05305       -0.00682       -0.15810       -0.22911       -0.34597       -0.46925       -0.57255       -0.52708       -0.45840       -0.37861       -0.56122       -0.45909       -0.62723       -0.51303       -0.47897       -0.39885       -0.38573       -0.33831       -0.25145       -0.17229       -0.14549        0.02480       -0.02045        0.11047        0.16397        0.30461        0.41260        0.46087        0.49753        0.53968        0.54755        0.68468        0.63877        0.67268        0.58550        0.55402        0.64584        0.52068        0.42629        0.38661        0.30868        0.22647        0.25473        0.24561        0.09473        0.07629       -0.00246       -0.01231        0.02658       -0.01776        0.06221        0.08725        0.22347        0.28009        0.28919        0.38350        0.56402        0.53629        0.57067        0.66340        0.69246        0.62462        0.63298        0.63290        0.54244        0.56635        0.39256        0.34519        0.25910        0.18029        0.07162        0.13788        0.10768        0.09558        0.10844        0.20100        0.19483        0.30985        0.34941        0.40607        0.48513        0.56354        0.54124        0.54988        0.60015        0.52759        0.45699        0.47758        0.31955        0.24376        0.25116        0.23862        0.13278        0.13599        0.14642        0.21596        0.24294        0.32955        0.37295        0.39500        0.45543        0.44023        0.47435        0.44201        0.46903        0.44068        0.39187        0.36831        0.35925        0.31728        0.28412        0.20337        0.20050        0.22010        0.26249        0.25333        0.34035        0.37118        0.34926        0.40568        0.44877        0.43740        0.42461        0.43796        0.35889        0.32642        0.27790        0.25223        0.28481        0.25442        0.28604        0.29679        0.33649        0.32862        0.39103        0.38477        0.41966        0.40464        0.43851        0.40028        0.36039        0.27496        0.27948        0.28882        0.26903        0.25378        0.32407        0.36000        0.33032        0.35706        0.36253        0.34452        0.40618        0.39442        0.35995        0.33583        0.29966        0.30812        0.31520        0.30677        0.30011        0.28154        0.33229        0.35195        0.36591        0.33350        0.32992        0.33025        0.34711        0.30841        0.28094        0.30577        0.31394        0.32657        0.31763        0.32721        0.34885        0.32536        0.31544        0.32935        0.29714        0.25413        0.24183        0.26102        0.30139        0.31520        0.35662        0.29328        0.29914        0.32024        0.28605        0.31365        0.28767        0.27171        0.28020        0.28671        0.30188        0.33935        0.31630        0.32199        0.32156        0.32099        0.33144        0.31213        0.31687        0.31768        0.26786        0.28325        0.30151        0.28081        0.31418        0.31872        0.33108        0.31880        0.34614        0.32722        0.28184        0.23678        0.26910        0.32596        0.34869        0.34371        0.31597        0.29051        0.30065        0.30880        0.25097        0.28674        0.29793        0.31575        0.28583        0.28357        0.26123        0.32577        0.33154        0.33370        0.30880        0.29333        0.29697        0.38668        0.33562        0.30744        0.29845        0.30259        0.28697        0.29275        0.28836        0.29994        0.22514        0.26206        0.30140        0.31361        0.29215        0.26201        0.27644        0.22581        0.21985        0.28184        0.30609        0.29979        0.29251        0.28032        0.32762        0.25199        0.22092        0.27235        0.23985        0.26684        0.27372        0.35522        0.26067        0.28433        0.26935        0.23148        0.26713        0.26529        0.23289        0.17628        0.21772        0.21631        0.24175        0.30050        0.26188        0.34033        0.31942        0.26991        0.24695        0.19682        0.25040        0.28557        0.22214        0.17180        0.21446        0.23434        0.20648        0.27750        0.22868        0.03931       -0.42803       -0.90961
2.691287 2.662802 2.634470 2.606293 2.578269 2.550399 2.522683 2.495121 2.467712 2.440458 2.413357 2.386410 2.359617 2.332978 2.306492 2.280161 2.253983 2.227959 2.202089 2.176373 2.150811 2.125403 2.100148 2.075047 2.050100 2.025307 2.000668 1.976183 1.951851 1.927673 1.903649 1.879779 1.856063 1.832501 1.809092 1.785838 1.762737 1.739790 1.716997 1.694357 1.671872 1.649540 1.627362 1.605339 1.583468 1.561752 1.540190 1.518781 1.497526 1.476426 1.455478 1.523725 1.832145 1.517708 1.189753 0.942632 0.548511 0.913201 0.641939 0.864993 0.923666 0.590392 0.695774 0.780265 0.822586 0.621706 0.529548 0.355801 0.099459 0.067561 0.039012 0.069037 0.298824 -0.043848 0.068893 -0.133928 -0.024271 -0.016159 0.072132 0.063602 0.110309 0.178961 0.275984 0.243258 0.477644 0.394793 0.542697 0.530581 0.771691 0.792760 0.880196 0.936805 0.934772 0.954857 1.115377 0.942732 1.140281 0.945581 0.857351 1.014185 0.846952 0.758665 0.632391 0.587794 0.460656 0.414214 0.505288 0.261637 0.195724 0.164847 0.012100 0.200798 -0.010931 0.113678 0.169022 0.257874 0.340570 0.340445 0.432412 0.550772 0.675787 0.537938 0.736749 0.867483 0.637724 0.703258 0.678703 0.591161 0.536307 0.467842 0.309182 0.212284 0.124571 -0.031655 -0.017263 0.050802 -0.080670 -0.055168 0.063194 0.045194 0.103527 0.224491 0.239026 0.317825 0.434997 0.447590 0.444053 0.466913 0.453767 0.324131 0.341752 0.249898 0.048573 0.068279 0.022572 -0.044631 -0.101354 -0.090406 -0.015740 -0.041656 0.083643 0.138107 0.146541 0.261598 0.228398 0.242789 0.289915 0.240258 0.245583 0.215633 0.156244 0.120478 0.121029 0.029163 0.022138 -0.110765 -0.038638 0.008023 0.001637 0.015632 0.111163 0.083262 0.129339 0.208119 0.269965 0.175333 0.209241 0.120719 0.145307 0.028677 -0.026060 0.021620 -0.006873 0.003700 0.006514 0.044958 0.076997 0.069247 0.154403 0.112758 0.186849 0.096365 0.182769 0.105036 0.010578 -0.038341 -0.014381 -0.021793 -0.050867 -0.043985 0.076886 0.072870 0.002093 0.115121 0.087717 0.083338 0.164851 0.091211 0.096256 0.063571 -0.002815 0.054455 0.019808 0.030274 0.031065 0.016162 0.061027 0.077032 0.082354 0.053951 0.063839 0.032739 0.084377 0.010149 -0.001022 0.040773 0.026152 0.070088 0.049660 0.064949 0.062061 0.054601 0.027329 0.043273 -0.000889 -0.048111 -0.036160 -0.016867 0.021039 0.040393 0.114224 -0.005296 0.047903 0.050683 -0.000836 0.066784 0.017081 0.000819 0.029273 0.044050 0.039316 0.089425 0.045348 0.071351 0.071447 0.091899 0.064855 0.076990 0.090991 0.048901 -0.008184 0.053387 0.041429 0.041561 0.076870 0.077665 0.040966 0.072165 0.096232 0.034143 0.025081 -0.067853 -0.000271 0.114673 0.082980 0.076643 0.049912 0.009724 0.058456 0.043366 -0.046475 0.048565 0.044849 0.067390 0.042382 -0.020898 0.046696 0.017478 0.056836 0.038701 0.040928 -0.025716 0.057537 0.119612 0.041026 -0.006075 0.008605 0.027419 -0.030988 -0.018531 -0.011516 -0.017240 -0.102994 -0.032549 -0.010400 0.023152 -0.038566 -0.066828 0.021830 -0.082199 -0.037614 -0.052919 0.059148 0.011894 0.030001 -0.004072 0.062033 -0.035823 -0.059557 0.005613 -0.059374 0.021062 -0.008745 0.140555 -0.069834 0.014476 0.030642 -0.052042 0.008538 0.007955 -0.037976 -0.130657 -0.033499 -0.049154 -0.015199 0.020175 -0.017967 0.135125 0.067201 0.025416 -0.018519 -0.059874 -0.018983 0.028342 0.266645 0.205767 0.263314 0.246989 0.291121 0.297856 0.240096 0.048803 -1.067799
0.072396 0.072910 0.074453 0.077024 0.080622 0.085246 0.090896 0.097569 0.105264 0.113977 0.123704 0.134441 0.146183 0.158923 0.172652 0.187360 0.203037 0.219668 0.237237 0.255726 0.275114 0.295375 0.316483 0.338406 0.361109 0.384552 0.408691 0.433476 0.458855 0.484767 0.511146 0.537923 0.565018 0.592348 0.619823 0.647344 0.674808 0.702101 0.729107 0.755697 0.781741 0.807097 0.831618 0.855151 0.877537 0.898610 0.918200 0.936132 0.952228 0.966305 0.978180 0.987668 0.994587 0.998752 0.999986 0.998115 0.992969 0.984391 0.972232 0.956354 0.936635 0.912972 0.885276 0.853484 0.817554 0.777472 0.733250 0.684933 0.632598 0.576357 0.516358 0.452788 0.385875 0.315886 0.243133 0.167967 0.090783 0.012018 0.067850 0.148306 0.228794 0.308726 0.387483 0.464418 0.538862 0.610131 0.677528 0.740356 0.797918 0.849532 0.894537 0.932300 0.962230 0.983785 0.996482 0.999908 0.993731 0.977708 0.951694 0.915653 0.869663 0.813927 0.748773 0.674662 0.592189 0.502085 0.405214 0.302568 0.195264 0.084536 0.028280 0.141757 0.254392 0.364629 0.470873 0.571520 0.664979 0.749698 0.824193 0.887079 0.937094 0.973135 0.994278 0.999814 0.989265 0.962412 0.919311 0.860308 0.786048 0.697480 0.595855 0.482715 0.359885 0.229443 0.093697 0.044852 0.183554 0.319655 0.450353 0.572857 0.684447 0.782540 0.864752 0.928965 0.973391 0.996624 0.997699 0.976130 0.931951 0.865736 0.778610 0.672251 0.548870 0.411180 0.262346 0.105926 0.054205 0.213954 0.369101 0.515417 0.648777 0.765289 0.861409 0.934058 0.980741 0.999637 0.989688 0.950661 0.883193 0.788806 0.669896 0.529695 0.372205 0.202093 0.024572 0.154753 0.330053 0.495469 0.645303 0.774230 0.877491 0.951089 0.991961 0.998121 0.968776 0.904404 0.806783 0.678970 0.525244 0.350975 0.162469 0.033252 0.228699 0.416195 0.588176 0.737512 0.857806 0.943694 0.991102 0.997467 0.961899 0.885283 0.770296 0.621362 0.444505 0.247146 0.037803 0.174244 0.379376 0.568050 0.731269 0.861012 0.950662 0.995367 0.992337 0.941049 0.843349 0.703438 0.527732 0.324612 0.104055 0.122834 0.344368 0.548873 0.725319 0.863925 0.956733 0.998099 0.985082 0.917685 0.798948 0.634872 0.434164 0.207821 0.031443 0.269885 0.493518 0.688936 0.844130 0.949265 0.997342 0.984711 0.911395 0.781200 0.601580 0.383275 0.139711 0.113783 0.360927 0.585525 0.772534 0.909113 0.985535 0.995944 0.938852 0.817370 0.639117 0.415811 0.162565 0.103102 0.362449 0.596821 0.789013 0.924569 0.992909 0.988226 0.910049 0.763410 0.558616 0.310606 0.037901 0.238712 0.497768 0.718773 0.883873 0.979337 0.996764 0.933908 0.795008 0.590614 0.336868 0.054301 0.233783 0.503198 0.730907 0.897046 0.986690 0.991286 0.909551 0.747765 0.519396 0.244077 0.054012 0.348225 0.611810 0.820364 0.954142 0.999999 0.952778 0.815986 0.601659 0.329417 0.024766 0.283251 0.564777 0.792060 0.942228 0.999675 0.957783 0.819794 0.598704 0.316161 0.000449 0.316287 0.601285 0.824564 0.962151 0.998731 0.929479 0.760800 0.509898 0.203129 0.126649 0.443560 0.712583 0.903476 0.994247 0.973806 0.843454 0.616994 0.319425 0.015701 0.349989 0.644560 0.864606 0.983578 0.986501 0.872005 0.652775 0.354300 0.012057 0.332618 0.637499 0.864649 0.985224 0.983276 0.857997 0.624141 0.310458 0.043698 0.393221 0.692957 0.903584 0.996863 0.959571 0.795538 0.525493 0.184593 0.181990 0.525000 0.797683 0.962265 0.995279
1.000000 1.000000 1.000000 1.000000 1.000000 1.000000 1.000000 1.000000 1.000000 1.000000 1.000000 1.000000 1.000000 1.000000 1.000000 1.000000 1.000000 1.000000 1.000000 1.000000 1.000000 1.000000 1.000000 1.000000 1.000000 1.000000 1.000000 1.000000 1.000000 1.000000 1.000000 1.000000 1.000000 1.000000 1.000000 1.000000 1.000000 1.000000 1.000000 1.000000 1.000000 1.000000 1.000000 1.000000 1.000000 1.000000 1.000000 1.000000 1.000000 1.000000 1.000000 1.000000 0.916229 0.916229 0.904883 0.904883 0.904883 0.904883 0.904883 0.904883 0.904883 0.904883 0.904883 0.904883 0.904883 0.904883 0.904883 0.904883 0.904883 0.904883 0.904883 0.904883 0.904883 0.904883 0.904883 0.904883 0.904883 0.904883 0.904883 0.904883 0.904883 0.904883 0.904883 0.904883 0.904883 0.904883 0.904883 0.904883 0.904883 0.904883 0.904883 0.904883 0.904883 0.904883 0.904883 0.903001 0.907936 0.909891 0.908430 0.911903 0.911952 0.909868 0.909352 0.909026 0.909380 0.910781 0.921245 0.932212 0.943179 0.943710 0.948917 0.953165 0.955663 0.956431 0.958038 0.968220 0.965570 0.965117 0.965812 0.967251 0.969345 0.968174 0.967612 0.970128 0.970787 0.969270 0.966878 0.966225 0.965590 0.965681 0.965325 0.965203 0.965068 0.965597 0.965833 0.965470 0.965621 0.965682 0.964350 0.964015 0.966645 0.967900 0.967812 0.966604 0.961206 0.964630 0.965284 0.964747 0.964768 0.964465 0.964784 0.949265 0.945731 0.945645 0.941014 0.940009 0.937358 0.935713 0.934328 0.935327 0.935665 0.936266 0.931777 0.919067 0.905182 0.890217 0.912870 0.900542 0.885416 0.862696 0.861590 0.855902 0.856381 0.850591 0.841919 0.837638 0.834818 0.837106 0.839116 0.843837 0.840781 0.827574 0.831065 0.826741 0.794040 0.783168 0.769427 0.767364 0.764468 0.765627 0.762717 0.759713 0.768094 0.757239 0.755287 0.745691 0.727810 0.695946 0.682223 0.693066 0.701239 0.709779 0.705666 0.690600 0.643289 0.654152 0.681660 0.672775 0.674313 0.667222 0.660342 0.668027 0.664566 0.659609 0.653288 0.652828 0.652191 0.661876 0.667815 0.659307 0.651749 0.640061 0.629902 0.613874 0.624934 0.630847 0.599217 0.594406 0.586472 0.580603 0.574619 0.557212 0.556276 0.534865 0.522345 0.519276 0.519818 0.524051 0.532274 0.531637 0.509884 0.529112 0.524035 0.555133 0.531318 0.529703 0.531968 0.539593 0.520553 0.516527 0.511316 0.511952 0.521902 0.548568 0.581864 0.576199 0.565905 0.558440 0.568974 0.553022 0.562030 0.592600 0.572727 0.510117 0.465654 0.462794 0.429764 0.422482 0.403531 0.380576 0.357198 0.351728 0.345588 0.330866 0.318753 0.280395 0.245265 0.221783 0.200058 0.215789 0.232876 0.229899 0.230920 0.268966 0.314017 0.320331 0.309973 0.289145 0.291081 0.288287 0.248833 0.247394 0.208578 0.190997 0.209125 0.154709 0.158744 0.120607 0.114261 0.130754 0.143921 0.156100 0.108739 0.091900 0.111180 0.133093 0.118965 0.110900 0.065234 0.039872 0.024904 0.038152 0.016846 0.002460 0.005809 0.009473 -0.012640 -0.029219 -0.033614 -0.043314 -0.037794 -0.052447 -0.046535 0.013306 0.040114 0.030008 0.036666 0.059863 0.067680 0.052019 0.047398 0.017072 -0.001142 -0.046832 -0.073610 -0.073610 -0.058897 -0.058897 -0.058897 -0.058897 -0.058897 -0.058897 -0.058897 -0.058897 -0.058897 -0.059763 -0.059763 -0.059763 -0.059763 -0.059763 -0.059763 -0.059763 -0.059763 -0.059763 -0.045807 -0.045807 -0.045807 -0.045807 -0.045807 -0.045807 -0.045807 -0.045807 -0.045807
0.000000 0.000000 0.000000 0.000000 0.000000 0.000000 0.000000 0.000000 0.000000 0.000000 0.000000 0.000000 0.000000 0.000000 0.000000 0.000000 0.000000 0.000000 0.000000 0.000000 0.000000 0.000000 0.000000 0.000000 0.000000 0.000000 0.000000 0.000000 0.000000 0.000000 0.000000 0.000000 0.000000 0.000000 0.000000 0.000000 0.000000 0.000000 0.000000 0.000000 0.000000 0.000000 0.000000 0.000000 0.000000 0.000000 0.000000 0.000000 0.000000 0.000000 0.000000 0.000000 0.181818 0.181818 0.199007 0.199007 0.199007 0.199007 0.199007 0.199007 0.199007 0.199007 0.199007 0.199007 0.199007 0.199007 0.199007 0.199007 0.199007 0.199007 0.199007 0.199007 0.199007 0.199007 0.199007 0.199007 0.199007 0.199007 0.199007 0.199007 0.199007 0.199007 0.199007 0.199007 0.199007 0.199007 0.199007 0.199007 0.199007 0.199007 0.199007 0.199007 0.199007 0.199007 0.199007 0.230940 0.230940 0.230940 0.230940 0.230940 0.230940 0.230940 0.230940 0.230940 0.230940 0.230940 0.230940 0.230940 0.230940 0.230940 0.230940 0.230940 0.230940 0.230940 0.230940 0.230940 0.230940 0.230940 0.230940 0.230940 0.230940 0.230940 0.230940 0.244339 0.244339 0.244339 0.244339 0.244339 0.244339 0.244339 0.244339 0.244339 0.244339 0.244339 0.244339 0.244339 0.244339 0.244339 0.244339 0.244339 0.244339 0.244339 0.244339 0.244339 0.244339 0.244339 0.251976 0.251976 0.251976 0.251976 0.251976 0.251976 0.251976 0.251976 0.251976 0.251976 0.251976 0.251976 0.251976 0.251976 0.251976 0.251976 0.251976 0.251976 0.251976 0.251976 0.264906 0.264906 0.264906 0.264906 0.264906 0.264906 0.264906 0.264906 0.264906 0.264906 0.264906 0.264906 0.264906 0.264906 0.264906 0.264906 0.264906 0.264906 0.264906 0.264906 0.264906 0.264906 0.264906 0.264906 0.264906 0.264906 0.264906 0.264906 0.264906 0.264906 0.264906 0.264906 0.264906 0.264906 0.264906 0.264906 0.264906 0.264906 0.264906 0.264906 0.264906 0.264906 0.264906 0.264906 0.264906 0.264906 0.264906 0.264906 0.264906 0.264906 0.264906 0.264906 0.264906 0.264906 0.264906 0.264906 0.264906 0.264906 0.264906 0.264906 0.264906 0.264906 0.264906 0.264906 0.264906 0.264906 0.264906 0.264906 0.264906 0.264906 0.264906 0.264906 0.264906 0.264906 0.264906 0.269680 0.269680 0.269680 0.269680 0.269680 0.269680 0.269680 0.269680 0.269680 0.269680 0.269680 0.269680 0.264906 0.264906 0.264906 0.264906 0.264906 0.264906 0.264906 0.264906 0.264906 0.264906 0.264906 0.264906 0.269680 0.269680 0.269680 0.269680 0.269680 0.269680 0.269680 0.269680 0.269680 0.269680 0.269680 0.264906 0.264906 0.264906 0.264906 0.264906 0.264906 0.264906 0.264906 0.264906 0.264906 0.264906 0.269680 0.269680 0.269680 0.269680 0.269680 0.269680 0.269680 0.269680 0.269680 0.269680 0.251976 0.251976 0.251976 0.251976 0.251976 0.251976 0.251976 0.251976 0.251976 0.251976 0.251976 0.269680 0.269680 0.269680 0.269680 0.269680 0.269680 0.269680 0.269680 0.269680 0.256074 0.256074 0.256074 0.256074 0.256074 0.256074 0.256074 0.256074 0.256074 0.256074 0.260378 0.260378 0.260378 0.260378 0.260378 0.260378 0.260378 0.260378 0.260378 0.256074 0.256074 0.256074 0.256074 0.256074 0.256074 0.256074 0.256074 0.256074 0.251976 0.251976 0.251976 0.251976 0.251976 0.251976 0.251976 0.251976 0.251976 0.264906 0.264906 0.264906 0.264906 0.264906 0.264906 0.264906 0.264906 0.264906
