# Output from CTFFind version 4.1.9, run on 2019-11-01 22:42:09
# Input file: first_bm3d_averaged_1_0.7_1.00_1500_half.mrc ; Number of micrographs: 1
# Pixel size: 3.000 Angstroms ; acceleration voltage: 300.0 keV ; spherical aberration: 0.00 mm ; amplitude contrast: 0.07
# Box size: 512 pixels ; min. res.: 30.0 Angstroms ; max. res.: 5.0 Angstroms ; min. def.: 5000.0 um; max. def. 50000.0 um; num. frames averaged: 1
# 6 lines per micrograph: #1 - spatial frequency (1/Angstroms); #2 - 1D rotational average of spectrum (assuming no astigmatism); #3 - 1D rotational average of spectrum; #4 - CTF fit; #5 - cross-correlation between spectrum and CTF fit; #6 - 2sigma of expected cross correlation of noise
0.000000 0.000651 0.001302 0.001953 0.002604 0.003255 0.003906 0.004557 0.005208 0.005859 0.006510 0.007161 0.007812 0.008464 0.009115 0.009766 0.010417 0.011068 0.011719 0.012370 0.013021 0.013672 0.014323 0.014974 0.015625 0.016276 0.016927 0.017578 0.018229 0.018880 0.019531 0.020182 0.020833 0.021484 0.022135 0.022786 0.023438 0.024089 0.024740 0.025391 0.026042 0.026693 0.027344 0.027995 0.028646 0.029297 0.029948 0.030599 0.031250 0.031901 0.032552 0.033203 0.033854 0.034505 0.035156 0.035807 0.036458 0.037109 0.037760 0.038411 0.039062 0.039714 0.040365 0.041016 0.041667 0.042318 0.042969 0.043620 0.044271 0.044922 0.045573 0.046224 0.046875 0.047526 0.048177 0.048828 0.049479 0.050130 0.050781 0.051432 0.052083 0.052734 0.053385 0.054036 0.054688 0.055339 0.055990 0.056641 0.057292 0.057943 0.058594 0.059245 0.059896 0.060547 0.061198 0.061849 0.062500 0.063151 0.063802 0.064453 0.065104 0.065755 0.066406 0.067057 0.067708 0.068359 0.069010 0.069661 0.070312 0.070964 0.071615 0.072266 0.072917 0.073568 0.074219 0.074870 0.075521 0.076172 0.076823 0.077474 0.078125 0.078776 0.079427 0.080078 0.080729 0.081380 0.082031 0.082682 0.083333 0.083984 0.084635 0.085286 0.085938 0.086589 0.087240 0.087891 0.088542 0.089193 0.089844 0.090495 0.091146 0.091797 0.092448 0.093099 0.093750 0.094401 0.095052 0.095703 0.096354 0.097005 0.097656 0.098307 0.098958 0.099609 0.100260 0.100911 0.101562 0.102214 0.102865 0.103516 0.104167 0.104818 0.105469 0.106120 0.106771 0.107422 0.108073 0.108724 0.109375 0.110026 0.110677 0.111328 0.111979 0.112630 0.113281 0.113932 0.114583 0.115234 0.115885 0.116536 0.117188 0.117839 0.118490 0.119141 0.119792 0.120443 0.121094 0.121745 0.122396 0.123047 0.123698 0.124349 0.125000 0.125651 0.126302 0.126953 0.127604 0.128255 0.128906 0.129557 0.130208 0.130859 0.131510 0.132161 0.132812 0.133464 0.134115 0.134766 0.135417 0.136068 0.136719 0.137370 0.138021 0.138672 0.139323 0.139974 0.140625 0.141276 0.141927 0.142578 0.143229 0.143880 0.144531 0.145182 0.145833 0.146484 0.147135 0.147786 0.148438 0.149089 0.149740 0.150391 0.151042 0.151693 0.152344 0.152995 0.153646 0.154297 0.154948 0.155599 0.156250 0.156901 0.157552 0.158203 0.158854 0.159505 0.160156 0.160807 0.161458 0.162109 0.162760 0.163411 0.164062 0.164714 0.165365 0.166016 0.166667 0.167318 0.167969 0.168620 0.169271 0.169922 0.170573 0.171224 0.171875 0.172526 0.173177 0.173828 0.174479 0.175130 0.175781 0.176432 0.177083 0.177734 0.178385 0.179036 0.179688 0.180339 0.180990 0.181641 0.182292 0.182943 0.183594 0.184245 0.184896 0.185547 0.186198 0.186849 0.187500 0.188151 0.188802 0.189453 0.190104 0.190755 0.191406 0.192057 0.192708 0.193359 0.194010 0.194661 0.195312 0.195964 0.196615 0.197266 0.197917 0.198568 0.199219 0.199870 0.200521 0.201172 0.201823 0.202474 0.203125 0.203776 0.204427 0.205078 0.205729 0.206380 0.207031 0.207682 0.208333 0.208984 0.209635 0.210286 0.210938 0.211589 0.212240 0.212891 0.213542 0.214193 0.214844 0.215495 0.216146 0.216797 0.217448 0.218099 0.218750 0.219401 0.220052 0.220703 0.221354 0.222005 0.222656 0.223307 0.223958 0.224609 0.225260 0.225911 0.226562 0.227214 0.227865 0.228516 0.229167 0.229818 0.230469 0.231120 0.231771 0.232422 0.233073 0.233724 0.234375 0.235026 0.235677
       0.33354        0.33354        0.33354        0.33354        0.33354        0.33354        0.33354        0.33354        0.33354        0.33354        0.33354        0.33354        0.33354        0.33354        0.33354        0.33354        0.33354        0.33354        0.33354        0.33354        0.33354        0.33354        0.33354        0.33354        0.33354        0.33354        0.33354        0.33354        0.33354        0.33354        0.33354        0.33354        0.33354        0.33354        0.33354        0.33354        0.33354        0.33354        0.33354        0.33354        0.33354        0.33354        0.33354        0.33354        0.33354        0.33354        0.33354        0.33354        0.33354        0.33354        0.33354        0.50300        0.71959        0.42941        0.19116       -0.07972       -0.26243       -0.06905       -0.13291       -0.05319       -0.00188       -0.14661       -0.09229       -0.05041       -0.00240       -0.15140       -0.22012       -0.34590       -0.46262       -0.55896       -0.51781       -0.44843       -0.37166       -0.54725       -0.44907       -0.62076       -0.50222       -0.47471       -0.38959       -0.38387       -0.34038       -0.25054       -0.16012       -0.13543        0.03333       -0.01165        0.11987        0.16900        0.30473        0.40983        0.46466        0.49745        0.54138        0.55119        0.69410        0.64635        0.67822        0.59221        0.55739        0.65565        0.52930        0.42824        0.38459        0.32159        0.22890        0.26421        0.25191        0.10775        0.08419        0.00070       -0.00621        0.03644       -0.00369        0.07509        0.09880        0.23231        0.28368        0.30333        0.38137        0.56109        0.53731        0.57881        0.67127        0.70064        0.63060        0.63489        0.63286        0.55403        0.57454        0.39715        0.34582        0.26679        0.18512        0.07249        0.14580        0.11954        0.09184        0.10688        0.20943        0.21361        0.31739        0.35944        0.41363        0.49359        0.58441        0.54301        0.55534        0.60838        0.54058        0.46288        0.47935        0.32477        0.25232        0.25864        0.24357        0.14400        0.14531        0.15206        0.21996        0.24824        0.32985        0.36444        0.39158        0.46765        0.44779        0.47809        0.45404        0.46834        0.44584        0.40736        0.38260        0.35346        0.31060        0.28618        0.20517        0.19855        0.22140        0.27091        0.26893        0.35081        0.37623        0.35880        0.41233        0.45688        0.44899        0.42465        0.43897        0.37083        0.33568        0.28331        0.26447        0.29000        0.27031        0.29545        0.30110        0.34946        0.34283        0.39934        0.40477        0.42631        0.41153        0.43041        0.40384        0.36609        0.28385        0.29217        0.30878        0.27443        0.25615        0.33066        0.37127        0.34200        0.35438        0.36003        0.35517        0.40814        0.40097        0.35958        0.33931        0.31077        0.31022        0.31689        0.31714        0.30113        0.28758        0.33617        0.35952        0.37827        0.33331        0.32971        0.33525        0.34591        0.30693        0.28313        0.30748        0.31640        0.33680        0.32208        0.33304        0.35844        0.33044        0.31393        0.32906        0.30424        0.26533        0.25242        0.26608        0.30745        0.32273        0.35130        0.30171        0.31511        0.33761        0.29416        0.31613        0.28745        0.28300        0.29327        0.29920        0.31010        0.34449        0.32474        0.32967        0.33621        0.31261        0.33407        0.31852        0.31968        0.31017        0.28330        0.29244        0.31353        0.29204        0.32703        0.33865        0.33591        0.32033        0.34093        0.31809        0.27726        0.25427        0.27156        0.33221        0.35967        0.34634        0.31682        0.29494        0.29790        0.31431        0.24798        0.29858        0.30399        0.32887        0.29896        0.31723        0.28700        0.33709        0.34356        0.34510        0.32455        0.29288        0.31546        0.39761        0.33070        0.31416        0.31035        0.29278        0.28682        0.29866        0.26519        0.31181        0.23942        0.27624        0.29733        0.31559        0.29639        0.27585        0.29942        0.23735        0.22720        0.26161        0.30399        0.30496        0.28096        0.28752        0.33466        0.25617        0.21506        0.31111        0.27415        0.25639        0.28276        0.39530        0.29681        0.28719        0.24822        0.25362        0.26794        0.24125        0.23456        0.16859        0.25394        0.23175        0.24994        0.31800        0.27467        0.34877        0.28288        0.24985        0.23219        0.21306        0.23757        0.29821        0.22964        0.12686        0.16376        0.24617        0.24505        0.32531        0.29679        0.03440       -0.42486       -0.91031
2.694946 2.666488 2.638182 2.610029 2.582029 2.554181 2.526486 2.498944 2.471554 2.444317 2.417232 2.390301 2.363521 2.336895 2.310421 2.284100 2.257932 2.231916 2.206053 2.180342 2.154784 2.129379 2.104126 2.079026 2.054079 2.029285 2.004643 1.980153 1.955817 1.931633 1.907601 1.883723 1.859997 1.836423 1.813003 1.789735 1.766619 1.743656 1.720846 1.698189 1.675684 1.653332 1.631133 1.609086 1.587191 1.565450 1.543861 1.522425 1.501141 1.480010 1.459032 1.528797 1.829956 1.514888 1.196633 0.942332 0.544752 0.912185 0.634574 0.875500 0.928007 0.592085 0.710355 0.783045 0.820218 0.630983 0.539151 0.348652 0.104720 0.080049 0.044943 0.083144 0.302581 -0.034037 0.083384 -0.133283 -0.010918 -0.017769 0.084665 0.063777 0.100812 0.177216 0.283970 0.252770 0.484398 0.398027 0.549923 0.527784 0.768153 0.788053 0.880787 0.920413 0.940723 0.944638 1.114163 0.941791 1.141525 0.948275 0.852087 1.016633 0.849291 0.760482 0.616898 0.595803 0.456048 0.418678 0.509973 0.266110 0.199573 0.158849 0.012222 0.207614 -0.004259 0.121366 0.180193 0.258895 0.331919 0.347975 0.425896 0.537526 0.663892 0.539968 0.740481 0.861197 0.639056 0.695466 0.665774 0.592864 0.537244 0.462333 0.298869 0.214225 0.117212 -0.042673 -0.018663 0.058480 -0.097800 -0.057589 0.047610 0.054267 0.113246 0.220001 0.238341 0.309007 0.433378 0.443122 0.440933 0.479229 0.447945 0.330120 0.331283 0.240979 0.053601 0.062857 0.017237 -0.043732 -0.097401 -0.098831 -0.015188 -0.050799 0.072613 0.121257 0.119507 0.261598 0.230102 0.240622 0.288764 0.246904 0.238636 0.213978 0.170126 0.110549 0.101916 0.024879 0.006149 -0.116726 -0.052175 0.001493 0.002409 0.022643 0.097135 0.084841 0.131062 0.192362 0.258059 0.178702 0.180263 0.107162 0.136609 0.022424 -0.033517 0.022385 -0.024545 0.006568 -0.007664 0.035388 0.082450 0.052836 0.156018 0.098455 0.165971 0.063050 0.143668 0.094528 -0.008204 -0.062272 -0.014211 -0.034517 -0.070984 -0.067610 0.056409 0.058984 -0.008916 0.049558 0.060846 0.071791 0.141956 0.064473 0.059476 0.048931 -0.026221 0.022078 0.000327 0.011610 0.001143 -0.006988 0.040121 0.060541 0.068421 0.028233 0.043697 0.020933 0.057243 -0.011530 -0.018808 0.021556 0.010005 0.059413 0.037817 0.043660 0.060949 0.042185 0.018830 0.030349 -0.000535 -0.047447 -0.032842 -0.026786 0.023470 0.037923 0.096531 -0.006272 0.063064 0.049801 -0.009348 0.062524 0.010894 0.008551 0.037308 0.052130 0.037173 0.092690 0.050169 0.069574 0.084663 0.063685 0.064926 0.063952 0.083192 0.033563 -0.008142 0.045368 0.043233 0.044285 0.069650 0.086917 0.012409 0.058682 0.074954 0.005506 0.000935 -0.060599 -0.023962 0.109329 0.079977 0.045459 0.037412 -0.019498 0.049866 0.020710 -0.069154 0.050659 0.029881 0.061746 0.034851 0.008811 0.003041 0.065629 0.039100 0.015148 0.040518 -0.041756 0.064951 0.115387 0.004634 -0.007659 -0.003077 -0.000222 -0.034307 -0.019152 -0.055318 -0.006283 -0.091261 -0.020243 -0.033025 0.024045 -0.034509 -0.049994 0.028067 -0.076663 -0.053556 -0.080549 0.048993 0.011078 0.007976 -0.006991 0.072521 -0.030677 -0.071061 0.057420 -0.005641 0.008703 0.007476 0.201328 -0.022117 0.025138 -0.001633 -0.006055 -0.002331 -0.034918 -0.016919 -0.164948 0.016188 -0.038925 -0.013670 0.042657 0.004803 0.117809 -0.006987 -0.009571 -0.039239 -0.029698 -0.066485 0.048017 0.274888 0.150730 0.209877 0.245692 0.328044 0.354495 0.359540 0.042582 -1.066151
0.072396 0.072910 0.074452 0.077022 0.080618 0.085241 0.090888 0.097558 0.105249 0.113958 0.123681 0.134414 0.146151 0.158885 0.172608 0.187310 0.202980 0.219604 0.237166 0.255647 0.275026 0.295280 0.316379 0.338293 0.360987 0.384421 0.408551 0.433327 0.458697 0.484600 0.510971 0.537739 0.564826 0.592149 0.619617 0.647132 0.674590 0.701880 0.728882 0.755471 0.781514 0.806871 0.831395 0.854933 0.877326 0.898408 0.918010 0.935956 0.952068 0.966164 0.978062 0.987576 0.994523 0.998720 0.999990 0.998157 0.993053 0.984521 0.972410 0.956584 0.936921 0.913316 0.885682 0.853953 0.818089 0.778075 0.733922 0.685675 0.633411 0.577240 0.517310 0.453808 0.386960 0.317034 0.244339 0.169226 0.092089 0.013364 0.066473 0.146905 0.227380 0.307310 0.386076 0.463032 0.537512 0.608831 0.676293 0.739200 0.796857 0.848582 0.893713 0.931619 0.961706 0.983431 0.996312 0.999934 0.993963 0.978154 0.952361 0.916545 0.870782 0.815270 0.750336 0.676438 0.594166 0.504248 0.407544 0.305043 0.197860 0.087223 0.025534 0.138987 0.251637 0.361928 0.468268 0.569054 0.662694 0.747637 0.822399 0.885590 0.935948 0.972364 0.993912 0.999874 0.989769 0.963369 0.920723 0.862168 0.788342 0.700182 0.598931 0.486124 0.363572 0.233349 0.097754 0.040719 0.179425 0.315614 0.446489 0.569257 0.681197 0.779722 0.862444 0.927237 0.972301 0.996221 0.998015 0.977184 0.933742 0.868247 0.781805 0.676074 0.553247 0.416018 0.267537 0.111348 0.048689 0.208485 0.363829 0.510490 0.644344 0.761489 0.858368 0.931888 0.979531 0.999452 0.990565 0.952606 0.886180 0.792774 0.674752 0.535313 0.378429 0.208742 0.031442 0.147881 0.323408 0.489280 0.639792 0.769606 0.873940 0.948766 0.990982 0.998558 0.970653 0.907692 0.811397 0.684777 0.532053 0.358556 0.170549 0.024976 0.220546 0.408492 0.581245 0.731654 0.853291 0.940743 0.989878 0.998066 0.964342 0.889510 0.776169 0.628663 0.452947 0.256377 0.047428 0.164659 0.370271 0.559863 0.724403 0.855829 0.947448 0.994324 0.993568 0.944547 0.848993 0.710995 0.536863 0.334891 0.114975 0.111823 0.333842 0.539403 0.717432 0.858080 0.953295 0.997310 0.987044 0.922349 0.806112 0.644183 0.445138 0.219859 0.019017 0.257794 0.482484 0.679639 0.837167 0.945108 0.996304 0.986922 0.916785 0.789497 0.612321 0.395825 0.153300 0.100015 0.347874 0.574057 0.763448 0.903063 0.982990 0.997146 0.943794 0.825783 0.650485 0.429398 0.177455 0.087947 0.348104 0.584341 0.779344 0.918473 0.990904 0.990540 0.916588 0.773762 0.572064 0.326177 0.054432 0.222491 0.483134 0.706909 0.875775 0.975721 0.998005 0.939993 0.805527 0.604780 0.353569 0.072186 0.216195 0.487404 0.718291 0.888746 0.983501 0.993575 0.917214 0.760218 0.535612 0.262672 0.034675 0.329891 0.596172 0.808909 0.947999 0.999833 0.958706 0.827547 0.617849 0.348766 0.045455 0.263204 0.547343 0.778996 0.934896 0.998901 0.963751 0.832013 0.616032 0.336915 0.022545 0.295113 0.583253 0.811613 0.955728 0.999620 0.937700 0.775589 0.529753 0.225972 0.103273 0.422213 0.695664 0.892940 0.991374 0.979038 0.856321 0.636142 0.342749 0.009166 0.326444 0.625111 0.851607 0.978661 0.990372 0.884333 0.672198 0.378570 0.038289 0.307614 0.616821 0.850925 0.980269 0.987836 0.871636 0.645260 0.336468 0.016066 0.367506 0.672526 0.891178 0.994227 0.967189 0.812545 0.549744 0.212945 0.153312 0.499877 0.779598 0.953797 0.997725
1.000000 1.000000 1.000000 1.000000 1.000000 1.000000 1.000000 1.000000 1.000000 1.000000 1.000000 1.000000 1.000000 1.000000 1.000000 1.000000 1.000000 1.000000 1.000000 1.000000 1.000000 1.000000 1.000000 1.000000 1.000000 1.000000 1.000000 1.000000 1.000000 1.000000 1.000000 1.000000 1.000000 1.000000 1.000000 1.000000 1.000000 1.000000 1.000000 1.000000 1.000000 1.000000 1.000000 1.000000 1.000000 1.000000 1.000000 1.000000 1.000000 1.000000 1.000000 1.000000 0.918982 0.918982 0.905249 0.905249 0.905249 0.905249 0.905249 0.905249 0.905249 0.905249 0.905249 0.905249 0.905249 0.905249 0.905249 0.905249 0.905249 0.905249 0.905249 0.905249 0.905249 0.905249 0.905249 0.905249 0.905249 0.905249 0.905249 0.905249 0.905249 0.905249 0.905249 0.905249 0.905249 0.905249 0.905249 0.905249 0.905249 0.905249 0.905249 0.905249 0.905249 0.905249 0.905249 0.901106 0.905984 0.907874 0.906342 0.909888 0.909953 0.909242 0.909575 0.909230 0.909559 0.910952 0.921454 0.932472 0.943715 0.944239 0.949385 0.953784 0.956203 0.957072 0.958634 0.968620 0.967286 0.966791 0.967471 0.968909 0.971028 0.969755 0.969326 0.972499 0.973151 0.971553 0.969314 0.968711 0.968116 0.968220 0.967852 0.967738 0.967608 0.968116 0.968315 0.968467 0.968610 0.968663 0.969679 0.970833 0.973210 0.974191 0.974045 0.972973 0.971099 0.975131 0.976039 0.975780 0.975726 0.975255 0.975516 0.962009 0.957839 0.957753 0.954791 0.953698 0.950649 0.949246 0.947699 0.947930 0.946527 0.946372 0.943365 0.929693 0.916127 0.905281 0.925727 0.910639 0.899525 0.874896 0.875640 0.871120 0.871622 0.863616 0.858039 0.853275 0.850510 0.851867 0.849115 0.853080 0.849966 0.835884 0.839158 0.835741 0.806087 0.789509 0.774011 0.775227 0.772369 0.773461 0.773120 0.768283 0.776720 0.769362 0.767624 0.759273 0.739494 0.706637 0.693382 0.703855 0.713527 0.712007 0.708295 0.693209 0.660245 0.672903 0.693498 0.689853 0.692185 0.683873 0.678252 0.681724 0.683086 0.679026 0.672061 0.671101 0.670692 0.679373 0.684065 0.678992 0.670425 0.656220 0.644407 0.630152 0.645411 0.649568 0.617935 0.611932 0.602181 0.595815 0.582502 0.550168 0.549791 0.527387 0.515658 0.518074 0.520839 0.516720 0.525596 0.526778 0.508572 0.531358 0.537888 0.564825 0.545044 0.542218 0.543444 0.552390 0.536064 0.514775 0.507320 0.508235 0.520971 0.554714 0.595829 0.584477 0.572256 0.559009 0.573483 0.549463 0.558468 0.578757 0.556386 0.482002 0.437516 0.435121 0.396069 0.390723 0.380314 0.374050 0.382408 0.374194 0.363722 0.350541 0.338356 0.280263 0.242481 0.225274 0.202883 0.209854 0.223666 0.208641 0.208366 0.241042 0.288240 0.289544 0.280956 0.267438 0.270241 0.242204 0.255398 0.282902 0.238868 0.233308 0.226690 0.201573 0.194642 0.157720 0.184946 0.101952 0.080541 0.081701 0.097856 0.109726 0.108614 0.114486 0.087969 0.107924 0.100709 0.070605 0.057889 0.074294 0.063217 0.031037 0.041236 0.052622 0.039037 0.023577 0.046020 0.051860 0.063475 0.054275 0.053483 0.106910 0.139602 0.126784 0.127232 0.115576 0.116746 0.090966 0.080304 0.071185 0.061552 0.009868 -0.017950 -0.017950 -0.013868 -0.013868 -0.013868 -0.013868 -0.013868 -0.013868 -0.013868 -0.013868 -0.013868 -0.017368 -0.017368 -0.017368 -0.017368 -0.017368 -0.017368 -0.017368 -0.017368 -0.017368 0.008047 0.008047 0.008047 0.008047 0.008047 0.008047 0.008047 0.008047 0.008047
0.000000 0.000000 0.000000 0.000000 0.000000 0.000000 0.000000 0.000000 0.000000 0.000000 0.000000 0.000000 0.000000 0.000000 0.000000 0.000000 0.000000 0.000000 0.000000 0.000000 0.000000 0.000000 0.000000 0.000000 0.000000 7.000000 4.000000 0.000000 0.000000 0.000000 0.000000 0.000000 0.000000 0.000000 0.000000 0.000000 0.000000 0.000000 0.000000 0.000000 0.000000 0.000000 0.000000 0.000000 0.000000 0.000000 0.000000 0.000000 0.000000 0.000000 0.000000 0.000000 0.181818 0.181818 0.199007 0.199007 0.199007 0.199007 0.199007 0.199007 0.199007 0.199007 0.199007 0.199007 0.199007 0.199007 0.199007 0.199007 0.199007 0.199007 0.199007 0.199007 0.199007 0.199007 0.199007 0.199007 0.199007 0.199007 0.199007 0.199007 0.199007 0.199007 0.199007 0.199007 0.199007 0.199007 0.199007 0.199007 0.199007 0.199007 0.199007 0.199007 0.199007 0.199007 0.199007 0.230940 0.230940 0.230940 0.230940 0.230940 0.230940 0.230940 0.230940 0.230940 0.230940 0.230940 0.230940 0.230940 0.230940 0.230940 0.230940 0.230940 0.230940 0.230940 0.230940 0.230940 0.230940 0.230940 0.230940 0.230940 0.230940 0.230940 0.230940 0.244339 0.244339 0.244339 0.244339 0.244339 0.244339 0.244339 0.244339 0.244339 0.244339 0.244339 0.244339 0.244339 0.244339 0.244339 0.244339 0.244339 0.244339 0.244339 0.244339 0.244339 0.244339 0.244339 0.251976 0.251976 0.251976 0.251976 0.251976 0.251976 0.251976 0.251976 0.251976 0.251976 0.251976 0.251976 0.251976 0.251976 0.251976 0.251976 0.251976 0.251976 0.251976 0.251976 0.264906 0.264906 0.264906 0.264906 0.264906 0.264906 0.264906 0.264906 0.264906 0.264906 0.264906 0.264906 0.264906 0.264906 0.264906 0.264906 0.264906 0.264906 0.264906 0.264906 0.264906 0.264906 0.264906 0.264906 0.264906 0.264906 0.264906 0.264906 0.264906 0.264906 0.264906 0.264906 0.264906 0.264906 0.264906 0.264906 0.264906 0.264906 0.264906 0.264906 0.264906 0.264906 0.264906 0.264906 0.264906 0.264906 0.264906 0.264906 0.264906 0.264906 0.264906 0.264906 0.264906 0.264906 0.264906 0.264906 0.264906 0.264906 0.264906 0.264906 0.264906 0.264906 0.264906 0.264906 0.264906 0.264906 0.264906 0.264906 0.264906 0.264906 0.264906 0.264906 0.264906 0.264906 0.264906 0.269680 0.269680 0.269680 0.269680 0.269680 0.269680 0.269680 0.269680 0.269680 0.269680 0.269680 0.269680 0.264906 0.264906 0.264906 0.264906 0.264906 0.264906 0.264906 0.264906 0.264906 0.264906 0.264906 0.264906 0.269680 0.269680 0.269680 0.269680 0.269680 0.269680 0.269680 0.269680 0.269680 0.269680 0.269680 0.264906 0.264906 0.264906 0.264906 0.264906 0.264906 0.264906 0.264906 0.264906 0.264906 0.264906 0.256074 0.256074 0.256074 0.256074 0.256074 0.256074 0.256074 0.256074 0.256074 0.256074 0.256074 0.264906 0.264906 0.264906 0.264906 0.264906 0.264906 0.264906 0.264906 0.264906 0.264906 0.269680 0.269680 0.269680 0.269680 0.269680 0.269680 0.269680 0.269680 0.269680 0.256074 0.256074 0.256074 0.256074 0.256074 0.256074 0.256074 0.256074 0.256074 0.256074 0.260378 0.260378 0.260378 0.260378 0.260378 0.260378 0.260378 0.260378 0.260378 0.256074 0.256074 0.256074 0.256074 0.256074 0.256074 0.256074 0.256074 0.256074 0.251976 0.251976 0.251976 0.251976 0.251976 0.251976 0.251976 0.251976 0.251976 0.264906 0.264906 0.264906 0.264906 0.264906 0.264906 0.264906 0.264906 0.264906
