# Output from CTFFind version 4.1.9, run on 2019-11-01 22:42:52
# Input file: first_bm3d_averaged_1_1.2_1.00_250_half.mrc ; Number of micrographs: 1
# Pixel size: 3.000 Angstroms ; acceleration voltage: 300.0 keV ; spherical aberration: 0.00 mm ; amplitude contrast: 0.07
# Box size: 512 pixels ; min. res.: 30.0 Angstroms ; max. res.: 5.0 Angstroms ; min. def.: 5000.0 um; max. def. 50000.0 um; num. frames averaged: 1
# 6 lines per micrograph: #1 - spatial frequency (1/Angstroms); #2 - 1D rotational average of spectrum (assuming no astigmatism); #3 - 1D rotational average of spectrum; #4 - CTF fit; #5 - cross-correlation between spectrum and CTF fit; #6 - 2sigma of expected cross correlation of noise
0.000000 0.000651 0.001302 0.001953 0.002604 0.003255 0.003906 0.004557 0.005208 0.005859 0.006510 0.007161 0.007812 0.008464 0.009115 0.009766 0.010417 0.011068 0.011719 0.012370 0.013021 0.013672 0.014323 0.014974 0.015625 0.016276 0.016927 0.017578 0.018229 0.018880 0.019531 0.020182 0.020833 0.021484 0.022135 0.022786 0.023438 0.024089 0.024740 0.025391 0.026042 0.026693 0.027344 0.027995 0.028646 0.029297 0.029948 0.030599 0.031250 0.031901 0.032552 0.033203 0.033854 0.034505 0.035156 0.035807 0.036458 0.037109 0.037760 0.038411 0.039062 0.039714 0.040365 0.041016 0.041667 0.042318 0.042969 0.043620 0.044271 0.044922 0.045573 0.046224 0.046875 0.047526 0.048177 0.048828 0.049479 0.050130 0.050781 0.051432 0.052083 0.052734 0.053385 0.054036 0.054688 0.055339 0.055990 0.056641 0.057292 0.057943 0.058594 0.059245 0.059896 0.060547 0.061198 0.061849 0.062500 0.063151 0.063802 0.064453 0.065104 0.065755 0.066406 0.067057 0.067708 0.068359 0.069010 0.069661 0.070312 0.070964 0.071615 0.072266 0.072917 0.073568 0.074219 0.074870 0.075521 0.076172 0.076823 0.077474 0.078125 0.078776 0.079427 0.080078 0.080729 0.081380 0.082031 0.082682 0.083333 0.083984 0.084635 0.085286 0.085938 0.086589 0.087240 0.087891 0.088542 0.089193 0.089844 0.090495 0.091146 0.091797 0.092448 0.093099 0.093750 0.094401 0.095052 0.095703 0.096354 0.097005 0.097656 0.098307 0.098958 0.099609 0.100260 0.100911 0.101562 0.102214 0.102865 0.103516 0.104167 0.104818 0.105469 0.106120 0.106771 0.107422 0.108073 0.108724 0.109375 0.110026 0.110677 0.111328 0.111979 0.112630 0.113281 0.113932 0.114583 0.115234 0.115885 0.116536 0.117188 0.117839 0.118490 0.119141 0.119792 0.120443 0.121094 0.121745 0.122396 0.123047 0.123698 0.124349 0.125000 0.125651 0.126302 0.126953 0.127604 0.128255 0.128906 0.129557 0.130208 0.130859 0.131510 0.132161 0.132812 0.133464 0.134115 0.134766 0.135417 0.136068 0.136719 0.137370 0.138021 0.138672 0.139323 0.139974 0.140625 0.141276 0.141927 0.142578 0.143229 0.143880 0.144531 0.145182 0.145833 0.146484 0.147135 0.147786 0.148438 0.149089 0.149740 0.150391 0.151042 0.151693 0.152344 0.152995 0.153646 0.154297 0.154948 0.155599 0.156250 0.156901 0.157552 0.158203 0.158854 0.159505 0.160156 0.160807 0.161458 0.162109 0.162760 0.163411 0.164062 0.164714 0.165365 0.166016 0.166667 0.167318 0.167969 0.168620 0.169271 0.169922 0.170573 0.171224 0.171875 0.172526 0.173177 0.173828 0.174479 0.175130 0.175781 0.176432 0.177083 0.177734 0.178385 0.179036 0.179688 0.180339 0.180990 0.181641 0.182292 0.182943 0.183594 0.184245 0.184896 0.185547 0.186198 0.186849 0.187500 0.188151 0.188802 0.189453 0.190104 0.190755 0.191406 0.192057 0.192708 0.193359 0.194010 0.194661 0.195312 0.195964 0.196615 0.197266 0.197917 0.198568 0.199219 0.199870 0.200521 0.201172 0.201823 0.202474 0.203125 0.203776 0.204427 0.205078 0.205729 0.206380 0.207031 0.207682 0.208333 0.208984 0.209635 0.210286 0.210938 0.211589 0.212240 0.212891 0.213542 0.214193 0.214844 0.215495 0.216146 0.216797 0.217448 0.218099 0.218750 0.219401 0.220052 0.220703 0.221354 0.222005 0.222656 0.223307 0.223958 0.224609 0.225260 0.225911 0.226562 0.227214 0.227865 0.228516 0.229167 0.229818 0.230469 0.231120 0.231771 0.232422 0.233073 0.233724 0.234375 0.235026 0.235677
       0.33279        0.33279        0.33279        0.33279        0.33279        0.33279        0.33279        0.33279        0.33279        0.33279        0.33279        0.33279        0.33279        0.33279        0.33279        0.33279        0.33279        0.33279        0.33279        0.33279        0.33279        0.33279        0.33279        0.33279        0.33279        0.33279        0.33279        0.33279        0.33279        0.33279        0.33279        0.33279        0.33279        0.33279        0.33279        0.33279        0.33279        0.33279        0.33279        0.33279        0.33279        0.33279        0.33279        0.33279        0.33279        0.33279        0.33279        0.33279        0.33279        0.33279        0.33279        0.50156        0.71947        0.42902        0.18977       -0.07972       -0.25801       -0.06582       -0.13145       -0.05517       -0.00428       -0.14863       -0.09180       -0.05582       -0.00432       -0.15283       -0.22356       -0.34550       -0.46044       -0.55484       -0.51103       -0.44294       -0.36917       -0.54484       -0.44970       -0.62092       -0.50525       -0.47093       -0.38867       -0.38542       -0.33857       -0.24983       -0.16137       -0.14058        0.03365       -0.01109        0.12179        0.16509        0.30574        0.41139        0.46060        0.50249        0.54404        0.55183        0.68891        0.64309        0.67583        0.58996        0.55368        0.64905        0.52606        0.42648        0.38368        0.32009        0.23531        0.26144        0.25394        0.10345        0.07786       -0.00035       -0.00376        0.04197       -0.01013        0.07265        0.10570        0.23493        0.28822        0.29854        0.38159        0.56226        0.53088        0.57806        0.66572        0.70187        0.63029        0.64222        0.63474        0.55617        0.57335        0.40368        0.34748        0.26394        0.18104        0.07704        0.14217        0.11747        0.09997        0.10698        0.20473        0.21075        0.31777        0.36090        0.41387        0.49591        0.57869        0.54445        0.55636        0.60093        0.52875        0.45753        0.48572        0.32813        0.24595        0.25760        0.23966        0.13916        0.14607        0.15385        0.21963        0.23890        0.33534        0.37347        0.39532        0.46714        0.44471        0.48160        0.44652        0.47225        0.44820        0.40403        0.38400        0.35496        0.31817        0.29147        0.20528        0.19305        0.22007        0.27148        0.26628        0.34900        0.38001        0.35703        0.40992        0.44980        0.44213        0.42775        0.44774        0.38204        0.33475        0.28258        0.25724        0.29039        0.26313        0.29549        0.30125        0.34131        0.33987        0.39417        0.40186        0.42455        0.40655        0.43705        0.40182        0.36119        0.28339        0.28901        0.30366        0.27319        0.24921        0.32209        0.36783        0.34132        0.35384        0.36351        0.35496        0.41136        0.40707        0.36819        0.33977        0.30298        0.31250        0.32276        0.32039        0.29930        0.27866        0.33613        0.35852        0.38036        0.34020        0.33394        0.33780        0.34567        0.31130        0.28033        0.30450        0.31222        0.34043        0.31732        0.32859        0.35546        0.32496        0.31661        0.32792        0.29962        0.26459        0.25770        0.26330        0.30600        0.32250        0.35478        0.29872        0.30674        0.32816        0.29460        0.31724        0.28692        0.28576        0.29415        0.29420        0.30587        0.34636        0.33308        0.33211        0.33785        0.32259        0.33878        0.31894        0.31968        0.31035        0.27206        0.28395        0.30775        0.29323        0.32109        0.33076        0.33214        0.33159        0.35306        0.32685        0.28324        0.24858        0.27119        0.33306        0.35151        0.33943        0.31245        0.29088        0.29813        0.30844        0.25836        0.29998        0.30894        0.33904        0.30230        0.30210        0.27403        0.33410        0.33748        0.33861        0.30845        0.28985        0.31913        0.39698        0.32524        0.31421        0.31396        0.28700        0.27991        0.30110        0.28424        0.32439        0.23041        0.26362        0.29823        0.30978        0.30092        0.25845        0.28623        0.24240        0.21922        0.27063        0.29446        0.30532        0.27726        0.27926        0.32869        0.26132        0.23016        0.29814        0.26547        0.26422        0.28430        0.38727        0.28713        0.29140        0.26157        0.24380        0.27742        0.27219        0.23736        0.18244        0.25756        0.23118        0.23867        0.31245        0.25505        0.35945        0.32803        0.23878        0.21896        0.21423        0.25424        0.31970        0.23132        0.13837        0.18128        0.24105        0.23672        0.26322        0.18321        0.00505       -0.45516       -0.95718
2.636032 2.608300 2.580717 2.553282 2.525996 2.498857 2.471868 2.445027 2.418334 2.391789 2.365393 2.339146 2.313046 2.287096 2.261293 2.235639 2.210133 2.184776 2.159567 2.134507 2.109595 2.084831 2.060216 2.035749 2.011431 1.987261 1.963239 1.939366 1.915641 1.892065 1.868637 1.845357 1.822226 1.799243 1.776408 1.753722 1.731185 1.708795 1.686555 1.664462 1.642518 1.620723 1.599075 1.577576 1.556226 1.535024 1.513970 1.493065 1.472308 1.451700 1.431240 1.500217 1.802249 1.500962 1.137099 0.919358 0.530238 0.895667 0.617298 0.853067 0.904259 0.573452 0.694582 0.754790 0.801320 0.612321 0.518120 0.336846 0.095765 0.069960 0.043121 0.078188 0.295562 -0.045086 0.074772 -0.141524 -0.025494 -0.017671 0.075838 0.049582 0.097525 0.168886 0.272712 0.237759 0.471674 0.392446 0.543495 0.515161 0.755250 0.781748 0.864145 0.917889 0.928635 0.940132 1.073268 0.965256 1.128195 0.931184 0.844902 0.998572 0.837721 0.747815 0.613276 0.584106 0.463369 0.411111 0.503392 0.262884 0.188890 0.151163 0.015025 0.214477 -0.007008 0.112128 0.184360 0.261231 0.337758 0.342166 0.424947 0.541255 0.649634 0.537474 0.728676 0.868992 0.633932 0.701847 0.667152 0.593665 0.531343 0.471978 0.301851 0.214435 0.115937 -0.038037 -0.013920 0.051031 -0.085823 -0.051213 0.052550 0.049184 0.112665 0.224897 0.239199 0.319144 0.431396 0.430284 0.452142 0.470393 0.434905 0.313233 0.338940 0.248050 0.044873 0.059755 0.024500 -0.057512 -0.090968 -0.097652 -0.011693 -0.059503 0.074366 0.135891 0.134428 0.256323 0.223458 0.246792 0.286211 0.252859 0.249410 0.209271 0.175756 0.113142 0.111860 0.034977 0.015409 -0.119890 -0.054271 0.010338 0.006685 0.015761 0.105447 0.089439 0.128708 0.200242 0.245958 0.163308 0.199296 0.117851 0.148960 0.014977 -0.031079 0.013066 -0.018667 -0.009175 0.002486 0.033601 0.061738 0.064778 0.143305 0.110896 0.153896 0.073568 0.155112 0.086016 -0.003936 -0.052892 -0.020267 -0.029153 -0.077264 -0.066767 0.049008 0.065965 -0.008276 0.057523 0.068119 0.070018 0.150763 0.080537 0.073651 0.041868 -0.025234 0.033843 0.014301 0.014836 0.005950 -0.011499 0.046320 0.064321 0.077142 0.040824 0.048717 0.019751 0.069761 -0.008412 -0.021567 0.023158 0.012668 0.068723 0.030519 0.042059 0.068021 0.033593 0.018727 0.036828 -0.001960 -0.038155 -0.023552 -0.028368 0.025206 0.049015 0.098813 0.004448 0.055075 0.058247 0.004151 0.070257 0.030085 0.024921 0.052337 0.052154 0.053154 0.109446 0.071834 0.084990 0.089079 0.102819 0.075217 0.075395 0.089775 0.036612 -0.006121 0.045815 0.042132 0.060737 0.064826 0.096771 0.001202 0.082637 0.084407 0.018175 0.019876 -0.074299 -0.010756 0.107542 0.067655 0.054901 0.033447 -0.021736 0.037218 0.017648 -0.045711 0.039143 0.047097 0.073997 0.038725 -0.004875 -0.005048 0.037656 0.055086 0.026889 0.023847 -0.026629 0.070692 0.115481 0.015138 -0.002640 0.016773 -0.030982 -0.023180 -0.009645 -0.034526 0.021765 -0.108572 -0.027314 -0.021900 0.018900 -0.020688 -0.061692 -0.003782 -0.057720 -0.052925 -0.047078 0.041618 0.007739 0.017385 -0.005235 0.078942 -0.044809 -0.033827 0.028398 -0.019999 0.031448 0.007433 0.185258 -0.020364 0.012666 0.050572 -0.031087 0.008712 0.017881 -0.020461 -0.133057 0.016712 -0.024245 -0.007105 0.039443 -0.023382 0.160725 0.083968 0.002655 -0.089302 -0.027814 -0.026394 0.081571 0.275497 0.167112 0.229606 0.233161 0.303926 0.299486 0.203294 0.069034 -0.314125
0.072396 0.072910 0.074450 0.077017 0.080609 0.085227 0.090868 0.097531 0.105213 0.113913 0.123625 0.134346 0.146070 0.158790 0.172498 0.187185 0.202838 0.219444 0.236987 0.255449 0.274808 0.295041 0.316119 0.338011 0.360683 0.384094 0.408201 0.432955 0.458302 0.484183 0.510532 0.537279 0.564347 0.591651 0.619102 0.646603 0.674048 0.701327 0.728321 0.754906 0.780948 0.806308 0.830839 0.854389 0.876799 0.897904 0.917533 0.935514 0.951667 0.965812 0.977765 0.987343 0.994361 0.998638 0.999996 0.998259 0.993261 0.984842 0.972853 0.957158 0.937633 0.914173 0.886691 0.855122 0.819423 0.779577 0.735597 0.687526 0.635437 0.579442 0.519685 0.456353 0.389669 0.319898 0.247348 0.172368 0.095349 0.016725 0.063030 0.143404 0.223845 0.303768 0.382556 0.459567 0.534135 0.605576 0.673198 0.736303 0.794197 0.846198 0.891644 0.929902 0.960379 0.982530 0.995870 0.999980 0.994523 0.979249 0.954007 0.918753 0.873555 0.818606 0.754222 0.680855 0.599087 0.509636 0.413353 0.311219 0.204338 0.093932 0.018676 0.132067 0.244748 0.355170 0.461745 0.562872 0.656962 0.742461 0.817882 0.881833 0.933042 0.970393 0.992947 0.999973 0.990975 0.965707 0.924198 0.866765 0.794023 0.706887 0.606577 0.494603 0.372758 0.243090 0.107881 0.030393 0.169099 0.305500 0.436802 0.560217 0.673020 0.772616 0.856601 0.922833 0.969486 0.995115 0.998703 0.979713 0.938115 0.874423 0.789695 0.685543 0.564111 0.428050 0.280469 0.124874 0.034903 0.194798 0.350609 0.498113 0.633177 0.751881 0.850639 0.926318 0.976347 0.998822 0.992585 0.957297 0.893480 0.802540 0.686754 0.549242 0.393901 0.225306 0.048593 0.130687 0.306740 0.473712 0.625884 0.757879 0.864865 0.942733 0.988291 0.999397 0.975090 0.915663 0.822706 0.699089 0.548912 0.377386 0.190680 0.004295 0.200113 0.389125 0.563750 0.716789 0.841733 0.933054 0.986479 0.999210 0.970095 0.899742 0.790547 0.646660 0.473854 0.279332 0.071444 0.140651 0.347377 0.539172 0.706943 0.842501 0.938989 0.991259 0.996173 0.952828 0.862672 0.729513 0.559398 0.360385 0.142187 0.084266 0.307377 0.515450 0.697326 0.842990 0.944150 0.994744 0.991344 0.933427 0.823495 0.667026 0.472252 0.249776 0.012025 0.227420 0.454589 0.655937 0.819173 0.934032 0.992969 0.991694 0.929538 0.809598 0.638654 0.426841 0.187108 0.065546 0.314977 0.544926 0.740087 0.887147 0.975742 0.999229 0.955249 0.846009 0.678252 0.462910 0.214459 0.050008 0.311928 0.552573 0.754375 0.902262 0.984814 0.995217 0.931886 0.798726 0.604981 0.364671 0.095644 0.181716 0.445994 0.676399 0.854442 0.965437 0.999800 0.953942 0.830709 0.639326 0.394788 0.116751 0.171971 0.447268 0.685735 0.866701 0.974057 0.997775 0.934928 0.790117 0.575255 0.308677 0.013657 0.283571 0.556129 0.778926 0.931026 0.997669 0.971804 0.854929 0.657148 0.396425 0.097026 0.212654 0.502762 0.744857 0.914747 0.994971 0.976700 0.860810 0.658015 0.388013 0.077660 0.241617 0.536958 0.777483 0.937547 0.999568 0.956069 0.810696 0.578073 0.282465 0.044658 0.367886 0.651702 0.864398 0.981683 0.989580 0.886208 0.682264 0.400064 0.071225 0.266776 0.574836 0.816773 0.963615 0.997199 0.912539 0.718709 0.438030 0.103652 0.244262 0.563310 0.814020 0.964812 0.996074 0.902872 0.695871 0.400282 0.052966 0.302078 0.619233 0.857139 0.984172 0.982783 0.852084 0.608296 0.282928 0.081168 0.435317 0.731518 0.929014 0.999977
1.000000 1.000000 1.000000 1.000000 1.000000 1.000000 1.000000 1.000000 1.000000 1.000000 1.000000 1.000000 1.000000 1.000000 1.000000 1.000000 1.000000 1.000000 1.000000 1.000000 1.000000 1.000000 1.000000 1.000000 1.000000 1.000000 1.000000 1.000000 1.000000 1.000000 1.000000 1.000000 1.000000 1.000000 1.000000 1.000000 1.000000 1.000000 1.000000 1.000000 1.000000 1.000000 1.000000 1.000000 1.000000 1.000000 1.000000 1.000000 1.000000 1.000000 1.000000 1.000000 0.915547 0.915547 0.904117 0.904117 0.904117 0.904117 0.904117 0.904117 0.904117 0.904117 0.904117 0.904117 0.904117 0.904117 0.904117 0.904117 0.904117 0.904117 0.904117 0.904117 0.904117 0.904117 0.904117 0.904117 0.904117 0.904117 0.904117 0.904117 0.904117 0.904117 0.904117 0.904117 0.904117 0.904117 0.904117 0.904117 0.904117 0.904117 0.904117 0.904117 0.904117 0.904117 0.904117 0.900064 0.904604 0.906617 0.904841 0.908494 0.908591 0.907861 0.908120 0.907711 0.907976 0.909366 0.919982 0.931147 0.941742 0.943161 0.948231 0.952775 0.954979 0.955992 0.957357 0.966757 0.965592 0.965006 0.965736 0.967408 0.969708 0.968179 0.968105 0.971217 0.971984 0.970120 0.968177 0.967540 0.966896 0.966602 0.966154 0.966308 0.966225 0.966719 0.966934 0.966758 0.966893 0.966912 0.965107 0.965308 0.967566 0.968662 0.968416 0.967022 0.960881 0.964837 0.964953 0.964735 0.964629 0.964148 0.964539 0.951609 0.949475 0.949465 0.945290 0.944369 0.942402 0.939946 0.937072 0.937164 0.936835 0.937836 0.933802 0.923410 0.910602 0.896780 0.918899 0.904818 0.890366 0.871037 0.871599 0.870316 0.871106 0.865812 0.859143 0.854600 0.851783 0.852788 0.851115 0.853236 0.851073 0.840170 0.842670 0.840627 0.813040 0.796306 0.780577 0.778637 0.776714 0.778037 0.777328 0.776473 0.784521 0.773648 0.772019 0.764342 0.745696 0.709569 0.695789 0.704781 0.713189 0.719124 0.715451 0.699891 0.666284 0.676745 0.705281 0.698507 0.701232 0.691624 0.683177 0.684112 0.684600 0.675423 0.666145 0.665776 0.663413 0.672202 0.676651 0.676658 0.666351 0.649343 0.635017 0.620882 0.632253 0.635296 0.597986 0.591524 0.578261 0.569764 0.555766 0.539791 0.536893 0.510582 0.501906 0.503712 0.508108 0.511287 0.518461 0.520628 0.505702 0.523858 0.530477 0.557991 0.539872 0.537355 0.538795 0.542447 0.529863 0.512825 0.512773 0.513660 0.523420 0.547813 0.583146 0.566753 0.555616 0.544774 0.548103 0.505831 0.510542 0.529608 0.506400 0.452870 0.402253 0.400964 0.358717 0.356201 0.333600 0.319022 0.312798 0.308909 0.300683 0.286071 0.272534 0.203857 0.162886 0.147015 0.134275 0.130417 0.151554 0.149383 0.152065 0.168874 0.217636 0.216946 0.207629 0.176778 0.167536 0.137852 0.132495 0.154466 0.109908 0.104067 0.095638 0.071317 0.045328 -0.000734 0.023158 -0.066950 -0.089288 -0.091453 -0.070075 -0.057833 -0.057632 -0.056110 -0.093397 -0.088340 -0.048209 -0.043901 -0.053453 -0.109353 -0.086265 -0.074978 -0.075286 -0.092518 -0.103779 -0.095983 -0.108272 -0.107855 -0.104611 -0.060499 0.002229 0.006608 0.000705 -0.002479 -0.013587 -0.023475 -0.013209 0.008152 0.014709 -0.007642 -0.005763 -0.006471 -0.046798 -0.046798 -0.050455 -0.050455 -0.050455 -0.050455 -0.050455 -0.050455 -0.050455 -0.050455 -0.050455 -0.052789 -0.052789 -0.052789 -0.052789 -0.052789 -0.052789 -0.052789 -0.052789 -0.052789 -0.052789 -0.052789 -0.052789 -0.052789 -0.052789 -0.052789 -0.052789 -0.052789 -0.052789
0.000000 0.000000 0.000000 0.000000 0.000000 0.000000 0.000000 0.000000 0.000000 0.000000 0.000000 0.000000 0.000000 0.000000 0.000000 0.000000 0.000000 0.000000 0.000000 0.000000 0.000000 0.000000 0.000000 0.000000 0.000000 0.000000 0.000000 0.000000 0.000000 0.000000 0.000000 0.000000 0.000000 0.000000 0.000000 0.000000 0.000000 0.000000 0.000000 0.000000 0.000000 0.000000 0.000000 0.000000 0.000000 0.000000 0.000000 0.000000 0.000000 0.000000 0.000000 0.000000 0.181818 0.181818 0.199007 0.199007 0.199007 0.199007 0.199007 0.199007 0.199007 0.199007 0.199007 0.199007 0.199007 0.199007 0.199007 0.199007 0.199007 0.199007 0.199007 0.199007 0.199007 0.199007 0.199007 0.199007 0.199007 0.199007 0.199007 0.199007 0.199007 0.199007 0.199007 0.199007 0.199007 0.199007 0.199007 0.199007 0.199007 0.199007 0.199007 0.199007 0.199007 0.199007 0.199007 0.230940 0.230940 0.230940 0.230940 0.230940 0.230940 0.230940 0.230940 0.230940 0.230940 0.230940 0.230940 0.230940 0.230940 0.230940 0.230940 0.230940 0.230940 0.230940 0.230940 0.230940 0.230940 0.230940 0.230940 0.230940 0.230940 0.230940 0.230940 0.244339 0.244339 0.244339 0.244339 0.244339 0.244339 0.244339 0.244339 0.244339 0.244339 0.244339 0.244339 0.244339 0.244339 0.244339 0.244339 0.244339 0.244339 0.244339 0.244339 0.244339 0.244339 0.244339 0.251976 0.251976 0.251976 0.251976 0.251976 0.251976 0.251976 0.251976 0.251976 0.251976 0.251976 0.251976 0.251976 0.251976 0.251976 0.251976 0.251976 0.251976 0.251976 0.251976 0.264906 0.264906 0.264906 0.264906 0.264906 0.264906 0.264906 0.264906 0.264906 0.264906 0.264906 0.264906 0.264906 0.264906 0.264906 0.264906 0.264906 0.264906 0.264906 0.264906 0.264906 0.264906 0.264906 0.264906 0.264906 0.264906 0.264906 0.264906 0.264906 0.264906 0.264906 0.264906 0.264906 0.264906 0.264906 0.264906 0.264906 0.264906 0.264906 0.264906 0.264906 0.264906 0.264906 0.264906 0.264906 0.264906 0.264906 0.264906 0.264906 0.264906 0.264906 0.264906 0.264906 0.264906 0.264906 0.264906 0.264906 0.264906 0.264906 0.264906 0.264906 0.264906 0.264906 0.264906 0.264906 0.264906 0.264906 0.264906 0.264906 0.264906 0.264906 0.264906 0.264906 0.264906 0.264906 0.269680 0.269680 0.269680 0.269680 0.269680 0.269680 0.269680 0.269680 0.269680 0.269680 0.269680 0.269680 0.264906 0.264906 0.264906 0.264906 0.264906 0.264906 0.264906 0.264906 0.264906 0.264906 0.264906 0.264906 0.269680 0.269680 0.269680 0.269680 0.269680 0.269680 0.269680 0.269680 0.269680 0.269680 0.269680 0.264906 0.264906 0.264906 0.264906 0.264906 0.264906 0.264906 0.264906 0.264906 0.264906 0.264906 0.256074 0.256074 0.256074 0.256074 0.256074 0.256074 0.256074 0.256074 0.256074 0.256074 0.256074 0.264906 0.264906 0.264906 0.264906 0.264906 0.264906 0.264906 0.264906 0.264906 0.264906 0.260378 0.260378 0.260378 0.260378 0.260378 0.260378 0.260378 0.260378 0.260378 0.260378 0.264906 0.264906 0.264906 0.264906 0.264906 0.264906 0.264906 0.264906 0.264906 0.260378 0.260378 0.260378 0.260378 0.260378 0.260378 0.260378 0.260378 0.260378 0.256074 0.256074 0.256074 0.256074 0.256074 0.256074 0.256074 0.256074 0.256074 0.251976 0.251976 0.251976 0.251976 0.251976 0.251976 0.251976 0.251976 0.251976 0.251976 0.251976 0.251976 0.251976 0.251976 0.251976 0.251976 0.251976 0.251976
