# Output from CTFFind version 4.1.9, run on 2019-11-01 22:44:28
# Input file: first_bm3d_averaged_1_1.7_1.00_1000_half.mrc ; Number of micrographs: 1
# Pixel size: 3.000 Angstroms ; acceleration voltage: 300.0 keV ; spherical aberration: 0.00 mm ; amplitude contrast: 0.07
# Box size: 512 pixels ; min. res.: 30.0 Angstroms ; max. res.: 5.0 Angstroms ; min. def.: 5000.0 um; max. def. 50000.0 um; num. frames averaged: 1
# 6 lines per micrograph: #1 - spatial frequency (1/Angstroms); #2 - 1D rotational average of spectrum (assuming no astigmatism); #3 - 1D rotational average of spectrum; #4 - CTF fit; #5 - cross-correlation between spectrum and CTF fit; #6 - 2sigma of expected cross correlation of noise
0.000000 0.000651 0.001302 0.001953 0.002604 0.003255 0.003906 0.004557 0.005208 0.005859 0.006510 0.007161 0.007812 0.008464 0.009115 0.009766 0.010417 0.011068 0.011719 0.012370 0.013021 0.013672 0.014323 0.014974 0.015625 0.016276 0.016927 0.017578 0.018229 0.018880 0.019531 0.020182 0.020833 0.021484 0.022135 0.022786 0.023438 0.024089 0.024740 0.025391 0.026042 0.026693 0.027344 0.027995 0.028646 0.029297 0.029948 0.030599 0.031250 0.031901 0.032552 0.033203 0.033854 0.034505 0.035156 0.035807 0.036458 0.037109 0.037760 0.038411 0.039062 0.039714 0.040365 0.041016 0.041667 0.042318 0.042969 0.043620 0.044271 0.044922 0.045573 0.046224 0.046875 0.047526 0.048177 0.048828 0.049479 0.050130 0.050781 0.051432 0.052083 0.052734 0.053385 0.054036 0.054688 0.055339 0.055990 0.056641 0.057292 0.057943 0.058594 0.059245 0.059896 0.060547 0.061198 0.061849 0.062500 0.063151 0.063802 0.064453 0.065104 0.065755 0.066406 0.067057 0.067708 0.068359 0.069010 0.069661 0.070312 0.070964 0.071615 0.072266 0.072917 0.073568 0.074219 0.074870 0.075521 0.076172 0.076823 0.077474 0.078125 0.078776 0.079427 0.080078 0.080729 0.081380 0.082031 0.082682 0.083333 0.083984 0.084635 0.085286 0.085938 0.086589 0.087240 0.087891 0.088542 0.089193 0.089844 0.090495 0.091146 0.091797 0.092448 0.093099 0.093750 0.094401 0.095052 0.095703 0.096354 0.097005 0.097656 0.098307 0.098958 0.099609 0.100260 0.100911 0.101562 0.102214 0.102865 0.103516 0.104167 0.104818 0.105469 0.106120 0.106771 0.107422 0.108073 0.108724 0.109375 0.110026 0.110677 0.111328 0.111979 0.112630 0.113281 0.113932 0.114583 0.115234 0.115885 0.116536 0.117188 0.117839 0.118490 0.119141 0.119792 0.120443 0.121094 0.121745 0.122396 0.123047 0.123698 0.124349 0.125000 0.125651 0.126302 0.126953 0.127604 0.128255 0.128906 0.129557 0.130208 0.130859 0.131510 0.132161 0.132812 0.133464 0.134115 0.134766 0.135417 0.136068 0.136719 0.137370 0.138021 0.138672 0.139323 0.139974 0.140625 0.141276 0.141927 0.142578 0.143229 0.143880 0.144531 0.145182 0.145833 0.146484 0.147135 0.147786 0.148438 0.149089 0.149740 0.150391 0.151042 0.151693 0.152344 0.152995 0.153646 0.154297 0.154948 0.155599 0.156250 0.156901 0.157552 0.158203 0.158854 0.159505 0.160156 0.160807 0.161458 0.162109 0.162760 0.163411 0.164062 0.164714 0.165365 0.166016 0.166667 0.167318 0.167969 0.168620 0.169271 0.169922 0.170573 0.171224 0.171875 0.172526 0.173177 0.173828 0.174479 0.175130 0.175781 0.176432 0.177083 0.177734 0.178385 0.179036 0.179688 0.180339 0.180990 0.181641 0.182292 0.182943 0.183594 0.184245 0.184896 0.185547 0.186198 0.186849 0.187500 0.188151 0.188802 0.189453 0.190104 0.190755 0.191406 0.192057 0.192708 0.193359 0.194010 0.194661 0.195312 0.195964 0.196615 0.197266 0.197917 0.198568 0.199219 0.199870 0.200521 0.201172 0.201823 0.202474 0.203125 0.203776 0.204427 0.205078 0.205729 0.206380 0.207031 0.207682 0.208333 0.208984 0.209635 0.210286 0.210938 0.211589 0.212240 0.212891 0.213542 0.214193 0.214844 0.215495 0.216146 0.216797 0.217448 0.218099 0.218750 0.219401 0.220052 0.220703 0.221354 0.222005 0.222656 0.223307 0.223958 0.224609 0.225260 0.225911 0.226562 0.227214 0.227865 0.228516 0.229167 0.229818 0.230469 0.231120 0.231771 0.232422 0.233073 0.233724 0.234375 0.235026 0.235677
       0.32873        0.32873        0.32873        0.32873        0.32873        0.32873        0.32873        0.32873        0.32873        0.32873        0.32873        0.32873        0.32873        0.32873        0.32873        0.32873        0.32873        0.32873        0.32873        0.32873        0.32873        0.32873        0.32873        0.32873        0.32873        0.32873        0.32873        0.32873        0.32873        0.32873        0.32873        0.32873        0.32873        0.32873        0.32873        0.32873        0.32873        0.32873        0.32873        0.32873        0.32873        0.32873        0.32873        0.32873        0.32873        0.32873        0.32873        0.32873        0.32873        0.32873        0.32873        0.49752        0.71501        0.42158        0.18859       -0.08060       -0.26138       -0.07053       -0.13184       -0.06288       -0.00448       -0.15304       -0.10437       -0.05113       -0.00499       -0.15668       -0.22747       -0.34463       -0.46858       -0.57205       -0.52600       -0.45845       -0.37752       -0.55989       -0.45738       -0.62632       -0.51146       -0.47817       -0.39810       -0.38469       -0.33869       -0.24969       -0.17025       -0.14468        0.02579       -0.01928        0.11253        0.16541        0.30518        0.41281        0.46246        0.49755        0.54033        0.54821        0.68779        0.64132        0.67498        0.58634        0.55492        0.64805        0.52269        0.42775        0.38818        0.31027        0.22830        0.25739        0.24752        0.09651        0.07820       -0.00235       -0.01199        0.02800       -0.01553        0.06454        0.08750        0.22497        0.28124        0.29272        0.38540        0.56408        0.53730        0.57219        0.66548        0.69223        0.62586        0.63439        0.63410        0.54260        0.56717        0.39267        0.34694        0.26093        0.18177        0.07232        0.13908        0.10931        0.09645        0.10920        0.20175        0.19607        0.31080        0.35052        0.40800        0.48699        0.56609        0.54247        0.55192        0.60212        0.53134        0.45993        0.47865        0.32037        0.24577        0.25211        0.24011        0.13500        0.13844        0.14745        0.21812        0.24579        0.33034        0.37305        0.39546        0.45708        0.44258        0.47462        0.44276        0.47049        0.44206        0.39355        0.36927        0.35989        0.31834        0.28486        0.20443        0.20301        0.22199        0.26448        0.25507        0.34105        0.37223        0.35027        0.40660        0.45094        0.44011        0.42483        0.43859        0.35895        0.32823        0.27853        0.25405        0.28602        0.25668        0.28829        0.29795        0.33907        0.33027        0.39440        0.38787        0.42054        0.40549        0.43803        0.40185        0.36329        0.27720        0.28174        0.29129        0.27169        0.25516        0.32683        0.36270        0.33198        0.35760        0.36403        0.34567        0.40613        0.39572        0.36050        0.33747        0.30228        0.30899        0.31576        0.30727        0.29986        0.28301        0.33388        0.35364        0.36825        0.33458        0.33023        0.33109        0.34829        0.30860        0.28103        0.30677        0.31630        0.32724        0.31889        0.32952        0.35090        0.32731        0.31637        0.33098        0.29821        0.25499        0.24325        0.26217        0.30174        0.31709        0.35663        0.29469        0.30174        0.32334        0.28781        0.31625        0.28993        0.27423        0.28164        0.28835        0.30325        0.34138        0.31661        0.32329        0.32245        0.32351        0.33288        0.31338        0.31810        0.31865        0.26944        0.28529        0.30310        0.28119        0.31675        0.32145        0.33244        0.31821        0.34768        0.32861        0.28181        0.23830        0.26972        0.32787        0.35239        0.34642        0.31694        0.29125        0.30044        0.31082        0.25147        0.28769        0.29805        0.31547        0.28769        0.28742        0.26322        0.32795        0.33385        0.33521        0.31188        0.29461        0.30020        0.38868        0.33725        0.31146        0.30106        0.30488        0.28710        0.29325        0.28769        0.29937        0.22611        0.26375        0.30041        0.31350        0.29412        0.26618        0.27855        0.22778        0.22239        0.28011        0.30854        0.30069        0.29822        0.28354        0.32927        0.25098        0.22154        0.27830        0.24282        0.26831        0.27481        0.35721        0.26428        0.28667        0.27010        0.23182        0.26616        0.26335        0.23236        0.17348        0.21851        0.21947        0.24374        0.30167        0.26609        0.33877        0.31587        0.27155        0.25123        0.20084        0.24998        0.27820        0.21990        0.16581        0.21283        0.23798        0.20876        0.28913        0.23925        0.04574       -0.42545       -0.92196
2.630178 2.602577 2.575123 2.547817 2.520658 2.493647 2.466783 2.440067 2.413498 2.387076 2.360802 2.334676 2.308696 2.282865 2.257180 2.231644 2.206254 2.181012 2.155918 2.130971 2.106171 2.081519 2.057015 2.032657 2.008448 1.984385 1.960470 1.936703 1.913083 1.889610 1.866285 1.843108 1.820078 1.797195 1.774460 1.751872 1.729431 1.707138 1.684993 1.662995 1.641144 1.619441 1.597885 1.576477 1.555216 1.534103 1.513137 1.492318 1.471647 1.451124 1.430748 1.498287 1.802434 1.497533 1.141051 0.924171 0.533897 0.895923 0.627841 0.848530 0.907473 0.579243 0.682753 0.768086 0.809596 0.610629 0.520980 0.347640 0.094576 0.062955 0.035756 0.063948 0.292554 -0.045282 0.067226 -0.134782 -0.025588 -0.017383 0.069275 0.062917 0.105469 0.176629 0.273793 0.240492 0.471762 0.390666 0.537879 0.524742 0.763571 0.783768 0.871392 0.925552 0.925641 0.944550 1.076989 0.968582 1.131070 0.936869 0.848675 1.005924 0.840246 0.753617 0.627327 0.584280 0.457559 0.414624 0.503142 0.261863 0.198131 0.164574 0.013566 0.201834 -0.007100 0.117311 0.170689 0.256796 0.339876 0.341997 0.432509 0.546594 0.671014 0.536102 0.735771 0.858409 0.635311 0.699295 0.674103 0.585977 0.533755 0.463927 0.309159 0.214229 0.125865 -0.029312 -0.013149 0.052892 -0.077375 -0.051770 0.063722 0.047158 0.106147 0.222515 0.239794 0.316060 0.420736 0.434759 0.461138 0.465574 0.451220 0.324867 0.337143 0.247269 0.049347 0.067291 0.021635 -0.042153 -0.098952 -0.088591 -0.015851 -0.038912 0.083524 0.135435 0.145356 0.257316 0.222080 0.253846 0.284533 0.254276 0.247537 0.218300 0.158073 0.122872 0.122169 0.031674 0.022806 -0.106385 -0.037402 0.014766 -0.000973 0.016387 0.107525 0.079428 0.129469 0.200747 0.267004 0.165970 0.198939 0.111607 0.131012 0.025994 -0.034830 0.015750 -0.016746 -0.001023 -0.002737 0.036191 0.068652 0.061705 0.142367 0.104620 0.160670 0.079599 0.157635 0.095204 -0.003028 -0.054238 -0.027867 -0.035833 -0.065096 -0.060018 0.060084 0.056237 -0.010328 0.069775 0.063086 0.067627 0.144057 0.069035 0.075109 0.046219 -0.020956 0.033424 0.000230 0.010403 0.010184 -0.001256 0.051159 0.056923 0.063173 0.036168 0.044322 0.013738 0.069271 -0.008939 -0.017346 0.023542 0.012226 0.052641 0.039188 0.038383 0.063521 0.034523 0.014670 0.036965 -0.010236 -0.057022 -0.043804 -0.026897 0.015810 0.032168 0.106586 -0.011117 0.048055 0.046574 0.003306 0.065250 0.027769 0.008003 0.036408 0.050271 0.048338 0.097639 0.052028 0.079985 0.076956 0.099666 0.066599 0.079128 0.093140 0.051627 -0.005938 0.057901 0.041976 0.041675 0.080394 0.094602 0.014709 0.067306 0.095550 0.037157 0.027436 -0.069862 0.001033 0.115272 0.085797 0.079038 0.053284 0.000923 0.049876 0.041502 -0.045634 0.047758 0.041879 0.064227 0.043894 -0.017764 -0.001223 0.049452 0.061985 0.027410 0.046015 -0.020269 0.062024 0.119759 0.040295 -0.001395 0.009580 0.004247 -0.015171 -0.023708 -0.013611 -0.019700 -0.099936 -0.031526 -0.007074 0.024463 -0.033186 -0.041681 -0.012175 -0.068330 -0.031974 -0.040999 0.053130 0.016917 0.032955 -0.002039 0.083778 -0.074573 -0.041110 -0.004803 -0.046969 0.019949 -0.009486 0.141387 -0.067923 0.003404 0.046749 -0.054141 0.001133 -0.001058 -0.039982 -0.141734 -0.035503 -0.042881 -0.021296 0.018619 -0.013135 0.127458 0.055523 0.039171 -0.062888 -0.062346 -0.026345 0.007387 0.261461 0.197078 0.259016 0.246435 0.289187 0.306453 0.249519 0.055603 -1.070056
0.072396 0.072910 0.074450 0.077017 0.080610 0.085229 0.090871 0.097535 0.105218 0.113919 0.123633 0.134355 0.146081 0.158803 0.172513 0.187202 0.202857 0.219466 0.237011 0.255476 0.274838 0.295073 0.316154 0.338050 0.360724 0.384139 0.408249 0.433006 0.458356 0.484240 0.510592 0.537342 0.564413 0.591720 0.619173 0.646675 0.674122 0.701403 0.728398 0.754983 0.781025 0.806385 0.830915 0.854464 0.876871 0.897973 0.917599 0.935575 0.951722 0.965860 0.977806 0.987375 0.994383 0.998650 0.999995 0.998245 0.993233 0.984798 0.972793 0.957079 0.937536 0.914056 0.886554 0.854962 0.819241 0.779372 0.735369 0.687273 0.635161 0.579141 0.519361 0.456005 0.389298 0.319507 0.246937 0.171938 0.094904 0.016266 0.063501 0.143883 0.224328 0.304252 0.383038 0.460041 0.534597 0.606022 0.673622 0.736700 0.794561 0.846525 0.891928 0.930138 0.960562 0.982655 0.995932 0.999975 0.994448 0.979101 0.953784 0.918453 0.873177 0.818151 0.753693 0.680253 0.598416 0.508901 0.412560 0.310375 0.203453 0.093015 0.019613 0.133013 0.245691 0.356095 0.462638 0.563719 0.657748 0.743171 0.818503 0.882350 0.933443 0.970666 0.993083 0.999964 0.990814 0.965392 0.923727 0.866141 0.793250 0.705975 0.605535 0.493447 0.371504 0.241760 0.106497 0.031804 0.170511 0.306885 0.438129 0.561456 0.674143 0.773593 0.857407 0.923443 0.969879 0.995274 0.998618 0.979376 0.937526 0.873586 0.788623 0.684255 0.562631 0.426410 0.278703 0.123026 0.036789 0.196672 0.352421 0.499812 0.634712 0.753204 0.851707 0.927092 0.976796 0.998922 0.992323 0.956670 0.892496 0.801217 0.685124 0.547347 0.391792 0.223045 0.046248 0.133040 0.309025 0.475848 0.627797 0.759497 0.866122 0.943577 0.988679 0.999303 0.974504 0.914593 0.821178 0.697148 0.546621 0.374822 0.187932 0.007122 0.202912 0.391783 0.566158 0.718841 0.843336 0.934132 0.986973 0.999083 0.969338 0.898371 0.788606 0.644220 0.471012 0.276203 0.068162 0.143937 0.350519 0.542020 0.709357 0.844354 0.940182 0.991717 0.995856 0.951734 0.860837 0.727012 0.556342 0.356915 0.138475 0.088039 0.311009 0.518750 0.700109 0.845094 0.945447 0.995145 0.990807 0.931961 0.821162 0.663938 0.468571 0.245700 0.007782 0.231586 0.458431 0.659218 0.821683 0.935604 0.993487 0.991105 0.927855 0.806904 0.635095 0.422630 0.182497 0.070264 0.319497 0.548948 0.743336 0.889390 0.976808 0.999022 0.953759 0.843311 0.674510 0.458366 0.209419 0.055200 0.316903 0.556965 0.757857 0.904560 0.985738 0.994670 0.929882 0.795390 0.600540 0.359444 0.090015 0.187310 0.451118 0.680645 0.857450 0.966948 0.999665 0.952141 0.827360 0.634677 0.389197 0.110669 0.178040 0.452810 0.690272 0.869824 0.975472 0.997329 0.932627 0.786133 0.569910 0.302426 0.007051 0.289945 0.561683 0.783140 0.933483 0.998112 0.970158 0.851313 0.651876 0.389968 0.089989 0.219601 0.508942 0.749648 0.917654 0.995676 0.975096 0.857021 0.652390 0.381093 0.070135 0.248976 0.543388 0.782296 0.940211 0.999766 0.953742 0.806052 0.571580 0.274793 0.052682 0.375394 0.657852 0.868485 0.983219 0.988353 0.882314 0.676107 0.392313 0.062752 0.274998 0.581848 0.821730 0.965903 0.996506 0.908905 0.712524 0.430005 0.094735 0.252990 0.570776 0.819284 0.967183 0.995214 0.898845 0.689137 0.391665 0.043536 0.311116 0.626702 0.862045 0.985838 0.980943 0.846932 0.600473 0.273438 0.091064 0.444286 0.738332 0.932704 0.999995
1.000000 1.000000 1.000000 1.000000 1.000000 1.000000 1.000000 1.000000 1.000000 1.000000 1.000000 1.000000 1.000000 1.000000 1.000000 1.000000 1.000000 1.000000 1.000000 1.000000 1.000000 1.000000 1.000000 1.000000 1.000000 1.000000 1.000000 1.000000 1.000000 1.000000 1.000000 1.000000 1.000000 1.000000 1.000000 1.000000 1.000000 1.000000 1.000000 1.000000 1.000000 1.000000 1.000000 1.000000 1.000000 1.000000 1.000000 1.000000 1.000000 1.000000 1.000000 1.000000 0.915322 0.915322 0.903505 0.903505 0.903505 0.903505 0.903505 0.903505 0.903505 0.903505 0.903505 0.903505 0.903505 0.903505 0.903505 0.903505 0.903505 0.903505 0.903505 0.903505 0.903505 0.903505 0.903505 0.903505 0.903505 0.903505 0.903505 0.903505 0.903505 0.903505 0.903505 0.903505 0.903505 0.903505 0.903505 0.903505 0.903505 0.903505 0.903505 0.903505 0.903505 0.903505 0.903505 0.901944 0.906474 0.908449 0.906680 0.910289 0.910381 0.908053 0.907662 0.907259 0.907534 0.908931 0.919539 0.930689 0.941261 0.942469 0.947579 0.952039 0.954269 0.955226 0.956592 0.966048 0.963568 0.963072 0.963834 0.965571 0.967899 0.966411 0.966304 0.968725 0.969537 0.967694 0.965687 0.965002 0.964314 0.963996 0.963545 0.963698 0.963619 0.964129 0.964384 0.964646 0.964788 0.964813 0.963065 0.963216 0.965559 0.966744 0.966525 0.965098 0.958925 0.962785 0.962829 0.962583 0.962498 0.962059 0.962458 0.947384 0.943368 0.943357 0.937718 0.936617 0.933046 0.931776 0.930094 0.930521 0.930128 0.931463 0.928557 0.917209 0.904443 0.890926 0.911529 0.900930 0.886741 0.865357 0.865369 0.862541 0.863291 0.858076 0.850759 0.845595 0.842296 0.843275 0.845228 0.849543 0.847711 0.835955 0.839209 0.835734 0.805388 0.794015 0.777914 0.776850 0.774723 0.775924 0.774472 0.772185 0.780169 0.768903 0.767971 0.759661 0.742663 0.711497 0.701090 0.709899 0.718047 0.725112 0.721935 0.706854 0.663684 0.675480 0.703622 0.694344 0.696970 0.690724 0.685691 0.688478 0.688853 0.681791 0.674704 0.674228 0.672743 0.678020 0.683641 0.675910 0.667652 0.654873 0.640893 0.625621 0.637862 0.638102 0.603616 0.598523 0.587935 0.579243 0.573104 0.552160 0.549376 0.523241 0.511462 0.508612 0.507146 0.510635 0.516613 0.518340 0.501704 0.517627 0.516878 0.544876 0.515993 0.514506 0.515851 0.522955 0.509576 0.496322 0.489464 0.490430 0.498870 0.524420 0.553448 0.535707 0.524457 0.516648 0.529562 0.508618 0.519718 0.548525 0.524370 0.460598 0.411087 0.407230 0.365586 0.361658 0.340287 0.329896 0.325286 0.320222 0.308788 0.295578 0.280469 0.237959 0.198100 0.178528 0.157238 0.166837 0.189847 0.181131 0.188735 0.230368 0.275615 0.281015 0.270889 0.247930 0.229160 0.187107 0.183818 0.198775 0.154955 0.151304 0.143065 0.125242 0.110541 0.064728 0.101985 0.004788 -0.007685 -0.011485 0.010900 0.010066 0.010544 0.012180 -0.020054 -0.017825 0.010388 0.013358 0.005649 -0.043945 -0.019675 -0.005024 -0.008664 -0.036846 -0.069469 -0.073971 -0.102753 -0.103844 -0.089626 -0.059114 0.005683 0.011687 0.004672 0.039881 0.047400 0.028020 0.025725 -0.000514 -0.014665 -0.035387 -0.050719 -0.088072 -0.118314 -0.118314 -0.106336 -0.106336 -0.106336 -0.106336 -0.106336 -0.106336 -0.106336 -0.106336 -0.106336 -0.110261 -0.110261 -0.110261 -0.110261 -0.110261 -0.110261 -0.110261 -0.110261 -0.110261 -0.087576 -0.087576 -0.087576 -0.087576 -0.087576 -0.087576 -0.087576 -0.087576 -0.087576
0.000000 0.000000 0.000000 0.000000 0.000000 0.000000 0.000000 0.000000 0.000000 0.000000 0.000000 0.000000 0.000000 0.000000 0.000000 0.000000 0.000000 0.000000 0.000000 0.000000 0.000000 0.000000 0.000000 0.000000 0.000000 7.000000 4.000000 0.000000 0.000000 0.000000 0.000000 0.000000 0.000000 0.000000 0.000000 0.000000 0.000000 0.000000 0.000000 0.000000 0.000000 0.000000 0.000000 0.000000 0.000000 0.000000 0.000000 0.000000 0.000000 0.000000 0.000000 0.000000 0.181818 0.181818 0.199007 0.199007 0.199007 0.199007 0.199007 0.199007 0.199007 0.199007 0.199007 0.199007 0.199007 0.199007 0.199007 0.199007 0.199007 0.199007 0.199007 0.199007 0.199007 0.199007 0.199007 0.199007 0.199007 0.199007 0.199007 0.199007 0.199007 0.199007 0.199007 0.199007 0.199007 0.199007 0.199007 0.199007 0.199007 0.199007 0.199007 0.199007 0.199007 0.199007 0.199007 0.230940 0.230940 0.230940 0.230940 0.230940 0.230940 0.230940 0.230940 0.230940 0.230940 0.230940 0.230940 0.230940 0.230940 0.230940 0.230940 0.230940 0.230940 0.230940 0.230940 0.230940 0.230940 0.230940 0.230940 0.230940 0.230940 0.230940 0.230940 0.244339 0.244339 0.244339 0.244339 0.244339 0.244339 0.244339 0.244339 0.244339 0.244339 0.244339 0.244339 0.244339 0.244339 0.244339 0.244339 0.244339 0.244339 0.244339 0.244339 0.244339 0.244339 0.244339 0.251976 0.251976 0.251976 0.251976 0.251976 0.251976 0.251976 0.251976 0.251976 0.251976 0.251976 0.251976 0.251976 0.251976 0.251976 0.251976 0.251976 0.251976 0.251976 0.251976 0.264906 0.264906 0.264906 0.264906 0.264906 0.264906 0.264906 0.264906 0.264906 0.264906 0.264906 0.264906 0.264906 0.264906 0.264906 0.264906 0.264906 0.264906 0.264906 0.264906 0.264906 0.264906 0.264906 0.264906 0.264906 0.264906 0.264906 0.264906 0.264906 0.264906 0.264906 0.264906 0.264906 0.264906 0.264906 0.264906 0.264906 0.264906 0.264906 0.264906 0.264906 0.264906 0.264906 0.264906 0.264906 0.264906 0.264906 0.264906 0.264906 0.264906 0.264906 0.264906 0.264906 0.264906 0.264906 0.264906 0.264906 0.264906 0.264906 0.264906 0.264906 0.264906 0.264906 0.264906 0.264906 0.264906 0.264906 0.264906 0.264906 0.264906 0.264906 0.264906 0.264906 0.264906 0.264906 0.269680 0.269680 0.269680 0.269680 0.269680 0.269680 0.269680 0.269680 0.269680 0.269680 0.269680 0.269680 0.264906 0.264906 0.264906 0.264906 0.264906 0.264906 0.264906 0.264906 0.264906 0.264906 0.264906 0.264906 0.269680 0.269680 0.269680 0.269680 0.269680 0.269680 0.269680 0.269680 0.269680 0.269680 0.269680 0.264906 0.264906 0.264906 0.264906 0.264906 0.264906 0.264906 0.264906 0.264906 0.264906 0.264906 0.256074 0.256074 0.256074 0.256074 0.256074 0.256074 0.256074 0.256074 0.256074 0.256074 0.256074 0.264906 0.264906 0.264906 0.264906 0.264906 0.264906 0.264906 0.264906 0.264906 0.264906 0.260378 0.260378 0.260378 0.260378 0.260378 0.260378 0.260378 0.260378 0.260378 0.260378 0.264906 0.264906 0.264906 0.264906 0.264906 0.264906 0.264906 0.264906 0.264906 0.260378 0.260378 0.260378 0.260378 0.260378 0.260378 0.260378 0.260378 0.260378 0.256074 0.256074 0.256074 0.256074 0.256074 0.256074 0.256074 0.256074 0.256074 0.251976 0.251976 0.251976 0.251976 0.251976 0.251976 0.251976 0.251976 0.251976 0.264906 0.264906 0.264906 0.264906 0.264906 0.264906 0.264906 0.264906 0.264906
