# Output from CTFFind version 4.1.9, run on 2019-11-01 22:43:46
# Input file: first_bm3d_averaged_1_1.2_1.00_3000_half.mrc ; Number of micrographs: 1
# Pixel size: 3.000 Angstroms ; acceleration voltage: 300.0 keV ; spherical aberration: 0.00 mm ; amplitude contrast: 0.07
# Box size: 512 pixels ; min. res.: 30.0 Angstroms ; max. res.: 5.0 Angstroms ; min. def.: 5000.0 um; max. def. 50000.0 um; num. frames averaged: 1
# 6 lines per micrograph: #1 - spatial frequency (1/Angstroms); #2 - 1D rotational average of spectrum (assuming no astigmatism); #3 - 1D rotational average of spectrum; #4 - CTF fit; #5 - cross-correlation between spectrum and CTF fit; #6 - 2sigma of expected cross correlation of noise
0.000000 0.000651 0.001302 0.001953 0.002604 0.003255 0.003906 0.004557 0.005208 0.005859 0.006510 0.007161 0.007812 0.008464 0.009115 0.009766 0.010417 0.011068 0.011719 0.012370 0.013021 0.013672 0.014323 0.014974 0.015625 0.016276 0.016927 0.017578 0.018229 0.018880 0.019531 0.020182 0.020833 0.021484 0.022135 0.022786 0.023438 0.024089 0.024740 0.025391 0.026042 0.026693 0.027344 0.027995 0.028646 0.029297 0.029948 0.030599 0.031250 0.031901 0.032552 0.033203 0.033854 0.034505 0.035156 0.035807 0.036458 0.037109 0.037760 0.038411 0.039062 0.039714 0.040365 0.041016 0.041667 0.042318 0.042969 0.043620 0.044271 0.044922 0.045573 0.046224 0.046875 0.047526 0.048177 0.048828 0.049479 0.050130 0.050781 0.051432 0.052083 0.052734 0.053385 0.054036 0.054688 0.055339 0.055990 0.056641 0.057292 0.057943 0.058594 0.059245 0.059896 0.060547 0.061198 0.061849 0.062500 0.063151 0.063802 0.064453 0.065104 0.065755 0.066406 0.067057 0.067708 0.068359 0.069010 0.069661 0.070312 0.070964 0.071615 0.072266 0.072917 0.073568 0.074219 0.074870 0.075521 0.076172 0.076823 0.077474 0.078125 0.078776 0.079427 0.080078 0.080729 0.081380 0.082031 0.082682 0.083333 0.083984 0.084635 0.085286 0.085938 0.086589 0.087240 0.087891 0.088542 0.089193 0.089844 0.090495 0.091146 0.091797 0.092448 0.093099 0.093750 0.094401 0.095052 0.095703 0.096354 0.097005 0.097656 0.098307 0.098958 0.099609 0.100260 0.100911 0.101562 0.102214 0.102865 0.103516 0.104167 0.104818 0.105469 0.106120 0.106771 0.107422 0.108073 0.108724 0.109375 0.110026 0.110677 0.111328 0.111979 0.112630 0.113281 0.113932 0.114583 0.115234 0.115885 0.116536 0.117188 0.117839 0.118490 0.119141 0.119792 0.120443 0.121094 0.121745 0.122396 0.123047 0.123698 0.124349 0.125000 0.125651 0.126302 0.126953 0.127604 0.128255 0.128906 0.129557 0.130208 0.130859 0.131510 0.132161 0.132812 0.133464 0.134115 0.134766 0.135417 0.136068 0.136719 0.137370 0.138021 0.138672 0.139323 0.139974 0.140625 0.141276 0.141927 0.142578 0.143229 0.143880 0.144531 0.145182 0.145833 0.146484 0.147135 0.147786 0.148438 0.149089 0.149740 0.150391 0.151042 0.151693 0.152344 0.152995 0.153646 0.154297 0.154948 0.155599 0.156250 0.156901 0.157552 0.158203 0.158854 0.159505 0.160156 0.160807 0.161458 0.162109 0.162760 0.163411 0.164062 0.164714 0.165365 0.166016 0.166667 0.167318 0.167969 0.168620 0.169271 0.169922 0.170573 0.171224 0.171875 0.172526 0.173177 0.173828 0.174479 0.175130 0.175781 0.176432 0.177083 0.177734 0.178385 0.179036 0.179688 0.180339 0.180990 0.181641 0.182292 0.182943 0.183594 0.184245 0.184896 0.185547 0.186198 0.186849 0.187500 0.188151 0.188802 0.189453 0.190104 0.190755 0.191406 0.192057 0.192708 0.193359 0.194010 0.194661 0.195312 0.195964 0.196615 0.197266 0.197917 0.198568 0.199219 0.199870 0.200521 0.201172 0.201823 0.202474 0.203125 0.203776 0.204427 0.205078 0.205729 0.206380 0.207031 0.207682 0.208333 0.208984 0.209635 0.210286 0.210938 0.211589 0.212240 0.212891 0.213542 0.214193 0.214844 0.215495 0.216146 0.216797 0.217448 0.218099 0.218750 0.219401 0.220052 0.220703 0.221354 0.222005 0.222656 0.223307 0.223958 0.224609 0.225260 0.225911 0.226562 0.227214 0.227865 0.228516 0.229167 0.229818 0.230469 0.231120 0.231771 0.232422 0.233073 0.233724 0.234375 0.235026 0.235677
       0.33589        0.33589        0.33589        0.33589        0.33589        0.33589        0.33589        0.33589        0.33589        0.33589        0.33589        0.33589        0.33589        0.33589        0.33589        0.33589        0.33589        0.33589        0.33589        0.33589        0.33589        0.33589        0.33589        0.33589        0.33589        0.33589        0.33589        0.33589        0.33589        0.33589        0.33589        0.33589        0.33589        0.33589        0.33589        0.33589        0.33589        0.33589        0.33589        0.33589        0.33589        0.33589        0.33589        0.33589        0.33589        0.33589        0.33589        0.33589        0.33589        0.33589        0.33589        0.50340        0.71852        0.43067        0.19277       -0.07826       -0.26066       -0.06677       -0.12969       -0.05342        0.00075       -0.14370       -0.09052       -0.04464        0.00288       -0.14807       -0.21613       -0.34123       -0.46076       -0.55863       -0.51634       -0.44871       -0.36904       -0.54429       -0.44472       -0.61840       -0.49846       -0.47112       -0.38932       -0.37917       -0.33802       -0.24408       -0.15744       -0.13659        0.03491       -0.00944        0.12243        0.17250        0.30722        0.41118        0.46621        0.49479        0.54188        0.55032        0.69721        0.64919        0.68171        0.59018        0.55709        0.65636        0.52996        0.43073        0.38906        0.32366        0.23267        0.26886        0.25590        0.10810        0.08804        0.00280       -0.00456        0.03807       -0.00129        0.07897        0.09730        0.23412        0.28429        0.31049        0.38697        0.56075        0.54006        0.58163        0.67240        0.69736        0.63185        0.63769        0.63561        0.55067        0.57605        0.39483        0.35088        0.26994        0.18804        0.07522        0.14795        0.12235        0.09552        0.10971        0.21115        0.21136        0.31823        0.35961        0.41659        0.49798        0.58555        0.54724        0.56002        0.61004        0.54668        0.46819        0.48178        0.32740        0.25426        0.25753        0.24519        0.14704        0.15100        0.15644        0.22690        0.25333        0.33268        0.36725        0.39303        0.46902        0.45050        0.47978        0.45095        0.47264        0.44709        0.40791        0.38065        0.35748        0.31586        0.28880        0.20801        0.20581        0.22757        0.27243        0.26863        0.34933        0.37847        0.36016        0.41272        0.46065        0.45273        0.42520        0.43972        0.36741        0.34003        0.28568        0.26526        0.29135        0.27032        0.29846        0.30402        0.35189        0.34127        0.40645        0.40808        0.42812        0.41310        0.43282        0.40757        0.36941        0.28836        0.29636        0.31135        0.28253        0.25996        0.33599        0.37604        0.34177        0.35659        0.36477        0.35538        0.40725        0.40296        0.36249        0.34383        0.31417        0.31460        0.31811        0.31415        0.29994        0.28921        0.34147        0.36093        0.37909        0.33744        0.32995        0.33793        0.34688        0.30834        0.28208        0.30874        0.32166        0.33653        0.32565        0.33623        0.35773        0.33532        0.31982        0.33304        0.30499        0.26467        0.25456        0.26757        0.30693        0.32557        0.35352        0.30226        0.31724        0.34010        0.29776        0.32357        0.29609        0.28826        0.29481        0.30176        0.31153        0.34738        0.32363        0.32994        0.33430        0.32237        0.33771        0.31932        0.32335        0.31533        0.28265        0.29738        0.31698        0.29469        0.33180        0.33772        0.33544        0.31704        0.34369        0.32309        0.27528        0.25376        0.27661        0.33346        0.36582        0.35342        0.31841        0.29489        0.29910        0.31793        0.25333        0.29744        0.30226        0.32625        0.29834        0.31879        0.28215        0.33829        0.34658        0.34557        0.33229        0.29980        0.31769        0.39803        0.33448        0.31911        0.31248        0.29889        0.28463        0.29859        0.27519        0.31100        0.23774        0.28082        0.29810        0.31114        0.29841        0.28332        0.29924        0.24509        0.23523        0.26841        0.31346        0.30833        0.30330        0.28583        0.33973        0.25459        0.21915        0.31355        0.27360        0.26458        0.27618        0.38881        0.29483        0.28653        0.26001        0.24503        0.26080        0.24114        0.23451        0.16063        0.24371        0.23803        0.25285        0.31700        0.28820        0.34189        0.29413        0.27801        0.25970        0.23105        0.24161        0.28299        0.22151        0.11851        0.15252        0.24729        0.23334        0.33557        0.29867        0.04943       -0.41786       -0.94065
2.728885 2.699961 2.671194 2.642583 2.614128 2.585829 2.557686 2.529698 2.501867 2.474192 2.446673 2.419310 2.392103 2.365052 2.338157 2.311418 2.284835 2.258408 2.232137 2.206022 2.180064 2.154261 2.128614 2.103123 2.077788 2.052610 2.027587 2.002720 1.978010 1.953455 1.929056 1.904814 1.880727 1.856796 1.833022 1.809403 1.785941 1.762634 1.739484 1.716489 1.693651 1.670969 1.648442 1.626072 1.603858 1.581799 1.559897 1.538151 1.516560 1.495126 1.473848 1.542984 1.842983 1.537431 1.202284 0.950249 0.548800 0.921556 0.642498 0.880177 0.936147 0.599056 0.715764 0.793678 0.832850 0.635142 0.547922 0.353108 0.105363 0.078309 0.044627 0.077149 0.304308 -0.032867 0.085447 -0.135786 -0.012637 -0.015755 0.079041 0.069227 0.098235 0.181237 0.287447 0.251700 0.484523 0.400988 0.553700 0.531697 0.775275 0.794479 0.884828 0.923652 0.944264 0.951195 1.129453 0.943844 1.153740 0.951500 0.854104 1.023948 0.853387 0.765294 0.623651 0.599582 0.458168 0.424659 0.513723 0.265687 0.203525 0.157341 0.009752 0.206713 -0.005483 0.123168 0.178321 0.256110 0.333229 0.352893 0.434588 0.539828 0.668540 0.540035 0.746238 0.858642 0.641492 0.702831 0.670533 0.589081 0.543395 0.459495 0.301611 0.218764 0.117657 -0.044917 -0.015717 0.054851 -0.095735 -0.059681 0.048154 0.050063 0.113862 0.215601 0.241098 0.313804 0.448161 0.454203 0.437620 0.475621 0.459849 0.339714 0.333153 0.244976 0.054728 0.060025 0.015011 -0.043774 -0.094503 -0.095141 -0.012248 -0.045624 0.076240 0.127980 0.115356 0.263718 0.231396 0.244808 0.278464 0.241816 0.233664 0.211905 0.160190 0.108955 0.103289 0.021368 0.003617 -0.117789 -0.050060 0.003231 -0.004768 0.022335 0.092727 0.081130 0.118336 0.215153 0.269340 0.180023 0.182840 0.109109 0.143930 0.026433 -0.035464 0.026906 -0.024512 0.014836 -0.004119 0.041043 0.086738 0.056226 0.167533 0.108768 0.184588 0.077519 0.161081 0.104780 0.008714 -0.047536 -0.001439 -0.017425 -0.053132 -0.057214 0.078992 0.073655 -0.000325 0.093949 0.078576 0.075000 0.155023 0.081925 0.076666 0.068866 -0.007943 0.037827 0.009000 0.021780 0.010180 0.009424 0.057531 0.085686 0.077915 0.042827 0.054871 0.035845 0.071436 -0.001438 -0.007081 0.032745 0.030620 0.066739 0.048670 0.068330 0.077752 0.053157 0.027365 0.039078 0.005449 -0.043696 -0.026190 -0.017552 0.028612 0.043842 0.103174 0.003573 0.062755 0.058520 -0.006807 0.069679 0.017984 0.007160 0.034316 0.048809 0.033828 0.090696 0.040681 0.066147 0.073512 0.081230 0.069022 0.070454 0.089441 0.041747 -0.009778 0.058098 0.047312 0.044130 0.081895 0.082141 0.025292 0.056687 0.086187 0.010052 -0.001463 -0.061250 -0.012293 0.112870 0.089316 0.070040 0.028206 -0.011219 0.060006 0.023604 -0.062529 0.051159 0.026942 0.060820 0.040068 0.011274 0.041282 0.010114 0.058643 0.029716 0.046151 -0.048071 0.071889 0.113169 0.006427 -0.001401 0.007252 -0.010802 -0.039383 -0.023093 -0.044860 -0.019133 -0.098388 -0.023385 -0.036050 0.006727 -0.027354 -0.061895 0.020995 -0.058683 -0.044555 -0.078571 0.055901 0.014152 0.028216 -0.015745 0.087492 -0.056939 -0.078495 0.051997 -0.023915 0.000683 -0.016915 0.185086 -0.036303 0.016269 0.002951 -0.038903 -0.014100 -0.042105 -0.021518 -0.186304 0.005587 -0.031048 -0.020037 0.048380 0.028856 0.121952 0.026283 0.038145 0.011334 0.021273 -0.035787 0.330160 0.269552 0.148799 0.198949 0.258765 0.312211 0.366077 0.353917 0.060537 -1.112357
0.072396 0.072911 0.074453 0.077025 0.080623 0.085249 0.090900 0.097574 0.105270 0.113985 0.123714 0.134453 0.146197 0.158939 0.172671 0.187382 0.203062 0.219696 0.237268 0.255761 0.275152 0.295417 0.316529 0.338456 0.361162 0.384609 0.408752 0.433542 0.458924 0.484840 0.511223 0.538003 0.565102 0.592435 0.619913 0.647437 0.674902 0.702198 0.729204 0.755796 0.781840 0.807195 0.831715 0.855246 0.877629 0.898698 0.918283 0.936209 0.952297 0.966366 0.978231 0.987709 0.994614 0.998766 0.999985 0.998096 0.992933 0.984335 0.972154 0.956253 0.936511 0.912821 0.885099 0.853279 0.817321 0.777209 0.732957 0.684610 0.632244 0.575972 0.515942 0.452343 0.385402 0.315386 0.242607 0.167418 0.090214 0.011432 0.068451 0.148917 0.229411 0.309344 0.388097 0.465022 0.539450 0.610697 0.678067 0.740859 0.798380 0.849945 0.894895 0.932596 0.962458 0.983938 0.996555 0.999896 0.993629 0.977512 0.951401 0.915262 0.869174 0.813340 0.748090 0.673887 0.591326 0.501142 0.404197 0.301487 0.194132 0.083365 0.029477 0.142964 0.255593 0.365805 0.472007 0.572593 0.665972 0.750593 0.824973 0.887725 0.937591 0.973467 0.994435 0.999784 0.989041 0.961990 0.918692 0.859493 0.785045 0.696300 0.594511 0.481228 0.358276 0.227738 0.091928 0.046654 0.185353 0.321414 0.452035 0.574423 0.685860 0.783763 0.865752 0.929712 0.973859 0.996793 0.997554 0.975663 0.931163 0.864634 0.777210 0.670579 0.546958 0.409067 0.260081 0.103562 0.056611 0.216337 0.371396 0.517559 0.650703 0.766938 0.862725 0.934994 0.981258 0.999706 0.989294 0.949801 0.881880 0.787065 0.667769 0.527239 0.369486 0.199191 0.021576 0.157746 0.332947 0.498160 0.647696 0.776232 0.879024 0.952086 0.992371 0.997912 0.967940 0.902954 0.804755 0.676426 0.522264 0.347663 0.158943 0.036861 0.232250 0.419543 0.591184 0.740048 0.859753 0.944958 0.991611 0.997180 0.960809 0.883416 0.767715 0.618161 0.440812 0.243113 0.033607 0.178419 0.383334 0.571602 0.734239 0.863244 0.952032 0.995789 0.991767 0.939492 0.840859 0.700117 0.523731 0.320118 0.099290 0.127629 0.348942 0.552980 0.728729 0.866437 0.958191 0.998401 0.984184 0.915611 0.795789 0.630783 0.429361 0.202562 0.036859 0.275144 0.498305 0.692955 0.847122 0.951028 0.997741 0.983693 0.908995 0.777538 0.596863 0.377783 0.133778 0.119781 0.366599 0.590487 0.776445 0.911691 0.986581 0.995354 0.936634 0.813645 0.634113 0.409856 0.156061 0.109706 0.368677 0.602216 0.793169 0.927155 0.993705 0.987139 0.907124 0.758833 0.552707 0.303788 0.030692 0.245766 0.504103 0.723880 0.887325 0.980823 0.996130 0.931165 0.790345 0.584381 0.329552 0.046494 0.241428 0.510029 0.736333 0.900569 0.987974 0.990179 0.906108 0.742251 0.512265 0.235941 0.062435 0.356176 0.618553 0.825259 0.956702 0.999945 0.950072 0.810838 0.594520 0.320939 0.015742 0.291953 0.572302 0.797646 0.945292 0.999869 0.955042 0.814346 0.591060 0.307067 0.009183 0.325471 0.609050 0.830081 0.964797 0.998181 0.925740 0.754226 0.501153 0.193135 0.136821 0.452791 0.719833 0.907908 0.995319 0.971346 0.837687 0.608529 0.309195 0.026540 0.360184 0.652909 0.870100 0.985521 0.984609 0.866449 0.644168 0.343640 0.000617 0.343450 0.646376 0.870439 0.987163 0.981062 0.851851 0.614786 0.299043 0.055737 0.404338 0.701695 0.908770 0.997764 0.956007 0.787923 0.514781 0.172176 0.194451 0.535814 0.805351 0.965694 0.993937
1.000000 1.000000 1.000000 1.000000 1.000000 1.000000 1.000000 1.000000 1.000000 1.000000 1.000000 1.000000 1.000000 1.000000 1.000000 1.000000 1.000000 1.000000 1.000000 1.000000 1.000000 1.000000 1.000000 1.000000 1.000000 1.000000 1.000000 1.000000 1.000000 1.000000 1.000000 1.000000 1.000000 1.000000 1.000000 1.000000 1.000000 1.000000 1.000000 1.000000 1.000000 1.000000 1.000000 1.000000 1.000000 1.000000 1.000000 1.000000 1.000000 1.000000 1.000000 1.000000 0.920318 0.920318 0.907012 0.907012 0.907012 0.907012 0.907012 0.907012 0.907012 0.907012 0.907012 0.907012 0.907012 0.907012 0.907012 0.907012 0.907012 0.907012 0.907012 0.907012 0.907012 0.907012 0.907012 0.907012 0.907012 0.907012 0.907012 0.907012 0.907012 0.907012 0.907012 0.907012 0.907012 0.907012 0.907012 0.907012 0.907012 0.907012 0.907012 0.907012 0.907012 0.907012 0.907012 0.902469 0.907504 0.909472 0.908057 0.911533 0.911579 0.910952 0.911336 0.911030 0.911390 0.912772 0.923199 0.934125 0.945269 0.945760 0.950937 0.955266 0.958731 0.959681 0.961410 0.971779 0.969252 0.968851 0.969468 0.970716 0.972697 0.971562 0.970912 0.974212 0.974766 0.973320 0.970910 0.970338 0.969037 0.968395 0.968060 0.967938 0.969004 0.969497 0.969676 0.969931 0.970074 0.970138 0.971139 0.972275 0.974740 0.975698 0.975605 0.974660 0.969807 0.973362 0.974592 0.974010 0.974008 0.973623 0.973866 0.956597 0.954196 0.954089 0.950566 0.949249 0.946160 0.944475 0.943511 0.944223 0.942879 0.942558 0.939939 0.926196 0.912569 0.900745 0.921098 0.905862 0.893928 0.868452 0.869142 0.863322 0.863719 0.855415 0.849430 0.844862 0.842377 0.844392 0.841551 0.844828 0.841705 0.825537 0.829307 0.825316 0.792307 0.777376 0.762681 0.760181 0.757056 0.758152 0.759124 0.752159 0.761157 0.754707 0.751569 0.741167 0.717028 0.682642 0.670466 0.682087 0.692518 0.691300 0.687193 0.671021 0.638117 0.652329 0.680674 0.676119 0.677005 0.671837 0.665052 0.674070 0.674923 0.672057 0.666488 0.665721 0.665626 0.676125 0.680079 0.672564 0.665151 0.651521 0.641263 0.630118 0.643985 0.651929 0.621459 0.614759 0.608509 0.603336 0.591942 0.565202 0.566436 0.545254 0.531153 0.533086 0.536307 0.539025 0.550271 0.549905 0.526064 0.550289 0.549987 0.581389 0.552354 0.548826 0.550235 0.561349 0.542139 0.524849 0.515406 0.516919 0.534673 0.570141 0.610653 0.603643 0.591600 0.585402 0.597213 0.575998 0.584373 0.601971 0.579865 0.506671 0.468604 0.465599 0.434310 0.425870 0.414626 0.392731 0.373485 0.373646 0.368510 0.353630 0.343913 0.281971 0.248399 0.232320 0.215140 0.222035 0.237541 0.230903 0.228067 0.261617 0.308610 0.304106 0.293804 0.285047 0.286509 0.288838 0.252016 0.253455 0.219413 0.208930 0.239074 0.186273 0.190743 0.133341 0.125174 0.137863 0.166651 0.178453 0.131822 0.124304 0.148316 0.166530 0.158506 0.150090 0.105410 0.075300 0.062454 0.074736 0.061002 0.021488 0.033778 0.045802 0.032203 0.017050 0.033983 0.021186 0.026553 0.014793 0.012534 0.049826 0.075726 0.064430 0.067492 0.087016 0.079848 0.062719 0.055387 0.042605 0.037314 -0.017299 -0.041887 -0.041887 -0.038469 -0.038469 -0.038469 -0.038469 -0.038469 -0.038469 -0.038469 -0.038469 -0.038469 -0.039532 -0.039532 -0.039532 -0.039532 -0.039532 -0.039532 -0.039532 -0.039532 -0.039532 -0.018181 -0.018181 -0.018181 -0.018181 -0.018181 -0.018181 -0.018181 -0.018181 -0.018181
0.000000 0.000000 0.000000 0.000000 0.000000 0.000000 0.000000 0.000000 0.000000 0.000000 0.000000 0.000000 0.000000 0.000000 0.000000 0.000000 0.000000 0.000000 0.000000 0.000000 0.000000 0.000000 0.000000 0.000000 0.000000 7.000000 4.000000 0.000000 0.000000 0.000000 0.000000 0.000000 0.000000 0.000000 0.000000 0.000000 0.000000 0.000000 0.000000 0.000000 0.000000 0.000000 0.000000 0.000000 0.000000 0.000000 0.000000 0.000000 0.000000 0.000000 0.000000 0.000000 0.181818 0.181818 0.199007 0.199007 0.199007 0.199007 0.199007 0.199007 0.199007 0.199007 0.199007 0.199007 0.199007 0.199007 0.199007 0.199007 0.199007 0.199007 0.199007 0.199007 0.199007 0.199007 0.199007 0.199007 0.199007 0.199007 0.199007 0.199007 0.199007 0.199007 0.199007 0.199007 0.199007 0.199007 0.199007 0.199007 0.199007 0.199007 0.199007 0.199007 0.199007 0.199007 0.199007 0.230940 0.230940 0.230940 0.230940 0.230940 0.230940 0.230940 0.230940 0.230940 0.230940 0.230940 0.230940 0.230940 0.230940 0.230940 0.230940 0.230940 0.230940 0.230940 0.230940 0.230940 0.230940 0.230940 0.230940 0.230940 0.230940 0.230940 0.230940 0.244339 0.244339 0.244339 0.244339 0.244339 0.244339 0.244339 0.244339 0.244339 0.244339 0.244339 0.244339 0.244339 0.244339 0.244339 0.244339 0.244339 0.244339 0.244339 0.244339 0.244339 0.244339 0.244339 0.251976 0.251976 0.251976 0.251976 0.251976 0.251976 0.251976 0.251976 0.251976 0.251976 0.251976 0.251976 0.251976 0.251976 0.251976 0.251976 0.251976 0.251976 0.251976 0.251976 0.264906 0.264906 0.264906 0.264906 0.264906 0.264906 0.264906 0.264906 0.264906 0.264906 0.264906 0.264906 0.264906 0.264906 0.264906 0.264906 0.264906 0.264906 0.264906 0.264906 0.264906 0.264906 0.264906 0.264906 0.264906 0.264906 0.264906 0.264906 0.264906 0.264906 0.264906 0.264906 0.264906 0.264906 0.264906 0.264906 0.264906 0.264906 0.264906 0.264906 0.264906 0.264906 0.264906 0.264906 0.264906 0.264906 0.264906 0.264906 0.264906 0.264906 0.264906 0.264906 0.264906 0.264906 0.264906 0.264906 0.264906 0.264906 0.264906 0.264906 0.264906 0.264906 0.264906 0.264906 0.264906 0.264906 0.264906 0.264906 0.264906 0.264906 0.264906 0.264906 0.264906 0.264906 0.264906 0.269680 0.269680 0.269680 0.269680 0.269680 0.269680 0.269680 0.269680 0.269680 0.269680 0.269680 0.269680 0.264906 0.264906 0.264906 0.264906 0.264906 0.264906 0.264906 0.264906 0.264906 0.264906 0.264906 0.264906 0.269680 0.269680 0.269680 0.269680 0.269680 0.269680 0.269680 0.269680 0.269680 0.269680 0.269680 0.264906 0.264906 0.264906 0.264906 0.264906 0.264906 0.264906 0.264906 0.264906 0.264906 0.264906 0.269680 0.269680 0.269680 0.269680 0.269680 0.269680 0.269680 0.269680 0.269680 0.269680 0.251976 0.251976 0.251976 0.251976 0.251976 0.251976 0.251976 0.251976 0.251976 0.251976 0.251976 0.269680 0.269680 0.269680 0.269680 0.269680 0.269680 0.269680 0.269680 0.269680 0.256074 0.256074 0.256074 0.256074 0.256074 0.256074 0.256074 0.256074 0.256074 0.256074 0.260378 0.260378 0.260378 0.260378 0.260378 0.260378 0.260378 0.260378 0.260378 0.256074 0.256074 0.256074 0.256074 0.256074 0.256074 0.256074 0.256074 0.256074 0.251976 0.251976 0.251976 0.251976 0.251976 0.251976 0.251976 0.251976 0.251976 0.264906 0.264906 0.264906 0.264906 0.264906 0.264906 0.264906 0.264906 0.264906
