# Output from CTFFind version 4.1.9, run on 2019-11-01 22:45:54
# Input file: first_bm3d_averaged_1_2.2_1.00_1500_half.mrc ; Number of micrographs: 1
# Pixel size: 3.000 Angstroms ; acceleration voltage: 300.0 keV ; spherical aberration: 0.00 mm ; amplitude contrast: 0.07
# Box size: 512 pixels ; min. res.: 30.0 Angstroms ; max. res.: 5.0 Angstroms ; min. def.: 5000.0 um; max. def. 50000.0 um; num. frames averaged: 1
# 6 lines per micrograph: #1 - spatial frequency (1/Angstroms); #2 - 1D rotational average of spectrum (assuming no astigmatism); #3 - 1D rotational average of spectrum; #4 - CTF fit; #5 - cross-correlation between spectrum and CTF fit; #6 - 2sigma of expected cross correlation of noise
0.000000 0.000651 0.001302 0.001953 0.002604 0.003255 0.003906 0.004557 0.005208 0.005859 0.006510 0.007161 0.007812 0.008464 0.009115 0.009766 0.010417 0.011068 0.011719 0.012370 0.013021 0.013672 0.014323 0.014974 0.015625 0.016276 0.016927 0.017578 0.018229 0.018880 0.019531 0.020182 0.020833 0.021484 0.022135 0.022786 0.023438 0.024089 0.024740 0.025391 0.026042 0.026693 0.027344 0.027995 0.028646 0.029297 0.029948 0.030599 0.031250 0.031901 0.032552 0.033203 0.033854 0.034505 0.035156 0.035807 0.036458 0.037109 0.037760 0.038411 0.039062 0.039714 0.040365 0.041016 0.041667 0.042318 0.042969 0.043620 0.044271 0.044922 0.045573 0.046224 0.046875 0.047526 0.048177 0.048828 0.049479 0.050130 0.050781 0.051432 0.052083 0.052734 0.053385 0.054036 0.054688 0.055339 0.055990 0.056641 0.057292 0.057943 0.058594 0.059245 0.059896 0.060547 0.061198 0.061849 0.062500 0.063151 0.063802 0.064453 0.065104 0.065755 0.066406 0.067057 0.067708 0.068359 0.069010 0.069661 0.070312 0.070964 0.071615 0.072266 0.072917 0.073568 0.074219 0.074870 0.075521 0.076172 0.076823 0.077474 0.078125 0.078776 0.079427 0.080078 0.080729 0.081380 0.082031 0.082682 0.083333 0.083984 0.084635 0.085286 0.085938 0.086589 0.087240 0.087891 0.088542 0.089193 0.089844 0.090495 0.091146 0.091797 0.092448 0.093099 0.093750 0.094401 0.095052 0.095703 0.096354 0.097005 0.097656 0.098307 0.098958 0.099609 0.100260 0.100911 0.101562 0.102214 0.102865 0.103516 0.104167 0.104818 0.105469 0.106120 0.106771 0.107422 0.108073 0.108724 0.109375 0.110026 0.110677 0.111328 0.111979 0.112630 0.113281 0.113932 0.114583 0.115234 0.115885 0.116536 0.117188 0.117839 0.118490 0.119141 0.119792 0.120443 0.121094 0.121745 0.122396 0.123047 0.123698 0.124349 0.125000 0.125651 0.126302 0.126953 0.127604 0.128255 0.128906 0.129557 0.130208 0.130859 0.131510 0.132161 0.132812 0.133464 0.134115 0.134766 0.135417 0.136068 0.136719 0.137370 0.138021 0.138672 0.139323 0.139974 0.140625 0.141276 0.141927 0.142578 0.143229 0.143880 0.144531 0.145182 0.145833 0.146484 0.147135 0.147786 0.148438 0.149089 0.149740 0.150391 0.151042 0.151693 0.152344 0.152995 0.153646 0.154297 0.154948 0.155599 0.156250 0.156901 0.157552 0.158203 0.158854 0.159505 0.160156 0.160807 0.161458 0.162109 0.162760 0.163411 0.164062 0.164714 0.165365 0.166016 0.166667 0.167318 0.167969 0.168620 0.169271 0.169922 0.170573 0.171224 0.171875 0.172526 0.173177 0.173828 0.174479 0.175130 0.175781 0.176432 0.177083 0.177734 0.178385 0.179036 0.179688 0.180339 0.180990 0.181641 0.182292 0.182943 0.183594 0.184245 0.184896 0.185547 0.186198 0.186849 0.187500 0.188151 0.188802 0.189453 0.190104 0.190755 0.191406 0.192057 0.192708 0.193359 0.194010 0.194661 0.195312 0.195964 0.196615 0.197266 0.197917 0.198568 0.199219 0.199870 0.200521 0.201172 0.201823 0.202474 0.203125 0.203776 0.204427 0.205078 0.205729 0.206380 0.207031 0.207682 0.208333 0.208984 0.209635 0.210286 0.210938 0.211589 0.212240 0.212891 0.213542 0.214193 0.214844 0.215495 0.216146 0.216797 0.217448 0.218099 0.218750 0.219401 0.220052 0.220703 0.221354 0.222005 0.222656 0.223307 0.223958 0.224609 0.225260 0.225911 0.226562 0.227214 0.227865 0.228516 0.229167 0.229818 0.230469 0.231120 0.231771 0.232422 0.233073 0.233724 0.234375 0.235026 0.235677
       0.33837        0.33837        0.33837        0.33837        0.33837        0.33837        0.33837        0.33837        0.33837        0.33837        0.33837        0.33837        0.33837        0.33837        0.33837        0.33837        0.33837        0.33837        0.33837        0.33837        0.33837        0.33837        0.33837        0.33838        0.33837        0.33837        0.33837        0.33837        0.33837        0.33837        0.33837        0.33837        0.33838        0.33837        0.33837        0.33837        0.33837        0.33838        0.33838        0.33837        0.33837        0.33837        0.33837        0.33837        0.33837        0.33837        0.33837        0.33837        0.33837        0.33837        0.33837        0.50312        0.72060        0.42311        0.19748       -0.07043       -0.25129       -0.06261       -0.12503       -0.06649        0.00111       -0.14378       -0.10379       -0.03962        0.00550       -0.14903       -0.22054       -0.33152       -0.46443       -0.57377       -0.52083       -0.46087       -0.36869       -0.55434       -0.44719       -0.61575       -0.50081       -0.47160       -0.39690       -0.37333       -0.32580       -0.23356       -0.16200       -0.13690        0.03115       -0.01189        0.12134        0.17640        0.32123        0.42517        0.47960        0.51147        0.55256        0.56005        0.70439        0.65623        0.68685        0.59128        0.56249        0.65189        0.53047        0.44770        0.40925        0.30858        0.25160        0.27309        0.25779        0.10133        0.08562        0.00616       -0.00412        0.03228       -0.01084        0.07327        0.09570        0.22767        0.28976        0.30025        0.40587        0.57066        0.54909        0.57607        0.67119        0.68416        0.63317        0.65006        0.64326        0.53903        0.56975        0.40212        0.36226        0.27232        0.18653        0.08423        0.14601        0.11668        0.11574        0.12619        0.20713        0.19333        0.31723        0.35499        0.41236        0.49757        0.56052        0.54957        0.55996        0.60902        0.54318        0.48108        0.48713        0.32722        0.26002        0.26327        0.25209        0.15205        0.15423        0.15699        0.23318        0.26856        0.33963        0.38398        0.41152        0.45772        0.45334        0.48259        0.44360        0.48151        0.44504        0.39017        0.36895        0.37314        0.33929        0.29659        0.21565        0.22563        0.23440        0.27969        0.26674        0.35254        0.38821        0.36236        0.41456        0.45271        0.44593        0.43305        0.44354        0.35884        0.33759        0.28843        0.26064        0.30205        0.26730        0.29942        0.31312        0.34941        0.33783        0.40597        0.39852        0.43927        0.40189        0.45174        0.41104        0.38065        0.28746        0.28571        0.28916        0.28261        0.27605        0.34277        0.36536        0.33693        0.36950        0.37816        0.35166        0.41652        0.40930        0.36798        0.35295        0.30785        0.30381        0.32354        0.31455        0.31271        0.29939        0.34380        0.36453        0.38226        0.34595        0.33664        0.33053        0.35732        0.32248        0.29796        0.32347        0.32817        0.33015        0.33132        0.34380        0.36985        0.33360        0.32722        0.34658        0.31389        0.27070        0.26241        0.28099        0.30945        0.32029        0.36119        0.29971        0.30923        0.33542        0.30129        0.32843        0.29720        0.28191        0.28143        0.28568        0.29471        0.34635        0.31668        0.33592        0.32037        0.34861        0.35150        0.32139        0.33249        0.33845        0.27279        0.29430        0.31587        0.28486        0.32900        0.32662        0.33462        0.32484        0.35679        0.34581        0.29307        0.24552        0.27930        0.34128        0.36494        0.36157        0.31806        0.30388        0.30261        0.31849        0.26683        0.29587        0.30685        0.33082        0.30737        0.29151        0.26529        0.34262        0.33879        0.34213        0.30572        0.30484        0.31088        0.39335        0.35990        0.33984        0.33118        0.31306        0.29294        0.30624        0.30992        0.29033        0.23515        0.27198        0.30007        0.31108        0.30032        0.28072        0.26598        0.23933        0.23130        0.28973        0.32847        0.30229        0.31659        0.31953        0.35514        0.24745        0.21753        0.26253        0.24912        0.28651        0.29384        0.33249        0.26446        0.28812        0.27847        0.23707        0.27526        0.27637        0.24242        0.19377        0.23908        0.24194        0.25023        0.30551        0.29850        0.34198        0.32200        0.28557        0.27525        0.19815        0.25945        0.28886        0.26793        0.18267        0.22548        0.26771        0.19554        0.27415        0.21179        0.11411       -0.49210       -0.84124
2.657515 2.629622 2.601879 2.574286 2.546841 2.519546 2.492400 2.465404 2.438557 2.411859 2.385310 2.358911 2.332662 2.306561 2.280610 2.254808 2.229155 2.203652 2.178298 2.153093 2.128038 2.103132 2.078376 2.053768 2.029310 2.005001 1.980842 1.956832 1.932971 1.909260 1.885698 1.862285 1.839021 1.815907 1.792942 1.770127 1.747460 1.724943 1.702576 1.680358 1.658289 1.636369 1.614599 1.592978 1.571506 1.550183 1.529010 1.507987 1.487112 1.466387 1.445811 1.509266 1.822418 1.491038 1.188347 0.930785 0.535924 0.905224 0.631374 0.839362 0.905919 0.588156 0.674535 0.776078 0.820622 0.608633 0.521552 0.354436 0.089992 0.046214 0.032705 0.041135 0.292216 -0.052668 0.063320 -0.134210 -0.034559 -0.016906 0.052111 0.065634 0.105748 0.181957 0.276515 0.241164 0.467151 0.394019 0.543104 0.530782 0.781362 0.791675 0.888253 0.948789 0.934855 0.961523 1.121482 0.956271 1.149621 0.939121 0.861246 1.011450 0.848086 0.770911 0.656140 0.576407 0.468531 0.436061 0.506330 0.261401 0.199922 0.165167 0.015714 0.193885 -0.014796 0.120985 0.171466 0.251788 0.342187 0.346112 0.450111 0.555350 0.685816 0.535389 0.740790 0.844642 0.631458 0.722366 0.686956 0.579545 0.532683 0.472557 0.319423 0.222634 0.122431 -0.022291 -0.014347 0.045025 -0.066130 -0.044284 0.072726 0.036058 0.099291 0.221675 0.240883 0.322834 0.422129 0.441542 0.465324 0.448111 0.462868 0.341040 0.341331 0.246427 0.049743 0.070110 0.025942 -0.039448 -0.090922 -0.087304 -0.023773 -0.016862 0.091187 0.133582 0.156556 0.255605 0.226890 0.265764 0.279607 0.237993 0.246394 0.215343 0.141803 0.125915 0.133479 0.037737 0.024932 -0.100112 -0.022801 0.014216 0.006758 0.017056 0.120375 0.088807 0.132767 0.191690 0.265899 0.160733 0.208775 0.114343 0.127859 0.027648 -0.031338 0.017416 -0.006865 0.004839 0.000245 0.053443 0.061535 0.068004 0.152281 0.128589 0.157699 0.085494 0.173473 0.104512 0.016432 -0.043431 -0.033649 -0.029390 -0.057390 -0.036644 0.072303 0.053313 -0.005747 0.077341 0.081125 0.061431 0.151247 0.077653 0.082164 0.053395 -0.030805 0.022792 0.007394 0.006827 0.020927 0.008895 0.052705 0.064833 0.072549 0.036315 0.037298 0.000722 0.078997 -0.007279 -0.004018 0.025318 0.013429 0.051147 0.042903 0.046437 0.065039 0.036208 0.021695 0.040081 -0.003074 -0.056592 -0.031212 -0.017038 0.001544 0.019986 0.101583 -0.026053 0.045389 0.060503 0.011237 0.068926 0.027420 0.002724 0.021382 0.034385 0.038742 0.095323 0.033520 0.098178 0.080892 0.106831 0.086867 0.090734 0.102309 0.070966 -0.003300 0.069330 0.058906 0.036264 0.107487 0.083566 0.039561 0.076111 0.107245 0.059126 0.035078 -0.067613 0.026139 0.117204 0.107472 0.085340 0.065509 0.003803 0.052427 0.048454 -0.032261 0.048007 0.040897 0.076238 0.067346 -0.027304 -0.013582 0.097655 0.044413 0.028297 0.024532 -0.017638 0.062318 0.121668 0.055155 0.017899 0.051502 0.008695 -0.043053 -0.007782 -0.012475 -0.046889 -0.103378 -0.045390 -0.026500 0.006320 -0.037371 -0.074022 -0.034006 -0.074460 -0.042491 -0.054912 0.056256 0.005825 0.028696 0.029162 0.076021 -0.080183 -0.071960 -0.046031 -0.054962 0.023492 -0.007739 0.083091 -0.069044 -0.004813 0.016279 -0.056104 0.006523 0.015261 -0.042672 -0.131890 -0.024057 -0.014037 -0.009566 0.014651 0.032489 0.136273 0.049031 0.047677 0.028757 -0.057588 -0.004048 0.028706 0.320007 0.221637 0.277534 0.294091 0.255101 0.300929 0.153161 0.141674 -0.990187
0.072396 0.072910 0.074452 0.077021 0.080618 0.085240 0.090887 0.097557 0.105247 0.113956 0.123678 0.134410 0.146146 0.158879 0.172601 0.187303 0.202972 0.219594 0.237155 0.255635 0.275013 0.295265 0.316364 0.338277 0.360969 0.384402 0.408530 0.433305 0.458674 0.484575 0.510945 0.537712 0.564798 0.592120 0.619587 0.647101 0.674558 0.701847 0.728849 0.755438 0.781481 0.806838 0.831362 0.854901 0.877295 0.898379 0.917982 0.935930 0.952044 0.966144 0.978044 0.987562 0.994513 0.998716 0.999990 0.998163 0.993066 0.984540 0.972436 0.956618 0.936963 0.913367 0.885741 0.854022 0.818168 0.778163 0.734021 0.685785 0.633530 0.577369 0.517450 0.453958 0.387120 0.317203 0.244516 0.169411 0.092281 0.013562 0.066270 0.146698 0.227171 0.307101 0.385868 0.462828 0.537313 0.608639 0.676111 0.739029 0.796701 0.848442 0.893592 0.931518 0.961628 0.983379 0.996287 0.999937 0.993997 0.978219 0.952459 0.916676 0.870946 0.815467 0.750566 0.676699 0.594457 0.504567 0.407887 0.305408 0.198243 0.087619 0.025130 0.138579 0.251231 0.361530 0.467884 0.568690 0.662357 0.747333 0.822134 0.885370 0.935779 0.972250 0.993857 0.999882 0.989842 0.963509 0.920930 0.862442 0.788679 0.700580 0.599384 0.486625 0.364115 0.233925 0.098351 0.040110 0.178817 0.315019 0.445919 0.568726 0.680717 0.779306 0.862102 0.926981 0.972139 0.996160 0.998060 0.977337 0.934004 0.868615 0.782273 0.676636 0.553890 0.416729 0.268301 0.112146 0.047876 0.207680 0.363051 0.509763 0.643690 0.760926 0.857917 0.931565 0.979349 0.999421 0.990690 0.952889 0.886617 0.793356 0.675465 0.536139 0.379345 0.209720 0.032453 0.146868 0.322428 0.488364 0.638977 0.768921 0.873413 0.948419 0.990833 0.998617 0.970924 0.908171 0.812072 0.685628 0.533054 0.359672 0.171738 0.023756 0.219344 0.407355 0.580221 0.730788 0.852621 0.940302 0.989691 0.998147 0.964695 0.890126 0.777029 0.629735 0.454187 0.257736 0.048845 0.163246 0.368927 0.558652 0.723386 0.855057 0.946966 0.994162 0.993740 0.945053 0.849817 0.712101 0.538204 0.336400 0.116583 0.110200 0.332288 0.538001 0.716262 0.857210 0.952778 0.997183 0.987322 0.923025 0.807158 0.645548 0.446748 0.221630 0.017186 0.256010 0.480853 0.678260 0.836129 0.944482 0.996137 0.987233 0.917566 0.790707 0.613893 0.397667 0.155299 0.097985 0.345945 0.572359 0.762096 0.902155 0.982598 0.997305 0.944504 0.827007 0.652149 0.431392 0.179643 0.085713 0.345986 0.582492 0.777905 0.917557 0.990587 0.990859 0.917531 0.775270 0.574034 0.328462 0.056865 0.220099 0.480965 0.705145 0.874561 0.975164 0.998163 0.940864 0.807057 0.606852 0.356023 0.074819 0.213599 0.485064 0.716412 0.887498 0.983002 0.993883 0.918316 0.762029 0.537987 0.265402 0.031827 0.327182 0.593851 0.807194 0.947063 0.999775 0.959546 0.829222 0.620213 0.351603 0.048500 0.260241 0.544754 0.777040 0.933780 0.998748 0.964592 0.833780 0.618562 0.339955 0.025798 0.291984 0.580570 0.809670 0.954740 0.999707 0.938869 0.777732 0.532655 0.229326 0.099823 0.419050 0.693138 0.891345 0.990903 0.979760 0.858173 0.638931 0.346169 0.012832 0.322958 0.622213 0.849645 0.977883 0.990888 0.886100 0.675020 0.382123 0.042150 0.303913 0.613738 0.848852 0.979479 0.988448 0.873592 0.648329 0.340280 0.011992 0.363693 0.669471 0.889291 0.993771 0.968245 0.814993 0.553282 0.217103 0.149081 0.496139 0.776877 0.952476 0.998011
1.000000 1.000000 1.000000 1.000000 1.000000 1.000000 1.000000 1.000000 1.000000 1.000000 1.000000 1.000000 1.000000 1.000000 1.000000 1.000000 1.000000 1.000000 1.000000 1.000000 1.000000 1.000000 1.000000 1.000000 1.000000 1.000000 1.000000 1.000000 1.000000 1.000000 1.000000 1.000000 1.000000 1.000000 1.000000 1.000000 1.000000 1.000000 1.000000 1.000000 1.000000 1.000000 1.000000 1.000000 1.000000 1.000000 1.000000 1.000000 1.000000 1.000000 1.000000 1.000000 0.916405 0.916405 0.901679 0.901679 0.901679 0.901679 0.901679 0.901679 0.901679 0.901679 0.901679 0.901679 0.901679 0.901679 0.901679 0.901679 0.901679 0.901679 0.901679 0.901679 0.901679 0.901679 0.901679 0.901679 0.901679 0.901679 0.901679 0.901679 0.901679 0.901679 0.901679 0.901679 0.901679 0.901679 0.901679 0.901679 0.901679 0.901679 0.901679 0.901679 0.901679 0.901679 0.901679 0.898047 0.902959 0.905522 0.904009 0.907613 0.907686 0.905543 0.905025 0.904653 0.904985 0.906428 0.916980 0.931525 0.939012 0.941318 0.946361 0.950683 0.953024 0.953837 0.957466 0.967387 0.964801 0.964337 0.965062 0.966616 0.968801 0.969021 0.970433 0.969592 0.970311 0.970333 0.969935 0.969345 0.968760 0.968869 0.968500 0.968387 0.969818 0.970280 0.969821 0.969965 0.970105 0.970157 0.968655 0.968501 0.970920 0.971982 0.971837 0.970690 0.965276 0.968983 0.969695 0.969268 0.969234 0.968827 0.969137 0.954957 0.949694 0.949623 0.943529 0.942574 0.939607 0.938575 0.937245 0.937877 0.937717 0.938741 0.935424 0.923112 0.912562 0.896394 0.917910 0.909478 0.892406 0.871652 0.871653 0.870330 0.870966 0.864903 0.856762 0.851602 0.849175 0.851009 0.855223 0.859718 0.856614 0.847070 0.850623 0.844563 0.811916 0.801112 0.791499 0.782249 0.781434 0.782727 0.779412 0.774045 0.782338 0.774723 0.771742 0.762994 0.749819 0.725647 0.716174 0.723853 0.731233 0.734166 0.728546 0.704382 0.656177 0.671552 0.697837 0.695538 0.698345 0.696005 0.689663 0.690403 0.692069 0.687638 0.684404 0.685173 0.684861 0.691629 0.693177 0.680565 0.676427 0.666658 0.653373 0.629835 0.641314 0.652736 0.631106 0.625629 0.615242 0.608629 0.611263 0.609260 0.612008 0.587285 0.570045 0.565216 0.564620 0.567992 0.575530 0.575313 0.558987 0.577091 0.560456 0.587959 0.560764 0.556681 0.556801 0.567580 0.552977 0.547672 0.545974 0.545507 0.547971 0.567283 0.578723 0.563574 0.554614 0.548853 0.565384 0.541743 0.556630 0.585626 0.562427 0.512825 0.475477 0.471173 0.436615 0.433737 0.399175 0.370890 0.382666 0.366449 0.354129 0.339449 0.333323 0.301223 0.263792 0.245472 0.240085 0.255463 0.276410 0.274680 0.269557 0.306076 0.345569 0.350281 0.342059 0.297616 0.269640 0.225643 0.212668 0.228950 0.189805 0.196680 0.182399 0.176311 0.178585 0.132079 0.175856 0.086586 0.072962 0.073665 0.095743 0.067187 0.062695 0.059881 0.025598 0.034103 0.036043 0.013740 0.010498 0.025437 0.001548 -0.013716 -0.006879 0.007067 0.003175 -0.016533 -0.004882 -0.015122 -0.015590 -0.026464 -0.026883 0.013008 0.061143 0.062792 0.070519 0.073546 0.058063 0.059729 0.053139 0.015401 -0.004565 -0.048839 -0.073244 -0.073244 -0.054348 -0.054348 -0.054348 -0.054348 -0.054348 -0.054348 -0.054348 -0.054348 -0.054348 -0.059192 -0.059192 -0.059192 -0.059192 -0.059192 -0.059192 -0.059192 -0.059192 -0.059192 -0.047508 -0.047508 -0.047508 -0.047508 -0.047508 -0.047508 -0.047508 -0.047508 -0.047508
0.000000 0.000000 0.000000 0.000000 0.000000 0.000000 0.000000 0.000000 0.000000 0.000000 0.000000 0.000000 0.000000 0.000000 0.000000 0.000000 0.000000 0.000000 0.000000 0.000000 0.000000 0.000000 0.000000 0.000000 0.000000 7.000000 4.000000 0.000000 0.000000 0.000000 0.000000 0.000000 0.000000 0.000000 0.000000 0.000000 0.000000 0.000000 0.000000 0.000000 0.000000 0.000000 0.000000 0.000000 0.000000 0.000000 0.000000 0.000000 0.000000 0.000000 0.000000 0.000000 0.181818 0.181818 0.199007 0.199007 0.199007 0.199007 0.199007 0.199007 0.199007 0.199007 0.199007 0.199007 0.199007 0.199007 0.199007 0.199007 0.199007 0.199007 0.199007 0.199007 0.199007 0.199007 0.199007 0.199007 0.199007 0.199007 0.199007 0.199007 0.199007 0.199007 0.199007 0.199007 0.199007 0.199007 0.199007 0.199007 0.199007 0.199007 0.199007 0.199007 0.199007 0.199007 0.199007 0.230940 0.230940 0.230940 0.230940 0.230940 0.230940 0.230940 0.230940 0.230940 0.230940 0.230940 0.230940 0.230940 0.230940 0.230940 0.230940 0.230940 0.230940 0.230940 0.230940 0.230940 0.230940 0.230940 0.230940 0.230940 0.230940 0.230940 0.230940 0.244339 0.244339 0.244339 0.244339 0.244339 0.244339 0.244339 0.244339 0.244339 0.244339 0.244339 0.244339 0.244339 0.244339 0.244339 0.244339 0.244339 0.244339 0.244339 0.244339 0.244339 0.244339 0.244339 0.251976 0.251976 0.251976 0.251976 0.251976 0.251976 0.251976 0.251976 0.251976 0.251976 0.251976 0.251976 0.251976 0.251976 0.251976 0.251976 0.251976 0.251976 0.251976 0.251976 0.264906 0.264906 0.264906 0.264906 0.264906 0.264906 0.264906 0.264906 0.264906 0.264906 0.264906 0.264906 0.264906 0.264906 0.264906 0.264906 0.264906 0.264906 0.264906 0.264906 0.264906 0.264906 0.264906 0.264906 0.264906 0.264906 0.264906 0.264906 0.264906 0.264906 0.264906 0.264906 0.264906 0.264906 0.264906 0.264906 0.264906 0.264906 0.264906 0.264906 0.264906 0.264906 0.264906 0.264906 0.264906 0.264906 0.264906 0.264906 0.264906 0.264906 0.264906 0.264906 0.264906 0.264906 0.264906 0.264906 0.264906 0.264906 0.264906 0.264906 0.264906 0.264906 0.264906 0.264906 0.264906 0.264906 0.264906 0.264906 0.264906 0.264906 0.264906 0.264906 0.264906 0.264906 0.264906 0.269680 0.269680 0.269680 0.269680 0.269680 0.269680 0.269680 0.269680 0.269680 0.269680 0.269680 0.269680 0.264906 0.264906 0.264906 0.264906 0.264906 0.264906 0.264906 0.264906 0.264906 0.264906 0.264906 0.264906 0.269680 0.269680 0.269680 0.269680 0.269680 0.269680 0.269680 0.269680 0.269680 0.269680 0.269680 0.264906 0.264906 0.264906 0.264906 0.264906 0.264906 0.264906 0.264906 0.264906 0.264906 0.264906 0.256074 0.256074 0.256074 0.256074 0.256074 0.256074 0.256074 0.256074 0.256074 0.256074 0.256074 0.264906 0.264906 0.264906 0.264906 0.264906 0.264906 0.264906 0.264906 0.264906 0.264906 0.269680 0.269680 0.269680 0.269680 0.269680 0.269680 0.269680 0.269680 0.269680 0.256074 0.256074 0.256074 0.256074 0.256074 0.256074 0.256074 0.256074 0.256074 0.256074 0.260378 0.260378 0.260378 0.260378 0.260378 0.260378 0.260378 0.260378 0.260378 0.256074 0.256074 0.256074 0.256074 0.256074 0.256074 0.256074 0.256074 0.256074 0.251976 0.251976 0.251976 0.251976 0.251976 0.251976 0.251976 0.251976 0.251976 0.264906 0.264906 0.264906 0.264906 0.264906 0.264906 0.264906 0.264906 0.264906
