# Output from CTFFind version 4.1.9, run on 2019-11-01 22:44:49
# Input file: first_bm3d_averaged_1_1.7_1.00_2000_half.mrc ; Number of micrographs: 1
# Pixel size: 3.000 Angstroms ; acceleration voltage: 300.0 keV ; spherical aberration: 0.00 mm ; amplitude contrast: 0.07
# Box size: 512 pixels ; min. res.: 30.0 Angstroms ; max. res.: 5.0 Angstroms ; min. def.: 5000.0 um; max. def. 50000.0 um; num. frames averaged: 1
# 6 lines per micrograph: #1 - spatial frequency (1/Angstroms); #2 - 1D rotational average of spectrum (assuming no astigmatism); #3 - 1D rotational average of spectrum; #4 - CTF fit; #5 - cross-correlation between spectrum and CTF fit; #6 - 2sigma of expected cross correlation of noise
0.000000 0.000651 0.001302 0.001953 0.002604 0.003255 0.003906 0.004557 0.005208 0.005859 0.006510 0.007161 0.007812 0.008464 0.009115 0.009766 0.010417 0.011068 0.011719 0.012370 0.013021 0.013672 0.014323 0.014974 0.015625 0.016276 0.016927 0.017578 0.018229 0.018880 0.019531 0.020182 0.020833 0.021484 0.022135 0.022786 0.023438 0.024089 0.024740 0.025391 0.026042 0.026693 0.027344 0.027995 0.028646 0.029297 0.029948 0.030599 0.031250 0.031901 0.032552 0.033203 0.033854 0.034505 0.035156 0.035807 0.036458 0.037109 0.037760 0.038411 0.039062 0.039714 0.040365 0.041016 0.041667 0.042318 0.042969 0.043620 0.044271 0.044922 0.045573 0.046224 0.046875 0.047526 0.048177 0.048828 0.049479 0.050130 0.050781 0.051432 0.052083 0.052734 0.053385 0.054036 0.054688 0.055339 0.055990 0.056641 0.057292 0.057943 0.058594 0.059245 0.059896 0.060547 0.061198 0.061849 0.062500 0.063151 0.063802 0.064453 0.065104 0.065755 0.066406 0.067057 0.067708 0.068359 0.069010 0.069661 0.070312 0.070964 0.071615 0.072266 0.072917 0.073568 0.074219 0.074870 0.075521 0.076172 0.076823 0.077474 0.078125 0.078776 0.079427 0.080078 0.080729 0.081380 0.082031 0.082682 0.083333 0.083984 0.084635 0.085286 0.085938 0.086589 0.087240 0.087891 0.088542 0.089193 0.089844 0.090495 0.091146 0.091797 0.092448 0.093099 0.093750 0.094401 0.095052 0.095703 0.096354 0.097005 0.097656 0.098307 0.098958 0.099609 0.100260 0.100911 0.101562 0.102214 0.102865 0.103516 0.104167 0.104818 0.105469 0.106120 0.106771 0.107422 0.108073 0.108724 0.109375 0.110026 0.110677 0.111328 0.111979 0.112630 0.113281 0.113932 0.114583 0.115234 0.115885 0.116536 0.117188 0.117839 0.118490 0.119141 0.119792 0.120443 0.121094 0.121745 0.122396 0.123047 0.123698 0.124349 0.125000 0.125651 0.126302 0.126953 0.127604 0.128255 0.128906 0.129557 0.130208 0.130859 0.131510 0.132161 0.132812 0.133464 0.134115 0.134766 0.135417 0.136068 0.136719 0.137370 0.138021 0.138672 0.139323 0.139974 0.140625 0.141276 0.141927 0.142578 0.143229 0.143880 0.144531 0.145182 0.145833 0.146484 0.147135 0.147786 0.148438 0.149089 0.149740 0.150391 0.151042 0.151693 0.152344 0.152995 0.153646 0.154297 0.154948 0.155599 0.156250 0.156901 0.157552 0.158203 0.158854 0.159505 0.160156 0.160807 0.161458 0.162109 0.162760 0.163411 0.164062 0.164714 0.165365 0.166016 0.166667 0.167318 0.167969 0.168620 0.169271 0.169922 0.170573 0.171224 0.171875 0.172526 0.173177 0.173828 0.174479 0.175130 0.175781 0.176432 0.177083 0.177734 0.178385 0.179036 0.179688 0.180339 0.180990 0.181641 0.182292 0.182943 0.183594 0.184245 0.184896 0.185547 0.186198 0.186849 0.187500 0.188151 0.188802 0.189453 0.190104 0.190755 0.191406 0.192057 0.192708 0.193359 0.194010 0.194661 0.195312 0.195964 0.196615 0.197266 0.197917 0.198568 0.199219 0.199870 0.200521 0.201172 0.201823 0.202474 0.203125 0.203776 0.204427 0.205078 0.205729 0.206380 0.207031 0.207682 0.208333 0.208984 0.209635 0.210286 0.210938 0.211589 0.212240 0.212891 0.213542 0.214193 0.214844 0.215495 0.216146 0.216797 0.217448 0.218099 0.218750 0.219401 0.220052 0.220703 0.221354 0.222005 0.222656 0.223307 0.223958 0.224609 0.225260 0.225911 0.226562 0.227214 0.227865 0.228516 0.229167 0.229818 0.230469 0.231120 0.231771 0.232422 0.233073 0.233724 0.234375 0.235026 0.235677
       0.33285        0.33285        0.33285        0.33285        0.33285        0.33285        0.33285        0.33285        0.33285        0.33285        0.33285        0.33285        0.33285        0.33285        0.33285        0.33285        0.33285        0.33285        0.33285        0.33285        0.33285        0.33285        0.33285        0.33285        0.33285        0.33285        0.33285        0.33285        0.33285        0.33285        0.33285        0.33285        0.33285        0.33285        0.33285        0.33285        0.33285        0.33285        0.33285        0.33285        0.33285        0.33285        0.33285        0.33285        0.33285        0.33285        0.33285        0.33285        0.33285        0.33285        0.33285        0.49974        0.71616        0.42488        0.19103       -0.07857       -0.26025       -0.06815       -0.12855       -0.06072       -0.00108       -0.14683       -0.09963       -0.04511        0.00097       -0.15204       -0.22216       -0.33981       -0.46511       -0.56825       -0.52114       -0.45611       -0.37305       -0.55395       -0.45136       -0.62219       -0.50541       -0.47406       -0.39421       -0.38022       -0.33784       -0.24374       -0.16412       -0.14215        0.02905       -0.01528        0.11788        0.16978        0.30738        0.41355        0.46596        0.49735        0.54202        0.54950        0.69467        0.64676        0.68029        0.58783        0.55648        0.65241        0.52692        0.43129        0.39230        0.31513        0.23357        0.26451        0.25325        0.10153        0.08439       -0.00038       -0.00914        0.03355       -0.00894        0.07139        0.09005        0.22966        0.28413        0.30270        0.39012        0.56375        0.54016        0.57658        0.66907        0.69085        0.62904        0.63852        0.63692        0.54300        0.56957        0.39292        0.35166        0.26567        0.18635        0.07520        0.14281        0.11484        0.09947        0.11172        0.20455        0.19992        0.31331        0.35351        0.41270        0.49275        0.57280        0.54574        0.55710        0.60647        0.54041        0.46726        0.48128        0.32391        0.25086        0.25495        0.24391        0.14213        0.14547        0.15211        0.22437        0.25376        0.33278        0.37340        0.39684        0.46170        0.44825        0.47666        0.44456        0.47367        0.44534        0.39865        0.37208        0.36206        0.32194        0.28860        0.20816        0.20918        0.22702        0.27006        0.26042        0.34317        0.37486        0.35354        0.40950        0.45707        0.44733        0.42562        0.43945        0.35932        0.33435        0.28195        0.25887        0.28970        0.26274        0.29435        0.30136        0.34515        0.33407        0.40306        0.39626        0.42431        0.40765        0.43742        0.40579        0.36968        0.28338        0.28890        0.29864        0.27874        0.25966        0.33433        0.36946        0.33570        0.35923        0.36835        0.34966        0.40628        0.40032        0.36270        0.34261        0.30952        0.31240        0.31781        0.30831        0.30016        0.28610        0.33849        0.35716        0.37433        0.33813        0.33134        0.33417        0.35099        0.30964        0.28128        0.30885        0.32198        0.32924        0.32306        0.33500        0.35538        0.33267        0.32043        0.33582        0.30182        0.25907        0.24905        0.26522        0.30328        0.32167        0.35638        0.29866        0.30756        0.33072        0.29365        0.32326        0.29628        0.28123        0.28547        0.29351        0.30633        0.34605        0.31809        0.32765        0.32523        0.33050        0.33703        0.31687        0.32260        0.32098        0.27395        0.29283        0.30874        0.28553        0.32433        0.32797        0.33491        0.31707        0.34966        0.33318        0.28079        0.24204        0.27206        0.33334        0.36194        0.35288        0.31908        0.29436        0.29936        0.31584        0.25401        0.29013        0.29964        0.31712        0.29319        0.29827        0.26787        0.33250        0.33907        0.33913        0.31940        0.29891        0.30832        0.39265        0.34098        0.32091        0.30962        0.30895        0.28746        0.29642        0.28840        0.29923        0.23081        0.27044        0.29994        0.31249        0.29822        0.27633        0.28416        0.23598        0.23077        0.27729        0.31481        0.30301        0.31461        0.29022        0.33337        0.25090        0.22358        0.29387        0.25178        0.27216        0.27719        0.35962        0.27340        0.29164        0.27233        0.23128        0.26240        0.25719        0.23053        0.16793        0.22188        0.22873        0.24816        0.30424        0.27599        0.33561        0.31155        0.27952        0.26626        0.21803        0.25145        0.26556        0.21709        0.14807        0.20300        0.24370        0.21258        0.31438        0.26118        0.06549       -0.42142       -0.95620
2.692568 2.664168 2.635920 2.607825 2.579882 2.552093 2.524456 2.496971 2.469640 2.442461 2.415435 2.388562 2.361841 2.335273 2.308858 2.282596 2.256486 2.230529 2.204725 2.179074 2.153575 2.128229 2.103036 2.077995 2.053107 2.028372 2.003790 1.979360 1.955083 1.930959 1.906988 1.883169 1.859503 1.835990 1.812629 1.789422 1.766367 1.743464 1.720715 1.698118 1.675674 1.653382 1.631244 1.609258 1.587425 1.565744 1.544216 1.522841 1.501619 1.480550 1.459633 1.526926 1.831747 1.521119 1.191284 0.941664 0.543239 0.913042 0.641197 0.864448 0.925138 0.594404 0.698182 0.786930 0.828306 0.623742 0.535945 0.355215 0.098887 0.066666 0.040379 0.064853 0.298892 -0.041211 0.073789 -0.135940 -0.023070 -0.015055 0.070461 0.068728 0.101862 0.181858 0.281896 0.245339 0.477868 0.397692 0.548272 0.531739 0.775177 0.793623 0.883546 0.933842 0.939238 0.955542 1.125129 0.947490 1.151366 0.948975 0.856813 1.021204 0.852154 0.765624 0.634800 0.593076 0.462554 0.424877 0.512150 0.265157 0.204544 0.163030 0.009618 0.205870 -0.006431 0.121378 0.174151 0.256187 0.342240 0.350937 0.441503 0.548926 0.677192 0.539778 0.745759 0.858299 0.639577 0.710370 0.680760 0.587516 0.541218 0.463140 0.312667 0.218402 0.125070 -0.033805 -0.012335 0.051443 -0.080574 -0.054544 0.059841 0.045857 0.109343 0.218776 0.244226 0.318761 0.443863 0.451841 0.449803 0.467658 0.463378 0.339395 0.339243 0.250962 0.052974 0.066496 0.020008 -0.038810 -0.096600 -0.088033 -0.015566 -0.034796 0.086849 0.133959 0.136368 0.264946 0.231734 0.243746 0.281492 0.243405 0.241955 0.215801 0.152732 0.117674 0.116600 0.027448 0.014993 -0.110223 -0.038618 0.008394 -0.002799 0.017254 0.101419 0.078824 0.124085 0.210838 0.271986 0.173387 0.198584 0.112531 0.140659 0.026925 -0.035281 0.023843 -0.017166 0.011232 -0.000250 0.042180 0.077443 0.064972 0.161027 0.110259 0.182144 0.088077 0.170492 0.107193 0.014393 -0.043570 -0.010141 -0.019600 -0.051291 -0.049378 0.084674 0.069900 -0.001298 0.106624 0.088925 0.073251 0.157771 0.087709 0.088597 0.068546 -0.003846 0.045655 0.012350 0.022167 0.019524 0.011774 0.063369 0.074920 0.084951 0.049491 0.057632 0.033432 0.083073 0.000746 -0.004117 0.036454 0.033330 0.063387 0.050928 0.068930 0.067036 0.056842 0.029927 0.045282 -0.000083 -0.047554 -0.033294 -0.016726 0.023322 0.039064 0.112214 -0.004225 0.055715 0.053391 0.003180 0.072828 0.024708 0.003529 0.031207 0.045679 0.039202 0.092997 0.041468 0.074585 0.070612 0.099260 0.069100 0.079481 0.096000 0.051950 -0.006896 0.061579 0.045937 0.040118 0.088379 0.083447 0.036863 0.065400 0.101720 0.033769 0.016368 -0.068014 0.000115 0.116909 0.097449 0.080973 0.044164 0.003015 0.060685 0.038202 -0.050741 0.047936 0.035983 0.059544 0.047960 -0.010030 0.043092 0.016624 0.056290 0.031775 0.043049 -0.036627 0.067229 0.116954 0.031340 0.003108 0.006161 0.022705 -0.039370 -0.020077 -0.026072 -0.034214 -0.102805 -0.036654 -0.024974 0.005638 -0.033693 -0.070123 0.018972 -0.080557 -0.037807 -0.068654 0.058352 0.011212 0.040779 -0.004417 0.058442 -0.047733 -0.058774 0.024709 -0.047706 0.015965 -0.013182 0.145319 -0.064054 0.018916 0.021115 -0.057327 -0.004220 -0.014794 -0.037342 -0.162719 -0.029115 -0.044085 -0.019665 0.019766 -0.002014 0.118417 0.051982 0.028679 0.004450 -0.039993 -0.020361 -0.012062 0.263149 0.180207 0.253210 0.252324 0.293269 0.338330 0.276879 0.079584 -1.127121
0.072396 0.072910 0.074453 0.077024 0.080622 0.085247 0.090896 0.097570 0.105264 0.113977 0.123704 0.134442 0.146184 0.158923 0.172652 0.187361 0.203038 0.219668 0.237238 0.255727 0.275115 0.295376 0.316485 0.338408 0.361111 0.384553 0.408692 0.433478 0.458857 0.484769 0.511148 0.537925 0.565020 0.592351 0.619825 0.647347 0.674810 0.702104 0.729109 0.755700 0.781743 0.807099 0.831620 0.855154 0.877539 0.898612 0.918202 0.936134 0.952230 0.966306 0.978181 0.987669 0.994587 0.998753 0.999986 0.998114 0.992968 0.984390 0.972230 0.956351 0.936632 0.912968 0.885272 0.853479 0.817548 0.777465 0.733242 0.684925 0.632589 0.576347 0.516347 0.452776 0.385862 0.315873 0.243119 0.167953 0.090768 0.012003 0.067866 0.148322 0.228810 0.308743 0.387499 0.464434 0.538878 0.610146 0.677543 0.740369 0.797930 0.849543 0.894546 0.932308 0.962236 0.983789 0.996484 0.999908 0.993728 0.977703 0.951686 0.915642 0.869650 0.813911 0.748755 0.674641 0.592167 0.502061 0.405187 0.302539 0.195234 0.084506 0.028311 0.141788 0.254424 0.364660 0.470903 0.571548 0.665005 0.749721 0.824214 0.887096 0.937107 0.973144 0.994282 0.999813 0.989259 0.962401 0.919295 0.860287 0.786022 0.697450 0.595819 0.482676 0.359843 0.229398 0.093651 0.044900 0.183601 0.319701 0.450397 0.572898 0.684485 0.782572 0.864778 0.928985 0.973403 0.996629 0.997695 0.976118 0.931930 0.865706 0.778573 0.672207 0.548820 0.411124 0.262287 0.105865 0.054269 0.214017 0.369162 0.515473 0.648828 0.765333 0.861443 0.934083 0.980755 0.999639 0.989678 0.950639 0.883159 0.788760 0.669840 0.529630 0.372133 0.202016 0.024493 0.154832 0.330130 0.495540 0.645366 0.774283 0.877531 0.951116 0.991972 0.998115 0.968754 0.904366 0.806729 0.678903 0.525166 0.350887 0.162375 0.033348 0.228794 0.416283 0.588255 0.737579 0.857858 0.943727 0.991116 0.997459 0.961870 0.885233 0.770228 0.621278 0.444407 0.247039 0.037692 0.174355 0.379480 0.568145 0.731347 0.861071 0.950699 0.995379 0.992323 0.941009 0.843284 0.703350 0.527627 0.324493 0.103930 0.122961 0.344488 0.548981 0.725409 0.863991 0.956771 0.998108 0.985059 0.917630 0.798865 0.634765 0.434038 0.207683 0.031586 0.270025 0.493646 0.689042 0.844209 0.949312 0.997353 0.984684 0.911332 0.781104 0.601457 0.383131 0.139554 0.113942 0.361079 0.585655 0.772638 0.909181 0.985563 0.995929 0.938794 0.817271 0.638985 0.415655 0.162391 0.103277 0.362613 0.596961 0.789123 0.924638 0.992930 0.988198 0.909971 0.763289 0.558461 0.310424 0.037711 0.238901 0.497936 0.718909 0.883966 0.979377 0.996748 0.933835 0.794885 0.590451 0.336678 0.054095 0.233987 0.503376 0.731050 0.897140 0.986724 0.991258 0.909460 0.747621 0.519210 0.243863 0.054232 0.348433 0.611988 0.820492 0.954209 0.999998 0.952707 0.815850 0.601470 0.329193 0.024526 0.283481 0.564978 0.792210 0.942310 0.999681 0.957712 0.819652 0.598503 0.315923 0.000197 0.316530 0.601489 0.824710 0.962222 0.998718 0.929381 0.760629 0.509668 0.202864 0.126918 0.443803 0.712776 0.903595 0.994277 0.973743 0.843302 0.616772 0.319158 0.015987 0.350257 0.644778 0.864751 0.983630 0.986452 0.871861 0.652546 0.354019 0.011755 0.332906 0.637734 0.864802 0.985277 0.983219 0.857837 0.623896 0.310157 0.044018 0.393515 0.693188 0.903723 0.996889 0.959478 0.795339 0.525208 0.184263 0.182320 0.525286 0.797890 0.962359 0.995246
1.000000 1.000000 1.000000 1.000000 1.000000 1.000000 1.000000 1.000000 1.000000 1.000000 1.000000 1.000000 1.000000 1.000000 1.000000 1.000000 1.000000 1.000000 1.000000 1.000000 1.000000 1.000000 1.000000 1.000000 1.000000 1.000000 1.000000 1.000000 1.000000 1.000000 1.000000 1.000000 1.000000 1.000000 1.000000 1.000000 1.000000 1.000000 1.000000 1.000000 1.000000 1.000000 1.000000 1.000000 1.000000 1.000000 1.000000 1.000000 1.000000 1.000000 1.000000 1.000000 0.915533 0.915533 0.904032 0.904032 0.904032 0.904032 0.904032 0.904032 0.904032 0.904032 0.904032 0.904032 0.904032 0.904032 0.904032 0.904032 0.904032 0.904032 0.904032 0.904032 0.904032 0.904032 0.904032 0.904032 0.904032 0.904032 0.904032 0.904032 0.904032 0.904032 0.904032 0.904032 0.904032 0.904032 0.904032 0.904032 0.904032 0.904032 0.904032 0.904032 0.904032 0.904032 0.904032 0.902334 0.907316 0.909287 0.907833 0.911329 0.911382 0.909364 0.908840 0.908512 0.908867 0.910274 0.920743 0.931714 0.942681 0.943217 0.948426 0.952613 0.955109 0.955853 0.957443 0.967611 0.964932 0.964470 0.965176 0.966642 0.968751 0.967582 0.967023 0.970064 0.970723 0.969208 0.966813 0.966159 0.965523 0.965613 0.965257 0.965135 0.965000 0.965529 0.965766 0.965403 0.965554 0.965616 0.964285 0.963949 0.966581 0.967839 0.967751 0.966542 0.961143 0.964564 0.965216 0.964678 0.964700 0.964397 0.964717 0.948429 0.945267 0.945183 0.940507 0.939405 0.936313 0.934732 0.933728 0.934743 0.934064 0.934579 0.931781 0.919043 0.905650 0.891755 0.912624 0.900792 0.886705 0.863892 0.864192 0.858637 0.859098 0.852416 0.844986 0.840278 0.837664 0.839862 0.840864 0.845427 0.842049 0.827101 0.831045 0.826395 0.792072 0.780034 0.767990 0.763572 0.760681 0.761822 0.759546 0.754228 0.762976 0.754796 0.752812 0.742002 0.720366 0.686694 0.675313 0.685999 0.694392 0.701623 0.697773 0.682352 0.638354 0.652434 0.680130 0.673841 0.674270 0.669664 0.663197 0.671901 0.670058 0.666423 0.661315 0.660805 0.660301 0.669622 0.675090 0.666631 0.660988 0.649416 0.639246 0.623633 0.635372 0.640168 0.609330 0.603180 0.596357 0.590597 0.586342 0.570049 0.571660 0.550130 0.534952 0.534518 0.534969 0.539178 0.547876 0.547371 0.525821 0.546492 0.539206 0.571021 0.543795 0.541715 0.542877 0.553467 0.536394 0.528573 0.521520 0.522306 0.535322 0.563573 0.598227 0.588858 0.578597 0.571592 0.584096 0.568323 0.577546 0.604778 0.583093 0.515303 0.470703 0.467799 0.435231 0.424271 0.411065 0.387452 0.366989 0.362939 0.356656 0.342317 0.331180 0.280905 0.247024 0.229176 0.209221 0.224421 0.238479 0.234005 0.237085 0.282820 0.326910 0.332957 0.323752 0.299665 0.297568 0.297276 0.256555 0.254476 0.218136 0.201013 0.228070 0.174361 0.178436 0.130429 0.124916 0.140460 0.157620 0.170446 0.124194 0.109467 0.131276 0.152798 0.140403 0.131934 0.087544 0.062284 0.050435 0.063539 0.045034 0.018458 0.022363 0.027802 0.008129 -0.014287 -0.013261 -0.025550 -0.022548 -0.037340 -0.032603 0.006617 0.034259 0.025156 0.027774 0.046770 0.043526 0.027476 0.019280 -0.001624 -0.008418 -0.055632 -0.081766 -0.081766 -0.074850 -0.074850 -0.074850 -0.074850 -0.074850 -0.074850 -0.074850 -0.074850 -0.074850 -0.075925 -0.075925 -0.075925 -0.075925 -0.075925 -0.075925 -0.075925 -0.075925 -0.075925 -0.054867 -0.054867 -0.054867 -0.054867 -0.054867 -0.054867 -0.054867 -0.054867 -0.054867
0.000000 0.000000 0.000000 0.000000 0.000000 0.000000 0.000000 0.000000 0.000000 0.000000 0.000000 0.000000 0.000000 0.000000 0.000000 0.000000 0.000000 0.000000 0.000000 0.000000 0.000000 0.000000 0.000000 0.000000 0.000000 7.000000 4.000000 0.000000 0.000000 0.000000 0.000000 0.000000 0.000000 0.000000 0.000000 0.000000 0.000000 0.000000 0.000000 0.000000 0.000000 0.000000 0.000000 0.000000 0.000000 0.000000 0.000000 0.000000 0.000000 0.000000 0.000000 0.000000 0.181818 0.181818 0.199007 0.199007 0.199007 0.199007 0.199007 0.199007 0.199007 0.199007 0.199007 0.199007 0.199007 0.199007 0.199007 0.199007 0.199007 0.199007 0.199007 0.199007 0.199007 0.199007 0.199007 0.199007 0.199007 0.199007 0.199007 0.199007 0.199007 0.199007 0.199007 0.199007 0.199007 0.199007 0.199007 0.199007 0.199007 0.199007 0.199007 0.199007 0.199007 0.199007 0.199007 0.230940 0.230940 0.230940 0.230940 0.230940 0.230940 0.230940 0.230940 0.230940 0.230940 0.230940 0.230940 0.230940 0.230940 0.230940 0.230940 0.230940 0.230940 0.230940 0.230940 0.230940 0.230940 0.230940 0.230940 0.230940 0.230940 0.230940 0.230940 0.244339 0.244339 0.244339 0.244339 0.244339 0.244339 0.244339 0.244339 0.244339 0.244339 0.244339 0.244339 0.244339 0.244339 0.244339 0.244339 0.244339 0.244339 0.244339 0.244339 0.244339 0.244339 0.244339 0.251976 0.251976 0.251976 0.251976 0.251976 0.251976 0.251976 0.251976 0.251976 0.251976 0.251976 0.251976 0.251976 0.251976 0.251976 0.251976 0.251976 0.251976 0.251976 0.251976 0.264906 0.264906 0.264906 0.264906 0.264906 0.264906 0.264906 0.264906 0.264906 0.264906 0.264906 0.264906 0.264906 0.264906 0.264906 0.264906 0.264906 0.264906 0.264906 0.264906 0.264906 0.264906 0.264906 0.264906 0.264906 0.264906 0.264906 0.264906 0.264906 0.264906 0.264906 0.264906 0.264906 0.264906 0.264906 0.264906 0.264906 0.264906 0.264906 0.264906 0.264906 0.264906 0.264906 0.264906 0.264906 0.264906 0.264906 0.264906 0.264906 0.264906 0.264906 0.264906 0.264906 0.264906 0.264906 0.264906 0.264906 0.264906 0.264906 0.264906 0.264906 0.264906 0.264906 0.264906 0.264906 0.264906 0.264906 0.264906 0.264906 0.264906 0.264906 0.264906 0.264906 0.264906 0.264906 0.269680 0.269680 0.269680 0.269680 0.269680 0.269680 0.269680 0.269680 0.269680 0.269680 0.269680 0.269680 0.264906 0.264906 0.264906 0.264906 0.264906 0.264906 0.264906 0.264906 0.264906 0.264906 0.264906 0.264906 0.269680 0.269680 0.269680 0.269680 0.269680 0.269680 0.269680 0.269680 0.269680 0.269680 0.269680 0.264906 0.264906 0.264906 0.264906 0.264906 0.264906 0.264906 0.264906 0.264906 0.264906 0.264906 0.269680 0.269680 0.269680 0.269680 0.269680 0.269680 0.269680 0.269680 0.269680 0.269680 0.251976 0.251976 0.251976 0.251976 0.251976 0.251976 0.251976 0.251976 0.251976 0.251976 0.251976 0.269680 0.269680 0.269680 0.269680 0.269680 0.269680 0.269680 0.269680 0.269680 0.256074 0.256074 0.256074 0.256074 0.256074 0.256074 0.256074 0.256074 0.256074 0.256074 0.260378 0.260378 0.260378 0.260378 0.260378 0.260378 0.260378 0.260378 0.260378 0.256074 0.256074 0.256074 0.256074 0.256074 0.256074 0.256074 0.256074 0.256074 0.251976 0.251976 0.251976 0.251976 0.251976 0.251976 0.251976 0.251976 0.251976 0.264906 0.264906 0.264906 0.264906 0.264906 0.264906 0.264906 0.264906 0.264906
