# Output from CTFFind version 4.1.9, run on 2019-11-01 22:46:05
# Input file: first_bm3d_averaged_1_2.2_1.00_2000_half.mrc ; Number of micrographs: 1
# Pixel size: 3.000 Angstroms ; acceleration voltage: 300.0 keV ; spherical aberration: 0.00 mm ; amplitude contrast: 0.07
# Box size: 512 pixels ; min. res.: 30.0 Angstroms ; max. res.: 5.0 Angstroms ; min. def.: 5000.0 um; max. def. 50000.0 um; num. frames averaged: 1
# 6 lines per micrograph: #1 - spatial frequency (1/Angstroms); #2 - 1D rotational average of spectrum (assuming no astigmatism); #3 - 1D rotational average of spectrum; #4 - CTF fit; #5 - cross-correlation between spectrum and CTF fit; #6 - 2sigma of expected cross correlation of noise
0.000000 0.000651 0.001302 0.001953 0.002604 0.003255 0.003906 0.004557 0.005208 0.005859 0.006510 0.007161 0.007812 0.008464 0.009115 0.009766 0.010417 0.011068 0.011719 0.012370 0.013021 0.013672 0.014323 0.014974 0.015625 0.016276 0.016927 0.017578 0.018229 0.018880 0.019531 0.020182 0.020833 0.021484 0.022135 0.022786 0.023438 0.024089 0.024740 0.025391 0.026042 0.026693 0.027344 0.027995 0.028646 0.029297 0.029948 0.030599 0.031250 0.031901 0.032552 0.033203 0.033854 0.034505 0.035156 0.035807 0.036458 0.037109 0.037760 0.038411 0.039062 0.039714 0.040365 0.041016 0.041667 0.042318 0.042969 0.043620 0.044271 0.044922 0.045573 0.046224 0.046875 0.047526 0.048177 0.048828 0.049479 0.050130 0.050781 0.051432 0.052083 0.052734 0.053385 0.054036 0.054688 0.055339 0.055990 0.056641 0.057292 0.057943 0.058594 0.059245 0.059896 0.060547 0.061198 0.061849 0.062500 0.063151 0.063802 0.064453 0.065104 0.065755 0.066406 0.067057 0.067708 0.068359 0.069010 0.069661 0.070312 0.070964 0.071615 0.072266 0.072917 0.073568 0.074219 0.074870 0.075521 0.076172 0.076823 0.077474 0.078125 0.078776 0.079427 0.080078 0.080729 0.081380 0.082031 0.082682 0.083333 0.083984 0.084635 0.085286 0.085938 0.086589 0.087240 0.087891 0.088542 0.089193 0.089844 0.090495 0.091146 0.091797 0.092448 0.093099 0.093750 0.094401 0.095052 0.095703 0.096354 0.097005 0.097656 0.098307 0.098958 0.099609 0.100260 0.100911 0.101562 0.102214 0.102865 0.103516 0.104167 0.104818 0.105469 0.106120 0.106771 0.107422 0.108073 0.108724 0.109375 0.110026 0.110677 0.111328 0.111979 0.112630 0.113281 0.113932 0.114583 0.115234 0.115885 0.116536 0.117188 0.117839 0.118490 0.119141 0.119792 0.120443 0.121094 0.121745 0.122396 0.123047 0.123698 0.124349 0.125000 0.125651 0.126302 0.126953 0.127604 0.128255 0.128906 0.129557 0.130208 0.130859 0.131510 0.132161 0.132812 0.133464 0.134115 0.134766 0.135417 0.136068 0.136719 0.137370 0.138021 0.138672 0.139323 0.139974 0.140625 0.141276 0.141927 0.142578 0.143229 0.143880 0.144531 0.145182 0.145833 0.146484 0.147135 0.147786 0.148438 0.149089 0.149740 0.150391 0.151042 0.151693 0.152344 0.152995 0.153646 0.154297 0.154948 0.155599 0.156250 0.156901 0.157552 0.158203 0.158854 0.159505 0.160156 0.160807 0.161458 0.162109 0.162760 0.163411 0.164062 0.164714 0.165365 0.166016 0.166667 0.167318 0.167969 0.168620 0.169271 0.169922 0.170573 0.171224 0.171875 0.172526 0.173177 0.173828 0.174479 0.175130 0.175781 0.176432 0.177083 0.177734 0.178385 0.179036 0.179688 0.180339 0.180990 0.181641 0.182292 0.182943 0.183594 0.184245 0.184896 0.185547 0.186198 0.186849 0.187500 0.188151 0.188802 0.189453 0.190104 0.190755 0.191406 0.192057 0.192708 0.193359 0.194010 0.194661 0.195312 0.195964 0.196615 0.197266 0.197917 0.198568 0.199219 0.199870 0.200521 0.201172 0.201823 0.202474 0.203125 0.203776 0.204427 0.205078 0.205729 0.206380 0.207031 0.207682 0.208333 0.208984 0.209635 0.210286 0.210938 0.211589 0.212240 0.212891 0.213542 0.214193 0.214844 0.215495 0.216146 0.216797 0.217448 0.218099 0.218750 0.219401 0.220052 0.220703 0.221354 0.222005 0.222656 0.223307 0.223958 0.224609 0.225260 0.225911 0.226562 0.227214 0.227865 0.228516 0.229167 0.229818 0.230469 0.231120 0.231771 0.232422 0.233073 0.233724 0.234375 0.235026 0.235677
       0.34008        0.34008        0.34008        0.34008        0.34008        0.34008        0.34008        0.34008        0.34008        0.34008        0.34008        0.34008        0.34008        0.34008        0.34008        0.34008        0.34008        0.34008        0.34008        0.34008        0.34008        0.34008        0.34008        0.34008        0.34008        0.34008        0.34008        0.34008        0.34008        0.34008        0.34008        0.34008        0.34008        0.34008        0.34008        0.34008        0.34008        0.34008        0.34008        0.34008        0.34008        0.34008        0.34008        0.34008        0.34008        0.34008        0.34008        0.34008        0.34008        0.34008        0.34008        0.50411        0.72095        0.42413        0.19842       -0.07008       -0.25148       -0.06198       -0.12382       -0.06580        0.00254       -0.14125       -0.10233       -0.03720        0.00802       -0.14772       -0.21878       -0.32962       -0.46364       -0.57312       -0.52004       -0.46039       -0.36727       -0.55253       -0.44507       -0.61425       -0.49854       -0.47020       -0.39539       -0.37132       -0.32537       -0.23165       -0.16022       -0.13565        0.03224       -0.01047        0.12296        0.17857        0.32203        0.42530        0.48110        0.51133        0.55272        0.56070        0.70770        0.65902        0.68920        0.59168        0.56349        0.65386        0.53201        0.45011        0.41139        0.31037        0.25294        0.27618        0.25994        0.10391        0.08898        0.00737       -0.00316        0.03414       -0.00810        0.07587        0.09552        0.22884        0.29064        0.30447        0.40775        0.57055        0.55046        0.57734        0.67201        0.68337        0.63449        0.65204        0.64475        0.53896        0.57071        0.40116        0.36406        0.27468        0.18932        0.08560        0.14754        0.11951        0.11754        0.12843        0.20877        0.19477        0.31795        0.35568        0.41333        0.49969        0.56265        0.55033        0.56234        0.61141        0.54675        0.48323        0.48762        0.32857        0.26145        0.26458        0.25466        0.15551        0.15655        0.15880        0.23622        0.27287        0.34025        0.38396        0.41258        0.45987        0.45518        0.48322        0.44442        0.48234        0.44690        0.39250        0.37032        0.37546        0.34174        0.29884        0.21742        0.22818        0.23664        0.28186        0.26856        0.35329        0.38857        0.36421        0.41711        0.45521        0.44887        0.43433        0.44304        0.35777        0.34029        0.29009        0.26248        0.30261        0.26923        0.30085        0.31448        0.35241        0.33943        0.40915        0.40047        0.44111        0.40291        0.45261        0.41262        0.38301        0.28931        0.28851        0.29163        0.28516        0.27884        0.34642        0.36801        0.33866        0.37026        0.37989        0.35318        0.41618        0.41167        0.36791        0.35543        0.31061        0.30511        0.32466        0.31524        0.31326        0.30082        0.34526        0.36545        0.38429        0.34789        0.33827        0.33184        0.35839        0.32298        0.29866        0.32482        0.33065        0.33079        0.33296        0.34604        0.37251        0.33607        0.32830        0.34894        0.31518        0.27218        0.26398        0.28256        0.31044        0.32221        0.36194        0.30187        0.31074        0.33768        0.30351        0.33160        0.30142        0.28422        0.28351        0.28721        0.29529        0.34798        0.31736        0.33704        0.32044        0.35131        0.35238        0.32308        0.33502        0.33865        0.27508        0.29983        0.31846        0.28764        0.33211        0.32814        0.33639        0.32385        0.35681        0.34785        0.29216        0.24569        0.28091        0.34480        0.36841        0.36485        0.31856        0.30639        0.30216        0.31973        0.26751        0.29752        0.30827        0.33214        0.30947        0.29656        0.26733        0.34375        0.34102        0.34155        0.30696        0.30802        0.31264        0.39460        0.36011        0.34281        0.33473        0.31470        0.29344        0.30735        0.30988        0.28952        0.23701        0.27608        0.30130        0.31226        0.30153        0.28619        0.26791        0.24353        0.23605        0.28716        0.33171        0.30359        0.32325        0.32234        0.35546        0.24740        0.21667        0.26992        0.25288        0.29009        0.29668        0.33174        0.26688        0.29003        0.27812        0.23796        0.27272        0.27123        0.23935        0.19250        0.24236        0.24823        0.25133        0.30695        0.29932        0.34087        0.32058        0.28875        0.28480        0.20854        0.25941        0.28544        0.27142        0.17660        0.21468        0.26616        0.20119        0.28259        0.22014        0.12218       -0.49221       -0.84694
2.661964 2.634030 2.606245 2.578610 2.551124 2.523787 2.496601 2.469563 2.442675 2.415937 2.389348 2.362908 2.336618 2.310477 2.284486 2.258645 2.232952 2.207410 2.182016 2.156773 2.131678 2.106734 2.081938 2.057293 2.032796 2.008449 1.984252 1.960204 1.936306 1.912557 1.888957 1.865507 1.842207 1.819056 1.796054 1.773202 1.750499 1.727946 1.705543 1.683288 1.661184 1.639229 1.617423 1.595767 1.574260 1.552902 1.531695 1.510636 1.489727 1.468968 1.448358 1.511422 1.823490 1.492745 1.189819 0.931156 0.535062 0.905858 0.632176 0.840131 0.907170 0.590403 0.675665 0.778915 0.823440 0.609330 0.523523 0.355303 0.089734 0.046269 0.032530 0.040119 0.292193 -0.050939 0.064204 -0.134099 -0.033664 -0.016322 0.052010 0.067931 0.103972 0.182671 0.277479 0.242431 0.467384 0.394719 0.543805 0.531932 0.782821 0.791185 0.889147 0.947933 0.935445 0.961496 1.124245 0.958492 1.152707 0.939611 0.860837 1.013487 0.848895 0.773171 0.658042 0.577472 0.467682 0.438926 0.508207 0.262048 0.203532 0.165497 0.014184 0.194917 -0.014061 0.123324 0.171470 0.249649 0.341711 0.349049 0.451989 0.554333 0.685829 0.535278 0.740790 0.841872 0.630496 0.724681 0.687481 0.577384 0.534228 0.468704 0.319418 0.223945 0.123272 -0.022306 -0.014357 0.045810 -0.065757 -0.043737 0.072103 0.036453 0.099493 0.219218 0.241154 0.321280 0.437868 0.432451 0.463278 0.449033 0.465263 0.344040 0.338988 0.245589 0.050629 0.068658 0.025645 -0.037107 -0.089919 -0.087467 -0.024018 -0.013352 0.091715 0.131461 0.153435 0.256818 0.227174 0.257296 0.280538 0.237492 0.244872 0.215897 0.139785 0.126212 0.132858 0.037777 0.023658 -0.100441 -0.023391 0.014082 0.003980 0.017874 0.116456 0.086298 0.135000 0.190042 0.268322 0.160891 0.206065 0.110544 0.126142 0.027378 -0.032827 0.017157 -0.009329 0.006359 -0.002936 0.053754 0.062904 0.066410 0.156467 0.119978 0.161595 0.084477 0.176357 0.100242 0.017390 -0.044885 -0.031808 -0.029163 -0.056471 -0.036298 0.075593 0.055842 -0.008618 0.076301 0.080843 0.059676 0.149228 0.077344 0.080007 0.055445 -0.030212 0.021479 0.005410 0.005316 0.019046 0.008682 0.052447 0.058430 0.077669 0.036015 0.037502 0.000196 0.078856 -0.009293 -0.004184 0.024724 0.015348 0.048741 0.039888 0.056962 0.066777 0.034859 0.022163 0.041428 -0.002492 -0.056839 -0.030366 -0.016412 0.002037 0.020252 0.101920 -0.025485 0.051818 0.052288 0.012386 0.070223 0.030441 0.002412 0.020956 0.033547 0.036641 0.094867 0.032165 0.096717 0.070641 0.115824 0.084581 0.091040 0.102101 0.069139 -0.003332 0.073067 0.059198 0.035666 0.109419 0.084166 0.036888 0.070962 0.105665 0.059542 0.026224 -0.065798 0.026241 0.117692 0.110172 0.086003 0.054782 0.015266 0.050112 0.045978 -0.033665 0.047007 0.039560 0.074000 0.068295 -0.023867 -0.016847 0.105049 0.042581 0.028928 0.018752 -0.018617 0.061515 0.121773 0.050389 0.020797 0.050886 0.009028 -0.046125 -0.007930 -0.017418 -0.052330 -0.102848 -0.044507 -0.030182 -0.005193 -0.029787 -0.071008 -0.037225 -0.072045 -0.041374 -0.061159 0.057727 0.006562 0.030614 0.029461 0.068628 -0.077461 -0.071064 -0.039519 -0.051605 0.023904 -0.007008 0.080632 -0.068747 0.001288 0.003490 -0.055625 0.000976 0.004713 -0.045712 -0.139743 -0.022705 -0.007607 -0.029306 0.034090 0.026771 0.132769 0.040407 0.046607 0.036332 -0.051677 -0.008247 0.013021 0.324989 0.215318 0.264860 0.294868 0.265515 0.309608 0.160325 0.151439 -0.998008
0.072396 0.072910 0.074452 0.077022 0.080619 0.085242 0.090889 0.097560 0.105251 0.113961 0.123684 0.134418 0.146155 0.158890 0.172614 0.187317 0.202988 0.219612 0.237175 0.255657 0.275038 0.295292 0.316393 0.338308 0.361003 0.384438 0.408569 0.433347 0.458718 0.484622 0.510994 0.537763 0.564852 0.592176 0.619644 0.647160 0.674619 0.701909 0.728912 0.755501 0.781544 0.806901 0.831425 0.854962 0.877354 0.898435 0.918035 0.935979 0.952089 0.966183 0.978077 0.987588 0.994531 0.998725 0.999989 0.998151 0.993042 0.984504 0.972386 0.956554 0.936883 0.913270 0.885628 0.853891 0.818018 0.777995 0.733833 0.685577 0.633303 0.577122 0.517183 0.453672 0.386816 0.316882 0.244179 0.169059 0.091916 0.013185 0.066656 0.147091 0.227567 0.307498 0.386263 0.463216 0.537692 0.609003 0.676457 0.739353 0.796998 0.848708 0.893823 0.931709 0.961775 0.983478 0.996335 0.999931 0.993932 0.978095 0.952272 0.916426 0.870633 0.815092 0.750129 0.676202 0.593904 0.503961 0.407235 0.304715 0.197516 0.086867 0.025899 0.139355 0.252003 0.362287 0.468614 0.569382 0.662998 0.747911 0.822638 0.885789 0.936101 0.972467 0.993961 0.999867 0.989702 0.963243 0.920536 0.861923 0.788038 0.699825 0.598524 0.485672 0.363084 0.232831 0.097215 0.041268 0.179974 0.316151 0.447002 0.569736 0.681630 0.780097 0.862752 0.927468 0.972447 0.996276 0.997975 0.977045 0.933506 0.867914 0.781382 0.675568 0.552667 0.415377 0.266848 0.110629 0.049422 0.209212 0.364529 0.511145 0.644934 0.761995 0.858773 0.932178 0.979693 0.999479 0.990451 0.952350 0.885785 0.792249 0.674108 0.534569 0.377604 0.207860 0.030529 0.148794 0.324291 0.490103 0.640525 0.770222 0.874414 0.949077 0.991115 0.998503 0.970407 0.907258 0.810787 0.684008 0.531152 0.357551 0.169478 0.026074 0.221628 0.409515 0.582167 0.732435 0.853894 0.941139 0.990045 0.997991 0.964022 0.888953 0.775393 0.627697 0.451828 0.255153 0.046150 0.165933 0.371482 0.560953 0.725319 0.856521 0.947880 0.994469 0.993411 0.944088 0.848250 0.709996 0.535656 0.333528 0.113527 0.113286 0.335242 0.540664 0.718485 0.858863 0.953758 0.997423 0.986792 0.921737 0.805167 0.642953 0.443684 0.218262 0.020667 0.259401 0.483954 0.680879 0.838099 0.945669 0.996452 0.986638 0.916079 0.788404 0.610901 0.394162 0.151497 0.101845 0.349611 0.575586 0.764664 0.903875 0.983340 0.996999 0.943149 0.824676 0.648983 0.427599 0.175479 0.089961 0.350013 0.586005 0.780640 0.919295 0.991184 0.990247 0.915733 0.772397 0.570289 0.324113 0.052237 0.224652 0.485083 0.708496 0.876865 0.976218 0.997857 0.939202 0.804146 0.602910 0.351359 0.069812 0.218537 0.489511 0.719980 0.889866 0.983944 0.993292 0.916215 0.758580 0.533471 0.260209 0.037245 0.332331 0.598261 0.810447 0.948836 0.999878 0.957941 0.826032 0.615714 0.346205 0.042708 0.265872 0.549671 0.780748 0.935894 0.999030 0.962985 0.830411 0.613748 0.334169 0.019613 0.297932 0.585664 0.813357 0.956609 0.999532 0.936637 0.773649 0.527133 0.222946 0.106380 0.425060 0.697935 0.894370 0.991789 0.978377 0.854642 0.633622 0.339666 0.005867 0.329583 0.627716 0.853364 0.979350 0.989896 0.882730 0.669644 0.375362 0.034808 0.310948 0.619591 0.852781 0.980967 0.987273 0.869863 0.642484 0.333032 0.019735 0.370935 0.675268 0.892866 0.994623 0.966223 0.810325 0.546553 0.209186 0.157134 0.503237 0.782039 0.954968 0.997452
1.000000 1.000000 1.000000 1.000000 1.000000 1.000000 1.000000 1.000000 1.000000 1.000000 1.000000 1.000000 1.000000 1.000000 1.000000 1.000000 1.000000 1.000000 1.000000 1.000000 1.000000 1.000000 1.000000 1.000000 1.000000 1.000000 1.000000 1.000000 1.000000 1.000000 1.000000 1.000000 1.000000 1.000000 1.000000 1.000000 1.000000 1.000000 1.000000 1.000000 1.000000 1.000000 1.000000 1.000000 1.000000 1.000000 1.000000 1.000000 1.000000 1.000000 1.000000 1.000000 0.916221 0.916221 0.901449 0.901449 0.901449 0.901449 0.901449 0.901449 0.901449 0.901449 0.901449 0.901449 0.901449 0.901449 0.901449 0.901449 0.901449 0.901449 0.901449 0.901449 0.901449 0.901449 0.901449 0.901449 0.901449 0.901449 0.901449 0.901449 0.901449 0.901449 0.901449 0.901449 0.901449 0.901449 0.901449 0.901449 0.901449 0.901449 0.901449 0.901449 0.901449 0.901449 0.901449 0.897968 0.902944 0.905514 0.904025 0.907631 0.907703 0.905704 0.905174 0.904809 0.905149 0.906592 0.917131 0.931658 0.939129 0.941426 0.946479 0.950781 0.953146 0.953942 0.957595 0.967581 0.964979 0.964518 0.965237 0.966764 0.968927 0.969142 0.970545 0.969715 0.970420 0.970435 0.970036 0.969448 0.968868 0.968980 0.968618 0.968504 0.969931 0.970394 0.969943 0.970075 0.970216 0.970270 0.968805 0.968606 0.971049 0.972114 0.971981 0.970854 0.965509 0.969178 0.969946 0.969492 0.969467 0.969071 0.969374 0.955590 0.949877 0.949798 0.943622 0.942676 0.939312 0.938315 0.937091 0.937792 0.937617 0.938542 0.935422 0.922544 0.912022 0.896055 0.917207 0.908800 0.892035 0.870762 0.871012 0.867993 0.868657 0.862110 0.853748 0.849008 0.846576 0.848492 0.852564 0.857212 0.854103 0.844317 0.848070 0.842210 0.807886 0.797134 0.787901 0.778582 0.777701 0.779004 0.775727 0.769350 0.777761 0.770528 0.767531 0.758392 0.744636 0.720433 0.711283 0.717484 0.724770 0.728399 0.723114 0.699929 0.651759 0.667404 0.692540 0.689939 0.692625 0.690527 0.683358 0.687998 0.690264 0.685389 0.682330 0.682790 0.682585 0.689349 0.690559 0.677637 0.673405 0.663430 0.650637 0.627795 0.640603 0.648288 0.628919 0.623082 0.615111 0.608749 0.611940 0.610385 0.613004 0.588383 0.570208 0.565726 0.561205 0.565040 0.571940 0.571956 0.557212 0.577216 0.562833 0.590893 0.563053 0.559543 0.558929 0.570720 0.555962 0.548803 0.545848 0.545522 0.548413 0.570944 0.583286 0.567914 0.561529 0.554585 0.568268 0.553927 0.568369 0.598194 0.574874 0.525135 0.487078 0.483078 0.449149 0.438190 0.405192 0.375706 0.390311 0.373200 0.361285 0.346091 0.340649 0.308827 0.271410 0.254163 0.248820 0.264270 0.283507 0.277810 0.277916 0.315782 0.354397 0.357516 0.349659 0.307126 0.276592 0.232982 0.220856 0.240558 0.200577 0.207689 0.193183 0.192836 0.191818 0.147516 0.189868 0.101758 0.089993 0.090681 0.112092 0.080675 0.074943 0.073428 0.039807 0.055144 0.054986 0.031721 0.030846 0.045342 0.020286 0.000027 0.010756 0.017675 0.018608 -0.000579 0.007044 -0.002056 -0.003532 -0.015160 -0.016695 0.018513 0.065808 0.065692 0.073949 0.074388 0.060265 0.058844 0.052051 0.013901 -0.005285 -0.049379 -0.073583 -0.073583 -0.054654 -0.054654 -0.054654 -0.054654 -0.054654 -0.054654 -0.054654 -0.054654 -0.054654 -0.058823 -0.058823 -0.058823 -0.058823 -0.058823 -0.058823 -0.058823 -0.058823 -0.058823 -0.048453 -0.048453 -0.048453 -0.048453 -0.048453 -0.048453 -0.048453 -0.048453 -0.048453
0.000000 0.000000 0.000000 0.000000 0.000000 0.000000 0.000000 0.000000 0.000000 0.000000 0.000000 0.000000 0.000000 0.000000 0.000000 0.000000 0.000000 0.000000 0.000000 0.000000 0.000000 0.000000 0.000000 0.000000 0.000000 7.000000 4.000000 0.000000 0.000000 0.000000 0.000000 0.000000 0.000000 0.000000 0.000000 0.000000 0.000000 0.000000 0.000000 0.000000 0.000000 0.000000 0.000000 0.000000 0.000000 0.000000 0.000000 0.000000 0.000000 0.000000 0.000000 0.000000 0.181818 0.181818 0.199007 0.199007 0.199007 0.199007 0.199007 0.199007 0.199007 0.199007 0.199007 0.199007 0.199007 0.199007 0.199007 0.199007 0.199007 0.199007 0.199007 0.199007 0.199007 0.199007 0.199007 0.199007 0.199007 0.199007 0.199007 0.199007 0.199007 0.199007 0.199007 0.199007 0.199007 0.199007 0.199007 0.199007 0.199007 0.199007 0.199007 0.199007 0.199007 0.199007 0.199007 0.230940 0.230940 0.230940 0.230940 0.230940 0.230940 0.230940 0.230940 0.230940 0.230940 0.230940 0.230940 0.230940 0.230940 0.230940 0.230940 0.230940 0.230940 0.230940 0.230940 0.230940 0.230940 0.230940 0.230940 0.230940 0.230940 0.230940 0.230940 0.244339 0.244339 0.244339 0.244339 0.244339 0.244339 0.244339 0.244339 0.244339 0.244339 0.244339 0.244339 0.244339 0.244339 0.244339 0.244339 0.244339 0.244339 0.244339 0.244339 0.244339 0.244339 0.244339 0.251976 0.251976 0.251976 0.251976 0.251976 0.251976 0.251976 0.251976 0.251976 0.251976 0.251976 0.251976 0.251976 0.251976 0.251976 0.251976 0.251976 0.251976 0.251976 0.251976 0.264906 0.264906 0.264906 0.264906 0.264906 0.264906 0.264906 0.264906 0.264906 0.264906 0.264906 0.264906 0.264906 0.264906 0.264906 0.264906 0.264906 0.264906 0.264906 0.264906 0.264906 0.264906 0.264906 0.264906 0.264906 0.264906 0.264906 0.264906 0.264906 0.264906 0.264906 0.264906 0.264906 0.264906 0.264906 0.264906 0.264906 0.264906 0.264906 0.264906 0.264906 0.264906 0.264906 0.264906 0.264906 0.264906 0.264906 0.264906 0.264906 0.264906 0.264906 0.264906 0.264906 0.264906 0.264906 0.264906 0.264906 0.264906 0.264906 0.264906 0.264906 0.264906 0.264906 0.264906 0.264906 0.264906 0.264906 0.264906 0.264906 0.264906 0.264906 0.264906 0.264906 0.264906 0.264906 0.269680 0.269680 0.269680 0.269680 0.269680 0.269680 0.269680 0.269680 0.269680 0.269680 0.269680 0.269680 0.264906 0.264906 0.264906 0.264906 0.264906 0.264906 0.264906 0.264906 0.264906 0.264906 0.264906 0.264906 0.269680 0.269680 0.269680 0.269680 0.269680 0.269680 0.269680 0.269680 0.269680 0.269680 0.269680 0.264906 0.264906 0.264906 0.264906 0.264906 0.264906 0.264906 0.264906 0.264906 0.264906 0.264906 0.256074 0.256074 0.256074 0.256074 0.256074 0.256074 0.256074 0.256074 0.256074 0.256074 0.256074 0.264906 0.264906 0.264906 0.264906 0.264906 0.264906 0.264906 0.264906 0.264906 0.264906 0.269680 0.269680 0.269680 0.269680 0.269680 0.269680 0.269680 0.269680 0.269680 0.256074 0.256074 0.256074 0.256074 0.256074 0.256074 0.256074 0.256074 0.256074 0.256074 0.260378 0.260378 0.260378 0.260378 0.260378 0.260378 0.260378 0.260378 0.260378 0.256074 0.256074 0.256074 0.256074 0.256074 0.256074 0.256074 0.256074 0.256074 0.251976 0.251976 0.251976 0.251976 0.251976 0.251976 0.251976 0.251976 0.251976 0.264906 0.264906 0.264906 0.264906 0.264906 0.264906 0.264906 0.264906 0.264906
