# Output from CTFFind version 4.1.9, run on 2019-10-30 21:07:54
# Input file: org_stacked.mrc ; Number of micrographs: 1
# Pixel size: 1.500 Angstroms ; acceleration voltage: 300.0 keV ; spherical aberration: 0.00 mm ; amplitude contrast: 0.07
# Box size: 512 pixels ; min. res.: 30.0 Angstroms ; max. res.: 5.0 Angstroms ; min. def.: 5000.0 um; max. def. 50000.0 um; num. frames averaged: 50
# 6 lines per micrograph: #1 - spatial frequency (1/Angstroms); #2 - 1D rotational average of spectrum (assuming no astigmatism); #3 - 1D rotational average of spectrum; #4 - CTF fit; #5 - cross-correlation between spectrum and CTF fit; #6 - 2sigma of expected cross correlation of noise
0.000000 0.001302 0.002604 0.003906 0.005208 0.006510 0.007812 0.009115 0.010417 0.011719 0.013021 0.014323 0.015625 0.016927 0.018229 0.019531 0.020833 0.022135 0.023438 0.024740 0.026042 0.027344 0.028646 0.029948 0.031250 0.032552 0.033854 0.035156 0.036458 0.037760 0.039062 0.040365 0.041667 0.042969 0.044271 0.045573 0.046875 0.048177 0.049479 0.050781 0.052083 0.053385 0.054688 0.055990 0.057292 0.058594 0.059896 0.061198 0.062500 0.063802 0.065104 0.066406 0.067708 0.069010 0.070312 0.071615 0.072917 0.074219 0.075521 0.076823 0.078125 0.079427 0.080729 0.082031 0.083333 0.084635 0.085938 0.087240 0.088542 0.089844 0.091146 0.092448 0.093750 0.095052 0.096354 0.097656 0.098958 0.100260 0.101562 0.102865 0.104167 0.105469 0.106771 0.108073 0.109375 0.110677 0.111979 0.113281 0.114583 0.115885 0.117188 0.118490 0.119792 0.121094 0.122396 0.123698 0.125000 0.126302 0.127604 0.128906 0.130208 0.131510 0.132812 0.134115 0.135417 0.136719 0.138021 0.139323 0.140625 0.141927 0.143229 0.144531 0.145833 0.147135 0.148438 0.149740 0.151042 0.152344 0.153646 0.154948 0.156250 0.157552 0.158854 0.160156 0.161458 0.162760 0.164062 0.165365 0.166667 0.167969 0.169271 0.170573 0.171875 0.173177 0.174479 0.175781 0.177083 0.178385 0.179688 0.180990 0.182292 0.183594 0.184896 0.186198 0.187500 0.188802 0.190104 0.191406 0.192708 0.194010 0.195312 0.196615 0.197917 0.199219 0.200521 0.201823 0.203125 0.204427 0.205729 0.207031 0.208333 0.209635 0.210938 0.212240 0.213542 0.214844 0.216146 0.217448 0.218750 0.220052 0.221354 0.222656 0.223958 0.225260 0.226562 0.227865 0.229167 0.230469 0.231771 0.233073 0.234375 0.235677 0.236979 0.238281 0.239583 0.240885 0.242188 0.243490 0.244792 0.246094 0.247396 0.248698 0.250000 0.251302 0.252604 0.253906 0.255208 0.256510 0.257812 0.259115 0.260417 0.261719 0.263021 0.264323 0.265625 0.266927 0.268229 0.269531 0.270833 0.272135 0.273438 0.274740 0.276042 0.277344 0.278646 0.279948 0.281250 0.282552 0.283854 0.285156 0.286458 0.287760 0.289062 0.290365 0.291667 0.292969 0.294271 0.295573 0.296875 0.298177 0.299479 0.300781 0.302083 0.303385 0.304688 0.305990 0.307292 0.308594 0.309896 0.311198 0.312500 0.313802 0.315104 0.316406 0.317708 0.319010 0.320312 0.321615 0.322917 0.324219 0.325521 0.326823 0.328125 0.329427 0.330729 0.332031 0.333333 0.334635 0.335938 0.337240 0.338542 0.339844 0.341146 0.342448 0.343750 0.345052 0.346354 0.347656 0.348958 0.350260 0.351562 0.352865 0.354167 0.355469 0.356771 0.358073 0.359375 0.360677 0.361979 0.363281 0.364583 0.365885 0.367188 0.368490 0.369792 0.371094 0.372396 0.373698 0.375000 0.376302 0.377604 0.378906 0.380208 0.381510 0.382812 0.384115 0.385417 0.386719 0.388021 0.389323 0.390625 0.391927 0.393229 0.394531 0.395833 0.397135 0.398438 0.399740 0.401042 0.402344 0.403646 0.404948 0.406250 0.407552 0.408854 0.410156 0.411458 0.412760 0.414062 0.415365 0.416667 0.417969 0.419271 0.420573 0.421875 0.423177 0.424479 0.425781 0.427083 0.428385 0.429688 0.430990 0.432292 0.433594 0.434896 0.436198 0.437500 0.438802 0.440104 0.441406 0.442708 0.444010 0.445312 0.446615 0.447917 0.449219 0.450521 0.451823 0.453125 0.454427 0.455729 0.457031 0.458333 0.459635 0.460938 0.462240 0.463542 0.464844 0.466146 0.467448 0.468750 0.470052 0.471354
       0.02987        0.03896        0.04656        0.04927        0.05041        0.05140        0.05176        0.05219        0.05248        0.05266        0.05288        0.05297        0.05313        0.05322        0.05329        0.05338        0.05343        0.05351        0.05354        0.05359        0.05363        0.05367        0.05371        0.05373        0.05377        0.07958        0.20148       -0.42782       -0.78419       -0.83284       -0.74124       -0.65290       -0.74658       -0.86483       -1.05679       -1.01680       -1.03618       -1.01479       -0.97368       -0.85594       -0.75328       -0.53938       -0.49862       -0.18402        0.04989        0.09757        0.27012        0.33879        0.35459        0.33554        0.19409        0.14879        0.05230       -0.06571       -0.24475       -0.26943       -0.29278       -0.08225        0.02161        0.13144        0.22983        0.35947        0.34792        0.40111        0.25442        0.09637       -0.08908       -0.21132       -0.16645       -0.13764       -0.00742        0.10000        0.22559        0.21412        0.19194        0.10647       -0.03059       -0.08694       -0.14287       -0.12269       -0.01447        0.22733        0.26065        0.16455        0.16001        0.07009       -0.03476       -0.09347       -0.12512       -0.04380        0.05312        0.06244        0.07588        0.07921        0.07057       -0.06767        0.00003        0.01089        0.00363        0.12349        0.23885        0.15940        0.03211       -0.07094        0.00643        0.11159        0.06941        0.17542        0.14770        0.05422       -0.09175       -0.04287        0.03171        0.09237        0.00259        0.09932        0.10692        0.00115       -0.00774        0.03618        0.05994        0.10689        0.05197        0.01257        0.07080        0.01071        0.07551        0.11291        0.02525       -0.00175        0.01009       -0.01070        0.07049        0.12858        0.12658        0.04823        0.04144        0.02110        0.06086        0.09739        0.04738        0.05535        0.03565        0.06658        0.06698        0.03828        0.09324       -0.00459        0.05192        0.07271        0.05556        0.03054        0.05000        0.09849        0.12371        0.07713        0.01011        0.01996        0.03004        0.01842        0.00139        0.06554        0.01971        0.00947        0.03606        0.02057        0.04981        0.04840        0.07333        0.08873        0.13757        0.04055        0.03536        0.09174        0.08307        0.06589        0.04069        0.03589        0.03720        0.06220        0.02641        0.04771       -0.05690        0.04261        0.08982        0.03224        0.05137        0.06213        0.05459        0.04343        0.01475        0.05897        0.11641        0.05046        0.08320        0.01132        0.05859        0.02383        0.02502        0.09877        0.07314        0.04843        0.03587        0.09744        0.11445        0.04041        0.04093        0.11922        0.12444        0.09924        0.12298        0.09687        0.04384        0.08148        0.03595        0.02026        0.05460        0.07097        0.06804        0.07868        0.05323        0.04984        0.04754       -0.01770        0.06011        0.02355        0.04054        0.07242        0.01285        0.06331        0.06739        0.06353        0.09003        0.04895        0.03107        0.03112        0.07670        0.03872        0.05216        0.09910        0.04387        0.03965        0.00755        0.06140        0.05529        0.05110        0.01858        0.09179        0.08372        0.04516        0.04586        0.03655        0.01648        0.00742        0.02599        0.03952        0.06049        0.04992        0.04977        0.04549        0.05184        0.06767        0.04171        0.03511        0.03640        0.06107        0.08368        0.04595        0.00575        0.09361        0.04730        0.04765        0.06004        0.05679        0.08633        0.08563        0.03345        0.00115        0.09042        0.09691        0.03427        0.00327        0.12075        0.00879        0.04710        0.01112        0.10261        0.05212        0.07201        0.08568        0.00521        0.05907        0.09415        0.04159        0.04197        0.06342       -0.01195        0.01962        0.02164        0.05255        0.08664        0.08362        0.11152       -0.01055        0.02352        0.05846        0.00765        0.13111        0.02120        0.05900        0.07846        0.01890        0.04540        0.06099        0.09911        0.03940        0.12724       -0.03117       -0.00794        0.04656        0.03021        0.00515        0.14162        0.13099        0.02159       -0.09347       -0.05295        0.07837        0.03443        0.02896        0.12881        0.06038       -0.01822        0.04653        0.06791        0.03060        0.07207        0.17173        0.12019        0.03981        0.03393       -0.04534        0.08336        0.08483        0.12365       -0.04999        0.06434        0.16554       -0.02549       -0.07271        0.05724        0.08650        0.02627       -0.02250        0.00817       -0.00714        0.18552        0.20110       -0.17127        0.08685        0.11795        0.12080       -0.09432
2.801712 2.757055 2.702894 2.646862 2.592776 2.535002 2.479756 2.423875 2.369176 2.315390 2.261145 2.208443 2.155830 2.104399 2.053234 2.002676 1.953221 1.904077 1.855606 1.807846 1.760685 1.714477 1.668677 1.623599 1.579170 1.535390 1.734851 1.087398 0.385486 0.203285 0.371728 0.445498 0.228177 0.114662 -0.192438 -0.164463 -0.317388 -0.237310 -0.295128 -0.060689 -0.124598 0.180718 0.231143 0.481491 0.889371 0.810241 1.042838 1.066549 1.058536 1.062751 0.825984 0.827706 0.583609 0.501271 0.150995 0.125269 0.097926 0.238324 0.515074 0.430561 0.687679 0.675275 0.855389 0.782030 0.574616 0.451329 0.174752 -0.019977 -0.008397 0.003542 0.156072 0.325203 0.387033 0.453862 0.409817 0.347866 0.131858 0.003253 0.039690 -0.076072 0.008729 0.416547 0.405317 0.354991 0.358587 0.256797 0.130737 0.022608 -0.027562 0.041879 0.196675 0.225974 0.123451 0.252760 0.251975 0.069480 0.052245 0.120940 0.096284 0.187790 0.393504 0.331005 0.199320 -0.027200 -0.008624 0.264854 0.107207 0.241908 0.259555 0.202112 -0.071875 -0.043542 0.042629 0.152414 0.075991 0.118838 0.218643 0.038358 0.021173 0.043184 0.065520 0.107324 0.117274 0.025592 0.069290 0.040879 -0.001270 0.190353 0.066321 -0.141732 -0.003486 -0.071164 0.038876 0.126453 0.127654 0.121301 0.003783 0.001870 -0.033207 0.176099 0.037997 0.010386 0.070017 -0.074609 0.090719 -0.107666 0.093776 -0.161639 -0.180578 0.048256 0.099226 -0.028172 -0.263176 0.506869 0.552618 0.714041 -0.003974 -0.226496 -0.121673 -0.110067 0.027120 -0.039066 0.012862 -0.063908 -0.003242 -0.022590 0.104698 0.035141 0.052208 0.198864 0.147251 0.135584 -0.068755 0.148418 0.132695 0.190264 0.015965 0.038961 0.039519 0.083408 -0.017141 0.331207 2.450977 0.227750 -0.097836 -0.023614 0.102263 -0.179556 0.176248 1.675985 -4.161845 -0.121267 0.557770 0.250110 -0.173324 0.130742 -0.016900 -0.027405 -0.044258 0.026605 0.060274 -0.016518 -0.026526 -0.000942 0.096473 0.008171 -0.049507 0.065686 0.034336 0.057068 0.035878 0.089456 -0.020526 -0.015393 0.028603 -0.027707 -0.042475 0.026497 0.034898 0.075654 0.051458 0.022537 0.021410 -0.030189 -0.038212 0.009001 -0.049194 0.048396 0.026997 -0.028542 0.080297 -0.000060 0.047497 -0.035786 -0.029161 -0.038929 -0.030851 -0.008954 -0.025364 -0.008407 0.066088 -0.037339 -0.053297 -0.033578 0.011783 -0.013136 -0.024558 -0.040197 0.057881 0.014575 -0.002177 -0.042922 0.027513 -0.063574 -0.097989 -0.025644 0.001930 0.008433 -0.009803 0.008962 0.019392 0.040427 0.034301 -0.049536 -0.040659 -0.011395 -0.020657 -0.017462 -0.058684 -0.068274 0.065085 -0.095343 -0.088348 -0.047684 -0.103267 -0.041823 -0.004445 -0.096132 -0.087000 0.067266 0.066162 -0.030384 -0.010597 0.016710 -0.064041 0.023804 -0.019831 0.046177 -0.011960 -0.025784 -0.001201 -0.099660 0.025713 0.026298 -0.032042 -0.014718 0.046670 -0.023057 -0.041742 0.010440 0.043536 0.038519 0.032054 -0.009683 -0.147841 -0.030828 -0.056280 -0.124966 0.105997 0.023572 -0.093871 0.002997 -0.081764 -0.026169 0.064678 0.122360 -0.000729 0.097869 -0.125308 -0.017131 -0.024755 -0.027467 -0.053933 0.182952 0.070846 -0.088429 -0.031260 -0.060548 0.055184 0.088539 0.057460 0.279968 -0.022964 -0.007391 -0.012169 0.013576 -0.067212 -0.006606 0.196014 0.064343 -0.054553 -0.045239 -0.187980 0.129017 0.045443 0.096274 -0.143633 0.147416 0.200362 0.077918 -0.064582 -0.007085 0.080415 -0.049359 -0.021633 -0.092139 -0.001991 0.271781 -0.551980 -0.185808 0.180733 0.144406 -0.117315
0.072396 0.074413 0.080461 0.090534 0.104620 0.122700 0.144742 0.170699 0.200501 0.234052 0.271222 0.311836 0.355670 0.402441 0.451795 0.503301 0.556442 0.610605 0.665076 0.719033 0.771547 0.821577 0.867980 0.909513 0.944853 0.972614 0.991373 0.999705 0.996224 0.979630 0.948767 0.902685 0.840703 0.762488 0.668116 0.558150 0.433696 0.296459 0.148776 0.006365 0.165342 0.323938 0.477421 0.620664 0.748306 0.854955 0.935429 0.985025 0.999823 0.976987 0.915064 0.814254 0.676628 0.506276 0.309345 0.093965 0.129972 0.351179 0.557492 0.736539 0.876508 0.967012 0.999961 0.970406 0.877253 0.723782 0.517890 0.271983 0.002480 0.271101 0.527452 0.745113 0.904350 0.989105 0.988848 0.900112 0.727521 0.484098 0.190742 0.125210 0.432299 0.697990 0.892193 0.990903 0.979528 0.855431 0.629272 0.324805 0.023046 0.371799 0.676418 0.895198 0.995781 0.960450 0.789807 0.504093 0.141646 0.245587 0.599135 0.862788 0.991863 0.961394 0.771728 0.450243 0.048461 0.365457 0.717893 0.942976 0.995453 0.860687 0.559509 0.146398 0.299324 0.688153 0.938389 0.993936 0.837954 0.498953 0.047197 0.418692 0.792726 0.985884 0.948245 0.683297 0.250144 0.248039 0.687604 0.955028 0.977067 0.742343 0.307777 0.213242 0.679209 0.958735 0.968515 0.699908 0.225346 0.319035 0.771228 0.991571 0.907200 0.538275 0.003843 0.548126 0.916979 0.984899 0.723167 0.214251 0.371452 0.831116 0.999889 0.811822 0.328383 0.278396 0.785117 0.999071 0.833301 0.344926 0.280946 0.799078 1.000000 0.796652 0.265406 0.378832 0.867291 0.989623 0.686977 0.083889 0.559176 0.956516 0.925106 0.472217 0.200383 0.782923 0.999544 0.741240 0.124858 0.555190 0.965252 0.897171 0.377798 0.335874 0.880315 0.970434 0.552150 0.160487 0.790337 0.995512 0.657698 0.044525 0.724900 0.999945 0.707448 0.007400 0.699804 0.999959 0.709853 0.005365 0.720181 0.999352 0.665374 0.082740 0.781900 0.989385 0.566293 0.223116 0.870421 0.949122 0.399797 0.418588 0.957761 0.847474 0.155262 0.646866 0.999992 0.649759 0.163486 0.862281 0.939870 0.332194 0.521865 0.991556 0.720887 0.094573 0.840693 0.944195 0.317610 0.558661 0.998318 0.647834 0.221518 0.915006 0.867361 0.109416 0.741065 0.977573 0.395160 0.522840 0.998191 0.618199 0.297528 0.956482 0.777233 0.090296 0.879659 0.880861 0.084763 0.790729 0.942051 0.221887 0.706993 0.974238 0.320478 0.640297 0.988883 0.382353 0.597935 0.994236 0.409609 0.583761 0.994805 0.403495 0.598952 0.991175 0.363697 0.642232 0.980005 0.288579 0.709670 0.954128 0.175937 0.793817 0.902951 0.024579 0.882648 0.813435 0.163367 0.958668 0.672135 0.379428 0.998684 0.468640 0.605713 0.975392 0.200635 0.812555 0.861643 0.119843 0.958812 0.638155 0.460591 0.996586 0.304386 0.766634 0.882464 0.109668 0.964860 0.595293 0.535821 0.979700 0.157124 0.871112 0.760995 0.350853 0.999887 0.318684 0.790189 0.836559 0.249896 0.997506 0.380002 0.761665 0.850005 0.245242 0.998476 0.346808 0.796656 0.807506 0.337321 0.998122 0.215706 0.881343 0.690904 0.515401 0.961353 0.020426 0.972738 0.465719 0.744623 0.826660 0.351687 0.992182 0.104872 0.945649 0.525522 0.716944 0.833495 0.366665 0.985670 0.032401 0.973610 0.411451 0.817466 0.717014 0.556046 0.916323 0.236180 0.997627 0.096445 0.966891 0.403601 0.842550 0.657965 0.649866 0.843949 0.415966 0.956551 0.166005 0.999130 0.079195 0.980805 0.304256 0.913886
1.000000 1.000000 1.000000 1.000000 1.000000 1.000000 1.000000 1.000000 1.000000 1.000000 1.000000 1.000000 1.000000 1.000000 1.000000 1.000000 1.000000 1.000000 1.000000 1.000000 1.000000 1.000000 1.000000 1.000000 1.000000 1.000000 0.807650 0.807650 0.774171 0.774171 0.774171 0.774171 0.774171 0.774171 0.774171 0.774171 0.774171 0.774171 0.774171 0.774171 0.774171 0.774171 0.774171 0.774171 0.774171 0.774171 0.774171 0.774171 0.796808 0.798843 0.812466 0.807600 0.807469 0.811705 0.817535 0.851781 0.852274 0.866321 0.857751 0.859779 0.930274 0.921134 0.915499 0.927281 0.926271 0.916376 0.908262 0.917814 0.919603 0.922321 0.923338 0.924016 0.926198 0.924137 0.923703 0.932978 0.861958 0.863921 0.855213 0.833324 0.840940 0.836248 0.826149 0.828195 0.830905 0.836679 0.827746 0.822710 0.836036 0.807033 0.788405 0.786213 0.790915 0.789626 0.810903 0.774443 0.786110 0.793007 0.791507 0.738763 0.704454 0.699075 0.698470 0.670976 0.697878 0.705807 0.684895 0.740847 0.734206 0.699176 0.691618 0.664595 0.657857 0.658156 0.627008 0.632007 0.625452 0.622185 0.625994 0.618293 0.627474 0.616999 0.629533 0.618735 0.567303 0.599680 0.571497 0.577327 0.491326 0.510354 0.489876 0.497425 0.509258 0.519925 0.541589 0.506549 0.518169 0.460625 0.444776 0.448837 0.450199 0.496064 0.461355 0.486705 0.542540 0.525747 0.514814 0.450664 0.469170 0.440184 0.381484 0.402497 0.391870 0.359248 0.388646 0.376778 0.351439 0.365650 0.370400 0.427866 0.463763 0.458111 0.468717 0.449265 0.428905 0.433654 0.376052 0.346866 0.277892 0.261776 0.295139 0.236853 0.284928 0.250961 0.256224 0.210677 0.181088 0.187468 0.204719 0.217619 0.188570 0.247636 0.282274 0.296178 0.300568 0.304897 0.251689 0.214098 0.207864 0.187900 0.185818 0.232572 0.215937 0.250688 0.221478 0.244894 0.005692 0.064151 0.149745 0.149642 0.127032 0.113543 0.139750 0.178637 0.227955 0.245987 0.261718 0.252723 0.247388 0.221461 0.228817 0.148517 0.186580 0.217853 0.251151 0.141648 0.149703 0.196874 0.150328 0.067956 0.077226 0.049673 0.139174 0.079319 0.106748 0.042430 0.083167 0.087867 0.077329 0.075954 0.086416 0.041549 0.043401 -0.030200 -0.064532 -0.001636 -0.036094 -0.061588 -0.117768 -0.064215 -0.063429 -0.134579 -0.168882 -0.230097 -0.242751 -0.223126 -0.255928 -0.319168 -0.318134 -0.345460 -0.380680 -0.359169 -0.340283 -0.414998 -0.415355 -0.504402 -0.507239 -0.489676 -0.512379 -0.460457 -0.436637 -0.377570 -0.331976 -0.313777 -0.331063 -0.354046 -0.340314 -0.364714 -0.368992 -0.403456 -0.450110 -0.455537 -0.445027 -0.414694 -0.405884 -0.383786 -0.391878 -0.386404 -0.371231 -0.369071 -0.373319 -0.343925 -0.355975 -0.439300 -0.423775 -0.401878 -0.372568 -0.371026 -0.364393 -0.402038 -0.334381 -0.379381 -0.355656 -0.308367 -0.307207 -0.285191 -0.269347 -0.236458 -0.190375 -0.172629 -0.157296 -0.117050 -0.179749 -0.191151 -0.039914 -0.030122 -0.026395 -0.019390 -0.015819 -0.021254 -0.036340 0.010761 -0.039122 -0.070793 -0.093264 0.053647 0.070828 0.089561 0.035164 0.022352 0.035908 0.030085 -0.000563 0.028691 0.071818 0.082048 0.068666 0.074432 0.096807 0.125991 0.134445 -0.004338 -0.004338 -0.004338 0.128397 0.112891 0.109305 0.078138 0.025339 0.025339 0.025339 0.086437 0.086437 0.122306 0.122306 0.122306 0.122306 -0.008594 -0.008594 -0.008594 0.081474 0.081474 0.081474 0.081474 0.081474 0.081474 0.081474 0.081474 -0.051356 -0.051356 -0.051356 -0.051356 -0.051356
0.000000 0.000000 0.000000 0.000000 0.000000 0.000000 0.000000 0.000000 0.000000 0.000000 0.000000 0.000000 0.000000 0.000000 0.000000 0.000000 0.000000 0.000000 0.000000 0.000000 0.000000 0.000000 0.000000 0.000000 0.000000 0.000000 0.251976 0.251976 0.280056 0.280056 0.280056 0.280056 0.280056 0.280056 0.280056 0.280056 0.280056 0.280056 0.280056 0.280056 0.280056 0.280056 0.280056 0.280056 0.280056 0.280056 0.280056 0.280056 0.312348 0.312348 0.312348 0.312348 0.312348 0.312348 0.312348 0.312348 0.312348 0.312348 0.312348 0.312348 0.312348 0.312348 0.312348 0.348155 0.348155 0.348155 0.348155 0.348155 0.348155 0.348155 0.348155 0.348155 0.348155 0.348155 0.348155 0.348155 0.348155 0.348155 0.348155 0.348155 0.348155 0.348155 0.348155 0.348155 0.348155 0.348155 0.348155 0.348155 0.348155 0.348155 0.348155 0.348155 0.348155 0.359211 0.359211 0.359211 0.359211 0.359211 0.359211 0.359211 0.359211 0.371391 0.371391 0.371391 0.371391 0.371391 0.371391 0.371391 0.359211 0.359211 0.359211 0.359211 0.359211 0.359211 0.359211 0.348155 0.348155 0.348155 0.348155 0.348155 0.348155 0.348155 0.371391 0.371391 0.371391 0.371391 0.371391 0.371391 0.359211 0.359211 0.359211 0.359211 0.359211 0.359211 0.348155 0.348155 0.348155 0.348155 0.348155 0.348155 0.371391 0.371391 0.371391 0.371391 0.371391 0.359211 0.359211 0.359211 0.359211 0.359211 0.328798 0.328798 0.328798 0.328798 0.328798 0.328798 0.348155 0.348155 0.348155 0.348155 0.348155 0.371391 0.371391 0.371391 0.371391 0.338062 0.338062 0.338062 0.338062 0.338062 0.359211 0.359211 0.359211 0.359211 0.328798 0.328798 0.328798 0.328798 0.328798 0.348155 0.348155 0.348155 0.348155 0.348155 0.348155 0.348155 0.348155 0.338062 0.338062 0.338062 0.338062 0.304997 0.304997 0.304997 0.304997 0.304997 0.371391 0.371391 0.371391 0.328798 0.328798 0.328798 0.328798 0.320256 0.320256 0.320256 0.320256 0.320256 0.320256 0.320256 0.320256 0.312348 0.312348 0.312348 0.312348 0.348155 0.348155 0.348155 0.304997 0.304997 0.304997 0.304997 0.338062 0.338062 0.338062 0.298142 0.298142 0.298142 0.298142 0.328798 0.328798 0.328798 0.328798 0.328798 0.328798 0.291730 0.291730 0.291730 0.291730 0.320256 0.320256 0.320256 0.320256 0.320256 0.320256 0.312348 0.312348 0.312348 0.312348 0.312348 0.312348 0.312348 0.312348 0.312348 0.304997 0.304997 0.304997 0.304997 0.304997 0.304997 0.298142 0.298142 0.298142 0.298142 0.298142 0.298142 0.298142 0.298142 0.298142 0.291730 0.291730 0.291730 0.291730 0.291730 0.291730 0.285714 0.285714 0.285714 0.285714 0.285714 0.285714 0.328798 0.328798 0.280056 0.280056 0.280056 0.280056 0.280056 0.280056 0.320256 0.320256 0.274721 0.274721 0.274721 0.274721 0.274721 0.274721 0.312348 0.312348 0.269680 0.269680 0.269680 0.304997 0.304997 0.264906 0.264906 0.264906 0.264906 0.264906 0.264906 0.304997 0.304997 0.260378 0.260378 0.260378 0.298142 0.298142 0.298142 0.298142 0.256074 0.256074 0.256074 0.291730 0.291730 0.251976 0.251976 0.251976 0.285714 0.285714 0.285714 0.285714 0.248069 0.248069 0.248069 0.285714 0.285714 0.280056 0.280056 0.240772 0.240772 0.240772 0.280056 0.280056 0.274721 0.274721 0.274721 0.274721 0.237356 0.237356 0.237356 0.269680 0.269680 0.269680 0.269680 0.269680 0.269680 0.269680 0.269680 0.230940 0.230940 0.230940 0.230940 0.230940
