# Output from CTFFind version 4.1.9, run on 2019-11-01 14:33:55
# Input file: pure_ub_averaged.mrc ; Number of micrographs: 1
# Pixel size: 3.000 Angstroms ; acceleration voltage: 300.0 keV ; spherical aberration: 0.00 mm ; amplitude contrast: 0.07
# Box size: 512 pixels ; min. res.: 30.0 Angstroms ; max. res.: 5.0 Angstroms ; min. def.: 5000.0 um; max. def. 50000.0 um; num. frames averaged: 1
# 6 lines per micrograph: #1 - spatial frequency (1/Angstroms); #2 - 1D rotational average of spectrum (assuming no astigmatism); #3 - 1D rotational average of spectrum; #4 - CTF fit; #5 - cross-correlation between spectrum and CTF fit; #6 - 2sigma of expected cross correlation of noise
0.000000 0.000651 0.001302 0.001953 0.002604 0.003255 0.003906 0.004557 0.005208 0.005859 0.006510 0.007161 0.007812 0.008464 0.009115 0.009766 0.010417 0.011068 0.011719 0.012370 0.013021 0.013672 0.014323 0.014974 0.015625 0.016276 0.016927 0.017578 0.018229 0.018880 0.019531 0.020182 0.020833 0.021484 0.022135 0.022786 0.023438 0.024089 0.024740 0.025391 0.026042 0.026693 0.027344 0.027995 0.028646 0.029297 0.029948 0.030599 0.031250 0.031901 0.032552 0.033203 0.033854 0.034505 0.035156 0.035807 0.036458 0.037109 0.037760 0.038411 0.039062 0.039714 0.040365 0.041016 0.041667 0.042318 0.042969 0.043620 0.044271 0.044922 0.045573 0.046224 0.046875 0.047526 0.048177 0.048828 0.049479 0.050130 0.050781 0.051432 0.052083 0.052734 0.053385 0.054036 0.054688 0.055339 0.055990 0.056641 0.057292 0.057943 0.058594 0.059245 0.059896 0.060547 0.061198 0.061849 0.062500 0.063151 0.063802 0.064453 0.065104 0.065755 0.066406 0.067057 0.067708 0.068359 0.069010 0.069661 0.070312 0.070964 0.071615 0.072266 0.072917 0.073568 0.074219 0.074870 0.075521 0.076172 0.076823 0.077474 0.078125 0.078776 0.079427 0.080078 0.080729 0.081380 0.082031 0.082682 0.083333 0.083984 0.084635 0.085286 0.085938 0.086589 0.087240 0.087891 0.088542 0.089193 0.089844 0.090495 0.091146 0.091797 0.092448 0.093099 0.093750 0.094401 0.095052 0.095703 0.096354 0.097005 0.097656 0.098307 0.098958 0.099609 0.100260 0.100911 0.101562 0.102214 0.102865 0.103516 0.104167 0.104818 0.105469 0.106120 0.106771 0.107422 0.108073 0.108724 0.109375 0.110026 0.110677 0.111328 0.111979 0.112630 0.113281 0.113932 0.114583 0.115234 0.115885 0.116536 0.117188 0.117839 0.118490 0.119141 0.119792 0.120443 0.121094 0.121745 0.122396 0.123047 0.123698 0.124349 0.125000 0.125651 0.126302 0.126953 0.127604 0.128255 0.128906 0.129557 0.130208 0.130859 0.131510 0.132161 0.132812 0.133464 0.134115 0.134766 0.135417 0.136068 0.136719 0.137370 0.138021 0.138672 0.139323 0.139974 0.140625 0.141276 0.141927 0.142578 0.143229 0.143880 0.144531 0.145182 0.145833 0.146484 0.147135 0.147786 0.148438 0.149089 0.149740 0.150391 0.151042 0.151693 0.152344 0.152995 0.153646 0.154297 0.154948 0.155599 0.156250 0.156901 0.157552 0.158203 0.158854 0.159505 0.160156 0.160807 0.161458 0.162109 0.162760 0.163411 0.164062 0.164714 0.165365 0.166016 0.166667 0.167318 0.167969 0.168620 0.169271 0.169922 0.170573 0.171224 0.171875 0.172526 0.173177 0.173828 0.174479 0.175130 0.175781 0.176432 0.177083 0.177734 0.178385 0.179036 0.179688 0.180339 0.180990 0.181641 0.182292 0.182943 0.183594 0.184245 0.184896 0.185547 0.186198 0.186849 0.187500 0.188151 0.188802 0.189453 0.190104 0.190755 0.191406 0.192057 0.192708 0.193359 0.194010 0.194661 0.195312 0.195964 0.196615 0.197266 0.197917 0.198568 0.199219 0.199870 0.200521 0.201172 0.201823 0.202474 0.203125 0.203776 0.204427 0.205078 0.205729 0.206380 0.207031 0.207682 0.208333 0.208984 0.209635 0.210286 0.210938 0.211589 0.212240 0.212891 0.213542 0.214193 0.214844 0.215495 0.216146 0.216797 0.217448 0.218099 0.218750 0.219401 0.220052 0.220703 0.221354 0.222005 0.222656 0.223307 0.223958 0.224609 0.225260 0.225911 0.226562 0.227214 0.227865 0.228516 0.229167 0.229818 0.230469 0.231120 0.231771 0.232422 0.233073 0.233724 0.234375 0.235026 0.235677
       0.12353        0.12353        0.12353        0.12353        0.12353        0.12353        0.12353        0.12353        0.12353        0.12353        0.12353        0.12353        0.12353        0.12353        0.12353        0.12353        0.12353        0.12353        0.12353        0.12353        0.12353        0.12353        0.12353        0.12353        0.12353        0.12353        0.12353        0.12353        0.12353        0.12353        0.12353        0.12353        0.12353        0.12353        0.12353        0.12353        0.12353        0.12353        0.12353        0.12353        0.12353        0.12353        0.12353        0.12353        0.12353        0.12353        0.12353        0.12353        0.12353        0.12353        0.12353        0.29343        0.51017        0.21978       -0.01964       -0.28976       -0.47266       -0.27916       -0.34366       -0.26339       -0.21196       -0.35683       -0.30199       -0.26111       -0.21322       -0.36113       -0.43033       -0.55634       -0.67243       -0.76817       -0.72773       -0.65776       -0.58200       -0.75710       -0.65996       -0.83094       -0.71238       -0.68448       -0.59943       -0.59448       -0.55012       -0.46046       -0.37057       -0.34578       -0.17700       -0.22122       -0.09158       -0.04119        0.09551        0.20029        0.25507        0.28848        0.33172        0.34068        0.48279        0.43632        0.46754        0.38269        0.34743        0.44594        0.31879        0.21721        0.17367        0.11197        0.01794        0.05386        0.04119       -0.10189       -0.12595       -0.20954       -0.21616       -0.17369       -0.21300       -0.13461       -0.11049        0.02249        0.07379        0.09261        0.17025        0.35114        0.32806        0.36895        0.46116        0.49144        0.42105        0.42447        0.42271        0.34485        0.36630        0.18804        0.13507        0.05657       -0.02447       -0.13779       -0.06475       -0.09032       -0.11882       -0.10311        0.00059        0.00510        0.10757        0.15007        0.20398        0.28285        0.37497        0.33286        0.34456        0.39899        0.33046        0.25264        0.26949        0.11512        0.04123        0.04820        0.03306       -0.06671       -0.06507       -0.05792        0.00921        0.03697        0.11936        0.15469        0.18100        0.25935        0.23738        0.26957        0.24647        0.25767        0.23522        0.19787        0.17390        0.14232        0.10044        0.07655       -0.00544       -0.01272        0.01144        0.06004        0.05945        0.14147        0.16676        0.14825        0.20095        0.24610        0.23881        0.21535        0.22967        0.16190        0.12575        0.07445        0.05528        0.08053        0.06047        0.08490        0.09128        0.13976        0.13339        0.18802        0.19431        0.21667        0.20081        0.22044        0.19350        0.15578        0.07342        0.08259        0.09846        0.06374        0.04702        0.11841        0.16012        0.13277        0.14486        0.14940        0.14486        0.19823        0.19169        0.14992        0.12953        0.10044        0.09944        0.10526        0.10643        0.08932        0.07593        0.12459        0.14673        0.16631        0.12138        0.11744        0.12267        0.13310        0.09535        0.07158        0.09514        0.10346        0.12488        0.10873        0.11945        0.14554        0.11726        0.10003        0.11520        0.09043        0.05177        0.03893        0.05364        0.09323        0.10998        0.13709        0.08949        0.10240        0.12347        0.07931        0.10300        0.08041        0.08070        0.09036        0.09716        0.10395        0.13610        0.11392        0.12518        0.12845        0.10739        0.12881        0.11184        0.11372        0.10282        0.07529        0.08569        0.10357        0.08177        0.11886        0.12564        0.12622        0.11184        0.13231        0.10813        0.07000        0.04968        0.06291        0.12315        0.14747        0.13774        0.10657        0.09086        0.08809        0.10715        0.03950        0.09121        0.10049        0.11596        0.08383        0.10980        0.07546        0.13110        0.13744        0.13685        0.11477        0.08268        0.10389        0.18723        0.12262        0.10419        0.09680        0.07631        0.07465        0.09162        0.05975        0.10517        0.03886        0.07372        0.08900        0.10498        0.08319        0.06667        0.09561        0.02485        0.02206        0.05518        0.09344        0.09800        0.08080        0.08097        0.12558        0.04530        0.01552        0.10246        0.07218        0.04668        0.06923        0.17330        0.08595        0.07518        0.03702        0.05252        0.05403        0.02645        0.02167       -0.02778        0.04936        0.02420        0.03903        0.12315        0.07571        0.15511        0.08633        0.04460        0.02580       -0.00858        0.04638        0.10262        0.03586       -0.08216       -0.02823        0.06334        0.16322        0.24587        0.08584       -0.23955       -0.22512       -0.00245
2.677712 2.649433 2.621306 2.593330 2.565506 2.537834 2.510314 2.482945 2.455728 2.428662 2.401749 2.374987 2.348376 2.321918 2.295611 2.269456 2.243452 2.217600 2.191900 2.166352 2.140955 2.115710 2.090616 2.065674 2.040884 2.016246 1.991759 1.967424 1.943241 1.919209 1.895329 1.871601 1.848024 1.824600 1.801326 1.778205 1.755235 1.732417 1.709750 1.687235 1.664872 1.642661 1.620601 1.598693 1.576937 1.555332 1.533879 1.512578 1.491428 1.470430 1.449584 1.519252 1.818607 1.518529 1.153295 0.936562 0.541524 0.906286 0.629794 0.869819 0.922419 0.587904 0.706737 0.777118 0.813538 0.628096 0.535665 0.346338 0.104110 0.081151 0.044570 0.084577 0.300387 -0.032892 0.082047 -0.132345 -0.009828 -0.017597 0.084693 0.062948 0.100900 0.176663 0.281889 0.251055 0.480531 0.396205 0.544685 0.523674 0.764124 0.783465 0.875380 0.915107 0.935065 0.938041 1.080860 0.969131 1.132770 0.942206 0.846376 1.010795 0.842849 0.754305 0.611078 0.592500 0.452363 0.414600 0.506541 0.264096 0.198162 0.157843 0.011918 0.206086 -0.003151 0.120263 0.179497 0.258320 0.329185 0.345266 0.421441 0.533077 0.660248 0.536510 0.735005 0.859716 0.636407 0.690162 0.660131 0.589804 0.534835 0.461079 0.295321 0.213012 0.116349 -0.042047 -0.020268 0.058406 -0.097180 -0.058059 0.048241 0.055278 0.112795 0.218822 0.237946 0.305445 0.430511 0.432210 0.440505 0.481554 0.444890 0.327251 0.329678 0.239321 0.052649 0.061653 0.016657 -0.044173 -0.097159 -0.098689 -0.015200 -0.052059 0.070229 0.121329 0.121552 0.258503 0.224662 0.238259 0.286166 0.256813 0.235963 0.211428 0.170692 0.108432 0.099652 0.025096 0.005846 -0.117729 -0.052849 0.004851 -0.000818 0.022097 0.097172 0.083993 0.129549 0.189346 0.260930 0.175934 0.179438 0.106813 0.134843 0.023192 -0.031559 0.022329 -0.023952 0.005278 -0.007395 0.034751 0.083155 0.054740 0.142484 0.109403 0.160401 0.063482 0.142391 0.093391 -0.009694 -0.062582 -0.013332 -0.035526 -0.071004 -0.066561 0.048644 0.062312 -0.006468 0.052961 0.054350 0.075372 0.143869 0.066313 0.061493 0.050903 -0.024571 0.022708 0.001523 0.011420 0.001201 -0.006786 0.042383 0.056487 0.068819 0.027323 0.042760 0.017552 0.058118 -0.010012 -0.019312 0.020997 0.007825 0.058945 0.035314 0.037632 0.072304 0.026869 0.012522 0.030492 -0.003348 -0.050201 -0.034179 -0.031611 0.022230 0.036254 0.091062 -0.005619 0.055685 0.050365 -0.021931 0.053850 0.022387 0.013692 0.042305 0.057843 0.038727 0.090200 0.049122 0.073466 0.067653 0.083405 0.061891 0.064404 0.082610 0.029864 -0.010604 0.041454 0.034727 0.040683 0.063682 0.087395 -0.013115 0.061566 0.063502 0.006323 0.000871 -0.057867 -0.032208 0.104663 0.071953 0.048852 0.029106 -0.016613 0.035930 0.018501 -0.074192 0.049556 0.030174 0.054065 0.021246 0.010246 -0.006047 0.036819 0.056212 0.010007 0.036047 -0.045029 0.054604 0.111665 0.002631 -0.010261 -0.009388 -0.028218 -0.024311 -0.018770 -0.057618 -0.001830 -0.074389 -0.017171 -0.030581 0.020629 -0.036830 -0.041613 0.010465 -0.066709 -0.047514 -0.057936 0.040784 0.015515 0.029719 0.000026 0.087807 -0.035203 -0.029550 0.075732 0.020011 0.016953 0.011707 0.197079 -0.008256 0.016476 0.023003 0.002544 -0.011121 -0.042902 -0.030692 -0.159032 0.011312 -0.064395 -0.017964 0.043372 -0.029162 0.119333 -0.043688 -0.044458 -0.116140 -0.108666 -0.106157 -0.015653 0.046633 -0.120810 -0.023954 0.067607 0.216560 0.272917 0.085844 -0.275703 -0.002848
0.072396 0.072910 0.074450 0.077017 0.080611 0.085229 0.090871 0.097535 0.105219 0.113920 0.123634 0.134357 0.146083 0.158806 0.172516 0.187205 0.202861 0.219470 0.237016 0.255481 0.274844 0.295080 0.316161 0.338057 0.360733 0.384147 0.408258 0.433016 0.458367 0.484251 0.510604 0.537355 0.564426 0.591733 0.619187 0.646689 0.674137 0.701418 0.728414 0.754999 0.781041 0.806400 0.830930 0.854478 0.876885 0.897986 0.917612 0.935587 0.951733 0.965870 0.977814 0.987381 0.994388 0.998652 0.999995 0.998243 0.993227 0.984790 0.972781 0.957064 0.937516 0.914033 0.886526 0.854931 0.819204 0.779331 0.735323 0.687223 0.635105 0.579081 0.519296 0.455936 0.389225 0.319429 0.246855 0.171853 0.094815 0.016174 0.063595 0.143978 0.224425 0.304349 0.383134 0.460136 0.534689 0.606110 0.673706 0.736779 0.794634 0.846590 0.891984 0.930185 0.960598 0.982680 0.995944 0.999974 0.994433 0.979071 0.953739 0.918392 0.873102 0.818060 0.753587 0.680132 0.598282 0.508754 0.412402 0.310207 0.203277 0.092832 0.019800 0.133202 0.245879 0.356280 0.462817 0.563888 0.657905 0.743313 0.818626 0.882453 0.933523 0.970721 0.993110 0.999962 0.990782 0.965328 0.923633 0.866016 0.793096 0.705792 0.605327 0.493216 0.371254 0.241494 0.106221 0.032087 0.170793 0.307161 0.438394 0.561704 0.674367 0.773788 0.857567 0.923564 0.969957 0.995306 0.998600 0.979308 0.937408 0.873419 0.788409 0.683998 0.562336 0.426082 0.278352 0.122657 0.037165 0.197045 0.352782 0.500151 0.635018 0.753468 0.851920 0.927246 0.976885 0.998941 0.992270 0.956544 0.892299 0.800952 0.684798 0.546968 0.391371 0.222594 0.045781 0.133510 0.309480 0.476275 0.628178 0.759820 0.866373 0.943745 0.988756 0.999284 0.974387 0.914379 0.820872 0.696761 0.546162 0.374309 0.187383 0.007687 0.203470 0.392313 0.566637 0.719251 0.843656 0.934346 0.987070 0.999057 0.969186 0.898096 0.788218 0.643733 0.470444 0.275578 0.067507 0.144594 0.351146 0.542589 0.709836 0.844723 0.940419 0.991807 0.995792 0.951514 0.860470 0.726512 0.555730 0.356221 0.137732 0.088791 0.311734 0.519407 0.700663 0.845513 0.945704 0.995223 0.990698 0.931667 0.820695 0.663321 0.467835 0.244886 0.006935 0.232417 0.459195 0.659870 0.822182 0.935916 0.993588 0.990985 0.927517 0.806364 0.634383 0.421787 0.181578 0.071205 0.320399 0.549750 0.743982 0.889836 0.977017 0.998977 0.953458 0.842772 0.673760 0.457457 0.208412 0.056236 0.317895 0.557840 0.758549 0.905015 0.985918 0.994558 0.929479 0.794719 0.599649 0.358401 0.088895 0.188427 0.452139 0.681488 0.858048 0.967245 0.999634 0.951776 0.826689 0.633745 0.388079 0.109455 0.179249 0.453915 0.691174 0.870444 0.975750 0.997236 0.932164 0.785333 0.568841 0.301179 0.005731 0.291215 0.562788 0.783976 0.933969 0.998195 0.969824 0.850587 0.650820 0.388678 0.088583 0.220989 0.510169 0.750599 0.918229 0.995811 0.974770 0.856257 0.651262 0.379707 0.068632 0.250442 0.544669 0.783250 0.940736 0.999799 0.953271 0.805121 0.570277 0.273260 0.054286 0.376889 0.659075 0.869293 0.983518 0.988099 0.881530 0.674872 0.390761 0.061062 0.276637 0.583243 0.822713 0.966351 0.996359 0.908170 0.711284 0.428400 0.092958 0.254731 0.572259 0.820326 0.967646 0.995033 0.898031 0.687787 0.389941 0.041653 0.312917 0.628187 0.863016 0.986160 0.980564 0.845892 0.598904 0.271537 0.093039 0.446069 0.739683 0.933429 0.999986
1.000000 1.000000 1.000000 1.000000 1.000000 1.000000 1.000000 1.000000 1.000000 1.000000 1.000000 1.000000 1.000000 1.000000 1.000000 1.000000 1.000000 1.000000 1.000000 1.000000 1.000000 1.000000 1.000000 1.000000 1.000000 1.000000 1.000000 1.000000 1.000000 1.000000 1.000000 1.000000 1.000000 1.000000 1.000000 1.000000 1.000000 1.000000 1.000000 1.000000 1.000000 1.000000 1.000000 1.000000 1.000000 1.000000 1.000000 1.000000 1.000000 1.000000 1.000000 1.000000 0.910659 0.910659 0.895203 0.895203 0.895203 0.895203 0.895203 0.895203 0.895203 0.895203 0.895203 0.895203 0.895203 0.895203 0.895203 0.895203 0.895203 0.895203 0.895203 0.895203 0.895203 0.895203 0.895203 0.895203 0.895203 0.895203 0.895203 0.895203 0.895203 0.895203 0.895203 0.895203 0.895203 0.895203 0.895203 0.895203 0.895203 0.895203 0.895203 0.895203 0.895203 0.895203 0.895203 0.900313 0.904923 0.906825 0.905090 0.908726 0.908818 0.908092 0.908365 0.907967 0.908243 0.909633 0.920231 0.931372 0.942542 0.943114 0.948217 0.952680 0.954919 0.955897 0.957288 0.966778 0.965575 0.964999 0.965729 0.967377 0.969656 0.968171 0.968042 0.971141 0.971898 0.970076 0.968084 0.967448 0.966808 0.966872 0.966445 0.966342 0.966252 0.966749 0.966980 0.967218 0.967354 0.967380 0.968403 0.969557 0.971761 0.972722 0.972479 0.971230 0.965418 0.969426 0.969869 0.969616 0.969509 0.968998 0.969346 0.954984 0.949980 0.949950 0.946122 0.944631 0.940761 0.939476 0.937419 0.937587 0.936296 0.936899 0.934318 0.921453 0.908150 0.897595 0.916705 0.902127 0.891511 0.867726 0.867659 0.865974 0.866699 0.859171 0.853630 0.848907 0.845599 0.846507 0.843839 0.847663 0.845766 0.833598 0.836410 0.834004 0.806287 0.790931 0.771952 0.773904 0.771642 0.772854 0.772957 0.768875 0.777106 0.769245 0.767971 0.760170 0.741102 0.708733 0.696020 0.705826 0.715479 0.713303 0.710039 0.695042 0.663910 0.675769 0.704606 0.696674 0.700035 0.691126 0.685615 0.687668 0.690910 0.683168 0.675235 0.674440 0.673781 0.679924 0.683933 0.679662 0.668365 0.651971 0.638057 0.626725 0.640926 0.647677 0.614747 0.609917 0.601482 0.592405 0.569803 0.519824 0.512810 0.489155 0.477761 0.480178 0.477966 0.480725 0.488768 0.491170 0.473035 0.494034 0.506394 0.534696 0.512326 0.511056 0.511746 0.519057 0.502552 0.462705 0.453712 0.453527 0.464270 0.501148 0.547111 0.534335 0.522428 0.508983 0.524887 0.506521 0.516732 0.534796 0.509716 0.432537 0.380001 0.375765 0.337575 0.336816 0.321723 0.319906 0.318677 0.318439 0.306493 0.293161 0.278521 0.224120 0.188143 0.172617 0.149612 0.137789 0.151268 0.138008 0.131102 0.162731 0.212815 0.210774 0.205849 0.178821 0.180673 0.159037 0.182424 0.210191 0.165479 0.154811 0.143597 0.127375 0.107839 0.060427 0.090462 0.000210 -0.017727 -0.018219 -0.003913 0.013912 0.016624 0.029100 0.002304 0.018818 0.062433 0.065669 0.055330 -0.008894 -0.003411 0.005925 0.005186 -0.012620 -0.027293 -0.032257 -0.055198 -0.056876 -0.020835 0.035954 0.096681 0.100123 0.079350 0.083948 0.079297 0.062588 0.051319 0.018937 0.003461 -0.013743 -0.034715 -0.024698 -0.059632 -0.059632 -0.054632 -0.054632 -0.054632 -0.054632 -0.054632 -0.054632 -0.054632 -0.054632 -0.054632 -0.057904 -0.057904 -0.057904 -0.057904 -0.057904 -0.057904 -0.057904 -0.057904 -0.057904 -0.027197 -0.027197 -0.027197 -0.027197 -0.027197 -0.027197 -0.027197 -0.027197 -0.027197
0.000000 0.000000 0.000000 0.000000 0.000000 0.000000 0.000000 0.000000 0.000000 0.000000 0.000000 0.000000 0.000000 0.000000 0.000000 0.000000 0.000000 0.000000 0.000000 0.000000 0.000000 0.000000 0.000000 0.000000 0.000000 0.000000 0.000000 0.000000 0.000000 0.000000 0.000000 0.000000 0.000000 0.000000 0.000000 0.000000 0.000000 0.000000 0.000000 0.000000 0.000000 0.000000 0.000000 0.000000 0.000000 0.000000 0.000000 0.000000 0.000000 0.000000 0.000000 0.000000 0.181818 0.181818 0.199007 0.199007 0.199007 0.199007 0.199007 0.199007 0.199007 0.199007 0.199007 0.199007 0.199007 0.199007 0.199007 0.199007 0.199007 0.199007 0.199007 0.199007 0.199007 0.199007 0.199007 0.199007 0.199007 0.199007 0.199007 0.199007 0.199007 0.199007 0.199007 0.199007 0.199007 0.199007 0.199007 0.199007 0.199007 0.199007 0.199007 0.199007 0.199007 0.199007 0.199007 0.230940 0.230940 0.230940 0.230940 0.230940 0.230940 0.230940 0.230940 0.230940 0.230940 0.230940 0.230940 0.230940 0.230940 0.230940 0.230940 0.230940 0.230940 0.230940 0.230940 0.230940 0.230940 0.230940 0.230940 0.230940 0.230940 0.230940 0.230940 0.244339 0.244339 0.244339 0.244339 0.244339 0.244339 0.244339 0.244339 0.244339 0.244339 0.244339 0.244339 0.244339 0.244339 0.244339 0.244339 0.244339 0.244339 0.244339 0.244339 0.244339 0.244339 0.244339 0.251976 0.251976 0.251976 0.251976 0.251976 0.251976 0.251976 0.251976 0.251976 0.251976 0.251976 0.251976 0.251976 0.251976 0.251976 0.251976 0.251976 0.251976 0.251976 0.251976 0.264906 0.264906 0.264906 0.264906 0.264906 0.264906 0.264906 0.264906 0.264906 0.264906 0.264906 0.264906 0.264906 0.264906 0.264906 0.264906 0.264906 0.264906 0.264906 0.264906 0.264906 0.264906 0.264906 0.264906 0.264906 0.264906 0.264906 0.264906 0.264906 0.264906 0.264906 0.264906 0.264906 0.264906 0.264906 0.264906 0.264906 0.264906 0.264906 0.264906 0.264906 0.264906 0.264906 0.264906 0.264906 0.264906 0.264906 0.264906 0.264906 0.264906 0.264906 0.264906 0.264906 0.264906 0.264906 0.264906 0.264906 0.264906 0.264906 0.264906 0.264906 0.264906 0.264906 0.264906 0.264906 0.264906 0.264906 0.264906 0.264906 0.264906 0.264906 0.264906 0.264906 0.264906 0.264906 0.269680 0.269680 0.269680 0.269680 0.269680 0.269680 0.269680 0.269680 0.269680 0.269680 0.269680 0.269680 0.264906 0.264906 0.264906 0.264906 0.264906 0.264906 0.264906 0.264906 0.264906 0.264906 0.264906 0.264906 0.269680 0.269680 0.269680 0.269680 0.269680 0.269680 0.269680 0.269680 0.269680 0.269680 0.269680 0.264906 0.264906 0.264906 0.264906 0.264906 0.264906 0.264906 0.264906 0.264906 0.264906 0.264906 0.256074 0.256074 0.256074 0.256074 0.256074 0.256074 0.256074 0.256074 0.256074 0.256074 0.256074 0.264906 0.264906 0.264906 0.264906 0.264906 0.264906 0.264906 0.264906 0.264906 0.264906 0.260378 0.260378 0.260378 0.260378 0.260378 0.260378 0.260378 0.260378 0.260378 0.260378 0.264906 0.264906 0.264906 0.264906 0.264906 0.264906 0.264906 0.264906 0.264906 0.260378 0.260378 0.260378 0.260378 0.260378 0.260378 0.260378 0.260378 0.260378 0.256074 0.256074 0.256074 0.256074 0.256074 0.256074 0.256074 0.256074 0.256074 0.251976 0.251976 0.251976 0.251976 0.251976 0.251976 0.251976 0.251976 0.251976 0.264906 0.264906 0.264906 0.264906 0.264906 0.264906 0.264906 0.264906 0.264906
