# Output from CTFFind version 4.1.9, run on 2019-10-31 15:30:46
# Input file: ub_stacked3.mrc ; Number of micrographs: 1
# Pixel size: 1.500 Angstroms ; acceleration voltage: 300.0 keV ; spherical aberration: 0.00 mm ; amplitude contrast: 0.07
# Box size: 512 pixels ; min. res.: 30.0 Angstroms ; max. res.: 5.0 Angstroms ; min. def.: 5000.0 um; max. def. 50000.0 um; num. frames averaged: 50
# 6 lines per micrograph: #1 - spatial frequency (1/Angstroms); #2 - 1D rotational average of spectrum (assuming no astigmatism); #3 - 1D rotational average of spectrum; #4 - CTF fit; #5 - cross-correlation between spectrum and CTF fit; #6 - 2sigma of expected cross correlation of noise
0.000000 0.001302 0.002604 0.003906 0.005208 0.006510 0.007812 0.009115 0.010417 0.011719 0.013021 0.014323 0.015625 0.016927 0.018229 0.019531 0.020833 0.022135 0.023438 0.024740 0.026042 0.027344 0.028646 0.029948 0.031250 0.032552 0.033854 0.035156 0.036458 0.037760 0.039062 0.040365 0.041667 0.042969 0.044271 0.045573 0.046875 0.048177 0.049479 0.050781 0.052083 0.053385 0.054688 0.055990 0.057292 0.058594 0.059896 0.061198 0.062500 0.063802 0.065104 0.066406 0.067708 0.069010 0.070312 0.071615 0.072917 0.074219 0.075521 0.076823 0.078125 0.079427 0.080729 0.082031 0.083333 0.084635 0.085938 0.087240 0.088542 0.089844 0.091146 0.092448 0.093750 0.095052 0.096354 0.097656 0.098958 0.100260 0.101562 0.102865 0.104167 0.105469 0.106771 0.108073 0.109375 0.110677 0.111979 0.113281 0.114583 0.115885 0.117188 0.118490 0.119792 0.121094 0.122396 0.123698 0.125000 0.126302 0.127604 0.128906 0.130208 0.131510 0.132812 0.134115 0.135417 0.136719 0.138021 0.139323 0.140625 0.141927 0.143229 0.144531 0.145833 0.147135 0.148438 0.149740 0.151042 0.152344 0.153646 0.154948 0.156250 0.157552 0.158854 0.160156 0.161458 0.162760 0.164062 0.165365 0.166667 0.167969 0.169271 0.170573 0.171875 0.173177 0.174479 0.175781 0.177083 0.178385 0.179688 0.180990 0.182292 0.183594 0.184896 0.186198 0.187500 0.188802 0.190104 0.191406 0.192708 0.194010 0.195312 0.196615 0.197917 0.199219 0.200521 0.201823 0.203125 0.204427 0.205729 0.207031 0.208333 0.209635 0.210938 0.212240 0.213542 0.214844 0.216146 0.217448 0.218750 0.220052 0.221354 0.222656 0.223958 0.225260 0.226562 0.227865 0.229167 0.230469 0.231771 0.233073 0.234375 0.235677 0.236979 0.238281 0.239583 0.240885 0.242188 0.243490 0.244792 0.246094 0.247396 0.248698 0.250000 0.251302 0.252604 0.253906 0.255208 0.256510 0.257812 0.259115 0.260417 0.261719 0.263021 0.264323 0.265625 0.266927 0.268229 0.269531 0.270833 0.272135 0.273438 0.274740 0.276042 0.277344 0.278646 0.279948 0.281250 0.282552 0.283854 0.285156 0.286458 0.287760 0.289062 0.290365 0.291667 0.292969 0.294271 0.295573 0.296875 0.298177 0.299479 0.300781 0.302083 0.303385 0.304688 0.305990 0.307292 0.308594 0.309896 0.311198 0.312500 0.313802 0.315104 0.316406 0.317708 0.319010 0.320312 0.321615 0.322917 0.324219 0.325521 0.326823 0.328125 0.329427 0.330729 0.332031 0.333333 0.334635 0.335938 0.337240 0.338542 0.339844 0.341146 0.342448 0.343750 0.345052 0.346354 0.347656 0.348958 0.350260 0.351562 0.352865 0.354167 0.355469 0.356771 0.358073 0.359375 0.360677 0.361979 0.363281 0.364583 0.365885 0.367188 0.368490 0.369792 0.371094 0.372396 0.373698 0.375000 0.376302 0.377604 0.378906 0.380208 0.381510 0.382812 0.384115 0.385417 0.386719 0.388021 0.389323 0.390625 0.391927 0.393229 0.394531 0.395833 0.397135 0.398438 0.399740 0.401042 0.402344 0.403646 0.404948 0.406250 0.407552 0.408854 0.410156 0.411458 0.412760 0.414062 0.415365 0.416667 0.417969 0.419271 0.420573 0.421875 0.423177 0.424479 0.425781 0.427083 0.428385 0.429688 0.430990 0.432292 0.433594 0.434896 0.436198 0.437500 0.438802 0.440104 0.441406 0.442708 0.444010 0.445312 0.446615 0.447917 0.449219 0.450521 0.451823 0.453125 0.454427 0.455729 0.457031 0.458333 0.459635 0.460938 0.462240 0.463542 0.464844 0.466146 0.467448 0.468750 0.470052 0.471354
       0.02602        0.02602        0.02602        0.02602        0.02602        0.02602        0.02602        0.02602        0.02602        0.02602        0.02602        0.02602        0.02602        0.02602        0.02602        0.02602        0.02602        0.02602        0.02602        0.02602        0.02602        0.02602        0.02602        0.02602        0.02602        0.14752        0.71162        0.16838       -1.08740       -1.96085       -2.24514       -1.63383       -1.11408       -0.13198        0.25295        1.02065        1.64835        1.63150        1.80975        1.50802        0.93469        0.04332       -0.39179       -0.72955       -0.87209       -0.76417       -0.33884        0.05842        0.17572        0.31485        0.49510        0.60298        0.25832        0.04779       -0.13388       -0.32337       -0.43371       -0.18883       -0.19641       -0.07590       -0.00556       -0.10204       -0.01400        0.03334        0.10215       -0.01763       -0.06172       -0.16727       -0.26200       -0.35618       -0.31364       -0.24800       -0.18659       -0.34942       -0.26994       -0.46007       -0.38880       -0.38272       -0.33117       -0.35231       -0.33211       -0.26278       -0.19512       -0.19006       -0.04939       -0.11516       -0.01984        0.02959        0.14027        0.20603        0.23321        0.26483        0.30007        0.30200        0.41739        0.37077        0.39282        0.29387        0.25276        0.33292        0.18837        0.08496        0.04178       -0.00820       -0.11065       -0.06995       -0.08638       -0.23542       -0.25384       -0.33740       -0.33402       -0.28226       -0.31509       -0.22448       -0.20002       -0.07743       -0.02620        0.02197        0.09185        0.25599        0.23471        0.28328        0.37190        0.38579        0.31966        0.33169        0.31441        0.22779        0.24530        0.05627        0.01561       -0.05795       -0.16189       -0.25435       -0.18813       -0.22044       -0.25897       -0.23827       -0.12801       -0.10978       -0.00906        0.03176        0.08882        0.17659        0.26206        0.22005        0.22838        0.28451        0.23233        0.15922        0.15474        0.02282       -0.05045       -0.04529       -0.05527       -0.15190       -0.14438       -0.13055       -0.08836       -0.06051        0.01294        0.05021        0.06265        0.12827        0.11995        0.15893        0.12846        0.14324        0.11812        0.08123        0.06520        0.03586       -0.00376       -0.01420       -0.09368       -0.09829       -0.07521       -0.03786       -0.03065        0.04078        0.05327        0.03154        0.08099        0.13517        0.12246        0.08873        0.10488        0.04950        0.02395       -0.00755       -0.03665       -0.01149       -0.03916       -0.00925       -0.00471        0.03142        0.02916        0.08243        0.07851        0.08488        0.07122        0.08335        0.05433        0.02726       -0.01777       -0.00277        0.00618       -0.02059       -0.04384        0.01897        0.04809        0.02754        0.03839        0.04719        0.02909        0.07208        0.06310        0.02655        0.02494        0.01781        0.01464        0.01328        0.01168        0.00877       -0.01173        0.02248        0.03879        0.05326        0.02191        0.00960        0.01331        0.03694        0.00405       -0.01064        0.00745        0.02341        0.03787        0.01752        0.02750        0.04287        0.01537        0.01498        0.03876        0.02053       -0.00119       -0.00859       -0.01195        0.00471        0.02034        0.03253        0.02060        0.02087        0.03161        0.01725        0.00834       -0.00048        0.00731        0.01747        0.00704        0.01545        0.03857        0.01911        0.03523        0.03356        0.02248        0.02796        0.02298        0.02087        0.02020       -0.00301       -0.00212        0.04370        0.01144        0.02243        0.03360        0.02607        0.02591        0.01073        0.02715        0.00596        0.00181       -0.01047        0.01040        0.02857        0.03294        0.00750        0.01658        0.01497        0.01489        0.00100        0.02354        0.00036        0.01017        0.01078        0.02068        0.00341        0.02177        0.02197        0.03177        0.02188        0.01224        0.02926        0.06035        0.00266        0.02945        0.03275        0.00255        0.01635        0.02062        0.01266        0.00453       -0.00664        0.02037       -0.00159       -0.00159        0.01650        0.00720        0.01840        0.01239       -0.00463       -0.00853        0.02100        0.03000        0.04119       -0.01071        0.01152       -0.00386        0.00175        0.03807        0.02699        0.01004       -0.00073        0.03844        0.03391        0.01064        0.01067        0.00599        0.00565        0.01883        0.00838       -0.00990        0.02434       -0.00339       -0.02161        0.00542       -0.02150        0.02577        0.03659        0.03885        0.03290        0.00022        0.04661        0.05364        0.00654       -0.00049       -0.04452       -0.06348        0.01158        0.11250        0.03791       -0.05134       -0.20882       -0.40903
-0.059406 0.579120 0.580295 0.581434 0.582539 0.583608 0.584642 0.585640 0.586603 0.587531 0.588424 0.589281 0.590103 0.590890 0.591641 0.592358 0.593038 0.593684 0.594294 0.594869 0.595409 0.595913 0.596382 0.596816 0.597215 0.597578 2.080899 0.770623 -0.949906 -2.861013 -3.334183 -2.107329 -1.605596 0.335926 0.860819 2.010997 3.554234 3.371108 3.421968 3.342017 2.207666 0.655733 -0.015305 -0.579699 -1.012978 -0.805934 -0.116896 0.713050 0.804462 0.849406 1.352054 1.735305 0.951862 0.877633 0.341060 0.080844 -0.324816 0.314211 0.046527 0.487539 0.608941 0.260666 0.497294 0.633270 0.747292 0.557377 0.493217 0.277090 -0.006593 -0.008213 -0.039320 0.061357 0.338107 -0.084081 0.087809 -0.233492 -0.116448 -0.142653 -0.024809 -0.079710 -0.043896 0.060196 0.188207 0.139295 0.435566 0.296083 0.491083 0.450476 0.791860 0.790587 0.854558 0.944939 1.000978 0.965846 1.197233 1.074485 1.221879 0.990951 0.862344 1.073501 0.820217 0.706796 0.506349 0.519683 0.319882 0.298385 0.427556 0.092592 0.032253 -0.041242 -0.199837 0.093148 -0.162324 0.028894 0.151179 0.242726 0.354367 0.445378 0.560080 0.719110 0.897535 0.760287 1.095836 1.055909 0.941686 0.987884 0.938900 0.830065 0.782490 0.628488 0.430498 0.341264 0.172638 -0.038012 0.028462 0.103620 -0.096231 -0.054813 0.114089 0.164955 0.272363 0.397403 0.457260 0.552326 0.762729 0.785890 0.700506 0.725232 0.770234 0.617230 0.563246 0.469825 0.230465 0.222350 0.187096 0.094416 0.028634 0.039850 0.167612 0.069510 0.239468 0.353463 0.300580 0.459093 0.433683 0.457233 0.545424 0.450703 0.453066 0.406842 0.355263 0.289713 0.263276 0.183585 0.143685 0.001867 0.077423 0.145830 0.136219 0.196593 0.246698 0.236044 0.292847 0.367715 0.315893 0.343482 0.251623 0.205880 0.216614 0.127386 0.032833 0.095934 0.009893 0.065583 0.065120 0.089837 0.114183 0.139525 0.258464 0.149233 0.224364 0.178811 0.197575 0.134041 0.055328 -0.004006 0.070886 0.035395 -0.003889 -0.033545 0.101538 0.129468 0.052365 0.107059 0.086320 0.064354 0.181685 0.047969 0.041370 0.053486 0.013916 0.017849 -0.005196 0.026745 -0.013270 -0.022628 0.036574 0.038187 0.064532 -0.033042 0.017051 0.003430 0.048862 -0.017988 -0.025108 -0.008849 0.028012 0.028539 0.009421 0.054418 0.019515 -0.002352 -0.023432 0.033651 -0.036527 -0.034231 -0.037197 -0.077029 -0.024746 -0.013654 0.042250 -0.032695 0.004070 -0.001011 -0.021874 -0.024374 -0.041772 -0.028795 -0.016859 -0.035197 -0.017645 0.033195 -0.043370 0.033744 -0.007086 0.009259 -0.016088 -0.009139 0.011232 -0.035641 -0.075286 -0.023670 0.031931 -0.031166 -0.001383 0.014486 -0.004241 0.003331 -0.008613 -0.029177 -0.023714 -0.084362 -0.039949 -0.003022 0.000655 0.006131 -0.016993 -0.036758 0.000399 0.024205 -0.041113 0.071487 -0.047014 0.039057 0.002461 0.021859 -0.006112 0.034720 0.030539 0.080792 0.047153 0.004016 0.102399 0.093196 -0.004154 0.074389 0.059262 0.016267 0.024646 0.028610 0.018911 0.016796 -0.061034 0.064989 -0.049353 -0.000885 0.021061 -0.014833 0.020680 -0.011376 -0.055443 -0.061775 -0.014868 0.008188 0.038531 -0.090745 0.006391 -0.088309 -0.069436 0.051732 -0.067147 -0.020833 -0.079089 0.026372 -0.024265 -0.069680 -0.019434 -0.060393 -0.072074 0.003303 -0.059240 -0.094293 0.012534 -0.091625 -0.083839 -0.055215 -0.067705 0.040955 -0.009146 0.022196 0.019034 -0.041785 0.019120 0.105916 -0.030203 -0.082166 -0.038157 -0.159848 0.061078 0.229873 0.044060 -0.085783 -0.684668
0.072396 0.072903 0.074424 0.076958 0.080505 0.085063 0.090632 0.097211 0.104796 0.113385 0.122974 0.133559 0.145135 0.157695 0.171231 0.185734 0.201192 0.217593 0.234921 0.253158 0.272283 0.292274 0.313104 0.334742 0.357154 0.380303 0.404147 0.428637 0.453723 0.479346 0.505444 0.531949 0.558786 0.585874 0.613127 0.640449 0.667740 0.694894 0.721795 0.748322 0.774346 0.799733 0.824341 0.848021 0.870618 0.891974 0.911923 0.930294 0.946915 0.961607 0.974193 0.984492 0.992323 0.997507 0.999868 0.999233 0.995436 0.988317 0.977725 0.963523 0.945584 0.923798 0.898073 0.868335 0.834534 0.796642 0.754661 0.708618 0.658574 0.604621 0.546887 0.485536 0.420771 0.352832 0.282003 0.208607 0.133007 0.055610 0.023141 0.102758 0.182721 0.262473 0.341424 0.418956 0.494426 0.567175 0.636525 0.701795 0.762301 0.817365 0.866327 0.908549 0.943424 0.970390 0.988933 0.998604 0.999022 0.989889 0.970996 0.942233 0.903596 0.855196 0.797265 0.730161 0.654368 0.570504 0.479317 0.381682 0.278603 0.171199 0.060699 0.051567 0.164186 0.275675 0.384502 0.489102 0.587907 0.679363 0.761962 0.834263 0.894928 0.942743 0.976650 0.995771 0.999438 0.987212 0.958907 0.914607 0.854677 0.779774 0.690850 0.589150 0.476204 0.353812 0.224020 0.089096 0.048506 0.186188 0.321254 0.450961 0.572579 0.683444 0.781027 0.862993 0.927263 0.972077 0.996045 0.998203 0.978054 0.935599 0.871366 0.786421 0.682362 0.561311 0.425878 0.279121 0.124484 0.034272 0.193159 0.348060 0.494828 0.629407 0.747944 0.846909 0.923208 0.974294 0.998260 0.993928 0.960910 0.899659 0.811483 0.698549 0.563845 0.411120 0.244801 0.069874 0.108257 0.283926 0.451387 0.605003 0.739439 0.849860 0.932118 0.982925 0.999999 0.982189 0.929557 0.843426 0.726372 0.582184 0.415763 0.232972 0.040457 0.154592 0.344693 0.522370 0.680436 0.812312 0.912301 0.975866 0.999849 0.982666 0.924416 0.826946 0.693828 0.530263 0.342911 0.139645 0.070768 0.279020 0.475678 0.651617 0.798447 0.908935 0.977392 0.999987 0.975003 0.902981 0.786773 0.631473 0.444239 0.233989 0.011018 0.213503 0.428067 0.621428 0.783197 0.904426 0.978134 0.999741 0.967394 0.882156 0.748034 0.571843 0.362914 0.132625 0.106174 0.339874 0.554872 0.738370 0.879166 0.968362 0.999977 0.971389 0.883595 0.741259 0.552522 0.328592 0.083126 0.168575 0.410505 0.626962 0.803591 0.928360 0.992429 0.990824 0.922881 0.792415 0.607573 0.380401 0.126103 0.137924 0.393270 0.621788 0.806897 0.934820 0.995664 0.984244 0.900591 0.750085 0.543195 0.294820 0.023275 0.251010 0.507039 0.724827 0.887013 0.980286 0.996541 0.933659 0.795831 0.593375 0.342042 0.061883 0.224337 0.492940 0.721305 0.889805 0.983551 0.993774 0.918736 0.764051 0.542366 0.272431 0.022431 0.316277 0.582811 0.797769 0.941146 0.999145 0.965592 0.842679 0.640968 0.378578 0.079658 0.227773 0.514428 0.752537 0.918585 0.995705 0.975480 0.858972 0.656834 0.388449 0.080181 0.237150 0.531311 0.771932 0.933705 0.999101 0.960397 0.820694 0.593831 0.303139 0.020864 0.343580 0.630040 0.848690 0.974932 0.994006 0.902829 0.710593 0.437990 0.115112 0.221785 0.534296 0.786250 0.947965 0.999818 0.934780 0.759490 0.493754 0.168450 0.177950 0.503877 0.769638 0.942316 0.999940 0.934424 0.752849 0.476880 0.140344 0.214811 0.543687 0.804105 0.962080 0.996381 0.901534 0.688843 0.385238 0.030021 0.330126 0.647201
1.000000 1.000000 1.000000 1.000000 1.000000 1.000000 1.000000 1.000000 1.000000 1.000000 1.000000 1.000000 1.000000 1.000000 1.000000 1.000000 1.000000 1.000000 1.000000 1.000000 1.000000 1.000000 1.000000 1.000000 1.000000 1.000000 0.355044 0.355044 0.355044 0.355044 0.355044 0.355044 0.355044 0.355044 0.355044 0.355044 0.355044 0.355044 0.355044 0.355044 0.355044 0.355044 0.355044 0.355044 0.355044 0.355044 0.355044 0.355044 0.355044 0.355044 0.355044 0.355044 0.355044 0.355044 0.355044 0.313510 0.313510 0.313510 0.313510 0.313510 0.313510 0.313510 0.313510 0.313510 0.313510 0.313510 0.313510 0.313510 0.313510 0.313510 0.313510 0.313510 0.313510 0.313510 0.313510 0.313510 0.310233 0.321823 0.320829 0.312041 0.306617 0.310363 0.313244 0.325936 0.331190 0.333355 0.351184 0.372785 0.386014 0.395807 0.402494 0.401181 0.410569 0.435319 0.481506 0.557510 0.915264 0.916509 0.912771 0.918848 0.919832 0.920178 0.920586 0.921433 0.923369 0.923892 0.926764 0.930046 0.935126 0.936820 0.951703 0.952745 0.964066 0.964741 0.963745 0.962267 0.970315 0.969110 0.968700 0.968654 0.969701 0.968656 0.968052 0.968206 0.971165 0.969809 0.967988 0.967527 0.965402 0.963909 0.962823 0.962358 0.962668 0.963007 0.963084 0.963510 0.964316 0.964375 0.964866 0.965273 0.967189 0.967860 0.968933 0.968541 0.961812 0.969194 0.967206 0.966892 0.966016 0.963490 0.963648 0.963882 0.963952 0.963084 0.963104 0.958775 0.952691 0.951059 0.946151 0.936857 0.937399 0.940620 0.941791 0.941820 0.939375 0.936511 0.929181 0.939762 0.934282 0.927622 0.928844 0.916570 0.917952 0.916570 0.916185 0.913047 0.902233 0.888814 0.885910 0.883937 0.887175 0.887065 0.884294 0.882746 0.851605 0.826387 0.828069 0.798333 0.778725 0.778084 0.774943 0.781682 0.794902 0.797045 0.795888 0.777710 0.765250 0.746229 0.745659 0.687347 0.676359 0.733302 0.674496 0.653304 0.640199 0.655018 0.655229 0.668365 0.669469 0.622413 0.591863 0.577092 0.558009 0.547149 0.534717 0.538567 0.525664 0.521649 0.522067 0.527054 0.508285 0.463366 0.410488 0.402449 0.404941 0.412330 0.392342 0.358881 0.322931 0.330114 0.325909 0.231393 0.223251 0.194730 0.188458 0.203028 0.208050 0.220090 0.225637 0.198573 0.178913 0.180321 0.106443 0.192489 0.154382 0.084445 0.091929 0.087261 0.085643 0.074846 0.060973 0.070244 0.059710 0.062049 0.072160 0.021713 -0.004038 -0.047025 -0.007048 -0.006720 0.008531 0.007529 -0.022264 -0.031324 -0.043080 -0.043526 -0.018823 -0.026690 -0.034235 -0.028249 -0.013574 -0.029420 0.001525 0.002087 -0.019810 -0.051999 -0.084201 -0.024508 -0.039676 -0.028513 -0.040349 -0.035818 -0.037938 -0.018079 0.000800 0.009135 0.063942 0.066923 0.046901 0.067530 0.028801 -0.003744 0.036124 -0.002871 -0.049005 -0.015361 -0.021618 -0.042167 -0.078346 -0.062385 -0.104479 -0.028820 -0.060045 -0.057609 -0.039957 -0.070780 -0.092710 -0.112953 -0.122664 -0.132067 -0.123143 -0.132694 -0.118524 -0.117554 -0.047409 -0.025759 -0.032110 -0.054974 -0.052838 -0.067814 -0.063502 -0.070672 -0.055662 -0.029984 -0.024817 -0.034641 -0.049509 -0.085558 -0.135808 -0.155820 -0.147844 -0.095278 -0.076982 -0.058668 -0.076675 -0.076675 -0.076675 -0.076675 -0.082145 -0.082145 -0.082145 -0.082145 -0.082145 -0.082145 -0.082145 -0.082145 -0.082145 -0.052517 -0.052517 -0.052517 -0.052517 -0.052517 -0.052517 -0.052517 -0.052517 -0.052517 -0.052517 -0.052517 -0.052517 -0.052517 -0.052517 -0.052517 -0.052517
0.000000 0.000000 0.000000 0.000000 0.000000 0.000000 0.000000 0.000000 0.000000 0.000000 0.000000 0.000000 0.000000 0.000000 0.000000 0.000000 0.000000 0.000000 0.000000 0.000000 0.000000 0.000000 0.000000 0.000000 0.000000 0.000000 0.180334 0.180334 0.180334 0.180334 0.180334 0.180334 0.180334 0.180334 0.180334 0.180334 0.180334 0.180334 0.180334 0.180334 0.180334 0.180334 0.180334 0.180334 0.180334 0.180334 0.180334 0.180334 0.180334 0.180334 0.180334 0.180334 0.180334 0.180334 0.180334 0.199007 0.199007 0.199007 0.199007 0.199007 0.199007 0.199007 0.199007 0.199007 0.199007 0.199007 0.199007 0.199007 0.199007 0.199007 0.199007 0.199007 0.199007 0.199007 0.199007 0.199007 0.199007 0.199007 0.199007 0.199007 0.199007 0.199007 0.199007 0.199007 0.199007 0.199007 0.199007 0.199007 0.199007 0.199007 0.199007 0.199007 0.199007 0.199007 0.199007 0.199007 0.230940 0.230940 0.230940 0.230940 0.230940 0.230940 0.230940 0.230940 0.230940 0.230940 0.230940 0.230940 0.230940 0.230940 0.230940 0.230940 0.230940 0.230940 0.230940 0.230940 0.230940 0.230940 0.230940 0.230940 0.230940 0.230940 0.230940 0.230940 0.244339 0.244339 0.244339 0.244339 0.244339 0.244339 0.244339 0.244339 0.244339 0.244339 0.244339 0.244339 0.244339 0.244339 0.244339 0.244339 0.244339 0.244339 0.244339 0.244339 0.244339 0.244339 0.244339 0.251976 0.251976 0.251976 0.251976 0.251976 0.251976 0.251976 0.251976 0.251976 0.251976 0.251976 0.251976 0.251976 0.251976 0.251976 0.251976 0.251976 0.251976 0.251976 0.251976 0.264906 0.264906 0.264906 0.264906 0.264906 0.264906 0.264906 0.264906 0.264906 0.264906 0.264906 0.264906 0.264906 0.264906 0.264906 0.264906 0.264906 0.256074 0.256074 0.256074 0.256074 0.256074 0.256074 0.256074 0.256074 0.256074 0.256074 0.256074 0.256074 0.256074 0.256074 0.256074 0.256074 0.256074 0.269680 0.269680 0.269680 0.269680 0.269680 0.269680 0.269680 0.269680 0.269680 0.269680 0.269680 0.269680 0.269680 0.269680 0.264906 0.264906 0.264906 0.264906 0.264906 0.264906 0.264906 0.264906 0.264906 0.264906 0.264906 0.264906 0.264906 0.264906 0.256074 0.256074 0.256074 0.256074 0.256074 0.256074 0.256074 0.256074 0.256074 0.256074 0.256074 0.256074 0.256074 0.256074 0.269680 0.269680 0.269680 0.269680 0.269680 0.269680 0.269680 0.269680 0.269680 0.269680 0.269680 0.269680 0.264906 0.264906 0.264906 0.264906 0.264906 0.264906 0.264906 0.264906 0.264906 0.264906 0.264906 0.264906 0.269680 0.269680 0.269680 0.269680 0.269680 0.269680 0.269680 0.269680 0.269680 0.269680 0.269680 0.264906 0.264906 0.264906 0.264906 0.264906 0.264906 0.264906 0.264906 0.264906 0.264906 0.264906 0.256074 0.256074 0.256074 0.256074 0.256074 0.256074 0.256074 0.256074 0.256074 0.256074 0.256074 0.264906 0.264906 0.264906 0.264906 0.264906 0.264906 0.264906 0.264906 0.264906 0.264906 0.260378 0.260378 0.260378 0.260378 0.260378 0.260378 0.260378 0.260378 0.260378 0.260378 0.264906 0.264906 0.264906 0.264906 0.264906 0.264906 0.264906 0.264906 0.264906 0.260378 0.260378 0.260378 0.260378 0.260378 0.260378 0.260378 0.260378 0.260378 0.256074 0.256074 0.256074 0.256074 0.256074 0.256074 0.256074 0.256074 0.256074 0.251976 0.251976 0.251976 0.251976 0.251976 0.251976 0.251976 0.251976 0.251976 0.251976 0.251976 0.251976 0.251976 0.251976 0.251976 0.251976
