# Output from CTFFind version 4.1.9, run on 2019-11-01 23:11:21
# Input file: ub_averaged_3000.mrc ; Number of micrographs: 1
# Pixel size: 3.000 Angstroms ; acceleration voltage: 300.0 keV ; spherical aberration: 0.00 mm ; amplitude contrast: 0.07
# Box size: 512 pixels ; min. res.: 30.0 Angstroms ; max. res.: 5.0 Angstroms ; min. def.: 5000.0 um; max. def. 50000.0 um; num. frames averaged: 1
# 6 lines per micrograph: #1 - spatial frequency (1/Angstroms); #2 - 1D rotational average of spectrum (assuming no astigmatism); #3 - 1D rotational average of spectrum; #4 - CTF fit; #5 - cross-correlation between spectrum and CTF fit; #6 - 2sigma of expected cross correlation of noise
0.000000 0.000651 0.001302 0.001953 0.002604 0.003255 0.003906 0.004557 0.005208 0.005859 0.006510 0.007161 0.007812 0.008464 0.009115 0.009766 0.010417 0.011068 0.011719 0.012370 0.013021 0.013672 0.014323 0.014974 0.015625 0.016276 0.016927 0.017578 0.018229 0.018880 0.019531 0.020182 0.020833 0.021484 0.022135 0.022786 0.023438 0.024089 0.024740 0.025391 0.026042 0.026693 0.027344 0.027995 0.028646 0.029297 0.029948 0.030599 0.031250 0.031901 0.032552 0.033203 0.033854 0.034505 0.035156 0.035807 0.036458 0.037109 0.037760 0.038411 0.039062 0.039714 0.040365 0.041016 0.041667 0.042318 0.042969 0.043620 0.044271 0.044922 0.045573 0.046224 0.046875 0.047526 0.048177 0.048828 0.049479 0.050130 0.050781 0.051432 0.052083 0.052734 0.053385 0.054036 0.054688 0.055339 0.055990 0.056641 0.057292 0.057943 0.058594 0.059245 0.059896 0.060547 0.061198 0.061849 0.062500 0.063151 0.063802 0.064453 0.065104 0.065755 0.066406 0.067057 0.067708 0.068359 0.069010 0.069661 0.070312 0.070964 0.071615 0.072266 0.072917 0.073568 0.074219 0.074870 0.075521 0.076172 0.076823 0.077474 0.078125 0.078776 0.079427 0.080078 0.080729 0.081380 0.082031 0.082682 0.083333 0.083984 0.084635 0.085286 0.085938 0.086589 0.087240 0.087891 0.088542 0.089193 0.089844 0.090495 0.091146 0.091797 0.092448 0.093099 0.093750 0.094401 0.095052 0.095703 0.096354 0.097005 0.097656 0.098307 0.098958 0.099609 0.100260 0.100911 0.101562 0.102214 0.102865 0.103516 0.104167 0.104818 0.105469 0.106120 0.106771 0.107422 0.108073 0.108724 0.109375 0.110026 0.110677 0.111328 0.111979 0.112630 0.113281 0.113932 0.114583 0.115234 0.115885 0.116536 0.117188 0.117839 0.118490 0.119141 0.119792 0.120443 0.121094 0.121745 0.122396 0.123047 0.123698 0.124349 0.125000 0.125651 0.126302 0.126953 0.127604 0.128255 0.128906 0.129557 0.130208 0.130859 0.131510 0.132161 0.132812 0.133464 0.134115 0.134766 0.135417 0.136068 0.136719 0.137370 0.138021 0.138672 0.139323 0.139974 0.140625 0.141276 0.141927 0.142578 0.143229 0.143880 0.144531 0.145182 0.145833 0.146484 0.147135 0.147786 0.148438 0.149089 0.149740 0.150391 0.151042 0.151693 0.152344 0.152995 0.153646 0.154297 0.154948 0.155599 0.156250 0.156901 0.157552 0.158203 0.158854 0.159505 0.160156 0.160807 0.161458 0.162109 0.162760 0.163411 0.164062 0.164714 0.165365 0.166016 0.166667 0.167318 0.167969 0.168620 0.169271 0.169922 0.170573 0.171224 0.171875 0.172526 0.173177 0.173828 0.174479 0.175130 0.175781 0.176432 0.177083 0.177734 0.178385 0.179036 0.179688 0.180339 0.180990 0.181641 0.182292 0.182943 0.183594 0.184245 0.184896 0.185547 0.186198 0.186849 0.187500 0.188151 0.188802 0.189453 0.190104 0.190755 0.191406 0.192057 0.192708 0.193359 0.194010 0.194661 0.195312 0.195964 0.196615 0.197266 0.197917 0.198568 0.199219 0.199870 0.200521 0.201172 0.201823 0.202474 0.203125 0.203776 0.204427 0.205078 0.205729 0.206380 0.207031 0.207682 0.208333 0.208984 0.209635 0.210286 0.210938 0.211589 0.212240 0.212891 0.213542 0.214193 0.214844 0.215495 0.216146 0.216797 0.217448 0.218099 0.218750 0.219401 0.220052 0.220703 0.221354 0.222005 0.222656 0.223307 0.223958 0.224609 0.225260 0.225911 0.226562 0.227214 0.227865 0.228516 0.229167 0.229818 0.230469 0.231120 0.231771 0.232422 0.233073 0.233724 0.234375 0.235026 0.235677
       0.33557        0.33557        0.33557        0.33557        0.33557        0.33557        0.33557        0.33557        0.33557        0.33557        0.33557        0.33557        0.33557        0.33557        0.33557        0.33557        0.33557        0.33557        0.33557        0.33557        0.33557        0.33557        0.33557        0.33557        0.33557        0.33557        0.33557        0.33557        0.33557        0.33557        0.33557        0.33557        0.33557        0.33557        0.33557        0.33557        0.33557        0.33557        0.33557        0.33557        0.33557        0.33557        0.33557        0.33557        0.33557        0.33557        0.33557        0.33557        0.33557        0.33557        0.33557        0.50368        0.71965        0.43150        0.19039       -0.08001       -0.26318       -0.06841       -0.13217       -0.05206       -0.00057       -0.14367       -0.08854       -0.04775        0.00003       -0.14845       -0.21627       -0.34401       -0.46007       -0.55562       -0.51443       -0.44572       -0.37007       -0.54373       -0.44494       -0.61788       -0.49794       -0.47191       -0.38749       -0.38212       -0.34080       -0.24777       -0.15652       -0.13435        0.03508       -0.00824        0.12134        0.17131        0.30581        0.40941        0.46608        0.49645        0.54180        0.55085        0.69606        0.64809        0.67997        0.59194        0.55667        0.65707        0.52984        0.42790        0.38491        0.32537        0.23036        0.26858        0.25541        0.11029        0.08673        0.00142       -0.00383        0.03913       -0.00012        0.07952        0.10112        0.23451        0.28419        0.30924        0.38150        0.55920        0.53872        0.58196        0.67280        0.70029        0.63284        0.63765        0.63278        0.55467        0.57861        0.39702        0.34720        0.26899        0.18787        0.07381        0.14688        0.12267        0.09095        0.10655        0.21171        0.21752        0.31881        0.36052        0.41635        0.49896        0.58975        0.54398        0.55655        0.61111        0.54664        0.46767        0.47911        0.32750        0.25413        0.25795        0.24467        0.14717        0.15030        0.15630        0.22192        0.24985        0.32966        0.36459        0.39034        0.47134        0.44968        0.48280        0.45884        0.46980        0.44616        0.41110        0.38475        0.35264        0.31144        0.28755        0.20447        0.19869        0.22299        0.27021        0.27258        0.35381        0.37907        0.36133        0.41261        0.46059        0.45363        0.42535        0.43988        0.37232        0.33990        0.28848        0.26716        0.29347        0.27364        0.29820        0.30270        0.35266        0.34546        0.40376        0.41148        0.43019        0.41136        0.42858        0.40396        0.36643        0.28640        0.29667        0.31407        0.27825        0.25889        0.33227        0.37323        0.34419        0.35566        0.36093        0.35735        0.40850        0.40331        0.36058        0.34184        0.31368        0.31178        0.31620        0.31813        0.29887        0.28816        0.33842        0.35874        0.38186        0.33600        0.32699        0.33704        0.34552        0.30770        0.28450        0.30883        0.31751        0.33947        0.32494        0.33470        0.36085        0.33311        0.31616        0.33158        0.30613        0.26848        0.25630        0.26807        0.30673        0.32478        0.34954        0.30276        0.31934        0.34282        0.29750        0.32116        0.28927        0.28845        0.29608        0.30400        0.30960        0.34608        0.32502        0.33198        0.33840        0.31402        0.33828        0.31915        0.32017        0.30796        0.28613        0.30001        0.32073        0.29712        0.33273        0.34313        0.33355        0.31734        0.33764        0.31706        0.27476        0.25637        0.27450        0.33497        0.36123        0.35035        0.31713        0.29549        0.29667        0.31662        0.24871        0.29988        0.30351        0.32927        0.30198        0.32719        0.29025        0.33892        0.34536        0.34987        0.33062        0.29630        0.32179        0.39879        0.32777        0.31773        0.31641        0.28962        0.28502        0.30091        0.26497        0.30919        0.24214        0.28314        0.29771        0.31741        0.29735        0.28052        0.30314        0.24102        0.23249        0.26335        0.30974        0.30604        0.28893        0.28735        0.33708        0.25748        0.21362        0.31774        0.27989        0.25643        0.28238        0.39819        0.30576        0.28691        0.25189        0.24990        0.26187        0.23322        0.23224        0.15999        0.25849        0.23710        0.24840        0.32140        0.28587        0.34735        0.28602        0.26771        0.24748        0.22352        0.23514        0.29221        0.23161        0.11910        0.13670        0.24560        0.24538        0.33455        0.30297        0.02318       -0.43868       -0.91693
2.731523 2.702537 2.673707 2.645033 2.616516 2.588156 2.559951 2.531904 2.504013 2.476278 2.448699 2.421278 2.394012 2.366903 2.339951 2.313155 2.286516 2.260033 2.233706 2.207536 2.181522 2.155665 2.129964 2.104420 2.079033 2.053801 2.028726 2.003808 1.979046 1.954441 1.929992 1.905700 1.881564 1.857584 1.833761 1.810094 1.786584 1.763231 1.740033 1.716993 1.694108 1.671381 1.648809 1.626394 1.604136 1.582034 1.560089 1.538300 1.516667 1.495191 1.473872 1.543244 1.842593 1.537698 1.200190 0.950557 0.548999 0.920947 0.640497 0.884470 0.937061 0.599860 0.720847 0.792166 0.828571 0.639624 0.549315 0.351491 0.109171 0.084795 0.048487 0.087286 0.305342 -0.030107 0.088752 -0.132545 -0.006362 -0.016053 0.085867 0.067477 0.097541 0.180087 0.288246 0.255860 0.485967 0.403094 0.552684 0.529522 0.772797 0.791929 0.884916 0.920478 0.945653 0.947456 1.127642 0.949971 1.135692 0.950969 0.852799 1.021607 0.851317 0.762608 0.615427 0.599966 0.456379 0.422029 0.514897 0.265929 0.201824 0.156361 0.009641 0.209514 -0.004186 0.121585 0.183206 0.257488 0.329527 0.352432 0.426350 0.533799 0.664438 0.539567 0.743769 0.858576 0.641328 0.700346 0.663627 0.591940 0.542881 0.460667 0.296408 0.216400 0.115974 -0.046561 -0.019331 0.056758 -0.101565 -0.061533 0.043873 0.053642 0.116773 0.215575 0.239808 0.310990 0.450725 0.451635 0.426044 0.483539 0.454500 0.339472 0.330736 0.241336 0.057519 0.059633 0.014908 -0.042310 -0.094876 -0.097362 -0.012026 -0.052854 0.069801 0.126571 0.110053 0.264422 0.232259 0.239317 0.285758 0.242750 0.229319 0.212006 0.166223 0.104314 0.095692 0.021275 -0.001310 -0.124125 -0.055492 -0.003695 -0.002479 0.026369 0.093917 0.084071 0.116167 0.215084 0.265889 0.186053 0.178322 0.110475 0.144535 0.028461 -0.028554 0.029209 -0.022671 0.014715 -0.003873 0.040306 0.091246 0.056412 0.164144 0.114511 0.179372 0.072234 0.154902 0.100156 0.003921 -0.052864 0.002973 -0.021512 -0.057513 -0.057420 0.068067 0.073653 0.001621 0.087449 0.074334 0.079068 0.155901 0.078501 0.070976 0.065850 -0.011766 0.032104 0.011140 0.022798 0.007168 0.006422 0.050620 0.085635 0.080305 0.040972 0.052242 0.037377 0.069509 0.001695 -0.006606 0.034119 0.025065 0.072052 0.047844 0.067295 0.082842 0.048815 0.022964 0.038804 0.008096 -0.037731 -0.024394 -0.018562 0.029324 0.044397 0.093188 0.007661 0.065977 0.057245 -0.013992 0.064445 0.004487 0.006988 0.032232 0.048017 0.025132 0.088333 0.038649 0.063532 0.074664 0.067326 0.068624 0.061875 0.081803 0.027726 -0.006596 0.053643 0.046785 0.045846 0.073952 0.082466 0.017359 0.053057 0.071266 0.001032 -0.006434 -0.060396 -0.022541 0.110704 0.077960 0.059343 0.028163 -0.023678 0.049406 0.017915 -0.074571 0.052479 0.022720 0.060490 0.033821 0.019209 0.041963 0.008871 0.055250 0.025817 0.040712 -0.054168 0.071633 0.110677 -0.006667 -0.004404 0.014673 -0.014958 -0.047236 -0.023501 -0.059448 -0.017587 -0.090970 -0.019267 -0.041535 0.016881 -0.030199 -0.053345 0.021857 -0.060024 -0.053101 -0.078716 0.050555 0.012276 0.014048 -0.010103 0.088895 -0.050734 -0.085459 0.064848 -0.014535 -0.003234 -0.000795 0.194410 -0.013515 0.018653 -0.003169 -0.018023 -0.015547 -0.046838 -0.016693 -0.186225 0.026923 -0.024911 -0.038891 0.078756 0.033884 0.125933 0.007999 0.033303 0.006304 0.020693 -0.042994 0.358799 0.277558 0.144244 0.180108 0.253372 0.329285 0.365359 0.369480 0.029760 -1.080283
0.072396 0.072911 0.074454 0.077025 0.080624 0.085250 0.090901 0.097576 0.105272 0.113987 0.123717 0.134457 0.146202 0.158945 0.172677 0.187389 0.203070 0.219705 0.237278 0.255772 0.275164 0.295430 0.316543 0.338472 0.361180 0.384628 0.408772 0.433563 0.458946 0.484863 0.511248 0.538029 0.565129 0.592463 0.619942 0.647466 0.674933 0.702229 0.729236 0.755828 0.781872 0.807227 0.831746 0.855277 0.877658 0.898726 0.918310 0.936234 0.952320 0.966386 0.978248 0.987722 0.994623 0.998771 0.999984 0.998090 0.992921 0.984316 0.972128 0.956220 0.936470 0.912773 0.885042 0.853213 0.817245 0.777124 0.732862 0.684505 0.632129 0.575847 0.515808 0.452199 0.385248 0.315224 0.242437 0.167241 0.090030 0.011241 0.068646 0.149115 0.229610 0.309544 0.388295 0.465217 0.539641 0.610881 0.678241 0.741022 0.798529 0.850079 0.895011 0.932692 0.962532 0.983988 0.996578 0.999892 0.993595 0.977448 0.951307 0.915136 0.869016 0.813150 0.747869 0.673635 0.591047 0.500836 0.403867 0.301137 0.193765 0.082985 0.029864 0.143354 0.255981 0.366186 0.472374 0.572941 0.666294 0.750883 0.825225 0.887934 0.937751 0.973575 0.994485 0.999774 0.988968 0.961854 0.918490 0.859229 0.784720 0.695916 0.594076 0.480746 0.357754 0.227187 0.091355 0.047237 0.185936 0.321983 0.452580 0.574931 0.686317 0.784159 0.866075 0.929954 0.974010 0.996847 0.997506 0.975511 0.930907 0.864276 0.776757 0.670037 0.546338 0.408383 0.259346 0.102796 0.057390 0.217108 0.372139 0.518252 0.651326 0.767471 0.863150 0.935296 0.981423 0.999727 0.989164 0.949521 0.881453 0.786500 0.667079 0.526442 0.368605 0.198251 0.020606 0.158716 0.333882 0.499030 0.648469 0.776880 0.879518 0.952406 0.992501 0.997842 0.967667 0.902481 0.804096 0.675599 0.521297 0.346590 0.157800 0.038029 0.233398 0.420626 0.592156 0.740867 0.860382 0.945364 0.991772 0.997084 0.960453 0.882808 0.766876 0.617122 0.439614 0.241806 0.032246 0.179770 0.384614 0.572752 0.735197 0.863964 0.952473 0.995921 0.991578 0.938983 0.840049 0.699039 0.522432 0.318662 0.097747 0.129182 0.350422 0.554308 0.729829 0.867247 0.958658 0.998493 0.983887 0.914934 0.794761 0.629454 0.427801 0.200858 0.038612 0.276846 0.499852 0.694252 0.848086 0.951592 0.997864 0.983357 0.908211 0.776347 0.595332 0.376000 0.131856 0.121721 0.368431 0.592090 0.777708 0.912519 0.986911 0.995155 0.935908 0.812430 0.632489 0.407924 0.153954 0.111840 0.370690 0.603956 0.794508 0.927983 0.993953 0.986777 0.906166 0.757342 0.550786 0.301578 0.028355 0.248047 0.506151 0.725528 0.888432 0.981292 0.995912 0.930267 0.788826 0.582355 0.327178 0.043968 0.243903 0.512236 0.738078 0.901698 0.988376 0.989807 0.904980 0.740454 0.509950 0.233305 0.065165 0.358745 0.620726 0.826830 0.957515 0.999912 0.949180 0.809158 0.592199 0.318189 0.012817 0.294765 0.574730 0.799442 0.946267 0.999914 0.954136 0.812567 0.588571 0.304114 0.012303 0.328438 0.611556 0.831849 0.965634 0.997982 0.924509 0.752080 0.498311 0.189892 0.140116 0.455768 0.722167 0.909321 0.995642 0.970526 0.835799 0.605773 0.305873 0.030052 0.363477 0.655598 0.871856 0.986125 0.983970 0.864626 0.641362 0.340181 0.003088 0.346947 0.649230 0.872288 0.987762 0.980316 0.849835 0.611736 0.295338 0.059637 0.407925 0.704503 0.910420 0.998023 0.954820 0.785427 0.511291 0.168154 0.198476 0.539295 0.807809 0.966771 0.993467
1.000000 1.000000 1.000000 1.000000 1.000000 1.000000 1.000000 1.000000 1.000000 1.000000 1.000000 1.000000 1.000000 1.000000 1.000000 1.000000 1.000000 1.000000 1.000000 1.000000 1.000000 1.000000 1.000000 1.000000 1.000000 1.000000 1.000000 1.000000 1.000000 1.000000 1.000000 1.000000 1.000000 1.000000 1.000000 1.000000 1.000000 1.000000 1.000000 1.000000 1.000000 1.000000 1.000000 1.000000 1.000000 1.000000 1.000000 1.000000 1.000000 1.000000 1.000000 1.000000 0.918927 0.918927 0.906245 0.906245 0.906245 0.906245 0.906245 0.906245 0.906245 0.906245 0.906245 0.906245 0.906245 0.906245 0.906245 0.906245 0.906245 0.906245 0.906245 0.906245 0.906245 0.906245 0.906245 0.906245 0.906245 0.906245 0.906245 0.906245 0.906245 0.906245 0.906245 0.906245 0.906245 0.906245 0.906245 0.906245 0.906245 0.906245 0.906245 0.906245 0.906245 0.906245 0.906245 0.901511 0.906614 0.908496 0.907110 0.910597 0.910640 0.910004 0.910377 0.910068 0.910433 0.911827 0.922257 0.933184 0.944324 0.944824 0.950019 0.954326 0.957795 0.958699 0.960407 0.970778 0.969360 0.968932 0.969545 0.970779 0.972748 0.971627 0.970956 0.974262 0.974809 0.973376 0.970949 0.970377 0.969085 0.968438 0.968107 0.967983 0.967829 0.968348 0.968529 0.968618 0.968764 0.968828 0.969827 0.970969 0.973478 0.974486 0.974401 0.973426 0.971689 0.975679 0.976660 0.976471 0.976463 0.976057 0.976279 0.958097 0.955860 0.955747 0.952931 0.951473 0.948375 0.946725 0.945597 0.946269 0.945158 0.944395 0.941224 0.926400 0.911889 0.900442 0.921524 0.905327 0.893996 0.867748 0.868432 0.864495 0.864879 0.856248 0.850457 0.845974 0.843449 0.845374 0.840534 0.843974 0.840465 0.824778 0.828151 0.824821 0.793873 0.777466 0.761990 0.761469 0.758349 0.759412 0.760873 0.754105 0.762815 0.757237 0.754997 0.745426 0.721759 0.688644 0.674526 0.686041 0.696520 0.694605 0.690645 0.674957 0.643910 0.656878 0.677610 0.675253 0.676855 0.669860 0.662879 0.672381 0.674133 0.671202 0.664471 0.663754 0.663750 0.674397 0.678878 0.673188 0.664341 0.649629 0.639864 0.631178 0.646260 0.654489 0.625479 0.619139 0.609685 0.603785 0.589959 0.559298 0.561713 0.541360 0.527530 0.532135 0.535100 0.533855 0.545047 0.545709 0.525263 0.550123 0.560118 0.588825 0.563290 0.559843 0.561188 0.571784 0.553573 0.532105 0.523043 0.524346 0.541777 0.577201 0.618832 0.613062 0.601769 0.593426 0.606991 0.583873 0.591329 0.608597 0.588106 0.511607 0.474200 0.471659 0.439054 0.430856 0.417896 0.399066 0.383685 0.384064 0.379453 0.364843 0.354373 0.285629 0.250512 0.236468 0.224753 0.225241 0.229763 0.218131 0.213085 0.247980 0.294217 0.292717 0.282559 0.285017 0.286916 0.292442 0.263372 0.266090 0.230007 0.226197 0.253392 0.197997 0.200800 0.153318 0.143725 0.154457 0.181871 0.183681 0.136965 0.132889 0.158197 0.175339 0.171462 0.161664 0.117388 0.085976 0.073066 0.085843 0.073326 0.031735 0.041950 0.056647 0.047545 0.032743 0.056684 0.047988 0.053470 0.042245 0.041434 0.085555 0.113672 0.101533 0.103459 0.119409 0.112928 0.089804 0.082624 0.071805 0.067654 0.011397 -0.013731 -0.013731 -0.013653 -0.013653 -0.013653 -0.013653 -0.013653 -0.013653 -0.013653 -0.013653 -0.013653 -0.014580 -0.014580 -0.014580 -0.014580 -0.014580 -0.014580 -0.014580 -0.014580 -0.014580 0.010010 0.010010 0.010010 0.010010 0.010010 0.010010 0.010010 0.010010 0.010010
0.000000 0.000000 0.000000 0.000000 0.000000 0.000000 0.000000 0.000000 0.000000 0.000000 0.000000 0.000000 0.000000 0.000000 0.000000 0.000000 0.000000 0.000000 0.000000 0.000000 0.000000 0.000000 0.000000 0.000000 0.000000 0.000000 0.000000 0.000000 0.000000 0.000000 0.000000 0.000000 0.000000 0.000000 0.000000 0.000000 0.000000 0.000000 0.000000 0.000000 0.000000 0.000000 0.000000 0.000000 0.000000 0.000000 0.000000 0.000000 0.000000 0.000000 0.000000 0.000000 0.181818 0.181818 0.199007 0.199007 0.199007 0.199007 0.199007 0.199007 0.199007 0.199007 0.199007 0.199007 0.199007 0.199007 0.199007 0.199007 0.199007 0.199007 0.199007 0.199007 0.199007 0.199007 0.199007 0.199007 0.199007 0.199007 0.199007 0.199007 0.199007 0.199007 0.199007 0.199007 0.199007 0.199007 0.199007 0.199007 0.199007 0.199007 0.199007 0.199007 0.199007 0.199007 0.199007 0.230940 0.230940 0.230940 0.230940 0.230940 0.230940 0.230940 0.230940 0.230940 0.230940 0.230940 0.230940 0.230940 0.230940 0.230940 0.230940 0.230940 0.230940 0.230940 0.230940 0.230940 0.230940 0.230940 0.230940 0.230940 0.230940 0.230940 0.230940 0.244339 0.244339 0.244339 0.244339 0.244339 0.244339 0.244339 0.244339 0.244339 0.244339 0.244339 0.244339 0.244339 0.244339 0.244339 0.244339 0.244339 0.244339 0.244339 0.244339 0.244339 0.244339 0.244339 0.251976 0.251976 0.251976 0.251976 0.251976 0.251976 0.251976 0.251976 0.251976 0.251976 0.251976 0.251976 0.251976 0.251976 0.251976 0.251976 0.251976 0.251976 0.251976 0.251976 0.264906 0.264906 0.264906 0.264906 0.264906 0.264906 0.264906 0.264906 0.264906 0.264906 0.264906 0.264906 0.264906 0.264906 0.264906 0.264906 0.264906 0.264906 0.264906 0.264906 0.264906 0.264906 0.264906 0.264906 0.264906 0.264906 0.264906 0.264906 0.264906 0.264906 0.264906 0.264906 0.264906 0.264906 0.264906 0.264906 0.264906 0.264906 0.264906 0.264906 0.264906 0.264906 0.264906 0.264906 0.264906 0.264906 0.264906 0.264906 0.264906 0.264906 0.264906 0.264906 0.264906 0.264906 0.264906 0.264906 0.264906 0.264906 0.264906 0.264906 0.264906 0.264906 0.264906 0.264906 0.264906 0.264906 0.264906 0.264906 0.264906 0.264906 0.264906 0.264906 0.264906 0.264906 0.264906 0.269680 0.269680 0.269680 0.269680 0.269680 0.269680 0.269680 0.269680 0.269680 0.269680 0.269680 0.269680 0.264906 0.264906 0.264906 0.264906 0.264906 0.264906 0.264906 0.264906 0.264906 0.264906 0.264906 0.264906 0.269680 0.269680 0.269680 0.269680 0.269680 0.269680 0.269680 0.269680 0.269680 0.269680 0.269680 0.264906 0.264906 0.264906 0.264906 0.264906 0.264906 0.264906 0.264906 0.264906 0.264906 0.264906 0.269680 0.269680 0.269680 0.269680 0.269680 0.269680 0.269680 0.269680 0.269680 0.269680 0.251976 0.251976 0.251976 0.251976 0.251976 0.251976 0.251976 0.251976 0.251976 0.251976 0.251976 0.269680 0.269680 0.269680 0.269680 0.269680 0.269680 0.269680 0.269680 0.269680 0.256074 0.256074 0.256074 0.256074 0.256074 0.256074 0.256074 0.256074 0.256074 0.256074 0.260378 0.260378 0.260378 0.260378 0.260378 0.260378 0.260378 0.260378 0.260378 0.256074 0.256074 0.256074 0.256074 0.256074 0.256074 0.256074 0.256074 0.256074 0.251976 0.251976 0.251976 0.251976 0.251976 0.251976 0.251976 0.251976 0.251976 0.264906 0.264906 0.264906 0.264906 0.264906 0.264906 0.264906 0.264906 0.264906
