# Output from CTFFind version 4.1.9, run on 2019-11-01 23:06:03
# Input file: ub_averaged_1250.mrc ; Number of micrographs: 1
# Pixel size: 3.000 Angstroms ; acceleration voltage: 300.0 keV ; spherical aberration: 0.00 mm ; amplitude contrast: 0.07
# Box size: 512 pixels ; min. res.: 30.0 Angstroms ; max. res.: 5.0 Angstroms ; min. def.: 5000.0 um; max. def. 50000.0 um; num. frames averaged: 1
# 6 lines per micrograph: #1 - spatial frequency (1/Angstroms); #2 - 1D rotational average of spectrum (assuming no astigmatism); #3 - 1D rotational average of spectrum; #4 - CTF fit; #5 - cross-correlation between spectrum and CTF fit; #6 - 2sigma of expected cross correlation of noise
0.000000 0.000651 0.001302 0.001953 0.002604 0.003255 0.003906 0.004557 0.005208 0.005859 0.006510 0.007161 0.007812 0.008464 0.009115 0.009766 0.010417 0.011068 0.011719 0.012370 0.013021 0.013672 0.014323 0.014974 0.015625 0.016276 0.016927 0.017578 0.018229 0.018880 0.019531 0.020182 0.020833 0.021484 0.022135 0.022786 0.023438 0.024089 0.024740 0.025391 0.026042 0.026693 0.027344 0.027995 0.028646 0.029297 0.029948 0.030599 0.031250 0.031901 0.032552 0.033203 0.033854 0.034505 0.035156 0.035807 0.036458 0.037109 0.037760 0.038411 0.039062 0.039714 0.040365 0.041016 0.041667 0.042318 0.042969 0.043620 0.044271 0.044922 0.045573 0.046224 0.046875 0.047526 0.048177 0.048828 0.049479 0.050130 0.050781 0.051432 0.052083 0.052734 0.053385 0.054036 0.054688 0.055339 0.055990 0.056641 0.057292 0.057943 0.058594 0.059245 0.059896 0.060547 0.061198 0.061849 0.062500 0.063151 0.063802 0.064453 0.065104 0.065755 0.066406 0.067057 0.067708 0.068359 0.069010 0.069661 0.070312 0.070964 0.071615 0.072266 0.072917 0.073568 0.074219 0.074870 0.075521 0.076172 0.076823 0.077474 0.078125 0.078776 0.079427 0.080078 0.080729 0.081380 0.082031 0.082682 0.083333 0.083984 0.084635 0.085286 0.085938 0.086589 0.087240 0.087891 0.088542 0.089193 0.089844 0.090495 0.091146 0.091797 0.092448 0.093099 0.093750 0.094401 0.095052 0.095703 0.096354 0.097005 0.097656 0.098307 0.098958 0.099609 0.100260 0.100911 0.101562 0.102214 0.102865 0.103516 0.104167 0.104818 0.105469 0.106120 0.106771 0.107422 0.108073 0.108724 0.109375 0.110026 0.110677 0.111328 0.111979 0.112630 0.113281 0.113932 0.114583 0.115234 0.115885 0.116536 0.117188 0.117839 0.118490 0.119141 0.119792 0.120443 0.121094 0.121745 0.122396 0.123047 0.123698 0.124349 0.125000 0.125651 0.126302 0.126953 0.127604 0.128255 0.128906 0.129557 0.130208 0.130859 0.131510 0.132161 0.132812 0.133464 0.134115 0.134766 0.135417 0.136068 0.136719 0.137370 0.138021 0.138672 0.139323 0.139974 0.140625 0.141276 0.141927 0.142578 0.143229 0.143880 0.144531 0.145182 0.145833 0.146484 0.147135 0.147786 0.148438 0.149089 0.149740 0.150391 0.151042 0.151693 0.152344 0.152995 0.153646 0.154297 0.154948 0.155599 0.156250 0.156901 0.157552 0.158203 0.158854 0.159505 0.160156 0.160807 0.161458 0.162109 0.162760 0.163411 0.164062 0.164714 0.165365 0.166016 0.166667 0.167318 0.167969 0.168620 0.169271 0.169922 0.170573 0.171224 0.171875 0.172526 0.173177 0.173828 0.174479 0.175130 0.175781 0.176432 0.177083 0.177734 0.178385 0.179036 0.179688 0.180339 0.180990 0.181641 0.182292 0.182943 0.183594 0.184245 0.184896 0.185547 0.186198 0.186849 0.187500 0.188151 0.188802 0.189453 0.190104 0.190755 0.191406 0.192057 0.192708 0.193359 0.194010 0.194661 0.195312 0.195964 0.196615 0.197266 0.197917 0.198568 0.199219 0.199870 0.200521 0.201172 0.201823 0.202474 0.203125 0.203776 0.204427 0.205078 0.205729 0.206380 0.207031 0.207682 0.208333 0.208984 0.209635 0.210286 0.210938 0.211589 0.212240 0.212891 0.213542 0.214193 0.214844 0.215495 0.216146 0.216797 0.217448 0.218099 0.218750 0.219401 0.220052 0.220703 0.221354 0.222005 0.222656 0.223307 0.223958 0.224609 0.225260 0.225911 0.226562 0.227214 0.227865 0.228516 0.229167 0.229818 0.230469 0.231120 0.231771 0.232422 0.233073 0.233724 0.234375 0.235026 0.235677
       0.33218        0.33218        0.33218        0.33218        0.33218        0.33218        0.33218        0.33218        0.33218        0.33218        0.33218        0.33218        0.33218        0.33218        0.33218        0.33218        0.33218        0.33218        0.33218        0.33218        0.33218        0.33218        0.33218        0.33218        0.33218        0.33218        0.33218        0.33218        0.33218        0.33218        0.33218        0.33218        0.33218        0.33218        0.33218        0.33218        0.33218        0.33218        0.33218        0.33218        0.33218        0.33218        0.33218        0.33218        0.33218        0.33218        0.33218        0.33218        0.33218        0.33218        0.33218        0.50224        0.71919        0.42835        0.18934       -0.08066       -0.26316       -0.07001       -0.13462       -0.05438       -0.00314       -0.14820       -0.09299       -0.05275       -0.00457       -0.15252       -0.22186       -0.34745       -0.46319       -0.55896       -0.51845       -0.44853       -0.37265       -0.54810       -0.45143       -0.62215       -0.50377       -0.47550       -0.39042       -0.38589       -0.34086       -0.25177       -0.16193       -0.13695        0.03191       -0.01252        0.11732        0.16734        0.30439        0.40939        0.46355        0.49793        0.54075        0.54966        0.69103        0.64473        0.67592        0.59132        0.55612        0.65434        0.52745        0.42599        0.38230        0.32049        0.22698        0.26202        0.24980        0.10673        0.08230       -0.00068       -0.00714        0.03553       -0.00454        0.07380        0.09890        0.23131        0.28289        0.30062        0.37896        0.56048        0.53641        0.57754        0.66946        0.70065        0.62959        0.63333        0.63163        0.55421        0.57501        0.39741        0.34374        0.26516        0.18394        0.07115        0.14376        0.11846        0.09035        0.10583        0.20920        0.21377        0.31623        0.35884        0.41253        0.49123        0.58304        0.54154        0.55330        0.60744        0.53790        0.46062        0.47870        0.32392        0.24956        0.25731        0.24160        0.14153        0.14315        0.15056        0.21773        0.24518        0.32843        0.36424        0.39043        0.46805        0.44585        0.47837        0.45458        0.46648        0.44438        0.40645        0.38300        0.35119        0.30959        0.28568        0.20369        0.19563        0.22010        0.26928        0.26788        0.34993        0.37514        0.35659        0.40975        0.45410        0.44674        0.42437        0.43884        0.37137        0.33393        0.28288        0.26358        0.28926        0.26887        0.29333        0.30001        0.34818        0.34196        0.39587        0.40221        0.42533        0.40947        0.42974        0.40237        0.36433        0.28178        0.29097        0.30666        0.27176        0.25510        0.32632        0.36827        0.34152        0.35368        0.35809        0.35356        0.40737        0.40051        0.35927        0.33826        0.30883        0.30905        0.31575        0.31677        0.29965        0.28567        0.33514        0.35765        0.37685        0.33250        0.32924        0.33375        0.34415        0.30640        0.28297        0.30651        0.31463        0.33669        0.31986        0.33053        0.35723        0.32873        0.31203        0.32710        0.30214        0.26425        0.25098        0.26573        0.30659        0.32186        0.35066        0.30194        0.31394        0.33568        0.29235        0.31489        0.28502        0.28098        0.29102        0.29824        0.30855        0.34185        0.32470        0.32991        0.33481        0.30985        0.33256        0.31904        0.31883        0.30756        0.28207        0.29190        0.31155        0.29076        0.32544        0.33703        0.33450        0.32008        0.33859        0.31645        0.27736        0.25247        0.26919        0.33030        0.35660        0.34476        0.31468        0.29319        0.29859        0.31328        0.24687        0.29775        0.30465        0.32978        0.29767        0.31702        0.28622        0.33583        0.34092        0.34458        0.32194        0.29206        0.31545        0.39776        0.32942        0.31116        0.30809        0.28892        0.28414        0.29774        0.26433        0.31046        0.23834        0.27451        0.29520        0.31528        0.29445        0.27204        0.29756        0.23373        0.22338        0.26215        0.30288        0.30468        0.27367        0.28442        0.33229        0.25837        0.21523        0.30773        0.27433        0.25554        0.28398        0.39589        0.29493        0.28480        0.24543        0.25335        0.26619        0.23996        0.23403        0.17118        0.25605        0.23174        0.24811        0.31700        0.27241        0.34841        0.28400        0.24049        0.22665        0.21082        0.23370        0.30114        0.23108        0.13328        0.16245        0.23976        0.24696        0.32338        0.29337        0.02756       -0.43133       -0.89794
2.694708 2.666245 2.637933 2.609775 2.581769 2.553917 2.526216 2.498669 2.471274 2.444032 2.416943 2.390006 2.363222 2.336591 2.310112 2.283786 2.257613 2.231593 2.205725 2.180010 2.154448 2.129038 2.103781 2.078677 2.053726 2.028927 2.004281 1.979787 1.955447 1.931259 1.907224 1.883341 1.859611 1.836034 1.812610 1.789338 1.766219 1.743253 1.720439 1.697779 1.675270 1.652915 1.630712 1.608662 1.586765 1.565020 1.543428 1.521989 1.500703 1.479569 1.458588 1.528731 1.830954 1.514696 1.195128 0.942483 0.545567 0.912032 0.633885 0.875271 0.928003 0.591190 0.711205 0.780999 0.818388 0.631468 0.538083 0.348429 0.104733 0.081277 0.044958 0.085106 0.302593 -0.033675 0.081736 -0.133729 -0.010752 -0.017828 0.085159 0.062015 0.101886 0.177296 0.282976 0.252066 0.483524 0.398270 0.548157 0.526733 0.768571 0.788584 0.880769 0.921735 0.941177 0.944138 1.112087 0.941482 1.139418 0.947692 0.851885 1.016720 0.848161 0.758742 0.615195 0.595650 0.455707 0.416327 0.509222 0.265601 0.198277 0.158340 0.012232 0.207553 -0.003550 0.120273 0.180562 0.260143 0.331616 0.346646 0.423568 0.537662 0.663805 0.540038 0.738929 0.863205 0.639365 0.694499 0.664830 0.594285 0.537963 0.464951 0.297159 0.213972 0.116593 -0.042034 -0.021293 0.058728 -0.097834 -0.058381 0.048859 0.055252 0.112605 0.220654 0.239010 0.307412 0.432943 0.442053 0.438903 0.480225 0.446321 0.327360 0.332451 0.240968 0.052018 0.062005 0.017371 -0.046099 -0.098107 -0.100236 -0.015812 -0.053110 0.070550 0.122484 0.120100 0.262516 0.230228 0.239059 0.292390 0.245671 0.238994 0.212521 0.172921 0.109205 0.101057 0.025813 0.007050 -0.118592 -0.052812 0.000388 0.003737 0.020848 0.098542 0.084964 0.129374 0.190326 0.258188 0.177471 0.182682 0.108321 0.136651 0.022409 -0.031121 0.021773 -0.022951 0.003694 -0.006645 0.034959 0.082930 0.052632 0.153383 0.098050 0.164008 0.062798 0.144464 0.093884 -0.010106 -0.062886 -0.014332 -0.036409 -0.072958 -0.067508 0.051573 0.057883 -0.007284 0.048899 0.059565 0.072105 0.143049 0.064984 0.060655 0.047862 -0.026772 0.022427 0.001634 0.010889 0.001494 -0.007822 0.039635 0.059835 0.068273 0.029310 0.043903 0.019407 0.056639 -0.010190 -0.018541 0.021790 0.008333 0.060958 0.035738 0.045936 0.056531 0.040339 0.017682 0.029114 -0.002016 -0.047721 -0.032405 -0.027524 0.023540 0.038946 0.095956 -0.004763 0.061926 0.049415 -0.010254 0.062214 0.008476 0.008088 0.036014 0.052568 0.035176 0.091293 0.051923 0.070529 0.082662 0.061838 0.064187 0.064543 0.082032 0.029911 -0.007989 0.044569 0.040153 0.044916 0.066786 0.085396 0.010978 0.059194 0.070099 0.004731 0.001427 -0.061916 -0.028068 0.107331 0.076423 0.043344 0.033829 -0.018031 0.048778 0.020298 -0.070187 0.049521 0.032621 0.063442 0.031124 0.010052 0.002914 0.075203 0.032607 0.014738 0.037401 -0.039509 0.063115 0.116986 0.004060 -0.011359 -0.004022 -0.004247 -0.036993 -0.019514 -0.055973 -0.005445 -0.091541 -0.021244 -0.035620 0.025282 -0.037107 -0.054752 0.028789 -0.081828 -0.058088 -0.077285 0.048545 0.009615 0.000214 -0.007888 0.068941 -0.023962 -0.069992 0.055568 -0.004020 0.010963 0.012795 0.201318 -0.020686 0.018458 0.007550 -0.002252 -0.003513 -0.033086 -0.015214 -0.156840 0.020524 -0.036123 -0.012619 0.045336 0.004202 0.119087 -0.001438 -0.017936 -0.045256 -0.029433 -0.070757 0.060181 0.275637 0.158149 0.207927 0.235141 0.332378 0.353114 0.354972 0.034781 -1.051472
0.072396 0.072910 0.074452 0.077022 0.080618 0.085241 0.090888 0.097559 0.105250 0.113959 0.123682 0.134415 0.146151 0.158886 0.172609 0.187311 0.202981 0.219605 0.237167 0.255648 0.275028 0.295281 0.316381 0.338296 0.360990 0.384424 0.408553 0.433330 0.458700 0.484603 0.510974 0.537742 0.564830 0.592153 0.619621 0.647136 0.674595 0.701884 0.728887 0.755476 0.781519 0.806876 0.831400 0.854938 0.877330 0.898412 0.918014 0.935959 0.952071 0.966167 0.978064 0.987577 0.994524 0.998721 0.999990 0.998156 0.993052 0.984518 0.972407 0.956580 0.936916 0.913309 0.885674 0.853944 0.818079 0.778063 0.733909 0.685661 0.633395 0.577222 0.517291 0.453788 0.386939 0.317011 0.244315 0.169201 0.092063 0.013338 0.066500 0.146932 0.227407 0.307337 0.386103 0.463060 0.537539 0.608856 0.676317 0.739222 0.796878 0.848601 0.893730 0.931632 0.961716 0.983438 0.996315 0.999933 0.993958 0.978145 0.952348 0.916527 0.870760 0.815244 0.750306 0.676403 0.594127 0.504206 0.407498 0.304995 0.197809 0.087170 0.025588 0.139042 0.251691 0.361981 0.468319 0.569102 0.662739 0.747678 0.822434 0.885620 0.935971 0.972379 0.993919 0.999873 0.989759 0.963350 0.920696 0.862132 0.788297 0.700130 0.598871 0.486057 0.363500 0.233273 0.097675 0.040800 0.179507 0.315694 0.446565 0.569328 0.681261 0.779778 0.862490 0.927271 0.972323 0.996229 0.998009 0.977163 0.933707 0.868197 0.781742 0.675999 0.553161 0.415923 0.267436 0.111242 0.048797 0.208593 0.363933 0.510588 0.644432 0.761563 0.858428 0.931931 0.979555 0.999456 0.990548 0.952568 0.886122 0.792696 0.674657 0.535204 0.378308 0.208611 0.031306 0.148016 0.323538 0.489401 0.639901 0.769696 0.874009 0.948812 0.991001 0.998550 0.970617 0.907628 0.811307 0.684663 0.531921 0.358408 0.170391 0.025138 0.220706 0.408643 0.581382 0.731770 0.853381 0.940801 0.989903 0.998055 0.964294 0.889427 0.776055 0.628521 0.452782 0.256196 0.047239 0.164847 0.370450 0.560024 0.724539 0.855931 0.947512 0.994346 0.993545 0.944479 0.848884 0.710847 0.536684 0.334689 0.114761 0.112039 0.334051 0.539589 0.717587 0.858197 0.953363 0.997327 0.987007 0.922259 0.805973 0.644002 0.444923 0.219623 0.019261 0.258032 0.482701 0.679822 0.837305 0.945191 0.996326 0.986880 0.916681 0.789335 0.612112 0.395578 0.153034 0.100285 0.348131 0.574285 0.763628 0.903182 0.983042 0.997124 0.943698 0.825620 0.650265 0.429133 0.177162 0.088244 0.348386 0.584589 0.779538 0.918595 0.990946 0.990497 0.916461 0.773559 0.571801 0.325870 0.054108 0.222811 0.483421 0.707143 0.875937 0.975795 0.997984 0.939876 0.805323 0.604503 0.353244 0.071836 0.216542 0.487714 0.718541 0.888912 0.983567 0.993534 0.917067 0.759975 0.535296 0.262307 0.035056 0.330255 0.596481 0.809135 0.948123 0.999840 0.958593 0.827324 0.617534 0.348387 0.045048 0.263598 0.547687 0.779254 0.935044 0.998920 0.963638 0.831775 0.615695 0.336509 0.022111 0.295532 0.583609 0.811872 0.955858 0.999608 0.937544 0.775302 0.529367 0.225526 0.103732 0.422635 0.696001 0.893151 0.991436 0.978941 0.856072 0.635771 0.342294 0.008678 0.326905 0.625498 0.851867 0.978764 0.990303 0.884097 0.671819 0.378097 0.037774 0.308108 0.617232 0.851199 0.980373 0.987754 0.871376 0.644849 0.335961 0.016607 0.368014 0.672932 0.891429 0.994286 0.967045 0.812216 0.549272 0.212386 0.153878 0.500379 0.779961 0.953971 0.997686
1.000000 1.000000 1.000000 1.000000 1.000000 1.000000 1.000000 1.000000 1.000000 1.000000 1.000000 1.000000 1.000000 1.000000 1.000000 1.000000 1.000000 1.000000 1.000000 1.000000 1.000000 1.000000 1.000000 1.000000 1.000000 1.000000 1.000000 1.000000 1.000000 1.000000 1.000000 1.000000 1.000000 1.000000 1.000000 1.000000 1.000000 1.000000 1.000000 1.000000 1.000000 1.000000 1.000000 1.000000 1.000000 1.000000 1.000000 1.000000 1.000000 1.000000 1.000000 1.000000 0.918988 0.918988 0.905256 0.905256 0.905256 0.905256 0.905256 0.905256 0.905256 0.905256 0.905256 0.905256 0.905256 0.905256 0.905256 0.905256 0.905256 0.905256 0.905256 0.905256 0.905256 0.905256 0.905256 0.905256 0.905256 0.905256 0.905256 0.905256 0.905256 0.905256 0.905256 0.905256 0.905256 0.905256 0.905256 0.905256 0.905256 0.905256 0.905256 0.905256 0.905256 0.905256 0.905256 0.901113 0.905993 0.907884 0.906353 0.909898 0.909963 0.909252 0.909585 0.909241 0.909570 0.910963 0.921465 0.932482 0.943723 0.944246 0.949394 0.953791 0.956212 0.957080 0.958644 0.968634 0.967298 0.966804 0.967483 0.968919 0.971037 0.969766 0.969334 0.972507 0.973159 0.971563 0.969322 0.968719 0.968124 0.968228 0.967861 0.967746 0.967616 0.968124 0.968323 0.968474 0.968618 0.968671 0.969687 0.970840 0.973219 0.974200 0.974055 0.972984 0.971112 0.975144 0.976053 0.975795 0.975742 0.975272 0.975532 0.961381 0.956832 0.956746 0.953570 0.952520 0.949446 0.948066 0.946379 0.946678 0.945620 0.945461 0.941944 0.928161 0.914234 0.903181 0.924030 0.908576 0.897403 0.872435 0.873130 0.868957 0.869469 0.861829 0.855863 0.850907 0.848139 0.849623 0.846349 0.850318 0.847343 0.833953 0.837067 0.833810 0.805633 0.788811 0.772755 0.774006 0.771163 0.772276 0.771806 0.767283 0.775710 0.768138 0.766317 0.757863 0.738328 0.705255 0.691801 0.702308 0.712050 0.711025 0.707305 0.692163 0.659603 0.671851 0.692514 0.688712 0.691192 0.682022 0.675906 0.680692 0.681674 0.677225 0.670131 0.669140 0.668664 0.677324 0.681658 0.676728 0.667096 0.652363 0.640485 0.627397 0.643130 0.647775 0.616497 0.610569 0.600053 0.593602 0.580216 0.546199 0.546425 0.524038 0.512894 0.516492 0.519227 0.515022 0.523900 0.525068 0.506121 0.528035 0.536880 0.563935 0.543689 0.541472 0.542941 0.551383 0.534951 0.513805 0.507049 0.507941 0.520480 0.553754 0.595736 0.585023 0.573304 0.559975 0.572618 0.549630 0.558550 0.578333 0.556363 0.484255 0.438158 0.436018 0.397791 0.391899 0.383197 0.377229 0.389180 0.377175 0.365953 0.352793 0.341047 0.285829 0.247838 0.229256 0.205856 0.210381 0.221473 0.205921 0.204910 0.236467 0.282946 0.285133 0.276570 0.258605 0.262139 0.232559 0.248276 0.274820 0.230931 0.224883 0.216402 0.190507 0.183008 0.148013 0.170819 0.091514 0.072449 0.073341 0.088534 0.098540 0.095259 0.100373 0.073210 0.093697 0.087430 0.062701 0.051304 0.067736 0.055619 0.020722 0.032090 0.041865 0.029980 0.019059 0.037873 0.047019 0.058923 0.050082 0.048704 0.103425 0.133960 0.121180 0.121968 0.107259 0.116806 0.093299 0.083971 0.073987 0.063215 0.013327 -0.014973 -0.014973 -0.010203 -0.010203 -0.010203 -0.010203 -0.010203 -0.010203 -0.010203 -0.010203 -0.010203 -0.013844 -0.013844 -0.013844 -0.013844 -0.013844 -0.013844 -0.013844 -0.013844 -0.013844 0.011389 0.011389 0.011389 0.011389 0.011389 0.011389 0.011389 0.011389 0.011389
0.000000 0.000000 0.000000 0.000000 0.000000 0.000000 0.000000 0.000000 0.000000 0.000000 0.000000 0.000000 0.000000 0.000000 0.000000 0.000000 0.000000 0.000000 0.000000 0.000000 0.000000 0.000000 0.000000 0.000000 0.000000 0.000000 0.000000 0.000000 0.000000 0.000000 0.000000 0.000000 0.000000 0.000000 0.000000 0.000000 0.000000 0.000000 0.000000 0.000000 0.000000 0.000000 0.000000 0.000000 0.000000 0.000000 0.000000 0.000000 0.000000 0.000000 0.000000 0.000000 0.181818 0.181818 0.199007 0.199007 0.199007 0.199007 0.199007 0.199007 0.199007 0.199007 0.199007 0.199007 0.199007 0.199007 0.199007 0.199007 0.199007 0.199007 0.199007 0.199007 0.199007 0.199007 0.199007 0.199007 0.199007 0.199007 0.199007 0.199007 0.199007 0.199007 0.199007 0.199007 0.199007 0.199007 0.199007 0.199007 0.199007 0.199007 0.199007 0.199007 0.199007 0.199007 0.199007 0.230940 0.230940 0.230940 0.230940 0.230940 0.230940 0.230940 0.230940 0.230940 0.230940 0.230940 0.230940 0.230940 0.230940 0.230940 0.230940 0.230940 0.230940 0.230940 0.230940 0.230940 0.230940 0.230940 0.230940 0.230940 0.230940 0.230940 0.230940 0.244339 0.244339 0.244339 0.244339 0.244339 0.244339 0.244339 0.244339 0.244339 0.244339 0.244339 0.244339 0.244339 0.244339 0.244339 0.244339 0.244339 0.244339 0.244339 0.244339 0.244339 0.244339 0.244339 0.251976 0.251976 0.251976 0.251976 0.251976 0.251976 0.251976 0.251976 0.251976 0.251976 0.251976 0.251976 0.251976 0.251976 0.251976 0.251976 0.251976 0.251976 0.251976 0.251976 0.264906 0.264906 0.264906 0.264906 0.264906 0.264906 0.264906 0.264906 0.264906 0.264906 0.264906 0.264906 0.264906 0.264906 0.264906 0.264906 0.264906 0.264906 0.264906 0.264906 0.264906 0.264906 0.264906 0.264906 0.264906 0.264906 0.264906 0.264906 0.264906 0.264906 0.264906 0.264906 0.264906 0.264906 0.264906 0.264906 0.264906 0.264906 0.264906 0.264906 0.264906 0.264906 0.264906 0.264906 0.264906 0.264906 0.264906 0.264906 0.264906 0.264906 0.264906 0.264906 0.264906 0.264906 0.264906 0.264906 0.264906 0.264906 0.264906 0.264906 0.264906 0.264906 0.264906 0.264906 0.264906 0.264906 0.264906 0.264906 0.264906 0.264906 0.264906 0.264906 0.264906 0.264906 0.264906 0.269680 0.269680 0.269680 0.269680 0.269680 0.269680 0.269680 0.269680 0.269680 0.269680 0.269680 0.269680 0.264906 0.264906 0.264906 0.264906 0.264906 0.264906 0.264906 0.264906 0.264906 0.264906 0.264906 0.264906 0.269680 0.269680 0.269680 0.269680 0.269680 0.269680 0.269680 0.269680 0.269680 0.269680 0.269680 0.264906 0.264906 0.264906 0.264906 0.264906 0.264906 0.264906 0.264906 0.264906 0.264906 0.264906 0.256074 0.256074 0.256074 0.256074 0.256074 0.256074 0.256074 0.256074 0.256074 0.256074 0.256074 0.264906 0.264906 0.264906 0.264906 0.264906 0.264906 0.264906 0.264906 0.264906 0.264906 0.269680 0.269680 0.269680 0.269680 0.269680 0.269680 0.269680 0.269680 0.269680 0.256074 0.256074 0.256074 0.256074 0.256074 0.256074 0.256074 0.256074 0.256074 0.256074 0.260378 0.260378 0.260378 0.260378 0.260378 0.260378 0.260378 0.260378 0.260378 0.256074 0.256074 0.256074 0.256074 0.256074 0.256074 0.256074 0.256074 0.256074 0.251976 0.251976 0.251976 0.251976 0.251976 0.251976 0.251976 0.251976 0.251976 0.264906 0.264906 0.264906 0.264906 0.264906 0.264906 0.264906 0.264906 0.264906
