# Output from CTFFind version 4.1.9, run on 2019-10-31 12:50:09
# Input file: ub_stacked_old.mrc ; Number of micrographs: 1
# Pixel size: 1.500 Angstroms ; acceleration voltage: 300.0 keV ; spherical aberration: 0.00 mm ; amplitude contrast: 0.07
# Box size: 512 pixels ; min. res.: 30.0 Angstroms ; max. res.: 5.0 Angstroms ; min. def.: 5000.0 um; max. def. 50000.0 um; num. frames averaged: 50
# 6 lines per micrograph: #1 - spatial frequency (1/Angstroms); #2 - 1D rotational average of spectrum (assuming no astigmatism); #3 - 1D rotational average of spectrum; #4 - CTF fit; #5 - cross-correlation between spectrum and CTF fit; #6 - 2sigma of expected cross correlation of noise
0.000000 0.001302 0.002604 0.003906 0.005208 0.006510 0.007812 0.009115 0.010417 0.011719 0.013021 0.014323 0.015625 0.016927 0.018229 0.019531 0.020833 0.022135 0.023438 0.024740 0.026042 0.027344 0.028646 0.029948 0.031250 0.032552 0.033854 0.035156 0.036458 0.037760 0.039062 0.040365 0.041667 0.042969 0.044271 0.045573 0.046875 0.048177 0.049479 0.050781 0.052083 0.053385 0.054688 0.055990 0.057292 0.058594 0.059896 0.061198 0.062500 0.063802 0.065104 0.066406 0.067708 0.069010 0.070312 0.071615 0.072917 0.074219 0.075521 0.076823 0.078125 0.079427 0.080729 0.082031 0.083333 0.084635 0.085938 0.087240 0.088542 0.089844 0.091146 0.092448 0.093750 0.095052 0.096354 0.097656 0.098958 0.100260 0.101562 0.102865 0.104167 0.105469 0.106771 0.108073 0.109375 0.110677 0.111979 0.113281 0.114583 0.115885 0.117188 0.118490 0.119792 0.121094 0.122396 0.123698 0.125000 0.126302 0.127604 0.128906 0.130208 0.131510 0.132812 0.134115 0.135417 0.136719 0.138021 0.139323 0.140625 0.141927 0.143229 0.144531 0.145833 0.147135 0.148438 0.149740 0.151042 0.152344 0.153646 0.154948 0.156250 0.157552 0.158854 0.160156 0.161458 0.162760 0.164062 0.165365 0.166667 0.167969 0.169271 0.170573 0.171875 0.173177 0.174479 0.175781 0.177083 0.178385 0.179688 0.180990 0.182292 0.183594 0.184896 0.186198 0.187500 0.188802 0.190104 0.191406 0.192708 0.194010 0.195312 0.196615 0.197917 0.199219 0.200521 0.201823 0.203125 0.204427 0.205729 0.207031 0.208333 0.209635 0.210938 0.212240 0.213542 0.214844 0.216146 0.217448 0.218750 0.220052 0.221354 0.222656 0.223958 0.225260 0.226562 0.227865 0.229167 0.230469 0.231771 0.233073 0.234375 0.235677 0.236979 0.238281 0.239583 0.240885 0.242188 0.243490 0.244792 0.246094 0.247396 0.248698 0.250000 0.251302 0.252604 0.253906 0.255208 0.256510 0.257812 0.259115 0.260417 0.261719 0.263021 0.264323 0.265625 0.266927 0.268229 0.269531 0.270833 0.272135 0.273438 0.274740 0.276042 0.277344 0.278646 0.279948 0.281250 0.282552 0.283854 0.285156 0.286458 0.287760 0.289062 0.290365 0.291667 0.292969 0.294271 0.295573 0.296875 0.298177 0.299479 0.300781 0.302083 0.303385 0.304688 0.305990 0.307292 0.308594 0.309896 0.311198 0.312500 0.313802 0.315104 0.316406 0.317708 0.319010 0.320312 0.321615 0.322917 0.324219 0.325521 0.326823 0.328125 0.329427 0.330729 0.332031 0.333333 0.334635 0.335938 0.337240 0.338542 0.339844 0.341146 0.342448 0.343750 0.345052 0.346354 0.347656 0.348958 0.350260 0.351562 0.352865 0.354167 0.355469 0.356771 0.358073 0.359375 0.360677 0.361979 0.363281 0.364583 0.365885 0.367188 0.368490 0.369792 0.371094 0.372396 0.373698 0.375000 0.376302 0.377604 0.378906 0.380208 0.381510 0.382812 0.384115 0.385417 0.386719 0.388021 0.389323 0.390625 0.391927 0.393229 0.394531 0.395833 0.397135 0.398438 0.399740 0.401042 0.402344 0.403646 0.404948 0.406250 0.407552 0.408854 0.410156 0.411458 0.412760 0.414062 0.415365 0.416667 0.417969 0.419271 0.420573 0.421875 0.423177 0.424479 0.425781 0.427083 0.428385 0.429688 0.430990 0.432292 0.433594 0.434896 0.436198 0.437500 0.438802 0.440104 0.441406 0.442708 0.444010 0.445312 0.446615 0.447917 0.449219 0.450521 0.451823 0.453125 0.454427 0.455729 0.457031 0.458333 0.459635 0.460938 0.462240 0.463542 0.464844 0.466146 0.467448 0.468750 0.470052 0.471354
       0.01072        0.01072        0.01072        0.01072        0.01072        0.01072        0.01072        0.01072        0.01072        0.01072        0.01072        0.01072        0.01072        0.01072        0.01072        0.01072        0.01072        0.01072        0.01072        0.01072        0.01072        0.01072        0.01072        0.01072        0.01072        0.11620        0.63812       -0.27436       -0.93545       -0.71838       -0.61515       -0.73405       -0.73136       -0.97268       -1.38267       -1.46346       -1.35792       -1.40195       -1.44622       -1.32685       -1.18150       -0.92931       -0.63719       -0.45117        0.03327        0.17621        0.36201        0.50152        0.44387        0.34734        0.26310        0.06598       -0.10758       -0.09302       -0.34702       -0.41769       -0.50687       -0.30149       -0.15281        0.09595        0.23112        0.43335        0.39404        0.34681        0.16705       -0.01454       -0.16004       -0.32507       -0.31184       -0.21123       -0.07485        0.07083        0.20017        0.38989        0.40708        0.17018       -0.06500       -0.19840       -0.21281       -0.21331       -0.12045        0.00885        0.16918        0.18930        0.14418       -0.01182       -0.02689       -0.13263       -0.18897       -0.09302        0.00053        0.06547        0.08431        0.07679       -0.02217       -0.14106       -0.09589       -0.06292        0.07620        0.17838        0.14981        0.09613        0.00622       -0.06322       -0.07001        0.00997        0.00519        0.07414        0.07971        0.00629       -0.03713       -0.04903       -0.10006       -0.01687        0.03849        0.02162        0.00360       -0.00913       -0.05908        0.01463        0.07824        0.09057       -0.03679       -0.05124       -0.00113       -0.01457        0.04453        0.05190        0.00992        0.00883        0.01756       -0.00888        0.02574        0.05767        0.04132        0.03756       -0.00700        0.03159        0.04241        0.01699       -0.00205        0.04357        0.07097        0.00542        0.02299        0.04205        0.02582        0.01954        0.03040        0.06918       -0.01580       -0.01048        0.00631       -0.01293       -0.03048        0.00197        0.02505       -0.00360        0.07946       -0.00306        0.01247        0.03300        0.06086        0.01606        0.06424        0.01347        0.00718       -0.00144       -0.02175       -0.05528       -0.00101        0.01835       -0.04900        0.04558        0.05974        0.00635        0.00565        0.00152        0.00989        0.02711        0.07888        0.00414        0.02154        0.04780        0.02337       -0.02745       -0.02011        0.01782        0.02714       -0.00144        0.00327        0.02035        0.04508        0.02119       -0.00319       -0.04853        0.06387        0.02979       -0.00639        0.02798        0.02877        0.01423        0.02502        0.05438        0.04475        0.02806        0.01708        0.03265        0.03163        0.06596        0.03438        0.05400        0.05979        0.02591        0.04163        0.03329        0.00950        0.02808       -0.00541        0.00843       -0.01760        0.03308       -0.00784        0.01891       -0.02713       -0.01145        0.00865        0.02431        0.00886       -0.00410        0.04857        0.03553       -0.00004        0.00469       -0.01032       -0.00947       -0.00771        0.00398        0.02726       -0.03124        0.00842        0.00239        0.01074       -0.01896       -0.01082       -0.02712        0.00011        0.00350        0.02041        0.04129        0.00279       -0.03773       -0.01609        0.00759       -0.01433        0.01927        0.00315       -0.00195       -0.01163        0.00220       -0.00302        0.00821       -0.02902       -0.02446        0.01348        0.03811        0.01151        0.04867        0.01739        0.01568        0.00267        0.01408       -0.04978       -0.02625       -0.03942       -0.02852       -0.00178        0.01536       -0.00226       -0.00800       -0.00623        0.01150       -0.01272       -0.00670        0.00639        0.00681       -0.02109        0.00764       -0.00677       -0.01663        0.01875        0.00153        0.00747        0.02800       -0.03632       -0.03550       -0.00802       -0.00565        0.03244       -0.00644        0.03164        0.01245       -0.03447       -0.04693        0.05477        0.05771       -0.00968        0.00324       -0.00299        0.02388        0.00173        0.04055        0.04555       -0.02500       -0.02540       -0.02547       -0.05038        0.02173       -0.02705       -0.04965       -0.02800       -0.04736       -0.04113        0.01495        0.01376       -0.02369       -0.00416       -0.00551       -0.00008       -0.01662       -0.07824       -0.03289        0.01971        0.05268       -0.01764       -0.02887       -0.01547       -0.00005       -0.05856        0.02642        0.01487       -0.00810       -0.05746       -0.07283       -0.02889       -0.03757       -0.01800        0.09327       -0.00850       -0.06631        0.01471        0.00436       -0.14047       -0.06335       -0.06087        0.07100        0.08195        0.05920        0.09611       -0.14216       -0.11136       -0.01933        0.27619
3.015813 2.950055 2.885039 2.820766 2.757235 2.694447 2.632401 2.571098 2.510537 2.450718 2.391642 2.333309 2.275718 2.218869 2.162763 2.107399 2.052777 1.998899 1.945762 1.893368 1.841717 1.790808 1.740641 1.691217 1.642535 1.594596 2.105122 1.580928 0.745988 0.808449 0.891575 0.722232 0.695954 0.450362 0.111875 -0.058054 0.016555 -0.052601 -0.144230 -0.080647 -0.041470 0.154591 0.374898 0.390270 0.898185 0.889489 1.043849 1.110691 1.032560 0.940398 0.837076 0.691327 0.473775 0.520904 0.191583 0.187847 0.011885 0.226724 0.275454 0.449367 0.504895 0.716665 0.595064 0.655152 0.421909 0.285217 0.162340 -0.019623 -0.062704 0.020286 0.140428 0.230854 0.269024 0.403100 0.515810 0.328324 0.101589 -0.036969 -0.041768 -0.056265 -0.007680 0.092400 0.160632 0.307246 0.312927 0.134615 0.151524 0.045032 -0.008322 0.024762 0.124125 0.165335 0.207696 0.175307 0.134346 -0.021688 0.020378 0.030279 0.078962 0.233634 0.226399 0.184186 0.129853 0.032633 -0.016031 0.094823 0.043441 0.125212 0.107610 0.091391 0.058740 -0.018257 -0.043897 0.020455 0.063675 0.037459 0.057232 -0.021447 0.020449 -0.006527 0.087660 0.118399 -0.035967 -0.061448 0.003029 -0.031092 -0.028232 0.126298 0.035897 -0.002186 0.028496 -0.067034 0.031624 0.107892 0.072065 0.098433 -0.044432 0.107505 0.113068 0.012586 0.081989 -0.006585 0.392193 0.182178 0.045483 0.169015 0.363726 -0.012671 0.086689 0.276655 0.239188 1.115979 0.189522 -0.525304 -0.189414 -0.276639 -0.013885 -0.288402 0.279809 0.490151 -0.600095 -0.701085 -0.184622 0.047839 0.018678 -0.125044 0.142249 -0.009574 0.138433 0.177642 0.176028 -0.001804 0.111770 0.130252 -0.039939 -0.029459 0.066152 0.072154 0.016601 0.047522 -0.000379 -0.009652 0.087324 -0.045885 0.021901 -0.020415 0.214507 0.073944 0.031302 -0.006600 0.073552 0.084843 -0.137848 0.008141 0.013722 0.193720 0.116495 -0.100995 0.108139 0.124436 0.005655 -0.017321 -0.030294 0.007674 0.015827 0.017304 -0.035921 0.010319 -0.016331 0.001165 0.026239 0.006539 0.041530 0.045744 0.006016 -0.004546 0.026661 -0.009987 0.000938 -0.020049 0.025878 -0.000251 0.018506 -0.005072 0.004785 -0.024371 -0.010386 -0.012213 0.029969 -0.000069 -0.001789 0.045326 0.020231 -0.008966 -0.015506 -0.022461 -0.034039 0.010632 -0.008703 0.017219 -0.048321 0.005950 0.002978 -0.015748 0.001898 -0.023384 -0.014947 -0.000155 0.019021 0.024447 0.020478 -0.009552 -0.040901 -0.017439 -0.006037 -0.014049 -0.007534 0.022136 -0.008133 0.000170 -0.002470 0.011587 -0.000256 -0.026979 0.004407 0.027948 0.013785 0.012721 0.042672 0.001603 0.000700 -0.013865 0.014725 -0.077896 -0.025196 -0.036150 -0.025651 0.027285 0.001422 -0.002423 -0.003233 0.008836 -0.006065 -0.004551 -0.023084 0.009365 -0.012573 -0.047694 0.019580 -0.027396 0.007186 0.011820 0.004210 0.023858 -0.006374 -0.037979 -0.045752 -0.006676 -0.018891 0.056535 -0.035090 0.006101 -0.019040 -0.072740 -0.056436 0.041028 0.025754 0.014953 -0.060853 0.015265 0.013154 -0.006004 0.023015 0.037756 -0.009795 -0.006624 0.009370 -0.003114 0.035742 -0.002797 -0.028669 -0.011271 -0.054228 -0.011430 0.024600 0.000267 -0.015810 0.004615 0.019643 0.032389 0.012741 -0.038388 0.017524 0.032621 0.096210 -0.016546 -0.057045 -0.012773 -0.014944 -0.068512 0.027190 -0.054528 0.023142 -0.021170 -0.043028 0.010801 -0.024717 -0.001355 0.142158 0.025503 -0.005713 0.077246 0.038200 -0.122699 0.034064 -0.035682 0.188631 0.107111 0.109240 0.081905 -0.144643 -0.185941 0.223672
0.072396 0.074431 0.080535 0.090700 0.104915 0.123160 0.145403 0.171594 0.201664 0.235512 0.273006 0.313967 0.358165 0.405308 0.455035 0.506903 0.560381 0.614841 0.669551 0.723670 0.776245 0.826212 0.872402 0.913547 0.948297 0.975243 0.992938 0.999942 0.994856 0.976379 0.943361 0.894872 0.830269 0.749266 0.652011 0.539156 0.411915 0.272118 0.122244 0.034567 0.194530 0.353271 0.505906 0.647181 0.771637 0.873828 0.948578 0.991260 0.998107 0.966524 0.895388 0.785314 0.638867 0.460683 0.257490 0.037993 0.187387 0.406926 0.608169 0.778642 0.906672 0.982275 0.998052 0.950019 0.838293 0.667548 0.447167 0.191019 0.083181 0.354926 0.602376 0.804121 0.941143 0.998804 0.968653 0.849852 0.649996 0.385152 0.079002 0.238951 0.536037 0.779751 0.941442 0.999974 0.944885 0.778571 0.517091 0.189281 0.165899 0.503677 0.779027 0.952838 0.997883 0.903645 0.679162 0.353165 0.028791 0.410157 0.731512 0.939966 0.998330 0.892490 0.635456 0.267004 0.151530 0.546847 0.846382 0.991946 0.951807 0.728596 0.361043 0.081489 0.511240 0.839170 0.993753 0.937487 0.677211 0.265298 0.209459 0.640107 0.925492 0.994668 0.825803 0.454387 0.032331 0.514513 0.868725 0.999998 0.868596 0.503752 0.000571 0.508257 0.877119 0.999209 0.833923 0.423462 0.115472 0.623183 0.943806 0.974029 0.698339 0.198351 0.368885 0.818831 0.999668 0.845156 0.401404 0.183789 0.708102 0.984210 0.908051 0.500689 0.093761 0.656576 0.974105 0.920098 0.508733 0.104793 0.680002 0.984522 0.889397 0.426847 0.216375 0.771557 0.999753 0.796625 0.243780 0.419820 0.898718 0.972813 0.601463 0.050483 0.681947 0.993235 0.829994 0.263779 0.434337 0.920602 0.948216 0.496086 0.211864 0.813487 0.992802 0.648746 0.042946 0.714512 0.999841 0.736227 0.062224 0.649579 0.995918 0.773114 0.102018 0.631453 0.995234 0.767342 0.076743 0.663227 0.999214 0.717590 0.013850 0.739359 0.996502 0.613665 0.169004 0.843843 0.963159 0.440138 0.381187 0.946432 0.864721 0.184448 0.626964 0.999664 0.663420 0.149463 0.857047 0.941991 0.334302 0.523419 0.992306 0.713882 0.108728 0.850531 0.936481 0.291931 0.584327 0.999750 0.616827 0.264645 0.933645 0.839537 0.051621 0.781593 0.961230 0.328206 0.586483 0.999777 0.548382 0.382890 0.979980 0.710153 0.194630 0.926706 0.820499 0.035550 0.861126 0.890351 0.087917 0.799300 0.931028 0.174007 0.752280 0.951965 0.223134 0.726780 0.959503 0.236165 0.725989 0.956320 0.213438 0.749991 0.941256 0.154405 0.795816 0.909372 0.058197 0.856983 0.852370 0.075222 0.922747 0.759463 0.243085 0.977370 0.619218 0.437237 0.999982 0.422568 0.641330 0.965866 0.167289 0.828644 0.850048 0.136420 0.961893 0.633959 0.460461 0.997041 0.315058 0.755814 0.892658 0.082276 0.955697 0.625558 0.498587 0.988307 0.210163 0.840557 0.801106 0.285066 0.998235 0.392945 0.735657 0.882153 0.157560 0.985607 0.474052 0.686731 0.904263 0.129007 0.984145 0.463469 0.709906 0.880477 0.201184 0.996413 0.359662 0.797878 0.796851 0.368863 0.993855 0.151301 0.916884 0.617238 0.609179 0.917690 0.165409 0.997399 0.301583 0.859505 0.690768 0.553253 0.932920 0.153927 0.998478 0.257892 0.894976 0.613045 0.657482 0.863743 0.336212 0.986950 0.015359 0.982313 0.349732 0.866755 0.631044 0.667782 0.837223 0.416963 0.959474 0.144794 0.999959 0.122853 0.968597 0.366558 0.879842 0.573800 0.749878 0.738365 0.594426 0.859243 0.427317
1.000000 1.000000 1.000000 1.000000 1.000000 1.000000 1.000000 1.000000 1.000000 1.000000 1.000000 1.000000 1.000000 1.000000 1.000000 1.000000 1.000000 1.000000 1.000000 1.000000 1.000000 1.000000 1.000000 1.000000 1.000000 1.000000 0.884247 0.884247 0.881061 0.881061 0.881061 0.881061 0.881061 0.881061 0.881061 0.881061 0.881061 0.881061 0.881061 0.881061 0.881061 0.881061 0.881061 0.881061 0.881061 0.881061 0.881061 0.881061 0.873069 0.882320 0.880493 0.877268 0.877842 0.881560 0.888222 0.925182 0.924998 0.921713 0.900029 0.938740 0.936698 0.935257 0.936080 0.936445 0.937267 0.937295 0.936559 0.930019 0.915277 0.915408 0.919186 0.927359 0.928591 0.927980 0.928877 0.925314 0.928658 0.928615 0.925867 0.915335 0.910437 0.909841 0.905153 0.907826 0.885963 0.889582 0.891886 0.888273 0.883851 0.885073 0.892171 0.892252 0.857853 0.870122 0.873316 0.852813 0.863503 0.841359 0.821694 0.820670 0.803325 0.805931 0.784509 0.787526 0.792173 0.784535 0.737057 0.736974 0.720684 0.695021 0.692871 0.646206 0.659735 0.645598 0.649887 0.618204 0.578513 0.573936 0.564180 0.556269 0.561747 0.548270 0.545907 0.506560 0.480861 0.490405 0.432639 0.446709 0.466183 0.386772 0.386735 0.294876 0.325764 0.352024 0.325825 0.357544 0.260035 0.230465 0.174619 0.155041 0.131498 0.151901 0.144864 0.197212 0.117684 0.111922 0.121491 0.036873 0.025824 -0.027389 -0.017375 0.059623 -0.016209 -0.025093 -0.076473 -0.148365 -0.121752 -0.157400 -0.185111 -0.191882 -0.184270 -0.186170 -0.163131 -0.131458 -0.245727 -0.277936 -0.338892 -0.257660 -0.298303 -0.315684 -0.355160 -0.307814 -0.337051 -0.338597 -0.350993 -0.426782 -0.414744 -0.468807 -0.448016 -0.421862 -0.376745 -0.369534 -0.429073 -0.446801 -0.451578 -0.505303 -0.525209 -0.541369 -0.518252 -0.509980 -0.518754 -0.483881 -0.532150 -0.505440 -0.440840 -0.380713 -0.360785 -0.311689 -0.286506 -0.387210 -0.393439 -0.277596 -0.192706 -0.209362 -0.213249 -0.182818 -0.113784 -0.117639 -0.115388 -0.118831 -0.127562 -0.079314 -0.068359 -0.025373 -0.063301 -0.001528 0.005586 0.066419 0.026774 -0.005735 0.030062 0.227754 0.259627 0.195331 0.097310 0.121099 0.070924 0.123412 0.251990 0.233649 0.127430 0.140709 0.134334 0.175423 0.119914 0.114511 0.084809 0.093593 0.070841 0.105460 0.058455 -0.022973 0.004499 0.006584 0.035201 0.032733 -0.003014 -0.016179 0.036958 0.084079 0.058038 0.073509 0.019901 -0.010148 0.009590 -0.004128 -0.052731 -0.076305 -0.102990 -0.044427 -0.083697 -0.119212 -0.123896 -0.098707 -0.104597 -0.100709 -0.117432 -0.144578 -0.168035 -0.237115 -0.221944 -0.219662 -0.196814 -0.170842 -0.257228 -0.230541 -0.298614 -0.307784 -0.312272 -0.300798 -0.284029 -0.231962 -0.210968 -0.200707 -0.227484 -0.374511 -0.331689 -0.175252 -0.152249 -0.177785 -0.211721 -0.211839 -0.221001 -0.293183 -0.220671 -0.238880 -0.258435 -0.304218 -0.300382 -0.255988 -0.251132 -0.238437 -0.286589 -0.227077 -0.228728 -0.242299 -0.218721 -0.246162 -0.189131 -0.172660 -0.218310 -0.187220 -0.145544 -0.268829 -0.226368 -0.194255 -0.075526 -0.084904 -0.131177 -0.144088 -0.194879 -0.171377 -0.146337 -0.092057 -0.068407 -0.050110 -0.055402 -0.044661 -0.071009 -0.043191 -0.050707 -0.042823 -0.050884 -0.050884 -0.050884 0.037250 -0.010680 -0.017003 -0.004734 -0.004734 -0.004734 -0.055611 -0.055611 -0.055611 -0.016194 -0.016194 -0.016194 -0.016194 -0.028509 -0.028509 -0.028509 -0.028509 -0.094457 -0.094457 -0.094457 -0.028509 -0.028509 0.005351 0.005351 0.005351 0.005351 0.005351 0.005351
0.000000 0.000000 0.000000 0.000000 0.000000 0.000000 0.000000 0.000000 0.000000 0.000000 0.000000 0.000000 0.000000 0.000000 0.000000 0.000000 0.000000 0.000000 0.000000 0.000000 0.000000 0.000000 0.000000 0.000000 0.000000 0.000000 0.251976 0.251976 0.280056 0.280056 0.280056 0.280056 0.280056 0.280056 0.280056 0.280056 0.280056 0.280056 0.280056 0.280056 0.280056 0.280056 0.280056 0.280056 0.280056 0.280056 0.280056 0.280056 0.320256 0.320256 0.320256 0.320256 0.320256 0.320256 0.320256 0.320256 0.320256 0.320256 0.320256 0.320256 0.320256 0.320256 0.328798 0.328798 0.328798 0.328798 0.328798 0.328798 0.328798 0.328798 0.328798 0.328798 0.328798 0.328798 0.348155 0.348155 0.348155 0.348155 0.348155 0.348155 0.348155 0.348155 0.348155 0.348155 0.371391 0.371391 0.371391 0.371391 0.371391 0.371391 0.371391 0.371391 0.359211 0.359211 0.359211 0.359211 0.359211 0.359211 0.359211 0.359211 0.348155 0.348155 0.348155 0.348155 0.348155 0.348155 0.348155 0.348155 0.359211 0.359211 0.359211 0.359211 0.359211 0.359211 0.359211 0.371391 0.371391 0.371391 0.371391 0.371391 0.371391 0.348155 0.348155 0.348155 0.348155 0.348155 0.348155 0.348155 0.384900 0.384900 0.384900 0.384900 0.384900 0.348155 0.348155 0.348155 0.348155 0.348155 0.348155 0.348155 0.348155 0.348155 0.348155 0.348155 0.348155 0.359211 0.359211 0.359211 0.359211 0.359211 0.359211 0.359211 0.359211 0.359211 0.359211 0.348155 0.348155 0.348155 0.348155 0.348155 0.348155 0.348155 0.348155 0.348155 0.348155 0.371391 0.371391 0.371391 0.371391 0.328798 0.328798 0.328798 0.328798 0.328798 0.359211 0.359211 0.359211 0.359211 0.348155 0.348155 0.348155 0.348155 0.320256 0.320256 0.320256 0.320256 0.320256 0.338062 0.338062 0.338062 0.338062 0.338062 0.338062 0.338062 0.338062 0.328798 0.328798 0.328798 0.328798 0.371391 0.371391 0.371391 0.320256 0.320256 0.320256 0.320256 0.320256 0.320256 0.320256 0.320256 0.312348 0.312348 0.312348 0.312348 0.348155 0.348155 0.348155 0.304997 0.304997 0.304997 0.304997 0.338062 0.338062 0.338062 0.298142 0.298142 0.298142 0.298142 0.328798 0.328798 0.328798 0.328798 0.328798 0.328798 0.328798 0.328798 0.328798 0.285714 0.285714 0.285714 0.285714 0.320256 0.320256 0.320256 0.312348 0.312348 0.312348 0.312348 0.312348 0.312348 0.312348 0.312348 0.312348 0.304997 0.304997 0.304997 0.304997 0.304997 0.304997 0.298142 0.298142 0.298142 0.298142 0.298142 0.298142 0.298142 0.298142 0.298142 0.291730 0.291730 0.291730 0.291730 0.291730 0.291730 0.328798 0.328798 0.285714 0.285714 0.285714 0.285714 0.285714 0.285714 0.280056 0.280056 0.280056 0.320256 0.320256 0.274721 0.274721 0.274721 0.274721 0.274721 0.274721 0.312348 0.312348 0.269680 0.269680 0.269680 0.269680 0.269680 0.269680 0.304997 0.304997 0.264906 0.264906 0.264906 0.304997 0.304997 0.260378 0.260378 0.260378 0.298142 0.298142 0.256074 0.256074 0.256074 0.298142 0.298142 0.291730 0.291730 0.251976 0.251976 0.251976 0.291730 0.291730 0.248069 0.248069 0.248069 0.285714 0.285714 0.285714 0.285714 0.244339 0.244339 0.244339 0.280056 0.280056 0.280056 0.280056 0.280056 0.280056 0.240772 0.240772 0.240772 0.274721 0.274721 0.274721 0.274721 0.269680 0.269680 0.269680 0.269680 0.234082 0.234082 0.234082 0.269680 0.269680 0.264906 0.264906 0.264906 0.264906 0.264906 0.264906
