# Output from CTFFind version 4.1.9, run on 2019-11-01 20:45:01
# Input file: ub_averaged.mrc ; Number of micrographs: 1
# Pixel size: 3.000 Angstroms ; acceleration voltage: 300.0 keV ; spherical aberration: 0.00 mm ; amplitude contrast: 0.07
# Box size: 512 pixels ; min. res.: 30.0 Angstroms ; max. res.: 5.0 Angstroms ; min. def.: 5000.0 um; max. def. 50000.0 um; num. frames averaged: 1
# 6 lines per micrograph: #1 - spatial frequency (1/Angstroms); #2 - 1D rotational average of spectrum (assuming no astigmatism); #3 - 1D rotational average of spectrum; #4 - CTF fit; #5 - cross-correlation between spectrum and CTF fit; #6 - 2sigma of expected cross correlation of noise
0.000000 0.000651 0.001302 0.001953 0.002604 0.003255 0.003906 0.004557 0.005208 0.005859 0.006510 0.007161 0.007812 0.008464 0.009115 0.009766 0.010417 0.011068 0.011719 0.012370 0.013021 0.013672 0.014323 0.014974 0.015625 0.016276 0.016927 0.017578 0.018229 0.018880 0.019531 0.020182 0.020833 0.021484 0.022135 0.022786 0.023438 0.024089 0.024740 0.025391 0.026042 0.026693 0.027344 0.027995 0.028646 0.029297 0.029948 0.030599 0.031250 0.031901 0.032552 0.033203 0.033854 0.034505 0.035156 0.035807 0.036458 0.037109 0.037760 0.038411 0.039062 0.039714 0.040365 0.041016 0.041667 0.042318 0.042969 0.043620 0.044271 0.044922 0.045573 0.046224 0.046875 0.047526 0.048177 0.048828 0.049479 0.050130 0.050781 0.051432 0.052083 0.052734 0.053385 0.054036 0.054688 0.055339 0.055990 0.056641 0.057292 0.057943 0.058594 0.059245 0.059896 0.060547 0.061198 0.061849 0.062500 0.063151 0.063802 0.064453 0.065104 0.065755 0.066406 0.067057 0.067708 0.068359 0.069010 0.069661 0.070312 0.070964 0.071615 0.072266 0.072917 0.073568 0.074219 0.074870 0.075521 0.076172 0.076823 0.077474 0.078125 0.078776 0.079427 0.080078 0.080729 0.081380 0.082031 0.082682 0.083333 0.083984 0.084635 0.085286 0.085938 0.086589 0.087240 0.087891 0.088542 0.089193 0.089844 0.090495 0.091146 0.091797 0.092448 0.093099 0.093750 0.094401 0.095052 0.095703 0.096354 0.097005 0.097656 0.098307 0.098958 0.099609 0.100260 0.100911 0.101562 0.102214 0.102865 0.103516 0.104167 0.104818 0.105469 0.106120 0.106771 0.107422 0.108073 0.108724 0.109375 0.110026 0.110677 0.111328 0.111979 0.112630 0.113281 0.113932 0.114583 0.115234 0.115885 0.116536 0.117188 0.117839 0.118490 0.119141 0.119792 0.120443 0.121094 0.121745 0.122396 0.123047 0.123698 0.124349 0.125000 0.125651 0.126302 0.126953 0.127604 0.128255 0.128906 0.129557 0.130208 0.130859 0.131510 0.132161 0.132812 0.133464 0.134115 0.134766 0.135417 0.136068 0.136719 0.137370 0.138021 0.138672 0.139323 0.139974 0.140625 0.141276 0.141927 0.142578 0.143229 0.143880 0.144531 0.145182 0.145833 0.146484 0.147135 0.147786 0.148438 0.149089 0.149740 0.150391 0.151042 0.151693 0.152344 0.152995 0.153646 0.154297 0.154948 0.155599 0.156250 0.156901 0.157552 0.158203 0.158854 0.159505 0.160156 0.160807 0.161458 0.162109 0.162760 0.163411 0.164062 0.164714 0.165365 0.166016 0.166667 0.167318 0.167969 0.168620 0.169271 0.169922 0.170573 0.171224 0.171875 0.172526 0.173177 0.173828 0.174479 0.175130 0.175781 0.176432 0.177083 0.177734 0.178385 0.179036 0.179688 0.180339 0.180990 0.181641 0.182292 0.182943 0.183594 0.184245 0.184896 0.185547 0.186198 0.186849 0.187500 0.188151 0.188802 0.189453 0.190104 0.190755 0.191406 0.192057 0.192708 0.193359 0.194010 0.194661 0.195312 0.195964 0.196615 0.197266 0.197917 0.198568 0.199219 0.199870 0.200521 0.201172 0.201823 0.202474 0.203125 0.203776 0.204427 0.205078 0.205729 0.206380 0.207031 0.207682 0.208333 0.208984 0.209635 0.210286 0.210938 0.211589 0.212240 0.212891 0.213542 0.214193 0.214844 0.215495 0.216146 0.216797 0.217448 0.218099 0.218750 0.219401 0.220052 0.220703 0.221354 0.222005 0.222656 0.223307 0.223958 0.224609 0.225260 0.225911 0.226562 0.227214 0.227865 0.228516 0.229167 0.229818 0.230469 0.231120 0.231771 0.232422 0.233073 0.233724 0.234375 0.235026 0.235677
       0.33262        0.33262        0.33262        0.33262        0.33262        0.33262        0.33262        0.33262        0.33262        0.33262        0.33262        0.33262        0.33262        0.33262        0.33262        0.33262        0.33262        0.33262        0.33262        0.33262        0.33262        0.33262        0.33262        0.33262        0.33262        0.33262        0.33262        0.33262        0.33262        0.33262        0.33262        0.33262        0.33262        0.33262        0.33262        0.33262        0.33262        0.33262        0.33262        0.33262        0.33262        0.33262        0.33262        0.33262        0.33262        0.33262        0.33262        0.33262        0.33262        0.33262        0.33262        0.50246        0.71927        0.42873        0.18956       -0.08047       -0.26328       -0.06988       -0.13438       -0.05413       -0.00273       -0.14765       -0.09263       -0.05181       -0.00387       -0.15199       -0.22103       -0.34699       -0.46300       -0.55888       -0.51835       -0.44843       -0.37249       -0.54781       -0.45062       -0.62164       -0.50300       -0.47519       -0.39015       -0.38525       -0.34087       -0.25121       -0.16131       -0.13655        0.03224       -0.01210        0.11759        0.16789        0.30450        0.40934        0.46413        0.49746        0.54081        0.54984        0.69185        0.64529        0.67655        0.59157        0.55641        0.65498        0.52790        0.42622        0.38279        0.32112        0.22714        0.26301        0.25045        0.10728        0.08309       -0.00032       -0.00695        0.03549       -0.00391        0.07459        0.09871        0.23157        0.28282        0.30168        0.37931        0.56020        0.53710        0.57806        0.67012        0.70049        0.63012        0.63341        0.63162        0.55389        0.57539        0.39700        0.34418        0.26572        0.18464        0.07132        0.14447        0.11892        0.09021        0.10599        0.20964        0.21414        0.31656        0.35900        0.41304        0.49201        0.58398        0.54194        0.55356        0.60814        0.53943        0.46174        0.47860        0.32424        0.25039        0.25732        0.24222        0.14250        0.14413        0.15123        0.21830        0.24614        0.32843        0.36390        0.39013        0.46844        0.44643        0.47852        0.45527        0.46677        0.44441        0.40697        0.38295        0.35136        0.30956        0.28559        0.20363        0.19638        0.22057        0.26926        0.26858        0.35044        0.37567        0.35719        0.41005        0.45526        0.44793        0.42451        0.43873        0.37086        0.33476        0.28360        0.26436        0.28969        0.26957        0.29403        0.30044        0.34900        0.34234        0.39713        0.40337        0.42583        0.40992        0.42942        0.40254        0.36493        0.28240        0.29167        0.30765        0.27282        0.25603        0.32754        0.36914        0.34186        0.35405        0.35839        0.35396        0.40734        0.40063        0.35892        0.33872        0.30968        0.30923        0.31543        0.31653        0.29959        0.28642        0.33557        0.35764        0.37730        0.33264        0.32868        0.33399        0.34444        0.30664        0.28335        0.30699        0.31531        0.33678        0.32085        0.33147        0.35762        0.32950        0.31269        0.32772        0.30277        0.26465        0.25144        0.26596        0.30665        0.32245        0.35046        0.30217        0.31512        0.33711        0.29279        0.31570        0.28564        0.28168        0.29154        0.29913        0.30889        0.34221        0.32415        0.33005        0.33480        0.31007        0.33303        0.31889        0.31901        0.30768        0.28285        0.29302        0.31274        0.29123        0.32651        0.33793        0.33431        0.31942        0.33806        0.31614        0.27696        0.25325        0.26982        0.33089        0.35762        0.34591        0.31506        0.29376        0.29846        0.31387        0.24667        0.29801        0.30438        0.32907        0.29791        0.31866        0.28707        0.33630        0.34193        0.34558        0.32393        0.29270        0.31602        0.39762        0.32960        0.31173        0.30846        0.28945        0.28458        0.29772        0.26379        0.30972        0.23906        0.27618        0.29565        0.31595        0.29473        0.27382        0.29863        0.23427        0.22481        0.26212        0.30432        0.30464        0.27597        0.28505        0.33298        0.25811        0.21456        0.30908        0.27496        0.25522        0.28395        0.39657        0.29638        0.28471        0.24615        0.25333        0.26523        0.23782        0.23391        0.16929        0.25572        0.23273        0.24926        0.31776        0.27559        0.34752        0.28235        0.24471        0.23008        0.21124        0.23314        0.29832        0.23150        0.13156        0.15854        0.24059        0.24666        0.32769        0.29938        0.02803       -0.43064       -0.89721
2.698357 2.669857 2.641510 2.613316 2.585276 2.557387 2.529652 2.502070 2.474640 2.447364 2.420240 2.393269 2.366451 2.339786 2.313274 2.286914 2.260708 2.234654 2.208754 2.183006 2.157411 2.131969 2.106680 2.081544 2.056560 2.031730 2.007052 1.982527 1.958155 1.933936 1.909870 1.885957 1.862197 1.838589 1.815135 1.791833 1.768684 1.745688 1.722845 1.700155 1.677618 1.655233 1.633002 1.610923 1.588997 1.567225 1.545604 1.524137 1.502823 1.481662 1.460653 1.530767 1.832661 1.516802 1.196731 0.943750 0.545852 0.913225 0.634732 0.876505 0.929463 0.592398 0.712253 0.783094 0.820040 0.632620 0.539910 0.348959 0.105181 0.081578 0.045017 0.085101 0.302932 -0.033186 0.082676 -0.133507 -0.009871 -0.017761 0.085260 0.063383 0.101477 0.177943 0.284043 0.252949 0.484211 0.399082 0.548793 0.527509 0.769689 0.789287 0.882133 0.921850 0.942182 0.945115 1.113795 0.942362 1.141350 0.949125 0.852612 1.018373 0.849323 0.759865 0.615708 0.596965 0.455759 0.417733 0.510439 0.266083 0.199446 0.158900 0.011997 0.207496 -0.003399 0.121152 0.180793 0.260095 0.331552 0.347728 0.424421 0.537144 0.665108 0.540572 0.739464 0.862995 0.640474 0.695218 0.664898 0.594124 0.538993 0.464295 0.297432 0.214578 0.117076 -0.042408 -0.020653 0.058992 -0.098287 -0.058576 0.048296 0.055518 0.113421 0.220163 0.239519 0.307747 0.445200 0.439976 0.432877 0.480937 0.448060 0.329620 0.332175 0.240950 0.053108 0.061931 0.016704 -0.044652 -0.097869 -0.099537 -0.015437 -0.052532 0.070635 0.122044 0.118870 0.262880 0.230669 0.234681 0.294057 0.246765 0.237929 0.213246 0.171932 0.109126 0.100517 0.025245 0.005838 -0.118759 -0.052641 0.000004 0.002750 0.022048 0.097797 0.085007 0.129198 0.191406 0.259232 0.178764 0.181077 0.107776 0.135954 0.023597 -0.031618 0.022565 -0.024011 0.005333 -0.007365 0.035076 0.083842 0.051987 0.154663 0.093206 0.169253 0.062366 0.147193 0.090711 -0.009742 -0.063344 -0.013595 -0.036019 -0.071955 -0.067566 0.052643 0.062363 -0.011226 0.048677 0.059327 0.071844 0.142592 0.064286 0.059652 0.048758 -0.026615 0.021388 0.000356 0.010312 0.000359 -0.007170 0.039565 0.054745 0.071733 0.028536 0.043166 0.019817 0.056538 -0.010055 -0.018476 0.021888 0.008968 0.060503 0.031930 0.051912 0.057141 0.040853 0.018352 0.029052 -0.001508 -0.047978 -0.032511 -0.027386 0.023541 0.038570 0.095939 -0.005154 0.063544 0.048837 -0.010940 0.062400 0.008038 0.007741 0.035605 0.052708 0.034352 0.090801 0.050072 0.070048 0.075776 0.068094 0.064197 0.064029 0.082053 0.029750 -0.007928 0.045599 0.041053 0.044202 0.068121 0.087384 0.009292 0.057746 0.070021 0.003893 0.000141 -0.061326 -0.027799 0.107725 0.077523 0.044176 0.033878 -0.019630 0.049431 0.020060 -0.071585 0.050518 0.030766 0.062208 0.031369 0.011331 0.002917 0.075043 0.032927 0.026172 0.027300 -0.041220 0.064141 0.115881 0.002329 -0.011033 -0.005279 -0.004056 -0.037112 -0.020959 -0.056696 -0.008352 -0.090856 -0.020530 -0.036521 0.019950 -0.032668 -0.052782 0.028787 -0.081469 -0.057073 -0.078197 0.049035 0.009806 0.001818 -0.008042 0.068470 -0.023315 -0.071562 0.056806 -0.004016 0.008638 0.011809 0.201593 -0.020569 0.032896 -0.013221 -0.004262 -0.005683 -0.038040 -0.015639 -0.163118 0.019464 -0.036430 -0.013500 0.044263 0.006913 0.115872 -0.007287 -0.014510 -0.041583 -0.029398 -0.074032 0.054353 0.276316 0.156522 0.203758 0.237522 0.332022 0.357337 0.363400 0.035361 -1.051678
0.072396 0.072910 0.074452 0.077022 0.080619 0.085242 0.090889 0.097560 0.105252 0.113961 0.123685 0.134418 0.146155 0.158890 0.172614 0.187317 0.202988 0.219613 0.237176 0.255658 0.275039 0.295293 0.316394 0.338310 0.361005 0.384440 0.408571 0.433349 0.458720 0.484624 0.510996 0.537765 0.564854 0.592178 0.619646 0.647163 0.674622 0.701912 0.728914 0.755504 0.781547 0.806903 0.831427 0.854965 0.877356 0.898437 0.918037 0.935981 0.952091 0.966184 0.978079 0.987589 0.994532 0.998725 0.999989 0.998151 0.993041 0.984502 0.972385 0.956551 0.936880 0.913267 0.885624 0.853886 0.818013 0.777988 0.733826 0.685569 0.633294 0.577113 0.517173 0.453662 0.386804 0.316869 0.244166 0.169045 0.091902 0.013171 0.066670 0.147106 0.227582 0.307513 0.386278 0.463231 0.537706 0.609017 0.676470 0.739366 0.797009 0.848719 0.893832 0.931717 0.961781 0.983482 0.996337 0.999931 0.993930 0.978090 0.952265 0.916417 0.870621 0.815078 0.750112 0.676183 0.593883 0.503938 0.407210 0.304689 0.197488 0.086838 0.025928 0.139385 0.252033 0.362316 0.468642 0.569408 0.663022 0.747933 0.822657 0.885804 0.936113 0.972475 0.993965 0.999866 0.989697 0.963232 0.920521 0.861903 0.788013 0.699795 0.598491 0.485635 0.363044 0.232790 0.097173 0.041312 0.180018 0.316194 0.447044 0.569774 0.681664 0.780127 0.862776 0.927486 0.972459 0.996280 0.997971 0.977034 0.933487 0.867888 0.781348 0.675527 0.552620 0.415325 0.266793 0.110571 0.049480 0.209271 0.364586 0.511198 0.644981 0.762035 0.858806 0.932201 0.979706 0.999481 0.990441 0.952330 0.885754 0.792207 0.674057 0.534509 0.377538 0.207789 0.030456 0.148867 0.324363 0.490168 0.640585 0.770271 0.874452 0.949102 0.991125 0.998498 0.970387 0.907223 0.810738 0.683946 0.531079 0.357471 0.169391 0.026162 0.221716 0.409597 0.582241 0.732498 0.853943 0.941171 0.990058 0.997985 0.963996 0.888908 0.775332 0.627620 0.451740 0.255055 0.046047 0.166034 0.371578 0.561040 0.725393 0.856577 0.947915 0.994480 0.993398 0.944051 0.848189 0.709916 0.535557 0.333418 0.113410 0.113404 0.335356 0.540766 0.718568 0.858925 0.953796 0.997432 0.986772 0.921689 0.805091 0.642855 0.443568 0.218134 0.020800 0.259530 0.484072 0.680978 0.838173 0.945714 0.996464 0.986615 0.916022 0.788315 0.610786 0.394029 0.151352 0.101991 0.349751 0.575708 0.764759 0.903941 0.983368 0.996987 0.943097 0.824587 0.648864 0.427454 0.175322 0.090121 0.350166 0.586141 0.780743 0.919361 0.991206 0.990224 0.915664 0.772288 0.570144 0.323947 0.052062 0.224823 0.485240 0.708623 0.876953 0.976257 0.997845 0.939137 0.804035 0.602760 0.351181 0.069622 0.218724 0.489678 0.720115 0.889955 0.983979 0.993268 0.916135 0.758448 0.533300 0.260010 0.037450 0.332529 0.598429 0.810570 0.948904 0.999881 0.957880 0.825909 0.615543 0.345998 0.042490 0.266089 0.549859 0.780889 0.935973 0.999040 0.962922 0.830284 0.613565 0.333946 0.019376 0.298158 0.585856 0.813497 0.956679 0.999524 0.936551 0.773492 0.526922 0.222704 0.106630 0.425288 0.698115 0.894484 0.991822 0.978323 0.854505 0.633418 0.339418 0.005600 0.329831 0.627927 0.853505 0.979405 0.989857 0.882601 0.669440 0.375104 0.034530 0.311213 0.619813 0.852930 0.981023 0.987227 0.869720 0.642259 0.332755 0.020029 0.371211 0.675488 0.893002 0.994654 0.966144 0.810146 0.546298 0.208888 0.157435 0.503507 0.782234 0.955063 0.997429
1.000000 1.000000 1.000000 1.000000 1.000000 1.000000 1.000000 1.000000 1.000000 1.000000 1.000000 1.000000 1.000000 1.000000 1.000000 1.000000 1.000000 1.000000 1.000000 1.000000 1.000000 1.000000 1.000000 1.000000 1.000000 1.000000 1.000000 1.000000 1.000000 1.000000 1.000000 1.000000 1.000000 1.000000 1.000000 1.000000 1.000000 1.000000 1.000000 1.000000 1.000000 1.000000 1.000000 1.000000 1.000000 1.000000 1.000000 1.000000 1.000000 1.000000 1.000000 1.000000 0.918862 0.918862 0.905102 0.905102 0.905102 0.905102 0.905102 0.905102 0.905102 0.905102 0.905102 0.905102 0.905102 0.905102 0.905102 0.905102 0.905102 0.905102 0.905102 0.905102 0.905102 0.905102 0.905102 0.905102 0.905102 0.905102 0.905102 0.905102 0.905102 0.905102 0.905102 0.905102 0.905102 0.905102 0.905102 0.905102 0.905102 0.905102 0.905102 0.905102 0.905102 0.905102 0.905102 0.901156 0.906052 0.907942 0.906423 0.909962 0.910025 0.909315 0.909652 0.909311 0.909643 0.911036 0.921531 0.932541 0.943562 0.944098 0.949268 0.953583 0.956013 0.956862 0.958428 0.968438 0.967083 0.966586 0.967267 0.968704 0.970819 0.969561 0.969113 0.972273 0.972924 0.971339 0.969080 0.968472 0.967874 0.967977 0.967611 0.967496 0.967365 0.967875 0.968075 0.968223 0.968368 0.968422 0.969437 0.970591 0.972987 0.973981 0.973842 0.972771 0.970897 0.974920 0.975819 0.975566 0.975518 0.975056 0.975315 0.961031 0.956541 0.956453 0.953357 0.952225 0.949082 0.947738 0.946200 0.946529 0.945384 0.945152 0.941820 0.927872 0.913930 0.902964 0.923637 0.908155 0.897093 0.871850 0.872191 0.866316 0.866828 0.858463 0.852721 0.848321 0.845473 0.847243 0.844218 0.848380 0.845444 0.831754 0.834850 0.831860 0.801534 0.784774 0.768896 0.770409 0.767498 0.768658 0.768231 0.763239 0.771753 0.764436 0.762532 0.753921 0.733994 0.701471 0.688316 0.698231 0.708186 0.706364 0.702688 0.687307 0.656683 0.669315 0.690330 0.687501 0.690202 0.682441 0.674981 0.680646 0.681635 0.677999 0.671399 0.670599 0.670224 0.679251 0.683578 0.678340 0.668759 0.653800 0.641220 0.628383 0.644139 0.648836 0.617572 0.611678 0.602606 0.596265 0.582304 0.546642 0.546188 0.523176 0.511707 0.515307 0.517756 0.517908 0.527940 0.528783 0.505967 0.529950 0.537718 0.564698 0.540946 0.537650 0.539201 0.548473 0.532170 0.509208 0.501622 0.502501 0.515397 0.549513 0.591161 0.581283 0.572451 0.559181 0.573788 0.551138 0.560249 0.577074 0.555374 0.482944 0.437883 0.434763 0.401351 0.394195 0.386295 0.380824 0.392579 0.381187 0.373994 0.360708 0.349080 0.293519 0.256951 0.238212 0.214209 0.220192 0.232473 0.217256 0.217164 0.249361 0.295492 0.296354 0.287862 0.271058 0.273596 0.243302 0.258762 0.285214 0.242747 0.237914 0.230150 0.205699 0.192133 0.156124 0.180438 0.101290 0.084918 0.086929 0.101863 0.110720 0.107383 0.113968 0.087735 0.108426 0.101448 0.066236 0.051887 0.068164 0.058984 0.028319 0.038717 0.049163 0.035051 0.027187 0.047177 0.051860 0.062200 0.053132 0.052793 0.108516 0.140850 0.127828 0.128321 0.112244 0.119639 0.091197 0.080933 0.071967 0.062380 0.011630 -0.016819 -0.016819 -0.012955 -0.012955 -0.012955 -0.012955 -0.012955 -0.012955 -0.012955 -0.012955 -0.012955 -0.014336 -0.014336 -0.014336 -0.014336 -0.014336 -0.014336 -0.014336 -0.014336 -0.014336 0.009695 0.009695 0.009695 0.009695 0.009695 0.009695 0.009695 0.009695 0.009695
0.000000 0.000000 0.000000 0.000000 0.000000 0.000000 0.000000 0.000000 0.000000 0.000000 0.000000 0.000000 0.000000 0.000000 0.000000 0.000000 0.000000 0.000000 0.000000 0.000000 0.000000 0.000000 0.000000 0.000000 0.000000 0.000000 0.000000 0.000000 0.000000 0.000000 0.000000 0.000000 0.000000 0.000000 0.000000 0.000000 0.000000 0.000000 0.000000 0.000000 0.000000 0.000000 0.000000 2250.000000 0.000000 0.000000 0.000000 0.000000 0.000000 0.000000 0.000000 0.000000 0.181818 0.181818 0.199007 0.199007 0.199007 0.199007 0.199007 0.199007 0.199007 0.199007 0.199007 0.199007 0.199007 0.199007 0.199007 0.199007 0.199007 0.199007 0.199007 0.199007 0.199007 0.199007 0.199007 0.199007 0.199007 0.199007 0.199007 0.199007 0.199007 0.199007 0.199007 0.199007 0.199007 0.199007 0.199007 0.199007 0.199007 0.199007 0.199007 0.199007 0.199007 0.199007 0.199007 0.230940 0.230940 0.230940 0.230940 0.230940 0.230940 0.230940 0.230940 0.230940 0.230940 0.230940 0.230940 0.230940 0.230940 0.230940 0.230940 0.230940 0.230940 0.230940 0.230940 0.230940 0.230940 0.230940 0.230940 0.230940 0.230940 0.230940 0.230940 0.244339 0.244339 0.244339 0.244339 0.244339 0.244339 0.244339 0.244339 0.244339 0.244339 0.244339 0.244339 0.244339 0.244339 0.244339 0.244339 0.244339 0.244339 0.244339 0.244339 0.244339 0.244339 0.244339 0.251976 0.251976 0.251976 0.251976 0.251976 0.251976 0.251976 0.251976 0.251976 0.251976 0.251976 0.251976 0.251976 0.251976 0.251976 0.251976 0.251976 0.251976 0.251976 0.251976 0.264906 0.264906 0.264906 0.264906 0.264906 0.264906 0.264906 0.264906 0.264906 0.264906 0.264906 0.264906 0.264906 0.264906 0.264906 0.264906 0.264906 0.264906 0.264906 0.264906 0.264906 0.264906 0.264906 0.264906 0.264906 0.264906 0.264906 0.264906 0.264906 0.264906 0.264906 0.264906 0.264906 0.264906 0.264906 0.264906 0.264906 0.264906 0.264906 0.264906 0.264906 0.264906 0.264906 0.264906 0.264906 0.264906 0.264906 0.264906 0.264906 0.264906 0.264906 0.264906 0.264906 0.264906 0.264906 0.264906 0.264906 0.264906 0.264906 0.264906 0.264906 0.264906 0.264906 0.264906 0.264906 0.264906 0.264906 0.264906 0.264906 0.264906 0.264906 0.264906 0.264906 0.264906 0.264906 0.269680 0.269680 0.269680 0.269680 0.269680 0.269680 0.269680 0.269680 0.269680 0.269680 0.269680 0.269680 0.264906 0.264906 0.264906 0.264906 0.264906 0.264906 0.264906 0.264906 0.264906 0.264906 0.264906 0.264906 0.269680 0.269680 0.269680 0.269680 0.269680 0.269680 0.269680 0.269680 0.269680 0.269680 0.269680 0.264906 0.264906 0.264906 0.264906 0.264906 0.264906 0.264906 0.264906 0.264906 0.264906 0.264906 0.256074 0.256074 0.256074 0.256074 0.256074 0.256074 0.256074 0.256074 0.256074 0.256074 0.256074 0.264906 0.264906 0.264906 0.264906 0.264906 0.264906 0.264906 0.264906 0.264906 0.264906 0.269680 0.269680 0.269680 0.269680 0.269680 0.269680 0.269680 0.269680 0.269680 0.256074 0.256074 0.256074 0.256074 0.256074 0.256074 0.256074 0.256074 0.256074 0.256074 0.260378 0.260378 0.260378 0.260378 0.260378 0.260378 0.260378 0.260378 0.260378 0.256074 0.256074 0.256074 0.256074 0.256074 0.256074 0.256074 0.256074 0.256074 0.251976 0.251976 0.251976 0.251976 0.251976 0.251976 0.251976 0.251976 0.251976 0.264906 0.264906 0.264906 0.264906 0.264906 0.264906 0.264906 0.264906 0.264906
