# Output from CTFFind version 4.1.9, run on 2019-11-01 23:11:04
# Input file: ub_averaged_1000.mrc ; Number of micrographs: 1
# Pixel size: 3.000 Angstroms ; acceleration voltage: 300.0 keV ; spherical aberration: 0.00 mm ; amplitude contrast: 0.07
# Box size: 512 pixels ; min. res.: 30.0 Angstroms ; max. res.: 5.0 Angstroms ; min. def.: 5000.0 um; max. def. 50000.0 um; num. frames averaged: 1
# 6 lines per micrograph: #1 - spatial frequency (1/Angstroms); #2 - 1D rotational average of spectrum (assuming no astigmatism); #3 - 1D rotational average of spectrum; #4 - CTF fit; #5 - cross-correlation between spectrum and CTF fit; #6 - 2sigma of expected cross correlation of noise
0.000000 0.000651 0.001302 0.001953 0.002604 0.003255 0.003906 0.004557 0.005208 0.005859 0.006510 0.007161 0.007812 0.008464 0.009115 0.009766 0.010417 0.011068 0.011719 0.012370 0.013021 0.013672 0.014323 0.014974 0.015625 0.016276 0.016927 0.017578 0.018229 0.018880 0.019531 0.020182 0.020833 0.021484 0.022135 0.022786 0.023438 0.024089 0.024740 0.025391 0.026042 0.026693 0.027344 0.027995 0.028646 0.029297 0.029948 0.030599 0.031250 0.031901 0.032552 0.033203 0.033854 0.034505 0.035156 0.035807 0.036458 0.037109 0.037760 0.038411 0.039062 0.039714 0.040365 0.041016 0.041667 0.042318 0.042969 0.043620 0.044271 0.044922 0.045573 0.046224 0.046875 0.047526 0.048177 0.048828 0.049479 0.050130 0.050781 0.051432 0.052083 0.052734 0.053385 0.054036 0.054688 0.055339 0.055990 0.056641 0.057292 0.057943 0.058594 0.059245 0.059896 0.060547 0.061198 0.061849 0.062500 0.063151 0.063802 0.064453 0.065104 0.065755 0.066406 0.067057 0.067708 0.068359 0.069010 0.069661 0.070312 0.070964 0.071615 0.072266 0.072917 0.073568 0.074219 0.074870 0.075521 0.076172 0.076823 0.077474 0.078125 0.078776 0.079427 0.080078 0.080729 0.081380 0.082031 0.082682 0.083333 0.083984 0.084635 0.085286 0.085938 0.086589 0.087240 0.087891 0.088542 0.089193 0.089844 0.090495 0.091146 0.091797 0.092448 0.093099 0.093750 0.094401 0.095052 0.095703 0.096354 0.097005 0.097656 0.098307 0.098958 0.099609 0.100260 0.100911 0.101562 0.102214 0.102865 0.103516 0.104167 0.104818 0.105469 0.106120 0.106771 0.107422 0.108073 0.108724 0.109375 0.110026 0.110677 0.111328 0.111979 0.112630 0.113281 0.113932 0.114583 0.115234 0.115885 0.116536 0.117188 0.117839 0.118490 0.119141 0.119792 0.120443 0.121094 0.121745 0.122396 0.123047 0.123698 0.124349 0.125000 0.125651 0.126302 0.126953 0.127604 0.128255 0.128906 0.129557 0.130208 0.130859 0.131510 0.132161 0.132812 0.133464 0.134115 0.134766 0.135417 0.136068 0.136719 0.137370 0.138021 0.138672 0.139323 0.139974 0.140625 0.141276 0.141927 0.142578 0.143229 0.143880 0.144531 0.145182 0.145833 0.146484 0.147135 0.147786 0.148438 0.149089 0.149740 0.150391 0.151042 0.151693 0.152344 0.152995 0.153646 0.154297 0.154948 0.155599 0.156250 0.156901 0.157552 0.158203 0.158854 0.159505 0.160156 0.160807 0.161458 0.162109 0.162760 0.163411 0.164062 0.164714 0.165365 0.166016 0.166667 0.167318 0.167969 0.168620 0.169271 0.169922 0.170573 0.171224 0.171875 0.172526 0.173177 0.173828 0.174479 0.175130 0.175781 0.176432 0.177083 0.177734 0.178385 0.179036 0.179688 0.180339 0.180990 0.181641 0.182292 0.182943 0.183594 0.184245 0.184896 0.185547 0.186198 0.186849 0.187500 0.188151 0.188802 0.189453 0.190104 0.190755 0.191406 0.192057 0.192708 0.193359 0.194010 0.194661 0.195312 0.195964 0.196615 0.197266 0.197917 0.198568 0.199219 0.199870 0.200521 0.201172 0.201823 0.202474 0.203125 0.203776 0.204427 0.205078 0.205729 0.206380 0.207031 0.207682 0.208333 0.208984 0.209635 0.210286 0.210938 0.211589 0.212240 0.212891 0.213542 0.214193 0.214844 0.215495 0.216146 0.216797 0.217448 0.218099 0.218750 0.219401 0.220052 0.220703 0.221354 0.222005 0.222656 0.223307 0.223958 0.224609 0.225260 0.225911 0.226562 0.227214 0.227865 0.228516 0.229167 0.229818 0.230469 0.231120 0.231771 0.232422 0.233073 0.233724 0.234375 0.235026 0.235677
       0.33199        0.33199        0.33199        0.33199        0.33199        0.33199        0.33199        0.33199        0.33199        0.33199        0.33199        0.33199        0.33199        0.33199        0.33199        0.33199        0.33199        0.33199        0.33199        0.33199        0.33199        0.33199        0.33199        0.33199        0.33199        0.33199        0.33199        0.33199        0.33199        0.33199        0.33199        0.33199        0.33199        0.33199        0.33199        0.33199        0.33199        0.33199        0.33199        0.33199        0.33199        0.33199        0.33199        0.33199        0.33199        0.33199        0.33199        0.33199        0.33199        0.33199        0.33199        0.50221        0.71914        0.42837        0.18909       -0.08116       -0.26310       -0.07013       -0.13466       -0.05399       -0.00339       -0.14824       -0.09280       -0.05353       -0.00490       -0.15296       -0.22247       -0.34781       -0.46296       -0.55839       -0.51823       -0.44821       -0.37269       -0.54796       -0.45208       -0.62244       -0.50424       -0.47571       -0.39062       -0.38664       -0.34085       -0.25236       -0.16219       -0.13725        0.03174       -0.01271        0.11716        0.16699        0.30451        0.40965        0.46295        0.49843        0.54053        0.54956        0.69048        0.64452        0.67551        0.59096        0.55578        0.65381        0.52712        0.42583        0.38172        0.32024        0.22690        0.26134        0.24951        0.10661        0.08215       -0.00060       -0.00678        0.03613       -0.00480        0.07323        0.09948        0.23115        0.28324        0.30031        0.37863        0.56079        0.53570        0.57754        0.66878        0.70100        0.62926        0.63388        0.63173        0.55491        0.57490        0.39778        0.34336        0.26501        0.18370        0.07113        0.14299        0.11838        0.09027        0.10557        0.20917        0.21390        0.31609        0.35895        0.41198        0.49101        0.58260        0.54121        0.55360        0.60727        0.53706        0.45996        0.47891        0.32400        0.24880        0.25762        0.24097        0.14087        0.14223        0.15049        0.21769        0.24454        0.32865        0.36431        0.39073        0.46814        0.44557        0.47905        0.45437        0.46621        0.44481        0.40662        0.38335        0.35107        0.30994        0.28651        0.20383        0.19460        0.21952        0.26917        0.26745        0.34968        0.37433        0.35646        0.41000        0.45304        0.44579        0.42419        0.43892        0.37221        0.33362        0.28245        0.26277        0.28928        0.26859        0.29265        0.29948        0.34750        0.34188        0.39491        0.40184        0.42583        0.40897        0.43022        0.40244        0.36336        0.28121        0.29096        0.30632        0.27062        0.25436        0.32532        0.36793        0.34134        0.35325        0.35803        0.35382        0.40764        0.40085        0.35981        0.33799        0.30814        0.30927        0.31612        0.31712        0.29980        0.28485        0.33522        0.35794        0.37713        0.33253        0.32962        0.33413        0.34400        0.30625        0.28290        0.30606        0.31384        0.33686        0.31888        0.32961        0.35728        0.32827        0.31148        0.32666        0.30163        0.26407        0.25103        0.26578        0.30661        0.32144        0.35074        0.30195        0.31278        0.33419        0.29244        0.31446        0.28467        0.28072        0.29091        0.29759        0.30802        0.34182        0.32585        0.32993        0.33561        0.30981        0.33280        0.31960        0.31907        0.30770        0.28182        0.29189        0.31047        0.29087        0.32489        0.33630        0.33449        0.32080        0.33883        0.31701        0.27753        0.25160        0.26831        0.32983        0.35562        0.34355        0.31420        0.29271        0.29808        0.31280        0.24739        0.29771        0.30543        0.33124        0.29785        0.31585        0.28606        0.33591        0.34022        0.34336        0.31996        0.29184        0.31507        0.39825        0.32862        0.31117        0.30886        0.28797        0.28361        0.29840        0.26495        0.31206        0.23786        0.27367        0.29507        0.31459        0.29414        0.27017        0.29702        0.23419        0.22265        0.26201        0.30182        0.30497        0.27250        0.28373        0.33155        0.25927        0.21606        0.30759        0.27419        0.25621        0.28390        0.39431        0.29440        0.28533        0.24466        0.25273        0.26699        0.24132        0.23376        0.17301        0.25740        0.23139        0.24725        0.31672        0.26915        0.34971        0.28646        0.23776        0.22475        0.21152        0.23346        0.30465        0.22932        0.13305        0.16539        0.23824        0.24886        0.31630        0.28483        0.02784       -0.43613       -0.90811
2.693370 2.664916 2.636615 2.608466 2.580470 2.552627 2.524936 2.497398 2.470013 2.442781 2.415701 2.388773 2.361999 2.335377 2.308908 2.282591 2.256427 2.230416 2.204557 2.178851 2.153298 2.127897 2.102650 2.077554 2.052612 2.027822 2.003184 1.978700 1.954368 1.930188 1.906162 1.882288 1.858566 1.834998 1.811582 1.788318 1.765208 1.742250 1.719444 1.696792 1.674292 1.651944 1.629750 1.607708 1.585818 1.564082 1.542497 1.521066 1.499787 1.478661 1.457688 1.527894 1.830364 1.513920 1.194016 0.941336 0.545450 0.911231 0.633487 0.875225 0.927214 0.590610 0.711276 0.779331 0.817572 0.630819 0.536715 0.347878 0.104471 0.081678 0.045011 0.085566 0.302137 -0.033930 0.080902 -0.134143 -0.011534 -0.017982 0.084969 0.060232 0.102049 0.176463 0.282066 0.251375 0.483043 0.397651 0.547695 0.526162 0.767883 0.788723 0.879701 0.921809 0.940641 0.943349 1.111018 0.941488 1.138261 0.946435 0.851257 1.015574 0.847318 0.757810 0.614853 0.594602 0.455728 0.414933 0.508742 0.265234 0.197590 0.157805 0.012654 0.208332 -0.003584 0.119062 0.180986 0.259718 0.331719 0.346140 0.422809 0.538359 0.662442 0.539747 0.737576 0.864077 0.638454 0.694544 0.664941 0.594647 0.537397 0.465297 0.296629 0.213686 0.116036 -0.042015 -0.022261 0.058461 -0.098220 -0.058810 0.049376 0.054912 0.111818 0.220930 0.238440 0.306855 0.432856 0.442179 0.436858 0.480394 0.445092 0.325621 0.332608 0.240940 0.050689 0.061906 0.018008 -0.048381 -0.098364 -0.101402 -0.015651 -0.054076 0.070196 0.122723 0.120408 0.262211 0.229974 0.242407 0.291828 0.244693 0.239934 0.211829 0.174381 0.108857 0.101372 0.026737 0.008304 -0.119297 -0.053790 -0.000221 0.004207 0.019938 0.098541 0.084162 0.127825 0.192639 0.254936 0.176325 0.183827 0.108334 0.137452 0.021049 -0.030848 0.020570 -0.021928 0.001445 -0.006645 0.034236 0.081757 0.052797 0.150448 0.100752 0.163229 0.062339 0.145179 0.093058 -0.011536 -0.062909 -0.014611 -0.037488 -0.074517 -0.067922 0.050239 0.057360 -0.007728 0.047143 0.060873 0.071992 0.143343 0.065502 0.060881 0.046482 -0.027413 0.023455 0.001754 0.011102 0.001946 -0.009169 0.039646 0.060094 0.068587 0.029153 0.044319 0.019210 0.056303 -0.011020 -0.018669 0.020857 0.007415 0.060848 0.033922 0.040538 0.056386 0.041880 0.016139 0.028653 -0.003394 -0.047493 -0.032809 -0.028007 0.023168 0.039217 0.095274 -0.004552 0.052922 0.059780 -0.008786 0.062775 0.009306 0.009319 0.037449 0.052743 0.036225 0.092946 0.054883 0.071182 0.085288 0.063167 0.066038 0.066085 0.083605 0.031049 -0.006455 0.045594 0.040083 0.047688 0.066568 0.086579 0.012566 0.061729 0.071065 0.006825 0.006608 -0.065666 -0.027421 0.108205 0.076476 0.043466 0.036580 -0.019642 0.048703 0.021821 -0.067537 0.049541 0.035968 0.066603 0.031981 0.010196 0.004595 0.059239 0.040931 0.015179 0.036746 -0.037359 0.062571 0.118974 0.005086 -0.009961 -0.001571 -0.005925 -0.038070 -0.018211 -0.056378 -0.002326 -0.092810 -0.022245 -0.035717 0.023599 -0.037994 -0.056147 0.029209 -0.081187 -0.059422 -0.076384 0.048488 0.009786 -0.000441 -0.008046 0.068439 -0.020984 -0.068153 0.055782 -0.003696 0.013586 0.013290 0.199463 -0.018885 0.024208 0.000181 -0.001683 -0.002587 -0.029529 -0.016017 -0.152401 0.022073 -0.036506 -0.012651 0.045637 0.000262 0.120770 0.002846 -0.021614 -0.049030 -0.029699 -0.071824 0.065005 0.273674 0.157758 0.211113 0.231252 0.337290 0.346134 0.343094 0.035108 -1.063074
0.072396 0.072910 0.074452 0.077021 0.080618 0.085240 0.090887 0.097557 0.105248 0.113956 0.123679 0.134411 0.146147 0.158880 0.172602 0.187304 0.202973 0.219596 0.237156 0.255637 0.275015 0.295267 0.316366 0.338279 0.360972 0.384404 0.408533 0.433308 0.458677 0.484578 0.510948 0.537715 0.564802 0.592124 0.619591 0.647105 0.674563 0.701852 0.728854 0.755443 0.781485 0.806842 0.831367 0.854906 0.877299 0.898383 0.917986 0.935933 0.952047 0.966146 0.978047 0.987564 0.994514 0.998716 0.999990 0.998162 0.993064 0.984537 0.972433 0.956614 0.936958 0.913360 0.885733 0.854013 0.818157 0.778151 0.734008 0.685770 0.633514 0.577352 0.517431 0.453938 0.387098 0.317180 0.244492 0.169386 0.092255 0.013535 0.066297 0.146726 0.227200 0.307129 0.385896 0.462856 0.537340 0.608665 0.676135 0.739052 0.796722 0.848461 0.893608 0.931532 0.961638 0.983386 0.996290 0.999937 0.993992 0.978210 0.952445 0.916658 0.870924 0.815441 0.750535 0.676663 0.594418 0.504523 0.407840 0.305359 0.198191 0.087565 0.025185 0.138635 0.251287 0.361584 0.467936 0.568739 0.662403 0.747375 0.822170 0.885400 0.935802 0.972265 0.993864 0.999881 0.989832 0.963490 0.920902 0.862405 0.788633 0.700526 0.599322 0.486557 0.364041 0.233847 0.098271 0.040192 0.178899 0.315099 0.445996 0.568798 0.680782 0.779362 0.862149 0.927015 0.972161 0.996168 0.998054 0.977316 0.933969 0.868565 0.782210 0.676559 0.553803 0.416633 0.268197 0.112038 0.047986 0.207789 0.363157 0.509862 0.643779 0.761003 0.857978 0.931609 0.979374 0.999425 0.990673 0.952851 0.886557 0.793277 0.675368 0.536027 0.379221 0.209588 0.032316 0.147006 0.322560 0.488489 0.639088 0.769014 0.873484 0.948466 0.990853 0.998609 0.970888 0.908106 0.811981 0.685513 0.532919 0.359520 0.171577 0.023922 0.219506 0.407508 0.580359 0.730905 0.852712 0.940362 0.989717 0.998136 0.964647 0.890043 0.776913 0.629590 0.454020 0.257551 0.048653 0.163438 0.369108 0.558816 0.723525 0.855162 0.947032 0.994184 0.993717 0.944985 0.849705 0.711950 0.538023 0.336195 0.116366 0.110420 0.332501 0.538191 0.716421 0.857328 0.952848 0.997200 0.987284 0.922934 0.807016 0.645363 0.446531 0.221390 0.017434 0.256251 0.481073 0.678446 0.836270 0.944567 0.996160 0.987191 0.917460 0.790544 0.613681 0.397416 0.155028 0.098260 0.346207 0.572591 0.762279 0.902278 0.982651 0.997284 0.944409 0.826842 0.651924 0.431123 0.179346 0.086013 0.346272 0.582743 0.778100 0.917681 0.990630 0.990816 0.917404 0.775065 0.573765 0.328152 0.056534 0.220423 0.481259 0.705383 0.874725 0.975240 0.998142 0.940747 0.806849 0.606570 0.355688 0.074461 0.213953 0.485381 0.716668 0.887666 0.983070 0.993842 0.918166 0.761785 0.537666 0.265034 0.032212 0.327549 0.594164 0.807426 0.947190 0.999783 0.959432 0.828996 0.619892 0.351218 0.048088 0.260642 0.545106 0.777307 0.933933 0.998769 0.964479 0.833539 0.618220 0.339546 0.025356 0.292407 0.580933 0.809934 0.954874 0.999696 0.938712 0.777442 0.532261 0.228873 0.100290 0.419476 0.693482 0.891562 0.990967 0.979663 0.857922 0.638552 0.345708 0.012336 0.323431 0.622607 0.849911 0.977989 0.990819 0.885861 0.674637 0.381643 0.041628 0.304415 0.614157 0.849133 0.979587 0.988366 0.873327 0.647914 0.339764 0.012545 0.364208 0.669885 0.889548 0.993834 0.968101 0.814661 0.552806 0.216536 0.149655 0.496649 0.777247 0.952658 0.997974
1.000000 1.000000 1.000000 1.000000 1.000000 1.000000 1.000000 1.000000 1.000000 1.000000 1.000000 1.000000 1.000000 1.000000 1.000000 1.000000 1.000000 1.000000 1.000000 1.000000 1.000000 1.000000 1.000000 1.000000 1.000000 1.000000 1.000000 1.000000 1.000000 1.000000 1.000000 1.000000 1.000000 1.000000 1.000000 1.000000 1.000000 1.000000 1.000000 1.000000 1.000000 1.000000 1.000000 1.000000 1.000000 1.000000 1.000000 1.000000 1.000000 1.000000 1.000000 1.000000 0.921233 0.921233 0.908002 0.908002 0.908002 0.908002 0.908002 0.908002 0.908002 0.908002 0.908002 0.908002 0.908002 0.908002 0.908002 0.908002 0.908002 0.908002 0.908002 0.908002 0.908002 0.908002 0.908002 0.908002 0.908002 0.908002 0.908002 0.908002 0.908002 0.908002 0.908002 0.908002 0.908002 0.908002 0.908002 0.908002 0.908002 0.908002 0.908002 0.908002 0.908002 0.908002 0.908002 0.904966 0.909706 0.911515 0.909912 0.913400 0.913466 0.912786 0.913169 0.912840 0.913160 0.914511 0.924985 0.935977 0.947212 0.947299 0.952420 0.956808 0.959280 0.960230 0.961927 0.968530 0.967205 0.966707 0.967389 0.968840 0.970968 0.969683 0.969272 0.972440 0.973099 0.971488 0.969265 0.968661 0.968064 0.968166 0.967794 0.967681 0.967553 0.968060 0.968262 0.968418 0.968562 0.968613 0.969630 0.970784 0.973151 0.974131 0.973979 0.972898 0.971010 0.975044 0.975945 0.975679 0.975622 0.975146 0.975410 0.961289 0.957394 0.957313 0.954243 0.953307 0.950378 0.948898 0.947072 0.947314 0.946310 0.946230 0.942494 0.928805 0.914910 0.903938 0.924819 0.909401 0.898268 0.873659 0.874090 0.870554 0.871073 0.863523 0.857457 0.852597 0.849805 0.851261 0.847773 0.851657 0.848693 0.835641 0.838659 0.835433 0.807511 0.790081 0.774505 0.775631 0.772850 0.773961 0.773494 0.769408 0.777775 0.769703 0.767942 0.759628 0.740429 0.706780 0.693268 0.703644 0.713313 0.712027 0.708295 0.693132 0.661404 0.673877 0.694464 0.691364 0.693949 0.684969 0.678412 0.681139 0.681698 0.677931 0.670406 0.669529 0.668915 0.677878 0.682325 0.677675 0.667832 0.652945 0.640756 0.627649 0.641878 0.650356 0.618450 0.612697 0.601141 0.594673 0.581148 0.548580 0.549035 0.525954 0.515321 0.519312 0.522203 0.517759 0.526454 0.527666 0.508922 0.530761 0.539034 0.565647 0.545962 0.544121 0.545730 0.553658 0.538047 0.519784 0.514055 0.514946 0.527140 0.557944 0.599499 0.587781 0.575917 0.562926 0.575623 0.549512 0.558171 0.577725 0.555275 0.485065 0.436987 0.434819 0.396258 0.393770 0.384085 0.376398 0.381074 0.372052 0.360338 0.347030 0.334774 0.280357 0.241393 0.222944 0.200157 0.204936 0.216251 0.206333 0.198885 0.227317 0.274401 0.276273 0.267649 0.248840 0.252880 0.223152 0.237448 0.263869 0.219572 0.212984 0.204594 0.178058 0.171039 0.136597 0.157736 0.078498 0.058603 0.058696 0.074057 0.084480 0.080652 0.084135 0.056123 0.077488 0.073254 0.044675 0.034173 0.051112 0.039024 0.006544 0.018156 0.029719 0.017639 0.004760 0.023916 0.035819 0.048788 0.040207 0.038065 0.094354 0.124632 0.111835 0.112725 0.104307 0.113122 0.089228 0.080930 0.069436 0.057811 0.008175 -0.020780 -0.020780 -0.015183 -0.015183 -0.015183 -0.015183 -0.015183 -0.015183 -0.015183 -0.015183 -0.015183 -0.018984 -0.018984 -0.018984 -0.018984 -0.018984 -0.018984 -0.018984 -0.018984 -0.018984 0.006123 0.006123 0.006123 0.006123 0.006123 0.006123 0.006123 0.006123 0.006123
0.000000 0.000000 0.000000 0.000000 0.000000 0.000000 0.000000 0.000000 0.000000 0.000000 0.000000 0.000000 0.000000 0.000000 0.000000 0.000000 0.000000 0.000000 0.000000 0.000000 0.000000 0.000000 0.000000 0.000000 0.000000 0.000000 0.000000 0.000000 0.000000 0.000000 0.000000 0.000000 0.000000 0.000000 0.000000 0.000000 0.000000 0.000000 0.000000 0.000000 0.000000 0.000000 0.000000 0.000000 0.000000 0.000000 0.000000 0.000000 0.000000 0.000000 0.000000 0.000000 0.181818 0.181818 0.199007 0.199007 0.199007 0.199007 0.199007 0.199007 0.199007 0.199007 0.199007 0.199007 0.199007 0.199007 0.199007 0.199007 0.199007 0.199007 0.199007 0.199007 0.199007 0.199007 0.199007 0.199007 0.199007 0.199007 0.199007 0.199007 0.199007 0.199007 0.199007 0.199007 0.199007 0.199007 0.199007 0.199007 0.199007 0.199007 0.199007 0.199007 0.199007 0.199007 0.199007 0.230940 0.230940 0.230940 0.230940 0.230940 0.230940 0.230940 0.230940 0.230940 0.230940 0.230940 0.230940 0.230940 0.230940 0.230940 0.230940 0.230940 0.230940 0.230940 0.230940 0.230940 0.230940 0.230940 0.230940 0.230940 0.230940 0.230940 0.230940 0.244339 0.244339 0.244339 0.244339 0.244339 0.244339 0.244339 0.244339 0.244339 0.244339 0.244339 0.244339 0.244339 0.244339 0.244339 0.244339 0.244339 0.244339 0.244339 0.244339 0.244339 0.244339 0.244339 0.251976 0.251976 0.251976 0.251976 0.251976 0.251976 0.251976 0.251976 0.251976 0.251976 0.251976 0.251976 0.251976 0.251976 0.251976 0.251976 0.251976 0.251976 0.251976 0.251976 0.264906 0.264906 0.264906 0.264906 0.264906 0.264906 0.264906 0.264906 0.264906 0.264906 0.264906 0.264906 0.264906 0.264906 0.264906 0.264906 0.264906 0.264906 0.264906 0.264906 0.264906 0.264906 0.264906 0.264906 0.264906 0.264906 0.264906 0.264906 0.264906 0.264906 0.264906 0.264906 0.264906 0.264906 0.264906 0.264906 0.264906 0.264906 0.264906 0.264906 0.264906 0.264906 0.264906 0.264906 0.264906 0.264906 0.264906 0.264906 0.264906 0.264906 0.264906 0.264906 0.264906 0.264906 0.264906 0.264906 0.264906 0.264906 0.264906 0.264906 0.264906 0.264906 0.264906 0.264906 0.264906 0.264906 0.264906 0.264906 0.264906 0.264906 0.264906 0.264906 0.264906 0.264906 0.264906 0.269680 0.269680 0.269680 0.269680 0.269680 0.269680 0.269680 0.269680 0.269680 0.269680 0.269680 0.269680 0.264906 0.264906 0.264906 0.264906 0.264906 0.264906 0.264906 0.264906 0.264906 0.264906 0.264906 0.264906 0.269680 0.269680 0.269680 0.269680 0.269680 0.269680 0.269680 0.269680 0.269680 0.269680 0.269680 0.264906 0.264906 0.264906 0.264906 0.264906 0.264906 0.264906 0.264906 0.264906 0.264906 0.264906 0.256074 0.256074 0.256074 0.256074 0.256074 0.256074 0.256074 0.256074 0.256074 0.256074 0.256074 0.264906 0.264906 0.264906 0.264906 0.264906 0.264906 0.264906 0.264906 0.264906 0.264906 0.269680 0.269680 0.269680 0.269680 0.269680 0.269680 0.269680 0.269680 0.269680 0.256074 0.256074 0.256074 0.256074 0.256074 0.256074 0.256074 0.256074 0.256074 0.256074 0.260378 0.260378 0.260378 0.260378 0.260378 0.260378 0.260378 0.260378 0.260378 0.256074 0.256074 0.256074 0.256074 0.256074 0.256074 0.256074 0.256074 0.256074 0.251976 0.251976 0.251976 0.251976 0.251976 0.251976 0.251976 0.251976 0.251976 0.264906 0.264906 0.264906 0.264906 0.264906 0.264906 0.264906 0.264906 0.264906
