# Output from CTFFind version 4.1.9, run on 2019-11-01 23:10:53
# Input file: ub_averaged_250.mrc ; Number of micrographs: 1
# Pixel size: 3.000 Angstroms ; acceleration voltage: 300.0 keV ; spherical aberration: 0.00 mm ; amplitude contrast: 0.07
# Box size: 512 pixels ; min. res.: 30.0 Angstroms ; max. res.: 5.0 Angstroms ; min. def.: 5000.0 um; max. def. 50000.0 um; num. frames averaged: 1
# 6 lines per micrograph: #1 - spatial frequency (1/Angstroms); #2 - 1D rotational average of spectrum (assuming no astigmatism); #3 - 1D rotational average of spectrum; #4 - CTF fit; #5 - cross-correlation between spectrum and CTF fit; #6 - 2sigma of expected cross correlation of noise
0.000000 0.000651 0.001302 0.001953 0.002604 0.003255 0.003906 0.004557 0.005208 0.005859 0.006510 0.007161 0.007812 0.008464 0.009115 0.009766 0.010417 0.011068 0.011719 0.012370 0.013021 0.013672 0.014323 0.014974 0.015625 0.016276 0.016927 0.017578 0.018229 0.018880 0.019531 0.020182 0.020833 0.021484 0.022135 0.022786 0.023438 0.024089 0.024740 0.025391 0.026042 0.026693 0.027344 0.027995 0.028646 0.029297 0.029948 0.030599 0.031250 0.031901 0.032552 0.033203 0.033854 0.034505 0.035156 0.035807 0.036458 0.037109 0.037760 0.038411 0.039062 0.039714 0.040365 0.041016 0.041667 0.042318 0.042969 0.043620 0.044271 0.044922 0.045573 0.046224 0.046875 0.047526 0.048177 0.048828 0.049479 0.050130 0.050781 0.051432 0.052083 0.052734 0.053385 0.054036 0.054688 0.055339 0.055990 0.056641 0.057292 0.057943 0.058594 0.059245 0.059896 0.060547 0.061198 0.061849 0.062500 0.063151 0.063802 0.064453 0.065104 0.065755 0.066406 0.067057 0.067708 0.068359 0.069010 0.069661 0.070312 0.070964 0.071615 0.072266 0.072917 0.073568 0.074219 0.074870 0.075521 0.076172 0.076823 0.077474 0.078125 0.078776 0.079427 0.080078 0.080729 0.081380 0.082031 0.082682 0.083333 0.083984 0.084635 0.085286 0.085938 0.086589 0.087240 0.087891 0.088542 0.089193 0.089844 0.090495 0.091146 0.091797 0.092448 0.093099 0.093750 0.094401 0.095052 0.095703 0.096354 0.097005 0.097656 0.098307 0.098958 0.099609 0.100260 0.100911 0.101562 0.102214 0.102865 0.103516 0.104167 0.104818 0.105469 0.106120 0.106771 0.107422 0.108073 0.108724 0.109375 0.110026 0.110677 0.111328 0.111979 0.112630 0.113281 0.113932 0.114583 0.115234 0.115885 0.116536 0.117188 0.117839 0.118490 0.119141 0.119792 0.120443 0.121094 0.121745 0.122396 0.123047 0.123698 0.124349 0.125000 0.125651 0.126302 0.126953 0.127604 0.128255 0.128906 0.129557 0.130208 0.130859 0.131510 0.132161 0.132812 0.133464 0.134115 0.134766 0.135417 0.136068 0.136719 0.137370 0.138021 0.138672 0.139323 0.139974 0.140625 0.141276 0.141927 0.142578 0.143229 0.143880 0.144531 0.145182 0.145833 0.146484 0.147135 0.147786 0.148438 0.149089 0.149740 0.150391 0.151042 0.151693 0.152344 0.152995 0.153646 0.154297 0.154948 0.155599 0.156250 0.156901 0.157552 0.158203 0.158854 0.159505 0.160156 0.160807 0.161458 0.162109 0.162760 0.163411 0.164062 0.164714 0.165365 0.166016 0.166667 0.167318 0.167969 0.168620 0.169271 0.169922 0.170573 0.171224 0.171875 0.172526 0.173177 0.173828 0.174479 0.175130 0.175781 0.176432 0.177083 0.177734 0.178385 0.179036 0.179688 0.180339 0.180990 0.181641 0.182292 0.182943 0.183594 0.184245 0.184896 0.185547 0.186198 0.186849 0.187500 0.188151 0.188802 0.189453 0.190104 0.190755 0.191406 0.192057 0.192708 0.193359 0.194010 0.194661 0.195312 0.195964 0.196615 0.197266 0.197917 0.198568 0.199219 0.199870 0.200521 0.201172 0.201823 0.202474 0.203125 0.203776 0.204427 0.205078 0.205729 0.206380 0.207031 0.207682 0.208333 0.208984 0.209635 0.210286 0.210938 0.211589 0.212240 0.212891 0.213542 0.214193 0.214844 0.215495 0.216146 0.216797 0.217448 0.218099 0.218750 0.219401 0.220052 0.220703 0.221354 0.222005 0.222656 0.223307 0.223958 0.224609 0.225260 0.225911 0.226562 0.227214 0.227865 0.228516 0.229167 0.229818 0.230469 0.231120 0.231771 0.232422 0.233073 0.233724 0.234375 0.235026 0.235677
       0.33211        0.33211        0.33211        0.33211        0.33211        0.33211        0.33211        0.33211        0.33211        0.33211        0.33211        0.33211        0.33211        0.33211        0.33211        0.33211        0.33211        0.33211        0.33211        0.33211        0.33211        0.33211        0.33211        0.33211        0.33211        0.33211        0.33211        0.33211        0.33211        0.33211        0.33211        0.33211        0.33211        0.33211        0.33211        0.33211        0.33211        0.33211        0.33211        0.33211        0.33211        0.33211        0.33211        0.33211        0.33211        0.33211        0.33211        0.33211        0.33211        0.33211        0.33211        0.50288        0.71944        0.42960        0.18829       -0.08177       -0.25988       -0.06779       -0.13461       -0.05073       -0.00451       -0.14875       -0.09051       -0.05703       -0.00610       -0.15421       -0.22321       -0.34885       -0.46018       -0.55372       -0.51389       -0.44403       -0.37033       -0.54441       -0.45216       -0.62213       -0.50410       -0.47423       -0.38936       -0.38883       -0.33957       -0.25339       -0.16154       -0.13950        0.03174       -0.01343        0.11785        0.16426        0.30665        0.41139        0.46142        0.50109        0.54258        0.55050        0.68633        0.64262        0.67474        0.58995        0.55446        0.65191        0.52671        0.42402        0.37986        0.32116        0.22854        0.25953        0.24987        0.10558        0.08068       -0.00023       -0.00384        0.04052       -0.00739        0.07295        0.10433        0.23235        0.28473        0.29828        0.37720        0.56269        0.53268        0.57889        0.66680        0.70353        0.62931        0.63754        0.63175        0.55898        0.57608        0.40224        0.34345        0.26352        0.18321        0.07339        0.14258        0.11868        0.09113        0.10456        0.20837        0.21448        0.31695        0.36228        0.41172        0.49222        0.58232        0.54240        0.55628        0.60480        0.53385        0.45890        0.48326        0.32837        0.24492        0.25967        0.23869        0.14054        0.14168        0.15363        0.21767        0.23919        0.33062        0.36551        0.38950        0.46827        0.44379        0.48252        0.45337        0.46700        0.44796        0.40873        0.38595        0.35080        0.31259        0.29199        0.20406        0.19001        0.21864        0.26750        0.26649        0.34859        0.37339        0.35681        0.41126        0.44750        0.44147        0.42561        0.44358        0.38124        0.33462        0.28289        0.25938        0.29233        0.26745        0.29252        0.29968        0.34395        0.34219        0.39166        0.40326        0.42964        0.40746        0.43391        0.40148        0.35780        0.28041        0.29140        0.30653        0.26891        0.25253        0.32053        0.36906        0.34140        0.35165        0.35898        0.35761        0.40973        0.40631        0.36425        0.33760        0.30429        0.31153        0.31792        0.31921        0.30019        0.28043        0.33614        0.36012        0.37904        0.33280        0.32917        0.33569        0.34464        0.30878        0.28368        0.30212        0.30926        0.33894        0.31678        0.32480        0.35823        0.32652        0.31315        0.32462        0.29962        0.26489        0.25490        0.26693        0.30891        0.32141        0.35341        0.30301        0.30832        0.32876        0.29421        0.31374        0.28352        0.28342        0.29211        0.29461        0.30624        0.34357        0.33287        0.33233        0.34071        0.31290        0.33699        0.32072        0.31940        0.30699        0.28086        0.29070        0.30545        0.29264        0.32480        0.33316        0.33280        0.32754        0.34185        0.32051        0.28126        0.24766        0.26492        0.32778        0.35243        0.33876        0.31047        0.29004        0.29461        0.31064        0.25120        0.29998        0.31151        0.34125        0.29813        0.30911        0.28446        0.33510        0.33641        0.33961        0.31318        0.29137        0.31746        0.39891        0.32373        0.30933        0.31572        0.28350        0.28112        0.30503        0.27352        0.32231        0.23310        0.26927        0.29661        0.31256        0.29432        0.26106        0.29228        0.23977        0.22101        0.26503        0.29697        0.30835        0.27025        0.28043        0.33082        0.26296        0.22313        0.30128        0.27034        0.26129        0.28470        0.38654        0.29294        0.28561        0.24969        0.24671        0.27113        0.25293        0.23857        0.18085        0.26519        0.23251        0.24358        0.31698        0.25881        0.35842        0.30674        0.22551        0.21623        0.21106        0.23452        0.32573        0.23795        0.13774        0.17241        0.23004        0.24638        0.25986        0.21886        0.02130       -0.46380       -0.94553
2.702914 2.674335 2.645910 2.617637 2.589519 2.561553 2.533741 2.506083 2.478578 2.451226 2.424028 2.396983 2.370091 2.343353 2.316768 2.290337 2.264059 2.237935 2.211964 2.186146 2.160482 2.134971 2.109614 2.084410 2.059360 2.034463 2.009719 1.985129 1.960692 1.936408 1.912278 1.888302 1.864479 1.840809 1.817293 1.793930 1.770720 1.747664 1.724761 1.702012 1.679416 1.656974 1.634685 1.612549 1.590567 1.568738 1.547063 1.525541 1.504172 1.482957 1.461896 1.533227 1.837101 1.532899 1.160243 0.941472 0.548180 0.915507 0.632918 0.879604 0.927349 0.589383 0.715675 0.773477 0.817867 0.629585 0.534986 0.345453 0.103668 0.082745 0.047140 0.088219 0.303712 -0.035985 0.079298 -0.137993 -0.015045 -0.018165 0.084192 0.052180 0.103245 0.172265 0.280446 0.246841 0.481574 0.395842 0.548775 0.523527 0.768872 0.794346 0.879530 0.927564 0.944373 0.948191 1.103456 0.951232 1.141107 0.944970 0.853332 1.016090 0.848972 0.755499 0.615265 0.593947 0.460894 0.410609 0.509260 0.264289 0.192743 0.153988 0.013969 0.213942 -0.005795 0.113107 0.184298 0.261492 0.333768 0.342168 0.421886 0.544144 0.657962 0.542154 0.736098 0.874915 0.641696 0.698086 0.668948 0.598929 0.537868 0.472372 0.297511 0.212201 0.113550 -0.042993 -0.023075 0.056111 -0.101208 -0.059716 0.048035 0.052073 0.109659 0.224235 0.238860 0.309870 0.434521 0.438830 0.437419 0.483460 0.441169 0.318587 0.338087 0.246280 0.042022 0.061327 0.019776 -0.061105 -0.096757 -0.105525 -0.014737 -0.063559 0.066856 0.124926 0.123592 0.255725 0.223788 0.242065 0.291124 0.254008 0.244685 0.209136 0.180770 0.106863 0.101212 0.030879 0.012511 -0.127155 -0.059030 -0.001364 0.002411 0.014543 0.097569 0.082207 0.136242 0.175622 0.253249 0.167243 0.192020 0.113494 0.146618 0.014401 -0.029751 0.016142 -0.017604 -0.008800 -0.005124 0.031203 0.074448 0.057145 0.138589 0.118988 0.160267 0.064983 0.150257 0.085981 -0.016224 -0.060093 -0.016514 -0.035339 -0.081248 -0.067654 0.040530 0.065260 -0.010113 0.053563 0.056810 0.073930 0.147183 0.074705 0.064675 0.039730 -0.027662 0.027714 0.005505 0.012216 0.003309 -0.014599 0.035288 0.069992 0.072724 0.029387 0.045704 0.019530 0.062306 -0.009919 -0.019129 0.016021 0.006743 0.064589 0.028299 0.036690 0.075493 0.025379 0.014588 0.030710 -0.004476 -0.042107 -0.027781 -0.028168 0.027446 0.044710 0.096861 0.000389 0.049679 0.063422 -0.003437 0.063720 0.016124 0.018882 0.044409 0.049655 0.043728 0.102504 0.067701 0.078140 0.085096 0.083093 0.073669 0.069830 0.084685 0.031807 -0.001616 0.044835 0.033283 0.059479 0.063549 0.091321 0.000076 0.070543 0.070172 0.008573 0.012791 -0.075551 -0.028840 0.102912 0.068799 0.042816 0.024863 -0.017652 0.032815 0.017737 -0.064598 0.043596 0.046704 0.074026 0.026707 0.002737 -0.000615 0.055627 0.041770 0.019569 0.032146 -0.033833 0.065328 0.119946 0.007071 -0.009134 0.011309 -0.016234 -0.036517 -0.009218 -0.049397 0.017466 -0.100676 -0.027017 -0.029689 0.021677 -0.031718 -0.040448 -0.010869 -0.072915 -0.062445 -0.056933 0.039860 0.013934 -0.002038 -0.002604 0.090367 -0.042051 -0.036304 0.040659 -0.007796 0.029590 0.015531 0.191140 -0.005223 0.019298 0.027329 -0.016012 0.002023 -0.003248 -0.012014 -0.138063 0.032545 -0.030336 0.002594 0.045128 -0.017237 0.154917 0.041827 -0.033223 -0.055903 -0.025873 -0.069175 0.099580 0.285322 0.162883 0.220183 0.217401 0.342454 0.292597 0.257282 0.027838 -1.113190
0.072396 0.072910 0.074451 0.077018 0.080612 0.085231 0.090874 0.097539 0.105224 0.113926 0.123642 0.134366 0.146094 0.158819 0.172531 0.187222 0.202880 0.219492 0.237040 0.255508 0.274873 0.295112 0.316197 0.338095 0.360774 0.384192 0.408305 0.433066 0.458420 0.484307 0.510663 0.537417 0.564490 0.591800 0.619256 0.646761 0.674210 0.701492 0.728489 0.755075 0.781117 0.806476 0.831005 0.854552 0.876956 0.898054 0.917676 0.935646 0.951787 0.965918 0.977854 0.987413 0.994410 0.998663 0.999994 0.998229 0.993199 0.984747 0.972721 0.956987 0.937421 0.913918 0.886390 0.854773 0.819025 0.779129 0.735098 0.686974 0.634833 0.578785 0.518976 0.455593 0.388860 0.319043 0.246450 0.171430 0.094376 0.015722 0.064058 0.144450 0.224901 0.304826 0.383608 0.460603 0.535144 0.606549 0.674123 0.737169 0.794993 0.846911 0.892264 0.930417 0.960778 0.982802 0.996004 0.999969 0.994358 0.978925 0.953519 0.918096 0.872730 0.817612 0.753065 0.679539 0.597620 0.508029 0.411620 0.309376 0.202405 0.091929 0.020724 0.134134 0.246807 0.357190 0.463695 0.564722 0.658677 0.744011 0.819236 0.882961 0.933917 0.970988 0.993242 0.999951 0.990623 0.965017 0.923168 0.865400 0.792334 0.704892 0.604300 0.492076 0.370019 0.240183 0.104858 0.033476 0.172185 0.308524 0.439700 0.562923 0.675470 0.774748 0.858358 0.924161 0.970341 0.995460 0.998513 0.978973 0.936825 0.872593 0.787352 0.682727 0.560877 0.424464 0.276613 0.120837 0.039021 0.198889 0.354564 0.501820 0.636526 0.754767 0.852967 0.928003 0.977322 0.999035 0.992007 0.955921 0.891324 0.799646 0.683189 0.545099 0.389293 0.220366 0.043472 0.135826 0.311728 0.478376 0.630058 0.761407 0.867604 0.944569 0.989131 0.999184 0.973802 0.913318 0.819362 0.694845 0.543901 0.371780 0.184677 0.010471 0.206224 0.394927 0.569002 0.721263 0.845226 0.935397 0.987545 0.998921 0.968429 0.896736 0.786298 0.641323 0.467638 0.272494 0.064276 0.147828 0.354235 0.545385 0.712204 0.846537 0.941579 0.992243 0.995465 0.950423 0.858650 0.724036 0.552712 0.352799 0.134072 0.092502 0.315306 0.522647 0.703390 0.847569 0.946964 0.995599 0.990150 0.930205 0.818381 0.660268 0.464201 0.240867 0.002756 0.236515 0.462968 0.663086 0.824635 0.937443 0.994076 0.990381 0.925837 0.803690 0.630865 0.417629 0.177033 0.075849 0.324842 0.553697 0.747162 0.892019 0.978039 0.998745 0.951962 0.840090 0.670056 0.452967 0.203439 0.061346 0.322780 0.562147 0.761954 0.907248 0.986794 0.993985 0.927474 0.791406 0.595256 0.353238 0.083350 0.193927 0.457168 0.685640 0.860974 0.968694 0.999459 0.949964 0.823356 0.629139 0.382556 0.103462 0.185216 0.459352 0.695611 0.873479 0.977097 0.996749 0.929853 0.781371 0.563552 0.295010 0.000777 0.297478 0.568230 0.788082 0.936336 0.998577 0.968149 0.846979 0.645588 0.382297 0.081650 0.227814 0.516223 0.755271 0.921035 0.996443 0.973128 0.852471 0.645678 0.372868 0.061221 0.257674 0.550962 0.787936 0.943292 0.999923 0.950911 0.800490 0.563842 0.265689 0.062184 0.384251 0.665079 0.873249 0.984952 0.986811 0.877625 0.668755 0.383100 0.052714 0.284710 0.590095 0.827523 0.968520 0.995587 0.904508 0.705127 0.420459 0.084169 0.263301 0.579557 0.825426 0.969886 0.994087 0.893974 0.681087 0.381413 0.032367 0.321780 0.635476 0.867754 0.987692 0.978642 0.840726 0.591129 0.262170 0.102773 0.454856 0.746301 0.936952 0.999882
1.000000 1.000000 1.000000 1.000000 1.000000 1.000000 1.000000 1.000000 1.000000 1.000000 1.000000 1.000000 1.000000 1.000000 1.000000 1.000000 1.000000 1.000000 1.000000 1.000000 1.000000 1.000000 1.000000 1.000000 1.000000 1.000000 1.000000 1.000000 1.000000 1.000000 1.000000 1.000000 1.000000 1.000000 1.000000 1.000000 1.000000 1.000000 1.000000 1.000000 1.000000 1.000000 1.000000 1.000000 1.000000 1.000000 1.000000 1.000000 1.000000 1.000000 1.000000 1.000000 0.920539 0.920539 0.907220 0.907220 0.907220 0.907220 0.907220 0.907220 0.907220 0.907220 0.907220 0.907220 0.907220 0.907220 0.907220 0.907220 0.907220 0.907220 0.907220 0.907220 0.907220 0.907220 0.907220 0.907220 0.907220 0.907220 0.907220 0.907220 0.907220 0.907220 0.907220 0.907220 0.907220 0.907220 0.907220 0.907220 0.907220 0.907220 0.907220 0.907220 0.907220 0.907220 0.907220 0.904349 0.908882 0.910702 0.908940 0.912496 0.912583 0.911891 0.912227 0.911858 0.912137 0.913487 0.924036 0.935124 0.946467 0.946565 0.951636 0.956117 0.958449 0.959490 0.961058 0.967307 0.966094 0.965538 0.966256 0.967861 0.970110 0.968659 0.968481 0.971604 0.972339 0.970556 0.968528 0.967903 0.967275 0.967348 0.966933 0.966828 0.966731 0.967228 0.967452 0.967674 0.967812 0.967842 0.968866 0.970020 0.972248 0.973205 0.972978 0.971765 0.969687 0.973728 0.974539 0.974188 0.974077 0.973536 0.973844 0.961859 0.955470 0.955421 0.951222 0.950401 0.947749 0.945770 0.942796 0.942846 0.942269 0.942908 0.938362 0.925741 0.911775 0.899864 0.921760 0.906405 0.894281 0.871733 0.871467 0.871216 0.871880 0.865447 0.858826 0.854685 0.851609 0.852807 0.848919 0.851595 0.849350 0.838908 0.841282 0.839493 0.812625 0.796412 0.778242 0.779122 0.776818 0.778189 0.777937 0.776532 0.784620 0.774875 0.773393 0.765702 0.747355 0.710688 0.694139 0.704222 0.713842 0.711170 0.707663 0.692416 0.660971 0.672803 0.693614 0.694360 0.697542 0.688053 0.679438 0.677988 0.682551 0.671754 0.662691 0.661624 0.659989 0.669025 0.673075 0.670780 0.658697 0.642615 0.629173 0.616188 0.628108 0.635639 0.602498 0.596959 0.581591 0.573384 0.559824 0.537743 0.536194 0.510900 0.502193 0.507417 0.513021 0.515277 0.523960 0.525802 0.506609 0.524603 0.535395 0.560107 0.539439 0.538800 0.539498 0.544730 0.532079 0.514555 0.512015 0.512813 0.522619 0.547642 0.587334 0.577055 0.563475 0.551577 0.559063 0.531984 0.536535 0.554909 0.532090 0.473452 0.413956 0.411346 0.373429 0.375519 0.355838 0.352716 0.357468 0.348186 0.337857 0.324937 0.311351 0.252527 0.212634 0.196441 0.180317 0.182677 0.196510 0.195090 0.190352 0.208305 0.256259 0.259064 0.251528 0.241373 0.231944 0.199214 0.199367 0.218974 0.173864 0.162779 0.154781 0.129509 0.112575 0.059790 0.088087 -0.006691 -0.027912 -0.032089 -0.012295 0.000089 -0.001372 0.001238 -0.032541 -0.016001 0.026180 0.029835 0.018459 -0.051498 -0.037448 -0.027565 -0.026975 -0.045157 -0.056649 -0.058355 -0.070471 -0.073074 -0.056767 0.015499 0.071789 0.073800 0.052396 0.082206 0.078734 0.062839 0.077606 0.058751 0.057499 0.038014 0.030166 -0.013847 -0.046049 -0.046049 -0.043631 -0.043631 -0.043631 -0.043631 -0.043631 -0.043631 -0.043631 -0.043631 -0.043631 -0.046692 -0.046692 -0.046692 -0.046692 -0.046692 -0.046692 -0.046692 -0.046692 -0.046692 -0.016416 -0.016416 -0.016416 -0.016416 -0.016416 -0.016416 -0.016416 -0.016416 -0.016416
0.000000 0.000000 0.000000 0.000000 0.000000 0.000000 0.000000 0.000000 0.000000 0.000000 0.000000 0.000000 0.000000 0.000000 0.000000 0.000000 0.000000 0.000000 0.000000 0.000000 0.000000 0.000000 0.000000 0.000000 0.000000 0.000000 0.000000 0.000000 0.000000 0.000000 0.000000 0.000000 0.000000 0.000000 0.000000 0.000000 0.000000 0.000000 0.000000 0.000000 0.000000 0.000000 0.000000 0.000000 0.000000 0.000000 0.000000 0.000000 0.000000 0.000000 0.000000 0.000000 0.181818 0.181818 0.199007 0.199007 0.199007 0.199007 0.199007 0.199007 0.199007 0.199007 0.199007 0.199007 0.199007 0.199007 0.199007 0.199007 0.199007 0.199007 0.199007 0.199007 0.199007 0.199007 0.199007 0.199007 0.199007 0.199007 0.199007 0.199007 0.199007 0.199007 0.199007 0.199007 0.199007 0.199007 0.199007 0.199007 0.199007 0.199007 0.199007 0.199007 0.199007 0.199007 0.199007 0.230940 0.230940 0.230940 0.230940 0.230940 0.230940 0.230940 0.230940 0.230940 0.230940 0.230940 0.230940 0.230940 0.230940 0.230940 0.230940 0.230940 0.230940 0.230940 0.230940 0.230940 0.230940 0.230940 0.230940 0.230940 0.230940 0.230940 0.230940 0.244339 0.244339 0.244339 0.244339 0.244339 0.244339 0.244339 0.244339 0.244339 0.244339 0.244339 0.244339 0.244339 0.244339 0.244339 0.244339 0.244339 0.244339 0.244339 0.244339 0.244339 0.244339 0.244339 0.251976 0.251976 0.251976 0.251976 0.251976 0.251976 0.251976 0.251976 0.251976 0.251976 0.251976 0.251976 0.251976 0.251976 0.251976 0.251976 0.251976 0.251976 0.251976 0.251976 0.264906 0.264906 0.264906 0.264906 0.264906 0.264906 0.264906 0.264906 0.264906 0.264906 0.264906 0.264906 0.264906 0.264906 0.264906 0.264906 0.264906 0.264906 0.264906 0.264906 0.264906 0.264906 0.264906 0.264906 0.264906 0.264906 0.264906 0.264906 0.264906 0.264906 0.264906 0.264906 0.264906 0.264906 0.264906 0.264906 0.264906 0.264906 0.264906 0.264906 0.264906 0.264906 0.264906 0.264906 0.264906 0.264906 0.264906 0.264906 0.264906 0.264906 0.264906 0.264906 0.264906 0.264906 0.264906 0.264906 0.264906 0.264906 0.264906 0.264906 0.264906 0.264906 0.264906 0.264906 0.264906 0.264906 0.264906 0.264906 0.264906 0.264906 0.264906 0.264906 0.264906 0.264906 0.264906 0.269680 0.269680 0.269680 0.269680 0.269680 0.269680 0.269680 0.269680 0.269680 0.269680 0.269680 0.269680 0.264906 0.264906 0.264906 0.264906 0.264906 0.264906 0.264906 0.264906 0.264906 0.264906 0.264906 0.264906 0.269680 0.269680 0.269680 0.269680 0.269680 0.269680 0.269680 0.269680 0.269680 0.269680 0.269680 0.264906 0.264906 0.264906 0.264906 0.264906 0.264906 0.264906 0.264906 0.264906 0.264906 0.264906 0.256074 0.256074 0.256074 0.256074 0.256074 0.256074 0.256074 0.256074 0.256074 0.256074 0.256074 0.264906 0.264906 0.264906 0.264906 0.264906 0.264906 0.264906 0.264906 0.264906 0.264906 0.260378 0.260378 0.260378 0.260378 0.260378 0.260378 0.260378 0.260378 0.260378 0.260378 0.264906 0.264906 0.264906 0.264906 0.264906 0.264906 0.264906 0.264906 0.264906 0.260378 0.260378 0.260378 0.260378 0.260378 0.260378 0.260378 0.260378 0.260378 0.256074 0.256074 0.256074 0.256074 0.256074 0.256074 0.256074 0.256074 0.256074 0.251976 0.251976 0.251976 0.251976 0.251976 0.251976 0.251976 0.251976 0.251976 0.264906 0.264906 0.264906 0.264906 0.264906 0.264906 0.264906 0.264906 0.264906
