# Output from CTFFind version 4.1.9, run on 2019-10-31 15:30:40
# Input file: ub_stacked.mrc ; Number of micrographs: 1
# Pixel size: 1.500 Angstroms ; acceleration voltage: 300.0 keV ; spherical aberration: 0.00 mm ; amplitude contrast: 0.07
# Box size: 512 pixels ; min. res.: 30.0 Angstroms ; max. res.: 5.0 Angstroms ; min. def.: 5000.0 um; max. def. 50000.0 um; num. frames averaged: 50
# 6 lines per micrograph: #1 - spatial frequency (1/Angstroms); #2 - 1D rotational average of spectrum (assuming no astigmatism); #3 - 1D rotational average of spectrum; #4 - CTF fit; #5 - cross-correlation between spectrum and CTF fit; #6 - 2sigma of expected cross correlation of noise
0.000000 0.001302 0.002604 0.003906 0.005208 0.006510 0.007812 0.009115 0.010417 0.011719 0.013021 0.014323 0.015625 0.016927 0.018229 0.019531 0.020833 0.022135 0.023438 0.024740 0.026042 0.027344 0.028646 0.029948 0.031250 0.032552 0.033854 0.035156 0.036458 0.037760 0.039062 0.040365 0.041667 0.042969 0.044271 0.045573 0.046875 0.048177 0.049479 0.050781 0.052083 0.053385 0.054688 0.055990 0.057292 0.058594 0.059896 0.061198 0.062500 0.063802 0.065104 0.066406 0.067708 0.069010 0.070312 0.071615 0.072917 0.074219 0.075521 0.076823 0.078125 0.079427 0.080729 0.082031 0.083333 0.084635 0.085938 0.087240 0.088542 0.089844 0.091146 0.092448 0.093750 0.095052 0.096354 0.097656 0.098958 0.100260 0.101562 0.102865 0.104167 0.105469 0.106771 0.108073 0.109375 0.110677 0.111979 0.113281 0.114583 0.115885 0.117188 0.118490 0.119792 0.121094 0.122396 0.123698 0.125000 0.126302 0.127604 0.128906 0.130208 0.131510 0.132812 0.134115 0.135417 0.136719 0.138021 0.139323 0.140625 0.141927 0.143229 0.144531 0.145833 0.147135 0.148438 0.149740 0.151042 0.152344 0.153646 0.154948 0.156250 0.157552 0.158854 0.160156 0.161458 0.162760 0.164062 0.165365 0.166667 0.167969 0.169271 0.170573 0.171875 0.173177 0.174479 0.175781 0.177083 0.178385 0.179688 0.180990 0.182292 0.183594 0.184896 0.186198 0.187500 0.188802 0.190104 0.191406 0.192708 0.194010 0.195312 0.196615 0.197917 0.199219 0.200521 0.201823 0.203125 0.204427 0.205729 0.207031 0.208333 0.209635 0.210938 0.212240 0.213542 0.214844 0.216146 0.217448 0.218750 0.220052 0.221354 0.222656 0.223958 0.225260 0.226562 0.227865 0.229167 0.230469 0.231771 0.233073 0.234375 0.235677 0.236979 0.238281 0.239583 0.240885 0.242188 0.243490 0.244792 0.246094 0.247396 0.248698 0.250000 0.251302 0.252604 0.253906 0.255208 0.256510 0.257812 0.259115 0.260417 0.261719 0.263021 0.264323 0.265625 0.266927 0.268229 0.269531 0.270833 0.272135 0.273438 0.274740 0.276042 0.277344 0.278646 0.279948 0.281250 0.282552 0.283854 0.285156 0.286458 0.287760 0.289062 0.290365 0.291667 0.292969 0.294271 0.295573 0.296875 0.298177 0.299479 0.300781 0.302083 0.303385 0.304688 0.305990 0.307292 0.308594 0.309896 0.311198 0.312500 0.313802 0.315104 0.316406 0.317708 0.319010 0.320312 0.321615 0.322917 0.324219 0.325521 0.326823 0.328125 0.329427 0.330729 0.332031 0.333333 0.334635 0.335938 0.337240 0.338542 0.339844 0.341146 0.342448 0.343750 0.345052 0.346354 0.347656 0.348958 0.350260 0.351562 0.352865 0.354167 0.355469 0.356771 0.358073 0.359375 0.360677 0.361979 0.363281 0.364583 0.365885 0.367188 0.368490 0.369792 0.371094 0.372396 0.373698 0.375000 0.376302 0.377604 0.378906 0.380208 0.381510 0.382812 0.384115 0.385417 0.386719 0.388021 0.389323 0.390625 0.391927 0.393229 0.394531 0.395833 0.397135 0.398438 0.399740 0.401042 0.402344 0.403646 0.404948 0.406250 0.407552 0.408854 0.410156 0.411458 0.412760 0.414062 0.415365 0.416667 0.417969 0.419271 0.420573 0.421875 0.423177 0.424479 0.425781 0.427083 0.428385 0.429688 0.430990 0.432292 0.433594 0.434896 0.436198 0.437500 0.438802 0.440104 0.441406 0.442708 0.444010 0.445312 0.446615 0.447917 0.449219 0.450521 0.451823 0.453125 0.454427 0.455729 0.457031 0.458333 0.459635 0.460938 0.462240 0.463542 0.464844 0.466146 0.467448 0.468750 0.470052 0.471354
       0.02645        0.02645        0.02645        0.02645        0.02645        0.02645        0.02645        0.02645        0.02645        0.02645        0.02645        0.02645        0.02645        0.02645        0.02645        0.02645        0.02645        0.02645        0.02645        0.02645        0.02645        0.02645        0.02645        0.02645        0.02645        0.14789        0.70979        0.16711       -1.09643       -1.97721       -2.26252       -1.64522       -1.12953       -0.13553        0.25275        1.02645        1.65503        1.63636        1.81815        1.51603        0.94061        0.04376       -0.39449       -0.73519       -0.87192       -0.76982       -0.34391        0.05688        0.17759        0.31295        0.49765        0.60683        0.26007        0.04960       -0.13615       -0.33456       -0.43440       -0.18766       -0.20319       -0.07758       -0.00365       -0.10051       -0.01153        0.03901        0.10295       -0.01747       -0.06567       -0.17096       -0.26429       -0.35714       -0.31356       -0.25266       -0.18767       -0.36003       -0.27566       -0.46650       -0.38320       -0.38125       -0.32877       -0.35879       -0.33237       -0.26856       -0.19562       -0.19271       -0.05101       -0.11606       -0.01313        0.02114        0.14015        0.21064        0.24279        0.26806        0.30887        0.29906        0.42204        0.37580        0.38504        0.28667        0.25257        0.33672        0.20258        0.08867        0.04811       -0.00882       -0.10637       -0.07022       -0.08999       -0.23587       -0.26252       -0.34161       -0.33446       -0.28550       -0.32451       -0.23035       -0.20367       -0.07534       -0.02724        0.01669        0.08326        0.25698        0.24101        0.27801        0.37226        0.39188        0.32460        0.32687        0.31185        0.23644        0.24534        0.06383        0.01459       -0.07165       -0.15830       -0.25419       -0.19308       -0.21673       -0.25316       -0.23209       -0.13002       -0.11396       -0.00677        0.03096        0.08649        0.17985        0.26036        0.21527        0.22827        0.27725        0.22609        0.16330        0.16768        0.02388       -0.04645       -0.04704       -0.06157       -0.16033       -0.15353       -0.14433       -0.08901       -0.06020        0.01137        0.04876        0.06003        0.13659        0.12439        0.16390        0.14155        0.14535        0.11805        0.08740        0.06423        0.03633        0.00494       -0.01946       -0.09529       -0.10090       -0.08357       -0.03931       -0.03178        0.03948        0.05800        0.03663        0.08267        0.13497        0.12454        0.09248        0.10279        0.05126        0.02846       -0.00897       -0.03817       -0.01360       -0.03541       -0.01647       -0.01229        0.02767        0.02704        0.08779        0.08334        0.09116        0.07380        0.08587        0.05985        0.02987       -0.02159       -0.00549        0.00593       -0.02191       -0.04933        0.01662        0.05229        0.02804        0.04168        0.04688        0.03153        0.07649        0.07051        0.03017        0.02367        0.01283        0.01556        0.01174        0.00978        0.00454       -0.01111        0.02413        0.04312        0.05662        0.02340        0.01152        0.01817        0.03679        0.00772       -0.01315        0.00971        0.02601        0.04050        0.01664        0.02433        0.04235        0.02055        0.01471        0.04078        0.01942       -0.00219       -0.00856       -0.01337        0.00027        0.01808        0.03585        0.02281        0.02095        0.03478        0.01888        0.01172        0.00271        0.00765        0.01848        0.00865        0.00952        0.04112        0.02111        0.03877        0.03808        0.02442        0.02766        0.02239        0.02419        0.02191       -0.00173       -0.00140        0.04345        0.00654        0.01898        0.03599        0.02606        0.02830        0.01253        0.03093        0.00377       -0.00552       -0.01533        0.01057        0.03223        0.03694        0.01094        0.01734        0.01385        0.01536        0.00009        0.02403        0.00330        0.01382        0.01406        0.01968        0.00164        0.02230        0.02959        0.03810        0.02269        0.01388        0.03207        0.06536        0.00239        0.03002        0.03502        0.00185        0.01484        0.01693        0.01076        0.00600       -0.00988        0.01962       -0.00318       -0.00302        0.01407        0.00318        0.01960        0.01126       -0.00352       -0.01021        0.02462        0.02782        0.04395       -0.01291        0.01445       -0.00097        0.00026        0.04115        0.02701        0.00968       -0.00437        0.03836        0.03624        0.00874        0.00904        0.00751        0.00621        0.01965        0.00583       -0.01013        0.02630       -0.00786       -0.02789        0.00904       -0.02226        0.02747        0.03521        0.04131        0.03296        0.00003        0.05331        0.05774        0.00160       -0.00868       -0.05245       -0.07177        0.00871        0.12311        0.04375       -0.05445       -0.21953       -0.45045
-0.052327 0.546517 0.548246 0.549935 0.551586 0.553197 0.554770 0.556303 0.557797 0.559252 0.560669 0.562046 0.563384 0.564683 0.565943 0.567163 0.568345 0.569488 0.570592 0.571656 0.572682 0.573668 0.574616 0.575524 0.576394 0.577224 2.059497 0.746192 -0.984149 -2.907943 -3.385912 -2.142797 -1.654106 0.313527 0.842851 1.999860 3.552235 3.365483 3.422490 3.341737 2.202241 0.645962 -0.036889 -0.602902 -1.022698 -0.830566 -0.133371 0.692716 0.796907 0.839724 1.339095 1.733227 0.948356 0.878486 0.319990 0.056118 -0.331106 0.305488 0.031005 0.473762 0.606510 0.248306 0.499549 0.637746 0.742717 0.554730 0.481321 0.267027 -0.016459 -0.018296 -0.038065 0.042830 0.339391 -0.104822 0.068547 -0.246896 -0.106435 -0.140225 -0.027436 -0.087572 -0.046719 0.047664 0.188684 0.134602 0.429707 0.294368 0.499855 0.445347 0.788388 0.790030 0.877662 0.953958 1.017478 0.969614 1.192589 1.094749 1.210677 0.977578 0.866898 1.080378 0.842988 0.719742 0.525148 0.529137 0.323289 0.303191 0.428620 0.094661 0.024161 -0.044749 -0.200139 0.097221 -0.170911 0.019060 0.150683 0.249520 0.359007 0.443258 0.551778 0.727357 0.908168 0.762161 1.100017 1.069135 0.961283 0.986147 0.936862 0.851880 0.785407 0.653870 0.441978 0.323027 0.179181 -0.019864 0.014546 0.125608 -0.092801 -0.022128 0.119127 0.167872 0.274604 0.408189 0.456335 0.572619 0.772713 0.775221 0.705223 0.731016 0.769401 0.624588 0.594823 0.492103 0.241370 0.240270 0.185037 0.090110 0.031068 0.020910 0.165900 0.079537 0.259628 0.352911 0.301358 0.478510 0.459432 0.473897 0.580897 0.464380 0.458090 0.426013 0.381235 0.286780 0.288964 0.192537 0.151604 0.002867 0.081922 0.150007 0.143527 0.202940 0.261507 0.253156 0.313513 0.326109 0.397108 0.337287 0.266220 0.200350 0.241454 0.132014 0.033378 0.096809 0.029262 0.067004 0.051901 0.092307 0.107293 0.152216 0.266951 0.171645 0.230560 0.180807 0.199659 0.139112 0.054122 -0.017533 0.067191 0.036614 -0.017948 -0.044436 0.102836 0.132895 0.044437 0.115261 0.083787 0.070835 0.190284 0.060340 0.037330 0.054205 0.011226 0.016335 -0.005411 0.013257 -0.006723 -0.023399 0.036838 0.056429 0.063016 -0.013285 0.024313 0.015491 0.054650 -0.006047 -0.025932 0.005999 0.037128 0.040371 0.015067 0.053863 0.030342 0.013991 -0.014960 0.038110 -0.033652 -0.028051 -0.033153 -0.078180 -0.030261 -0.007856 0.058014 -0.029607 0.008201 0.008934 -0.014179 -0.011886 -0.031430 -0.023424 -0.008525 -0.029875 -0.022362 0.045126 -0.033315 0.043931 0.002714 0.019387 -0.014056 -0.010780 0.025895 -0.035969 -0.072628 -0.019681 0.034105 -0.043531 -0.002369 0.020492 -0.006340 -0.001186 0.010512 -0.026495 -0.034075 -0.098528 -0.051040 0.000660 0.000978 0.014082 -0.014673 -0.041641 -0.007186 0.028235 -0.047538 0.069400 -0.047852 0.045624 0.005399 0.014720 -0.013185 0.033939 0.039560 0.094253 0.048679 0.000991 0.105676 0.102582 -0.011280 0.078793 0.057740 0.013534 0.018430 0.003865 -0.000271 0.001086 -0.085102 0.051842 -0.061507 -0.012955 0.004797 -0.031380 0.019350 -0.002769 -0.045608 -0.060285 0.005631 0.014989 0.057884 -0.082847 0.030235 -0.068285 -0.062013 0.098363 -0.038491 0.007553 -0.059999 0.058219 0.011079 -0.046587 0.008415 -0.028000 -0.024770 0.048445 -0.022995 -0.051031 0.060689 -0.064045 -0.054595 -0.010266 -0.032929 0.081063 0.016873 0.058605 0.043647 -0.017058 0.055471 0.144082 -0.020481 -0.082891 -0.046002 -0.177659 0.060468 0.254107 0.056245 -0.091458 -0.754224
0.072396 0.072903 0.074423 0.076957 0.080503 0.085061 0.090630 0.097207 0.104791 0.113379 0.122967 0.133551 0.145125 0.157684 0.171218 0.185719 0.201175 0.217574 0.234899 0.253134 0.272257 0.292245 0.313072 0.334707 0.357117 0.380264 0.404104 0.428592 0.453675 0.479295 0.505391 0.531893 0.558728 0.585814 0.613064 0.640384 0.667674 0.694826 0.721726 0.748253 0.774277 0.799664 0.824272 0.847953 0.870553 0.891911 0.911863 0.930238 0.946864 0.961562 0.974154 0.984460 0.992300 0.997494 0.999865 0.999241 0.995456 0.988351 0.977774 0.963587 0.945664 0.923896 0.898189 0.868470 0.834688 0.796817 0.754857 0.708836 0.658813 0.604881 0.547169 0.485839 0.421093 0.353175 0.282364 0.208984 0.133400 0.056016 0.022723 0.102332 0.182290 0.262039 0.340990 0.418526 0.494005 0.566766 0.636134 0.701425 0.761956 0.817052 0.866050 0.908311 0.943232 0.970246 0.988843 0.998571 0.999050 0.989981 0.971153 0.942458 0.903889 0.855559 0.797696 0.730658 0.654929 0.571126 0.479994 0.382408 0.279372 0.172002 0.061528 0.050722 0.163337 0.274832 0.383678 0.488310 0.587160 0.678674 0.761342 0.833727 0.894486 0.942407 0.976430 0.995675 0.999472 0.987382 0.959216 0.915054 0.855260 0.780488 0.691688 0.590101 0.477256 0.354947 0.225221 0.090342 0.047238 0.184922 0.320016 0.449778 0.571476 0.682447 0.780162 0.862283 0.926729 0.971737 0.995914 0.998291 0.978366 0.936136 0.872123 0.787386 0.683520 0.562640 0.427350 0.280704 0.126142 0.032581 0.191478 0.346433 0.493300 0.628024 0.746747 0.845937 0.922497 0.973871 0.998147 0.994137 0.961445 0.900513 0.812641 0.699984 0.565520 0.412992 0.246817 0.071971 0.106143 0.281864 0.449446 0.603250 0.737939 0.848673 0.931293 0.982499 1.000000 0.982627 0.930430 0.844712 0.728037 0.584177 0.418015 0.235406 0.042984 0.152064 0.342267 0.520141 0.678502 0.810756 0.911197 0.975269 0.999798 0.983176 0.925480 0.828533 0.695883 0.532708 0.345648 0.142557 0.067805 0.276139 0.473013 0.649296 0.796585 0.907632 0.976722 0.999998 0.975710 0.904365 0.788782 0.634023 0.447211 0.237248 0.014401 0.210166 0.424952 0.618701 0.781011 0.902912 0.977386 0.999816 0.968307 0.883875 0.750481 0.574897 0.366413 0.136382 0.102373 0.336246 0.551632 0.735720 0.877275 0.967360 0.999942 0.972343 0.885502 0.744018 0.555980 0.332545 0.087333 0.164379 0.406589 0.623587 0.800989 0.926718 0.991876 0.991417 0.924604 0.795171 0.611196 0.384655 0.130707 0.133291 0.388934 0.618064 0.804062 0.933097 0.995200 0.985098 0.902723 0.753360 0.547387 0.299631 0.028355 0.246055 0.502590 0.721241 0.884586 0.979232 0.996968 0.935560 0.799078 0.597726 0.347167 0.067369 0.218939 0.488080 0.717404 0.887211 0.982507 0.994397 0.921000 0.767786 0.547273 0.278093 0.016500 0.310605 0.577915 0.794104 0.939068 0.998872 0.967179 0.846012 0.645760 0.384400 0.085980 0.221550 0.508905 0.748261 0.915992 0.995077 0.976910 0.862354 0.661856 0.394637 0.086925 0.230529 0.525492 0.767530 0.931197 0.998781 0.962332 0.824717 0.599543 0.309954 0.013659 0.336764 0.624360 0.844785 0.973262 0.994790 0.906017 0.715863 0.444778 0.122668 0.214313 0.527767 0.781439 0.945453 0.999937 0.937554 0.764627 0.500678 0.176359 0.169998 0.496842 0.764396 0.939533 0.999996 0.937353 0.758324 0.484257 0.148713 0.206499 0.536489 0.798962 0.959684 0.997082 0.905283 0.695193 0.393390 0.038911 0.321666 0.640318
1.000000 1.000000 1.000000 1.000000 1.000000 1.000000 1.000000 1.000000 1.000000 1.000000 1.000000 1.000000 1.000000 1.000000 1.000000 1.000000 1.000000 1.000000 1.000000 1.000000 1.000000 1.000000 1.000000 1.000000 1.000000 1.000000 0.352217 0.352217 0.352217 0.352217 0.352217 0.352217 0.352217 0.352217 0.352217 0.352217 0.352217 0.352217 0.352217 0.352217 0.352217 0.352217 0.352217 0.352217 0.352217 0.352217 0.352217 0.352217 0.352217 0.352217 0.352217 0.352217 0.352217 0.352217 0.352217 0.310633 0.310633 0.310633 0.310633 0.310633 0.310633 0.310633 0.310633 0.310633 0.310633 0.310633 0.310633 0.310633 0.310633 0.310633 0.310633 0.310633 0.310633 0.310633 0.310633 0.310633 0.307349 0.318886 0.317878 0.309018 0.303376 0.306812 0.309409 0.321986 0.327229 0.329460 0.347402 0.369047 0.382257 0.392067 0.398747 0.397412 0.406697 0.431481 0.477736 0.553193 0.908638 0.909952 0.906315 0.912684 0.913767 0.914102 0.914446 0.915217 0.916664 0.917195 0.920141 0.925147 0.930344 0.932105 0.947001 0.949177 0.960418 0.961090 0.960746 0.957596 0.968451 0.967166 0.966726 0.967352 0.969775 0.968691 0.968135 0.968286 0.971254 0.969862 0.968087 0.967626 0.965473 0.963951 0.962841 0.962383 0.962687 0.962957 0.963350 0.963694 0.964501 0.964548 0.962330 0.962468 0.964368 0.965063 0.966203 0.966093 0.961273 0.968350 0.967036 0.965990 0.965875 0.964694 0.964301 0.964643 0.965284 0.965545 0.963710 0.956582 0.944162 0.941928 0.934629 0.923522 0.924813 0.928385 0.930400 0.929167 0.925628 0.918650 0.909912 0.911789 0.909642 0.896007 0.898260 0.898691 0.900450 0.900079 0.893623 0.883266 0.879991 0.874839 0.876018 0.874589 0.868293 0.864584 0.855655 0.855901 0.838255 0.853406 0.823205 0.802727 0.802766 0.787198 0.778523 0.776914 0.779178 0.781206 0.784098 0.782557 0.776476 0.755288 0.743513 0.734947 0.742020 0.746706 0.696291 0.676504 0.665422 0.677147 0.676558 0.689259 0.684646 0.633118 0.597571 0.583135 0.563573 0.556068 0.550270 0.554606 0.545080 0.541641 0.542084 0.546761 0.532472 0.490607 0.432978 0.422075 0.423404 0.432379 0.410088 0.380486 0.345340 0.348787 0.360933 0.264837 0.256917 0.228513 0.221754 0.235466 0.240546 0.251051 0.263337 0.237053 0.218451 0.218881 0.144399 0.231175 0.192817 0.117573 0.133598 0.128985 0.127828 0.117041 0.097691 0.107683 0.100302 0.100466 0.108870 0.065022 0.038476 -0.004908 0.030710 0.031713 0.043131 0.046074 0.015080 0.000987 -0.006660 -0.009521 0.010620 0.003831 -0.004113 -0.002560 0.010293 0.005288 0.042982 0.045805 0.025847 -0.002594 -0.043017 0.010699 -0.008319 0.004424 -0.007620 -0.003728 -0.005319 0.017689 0.033523 0.041700 0.089335 0.090302 0.069970 0.092576 0.055043 0.005844 0.046257 0.011659 -0.034960 -0.001806 -0.008197 -0.025527 -0.059185 -0.049107 -0.088195 -0.012274 -0.052224 -0.050800 -0.033805 -0.056442 -0.068508 -0.094144 -0.104863 -0.107299 -0.096613 -0.105918 -0.100016 -0.103042 -0.035480 -0.013294 -0.017198 -0.039577 -0.036399 -0.057061 -0.049426 -0.056648 -0.035488 -0.004749 -0.004348 -0.015989 -0.032449 -0.074378 -0.132631 -0.154085 -0.148547 -0.097097 -0.078009 -0.057075 -0.076548 -0.076548 -0.076548 -0.076548 -0.080955 -0.080955 -0.080955 -0.080955 -0.080955 -0.080955 -0.080955 -0.080955 -0.080955 -0.044130 -0.044130 -0.044130 -0.044130 -0.044130 -0.044130 -0.044130 -0.044130 -0.044130 -0.044130 -0.044130 -0.044130 -0.044130 -0.044130 -0.044130 -0.044130
0.000000 0.000000 0.000000 0.000000 0.000000 0.000000 0.000000 0.000000 0.000000 0.000000 0.000000 0.000000 0.000000 0.000000 0.000000 0.000000 0.000000 0.000000 0.000000 0.000000 0.000000 0.000000 0.000000 0.000000 0.000000 0.000000 0.180334 0.180334 0.180334 0.180334 0.180334 0.180334 0.180334 0.180334 0.180334 0.180334 0.180334 0.180334 0.180334 0.180334 0.180334 0.180334 0.180334 0.180334 0.180334 0.180334 0.180334 0.180334 0.180334 0.180334 0.180334 0.180334 0.180334 0.180334 0.180334 0.199007 0.199007 0.199007 0.199007 0.199007 0.199007 0.199007 0.199007 0.199007 0.199007 0.199007 0.199007 0.199007 0.199007 0.199007 0.199007 0.199007 0.199007 0.199007 0.199007 0.199007 0.199007 0.199007 0.199007 0.199007 0.199007 0.199007 0.199007 0.199007 0.199007 0.199007 0.199007 0.199007 0.199007 0.199007 0.199007 0.199007 0.199007 0.199007 0.199007 0.199007 0.230940 0.230940 0.230940 0.230940 0.230940 0.230940 0.230940 0.230940 0.230940 0.230940 0.230940 0.230940 0.230940 0.230940 0.230940 0.230940 0.230940 0.230940 0.230940 0.230940 0.230940 0.230940 0.230940 0.230940 0.230940 0.230940 0.230940 0.230940 0.244339 0.244339 0.244339 0.244339 0.244339 0.244339 0.244339 0.244339 0.244339 0.244339 0.244339 0.244339 0.244339 0.244339 0.244339 0.244339 0.244339 0.244339 0.244339 0.244339 0.244339 0.244339 0.244339 0.251976 0.251976 0.251976 0.251976 0.251976 0.251976 0.251976 0.251976 0.251976 0.251976 0.251976 0.251976 0.251976 0.251976 0.251976 0.251976 0.251976 0.251976 0.251976 0.251976 0.256074 0.256074 0.256074 0.256074 0.256074 0.256074 0.256074 0.256074 0.256074 0.256074 0.256074 0.256074 0.256074 0.256074 0.256074 0.256074 0.256074 0.256074 0.264906 0.264906 0.264906 0.264906 0.264906 0.264906 0.264906 0.264906 0.264906 0.264906 0.264906 0.264906 0.264906 0.264906 0.264906 0.264906 0.269680 0.269680 0.269680 0.269680 0.269680 0.269680 0.269680 0.269680 0.269680 0.269680 0.269680 0.269680 0.269680 0.269680 0.264906 0.264906 0.264906 0.264906 0.264906 0.264906 0.264906 0.264906 0.264906 0.264906 0.264906 0.264906 0.264906 0.264906 0.256074 0.256074 0.256074 0.256074 0.256074 0.256074 0.256074 0.256074 0.256074 0.256074 0.256074 0.256074 0.256074 0.256074 0.269680 0.269680 0.269680 0.269680 0.269680 0.269680 0.269680 0.269680 0.269680 0.269680 0.269680 0.269680 0.264906 0.264906 0.264906 0.264906 0.264906 0.264906 0.264906 0.264906 0.264906 0.264906 0.264906 0.264906 0.269680 0.269680 0.269680 0.269680 0.269680 0.269680 0.269680 0.269680 0.269680 0.269680 0.269680 0.264906 0.264906 0.264906 0.264906 0.264906 0.264906 0.264906 0.264906 0.264906 0.264906 0.264906 0.256074 0.256074 0.256074 0.256074 0.256074 0.256074 0.256074 0.256074 0.256074 0.256074 0.256074 0.264906 0.264906 0.264906 0.264906 0.264906 0.264906 0.264906 0.264906 0.264906 0.264906 0.260378 0.260378 0.260378 0.260378 0.260378 0.260378 0.260378 0.260378 0.260378 0.260378 0.264906 0.264906 0.264906 0.264906 0.264906 0.264906 0.264906 0.264906 0.264906 0.260378 0.260378 0.260378 0.260378 0.260378 0.260378 0.260378 0.260378 0.260378 0.256074 0.256074 0.256074 0.256074 0.256074 0.256074 0.256074 0.256074 0.256074 0.251976 0.251976 0.251976 0.251976 0.251976 0.251976 0.251976 0.251976 0.251976 0.251976 0.251976 0.251976 0.251976 0.251976 0.251976 0.251976
