# Output from CTFFind version 4.1.9, run on 2019-11-01 23:11:15
# Input file: ub_averaged_2000.mrc ; Number of micrographs: 1
# Pixel size: 3.000 Angstroms ; acceleration voltage: 300.0 keV ; spherical aberration: 0.00 mm ; amplitude contrast: 0.07
# Box size: 512 pixels ; min. res.: 30.0 Angstroms ; max. res.: 5.0 Angstroms ; min. def.: 5000.0 um; max. def. 50000.0 um; num. frames averaged: 1
# 6 lines per micrograph: #1 - spatial frequency (1/Angstroms); #2 - 1D rotational average of spectrum (assuming no astigmatism); #3 - 1D rotational average of spectrum; #4 - CTF fit; #5 - cross-correlation between spectrum and CTF fit; #6 - 2sigma of expected cross correlation of noise
0.000000 0.000651 0.001302 0.001953 0.002604 0.003255 0.003906 0.004557 0.005208 0.005859 0.006510 0.007161 0.007812 0.008464 0.009115 0.009766 0.010417 0.011068 0.011719 0.012370 0.013021 0.013672 0.014323 0.014974 0.015625 0.016276 0.016927 0.017578 0.018229 0.018880 0.019531 0.020182 0.020833 0.021484 0.022135 0.022786 0.023438 0.024089 0.024740 0.025391 0.026042 0.026693 0.027344 0.027995 0.028646 0.029297 0.029948 0.030599 0.031250 0.031901 0.032552 0.033203 0.033854 0.034505 0.035156 0.035807 0.036458 0.037109 0.037760 0.038411 0.039062 0.039714 0.040365 0.041016 0.041667 0.042318 0.042969 0.043620 0.044271 0.044922 0.045573 0.046224 0.046875 0.047526 0.048177 0.048828 0.049479 0.050130 0.050781 0.051432 0.052083 0.052734 0.053385 0.054036 0.054688 0.055339 0.055990 0.056641 0.057292 0.057943 0.058594 0.059245 0.059896 0.060547 0.061198 0.061849 0.062500 0.063151 0.063802 0.064453 0.065104 0.065755 0.066406 0.067057 0.067708 0.068359 0.069010 0.069661 0.070312 0.070964 0.071615 0.072266 0.072917 0.073568 0.074219 0.074870 0.075521 0.076172 0.076823 0.077474 0.078125 0.078776 0.079427 0.080078 0.080729 0.081380 0.082031 0.082682 0.083333 0.083984 0.084635 0.085286 0.085938 0.086589 0.087240 0.087891 0.088542 0.089193 0.089844 0.090495 0.091146 0.091797 0.092448 0.093099 0.093750 0.094401 0.095052 0.095703 0.096354 0.097005 0.097656 0.098307 0.098958 0.099609 0.100260 0.100911 0.101562 0.102214 0.102865 0.103516 0.104167 0.104818 0.105469 0.106120 0.106771 0.107422 0.108073 0.108724 0.109375 0.110026 0.110677 0.111328 0.111979 0.112630 0.113281 0.113932 0.114583 0.115234 0.115885 0.116536 0.117188 0.117839 0.118490 0.119141 0.119792 0.120443 0.121094 0.121745 0.122396 0.123047 0.123698 0.124349 0.125000 0.125651 0.126302 0.126953 0.127604 0.128255 0.128906 0.129557 0.130208 0.130859 0.131510 0.132161 0.132812 0.133464 0.134115 0.134766 0.135417 0.136068 0.136719 0.137370 0.138021 0.138672 0.139323 0.139974 0.140625 0.141276 0.141927 0.142578 0.143229 0.143880 0.144531 0.145182 0.145833 0.146484 0.147135 0.147786 0.148438 0.149089 0.149740 0.150391 0.151042 0.151693 0.152344 0.152995 0.153646 0.154297 0.154948 0.155599 0.156250 0.156901 0.157552 0.158203 0.158854 0.159505 0.160156 0.160807 0.161458 0.162109 0.162760 0.163411 0.164062 0.164714 0.165365 0.166016 0.166667 0.167318 0.167969 0.168620 0.169271 0.169922 0.170573 0.171224 0.171875 0.172526 0.173177 0.173828 0.174479 0.175130 0.175781 0.176432 0.177083 0.177734 0.178385 0.179036 0.179688 0.180339 0.180990 0.181641 0.182292 0.182943 0.183594 0.184245 0.184896 0.185547 0.186198 0.186849 0.187500 0.188151 0.188802 0.189453 0.190104 0.190755 0.191406 0.192057 0.192708 0.193359 0.194010 0.194661 0.195312 0.195964 0.196615 0.197266 0.197917 0.198568 0.199219 0.199870 0.200521 0.201172 0.201823 0.202474 0.203125 0.203776 0.204427 0.205078 0.205729 0.206380 0.207031 0.207682 0.208333 0.208984 0.209635 0.210286 0.210938 0.211589 0.212240 0.212891 0.213542 0.214193 0.214844 0.215495 0.216146 0.216797 0.217448 0.218099 0.218750 0.219401 0.220052 0.220703 0.221354 0.222005 0.222656 0.223307 0.223958 0.224609 0.225260 0.225911 0.226562 0.227214 0.227865 0.228516 0.229167 0.229818 0.230469 0.231120 0.231771 0.232422 0.233073 0.233724 0.234375 0.235026 0.235677
       0.33372        0.33372        0.33372        0.33372        0.33372        0.33372        0.33372        0.33372        0.33372        0.33372        0.33372        0.33372        0.33372        0.33372        0.33372        0.33372        0.33372        0.33372        0.33372        0.33372        0.33372        0.33372        0.33372        0.33372        0.33372        0.33372        0.33372        0.33372        0.33372        0.33372        0.33372        0.33372        0.33372        0.33372        0.33372        0.33372        0.33372        0.33372        0.33372        0.33372        0.33372        0.33372        0.33372        0.33372        0.33372        0.33372        0.33372        0.33372        0.33372        0.33372        0.33372        0.50296        0.71952        0.42980        0.19003       -0.08011       -0.26329       -0.06938       -0.13346       -0.05338       -0.00175       -0.14603       -0.09119       -0.04993       -0.00222       -0.15061       -0.21919       -0.34572       -0.46197       -0.55785       -0.51718       -0.44752       -0.37169       -0.54648       -0.44848       -0.62016       -0.50103       -0.47406       -0.38916       -0.38381       -0.34071       -0.24980       -0.15959       -0.13555        0.03329       -0.01067        0.11872        0.16927        0.30490        0.40935        0.46502        0.49689        0.54099        0.55024        0.69365        0.64644        0.67786        0.59187        0.55671        0.65595        0.52872        0.42693        0.38377        0.32260        0.22807        0.26518        0.25218        0.10852        0.08475        0.00052       -0.00596        0.03639       -0.00240        0.07639        0.09923        0.23253        0.28315        0.30443        0.38016        0.55971        0.53802        0.57937        0.67125        0.70031        0.63124        0.63459        0.63198        0.55382        0.57641        0.39667        0.34526        0.26706        0.18610        0.07212        0.14559        0.12031        0.09046        0.10639        0.21050        0.21528        0.31741        0.35960        0.41420        0.49435        0.58604        0.54273        0.55445        0.60942        0.54231        0.46401        0.47862        0.32515        0.25201        0.25758        0.24335        0.14440        0.14636        0.15303        0.21978        0.24807        0.32879        0.36384        0.39007        0.46960        0.44775        0.47972        0.45668        0.46774        0.44494        0.40838        0.38334        0.35188        0.31011        0.28609        0.20383        0.19752        0.22157        0.26966        0.27011        0.35175        0.37695        0.35865        0.41104        0.45757        0.45031        0.42490        0.43885        0.37072        0.33674        0.28544        0.26571        0.29086        0.27117        0.29550        0.30116        0.35052        0.34334        0.39972        0.40618        0.42733        0.41066        0.42904        0.40304        0.36577        0.28386        0.29349        0.30999        0.27499        0.25748        0.32980        0.37091        0.34276        0.35476        0.35924        0.35508        0.40760        0.40136        0.35899        0.33992        0.31134        0.31009        0.31552        0.31676        0.29946        0.28739        0.33663        0.35783        0.37887        0.33366        0.32803        0.33501        0.34491        0.30718        0.28395        0.30795        0.31644        0.33754        0.32262        0.33323        0.35872        0.33105        0.31409        0.32913        0.30415        0.26596        0.25296        0.26658        0.30673        0.32354        0.35007        0.30257        0.31708        0.33967        0.29436        0.31769        0.28710        0.28382        0.29311        0.30116        0.30940        0.34345        0.32390        0.33060        0.33557        0.31120        0.33469        0.31904        0.31963        0.30801        0.28419        0.29557        0.31566        0.29310        0.32877        0.33997        0.33394        0.31844        0.33763        0.31612        0.27607        0.25470        0.27144        0.33244        0.35926        0.34791        0.31589        0.29480        0.29801        0.31506        0.24715        0.29864        0.30397        0.32856        0.29916        0.32198        0.28847        0.33743        0.34382        0.34736        0.32720        0.29423        0.31781        0.39769        0.32932        0.31377        0.31071        0.29005        0.28492        0.29833        0.26360        0.30915        0.24051        0.27926        0.29661        0.31696        0.29567        0.27688        0.30072        0.23625        0.22784        0.26231        0.30682        0.30482        0.28095        0.28627        0.33436        0.25814        0.21387        0.31260        0.27675        0.25540        0.28363        0.39761        0.29994        0.28543        0.24785        0.25275        0.26379        0.23483        0.23315        0.16555        0.25592        0.23444        0.25021        0.31917        0.28057        0.34669        0.28162        0.25343        0.23717        0.21474        0.23315        0.29453        0.23122        0.12702        0.15061        0.24225        0.24690        0.33295        0.30551        0.02808       -0.43152       -0.90182
2.698817 2.670147 2.641632 2.613272 2.585066 2.557016 2.529121 2.501380 2.473795 2.446364 2.419089 2.391968 2.365002 2.338192 2.311536 2.285035 2.258689 2.232499 2.206463 2.180582 2.154856 2.129285 2.103869 2.078608 2.053501 2.028550 2.003754 1.979113 1.954626 1.930295 1.906119 1.882097 1.858231 1.834519 1.810963 1.787561 1.764314 1.741223 1.718286 1.695504 1.672877 1.650405 1.628088 1.605926 1.583919 1.562067 1.540370 1.518828 1.497441 1.476209 1.455131 1.524069 1.821826 1.518054 1.186651 0.940730 0.545239 0.910230 0.634038 0.873712 0.926047 0.592335 0.710831 0.781679 0.817590 0.631212 0.540284 0.348805 0.107759 0.083978 0.047490 0.086721 0.302210 -0.030017 0.085454 -0.130276 -0.006934 -0.016017 0.085573 0.065678 0.099935 0.177776 0.283257 0.252112 0.480274 0.396688 0.544346 0.522977 0.762851 0.781717 0.874012 0.911308 0.933050 0.935644 1.095487 0.969700 1.118555 0.939621 0.843131 1.008382 0.840464 0.752173 0.608386 0.590976 0.449671 0.414077 0.505613 0.262103 0.197443 0.155653 0.009614 0.204137 -0.005018 0.118992 0.178000 0.254917 0.325774 0.344364 0.419280 0.528350 0.657090 0.532165 0.731495 0.850467 0.632885 0.687907 0.655810 0.585380 0.533165 0.456136 0.292503 0.211540 0.114404 -0.044729 -0.021273 0.056542 -0.099706 -0.060235 0.044987 0.053275 0.112293 0.215075 0.236203 0.304235 0.441356 0.445974 0.418467 0.477091 0.446072 0.330148 0.328044 0.238253 0.054488 0.060759 0.015688 -0.042447 -0.095992 -0.097335 -0.014078 -0.051291 0.069991 0.123942 0.112054 0.260924 0.229147 0.236591 0.281954 0.237050 0.229163 0.208011 0.164980 0.104053 0.095539 0.021573 0.001239 -0.120445 -0.054016 -0.001956 0.000126 0.023544 0.097082 0.081139 0.122380 0.211695 0.250905 0.183125 0.180899 0.110476 0.143084 0.026916 -0.026598 0.028754 -0.019562 0.013487 -0.002265 0.041007 0.090612 0.057349 0.159724 0.110462 0.178632 0.074024 0.156126 0.101409 0.003308 -0.051081 0.000711 -0.022428 -0.057230 -0.054819 0.066500 0.074219 0.001677 0.091833 0.071423 0.080675 0.155403 0.077916 0.072458 0.064751 -0.011235 0.034686 0.013344 0.024096 0.012516 0.006639 0.051562 0.086030 0.077694 0.041993 0.055599 0.035633 0.069884 0.003981 -0.004623 0.035485 0.023519 0.072494 0.047259 0.065816 0.081501 0.047712 0.021452 0.037617 0.007702 -0.038944 -0.024402 -0.019267 0.030266 0.044687 0.094288 0.008475 0.063134 0.057301 -0.014764 0.062044 0.004020 0.003880 0.030746 0.047474 0.027129 0.085473 0.040645 0.062641 0.075236 0.062775 0.064519 0.062728 0.081404 0.028871 -0.007623 0.048256 0.042340 0.043704 0.069022 0.075463 0.027313 0.055035 0.069585 0.002546 -0.002477 -0.059863 -0.026134 0.109614 0.076229 0.056568 0.032321 -0.022127 0.050701 0.016984 -0.072260 0.051180 0.027096 0.060209 0.032006 0.014124 0.043515 -0.003369 0.063159 0.025088 0.038661 -0.050812 0.065822 0.112532 -0.001308 -0.008831 0.013744 -0.013781 -0.043529 -0.022734 -0.057483 -0.012596 -0.089272 -0.019615 -0.038499 0.019792 -0.032244 -0.051791 0.021400 -0.064515 -0.054783 -0.078448 0.049328 0.009993 0.006030 -0.008527 0.086887 -0.046987 -0.083360 0.058771 -0.017494 -0.001800 0.003071 0.194299 -0.021326 0.021886 -0.005230 -0.009029 -0.008616 -0.041116 -0.011666 -0.165256 0.028599 -0.023181 -0.029868 0.082600 0.033063 0.134663 0.014361 0.025083 0.001700 0.020140 -0.035030 0.356886 0.273504 0.150707 0.193212 0.239517 0.329251 0.358906 0.368127 0.035093 -1.047880
0.072396 0.072911 0.074454 0.077025 0.080625 0.085251 0.090902 0.097578 0.105275 0.113991 0.123721 0.134462 0.146208 0.158952 0.172685 0.187399 0.203080 0.219717 0.237292 0.255787 0.275180 0.295448 0.316563 0.338493 0.361202 0.384652 0.408798 0.433591 0.458976 0.484895 0.511281 0.538063 0.565165 0.592501 0.619980 0.647506 0.674974 0.702271 0.729278 0.755871 0.781914 0.807269 0.831788 0.855317 0.877698 0.898764 0.918346 0.936267 0.952350 0.966412 0.978270 0.987739 0.994635 0.998777 0.999984 0.998082 0.992905 0.984292 0.972095 0.956177 0.936416 0.912708 0.884965 0.853125 0.817144 0.777010 0.732735 0.684365 0.631976 0.575681 0.515629 0.452007 0.385044 0.315008 0.242210 0.167004 0.089784 0.010988 0.068905 0.149378 0.229876 0.309810 0.388560 0.465477 0.539894 0.611125 0.678473 0.741239 0.798728 0.850257 0.895165 0.932819 0.962630 0.984053 0.996609 0.999886 0.993551 0.977363 0.951180 0.914967 0.868804 0.812896 0.747574 0.673301 0.590674 0.500428 0.403428 0.300671 0.193277 0.082479 0.030381 0.143875 0.256499 0.366693 0.472863 0.573403 0.666723 0.751269 0.825560 0.888211 0.937965 0.973717 0.994551 0.999760 0.988871 0.961671 0.918222 0.858876 0.784286 0.695406 0.593495 0.480103 0.357060 0.226451 0.090591 0.048014 0.186712 0.322742 0.453304 0.575605 0.686925 0.784685 0.866506 0.930274 0.974210 0.996917 0.997441 0.975308 0.930565 0.863799 0.776151 0.669314 0.545511 0.407470 0.258369 0.101776 0.058426 0.218135 0.373128 0.519175 0.652155 0.768180 0.863715 0.935697 0.981643 0.999753 0.988991 0.949147 0.880883 0.785747 0.666160 0.525380 0.367431 0.196999 0.019314 0.160007 0.335127 0.500188 0.649497 0.777740 0.880175 0.952832 0.992673 0.997747 0.967301 0.901852 0.803217 0.674498 0.520009 0.345158 0.156278 0.039586 0.234928 0.422069 0.593449 0.741956 0.861217 0.945903 0.991985 0.996953 0.959976 0.881997 0.765757 0.615737 0.438018 0.240064 0.030437 0.181570 0.386318 0.574278 0.736472 0.864919 0.953055 0.996094 0.991323 0.938303 0.838967 0.697600 0.520701 0.316721 0.095689 0.131249 0.352391 0.556073 0.731292 0.868321 0.959276 0.998611 0.983488 0.914028 0.793388 0.627683 0.425722 0.198588 0.040947 0.279110 0.501911 0.695975 0.849364 0.952339 0.998021 0.982903 0.907162 0.774755 0.593287 0.373623 0.129295 0.124307 0.370871 0.594221 0.779382 0.913615 0.987345 0.994882 0.934934 0.810810 0.630318 0.405348 0.151145 0.114687 0.373367 0.606273 0.796283 0.929079 0.994275 0.986286 0.904886 0.755351 0.548226 0.298634 0.025243 0.251084 0.508873 0.727714 0.889898 0.981909 0.995613 0.929060 0.786793 0.579651 0.324015 0.040599 0.247195 0.515172 0.740397 0.903192 0.988901 0.989299 0.903469 0.738052 0.506856 0.229787 0.068796 0.362165 0.623617 0.828914 0.958586 0.999854 0.947980 0.806911 0.589096 0.314519 0.008926 0.298510 0.577953 0.801821 0.947552 0.999958 0.952915 0.810183 0.585251 0.300179 0.016457 0.332384 0.614879 0.834194 0.966733 0.997700 0.922856 0.749212 0.494516 0.185572 0.144496 0.459729 0.725257 0.911188 0.996055 0.969415 0.833268 0.602088 0.301443 0.034726 0.367859 0.659165 0.874180 0.986909 0.983100 0.862180 0.637611 0.335564 0.008024 0.351598 0.653019 0.874734 0.988537 0.979300 0.847130 0.607664 0.290392 0.064826 0.412694 0.708226 0.912594 0.998343 0.953217 0.782086 0.506634 0.162789 0.203842 0.543919 0.811057 0.968178 0.992813
1.000000 1.000000 1.000000 1.000000 1.000000 1.000000 1.000000 1.000000 1.000000 1.000000 1.000000 1.000000 1.000000 1.000000 1.000000 1.000000 1.000000 1.000000 1.000000 1.000000 1.000000 1.000000 1.000000 1.000000 1.000000 1.000000 1.000000 1.000000 1.000000 1.000000 1.000000 1.000000 1.000000 1.000000 1.000000 1.000000 1.000000 1.000000 1.000000 1.000000 1.000000 1.000000 1.000000 1.000000 1.000000 1.000000 1.000000 1.000000 1.000000 1.000000 1.000000 1.000000 0.918753 0.918753 0.906042 0.906042 0.906042 0.906042 0.906042 0.906042 0.906042 0.906042 0.906042 0.906042 0.906042 0.906042 0.906042 0.906042 0.906042 0.906042 0.906042 0.906042 0.906042 0.906042 0.906042 0.906042 0.906042 0.906042 0.906042 0.906042 0.906042 0.906042 0.906042 0.906042 0.906042 0.906042 0.906042 0.906042 0.906042 0.906042 0.906042 0.906042 0.906042 0.906042 0.906042 0.901797 0.906892 0.908767 0.907398 0.910861 0.910896 0.910191 0.910570 0.910265 0.910635 0.912027 0.922448 0.933363 0.944490 0.944987 0.950187 0.954484 0.957053 0.957817 0.959511 0.969895 0.968424 0.967976 0.968603 0.969864 0.971842 0.970740 0.970048 0.973302 0.973859 0.972438 0.969975 0.969383 0.968087 0.967067 0.966726 0.966845 0.966692 0.967219 0.967408 0.967499 0.967646 0.967712 0.968708 0.969854 0.972405 0.973458 0.973382 0.972384 0.970602 0.974558 0.975482 0.975300 0.975302 0.974917 0.975144 0.960603 0.959205 0.959091 0.957010 0.956124 0.953767 0.951776 0.950569 0.951058 0.949787 0.948921 0.945495 0.930686 0.916622 0.906120 0.926345 0.910564 0.899964 0.874651 0.874656 0.869829 0.870175 0.861880 0.856005 0.851603 0.849109 0.850994 0.847415 0.851613 0.847667 0.832171 0.835227 0.831818 0.800497 0.785453 0.768527 0.768031 0.764904 0.765835 0.767067 0.760859 0.769455 0.763377 0.761215 0.751782 0.729867 0.696113 0.681908 0.693071 0.703003 0.700650 0.696628 0.681050 0.650159 0.662754 0.683245 0.680955 0.682691 0.675928 0.668488 0.674842 0.675865 0.672528 0.664860 0.664382 0.664346 0.676342 0.680494 0.674723 0.665551 0.650920 0.640968 0.632925 0.647765 0.656032 0.625565 0.619451 0.610771 0.605303 0.590656 0.558665 0.559918 0.539466 0.526620 0.530549 0.533133 0.530354 0.540738 0.541283 0.520272 0.543573 0.553792 0.582689 0.561933 0.559789 0.561150 0.571244 0.551180 0.535392 0.527460 0.528782 0.544931 0.579700 0.622709 0.615955 0.604642 0.596659 0.611490 0.588023 0.595782 0.613375 0.593014 0.516434 0.475059 0.472522 0.440340 0.433412 0.420017 0.401637 0.378276 0.380971 0.375556 0.360752 0.351021 0.288722 0.253237 0.237581 0.224638 0.224393 0.229246 0.216713 0.210113 0.242222 0.288098 0.287519 0.276872 0.281929 0.286033 0.290291 0.261859 0.264022 0.226467 0.225113 0.253683 0.197601 0.201142 0.154027 0.145814 0.156861 0.183905 0.186384 0.140250 0.131207 0.156130 0.171991 0.169745 0.161283 0.114590 0.082017 0.068873 0.081280 0.069370 0.029453 0.036104 0.050269 0.038652 0.026319 0.049384 0.046944 0.054029 0.041950 0.042302 0.091068 0.119164 0.107546 0.109485 0.130275 0.126344 0.102333 0.095391 0.085414 0.078670 0.022989 -0.003078 -0.003078 -0.000852 -0.000852 -0.000852 -0.000852 -0.000852 -0.000852 -0.000852 -0.000852 -0.000852 -0.001960 -0.001960 -0.001960 -0.001960 -0.001960 -0.001960 -0.001960 -0.001960 -0.001960 0.021961 0.021961 0.021961 0.021961 0.021961 0.021961 0.021961 0.021961 0.021961
0.000000 0.000000 0.000000 0.000000 0.000000 0.000000 0.000000 0.000000 0.000000 0.000000 0.000000 0.000000 0.000000 0.000000 0.000000 0.000000 0.000000 0.000000 0.000000 0.000000 0.000000 0.000000 0.000000 0.000000 0.000000 0.000000 0.000000 0.000000 0.000000 0.000000 0.000000 0.000000 0.000000 0.000000 0.000000 0.000000 0.000000 0.000000 0.000000 0.000000 0.000000 0.000000 0.000000 0.000000 0.000000 0.000000 0.000000 0.000000 0.000000 0.000000 0.000000 0.000000 0.181818 0.181818 0.199007 0.199007 0.199007 0.199007 0.199007 0.199007 0.199007 0.199007 0.199007 0.199007 0.199007 0.199007 0.199007 0.199007 0.199007 0.199007 0.199007 0.199007 0.199007 0.199007 0.199007 0.199007 0.199007 0.199007 0.199007 0.199007 0.199007 0.199007 0.199007 0.199007 0.199007 0.199007 0.199007 0.199007 0.199007 0.199007 0.199007 0.199007 0.199007 0.199007 0.199007 0.230940 0.230940 0.230940 0.230940 0.230940 0.230940 0.230940 0.230940 0.230940 0.230940 0.230940 0.230940 0.230940 0.230940 0.230940 0.230940 0.230940 0.230940 0.230940 0.230940 0.230940 0.230940 0.230940 0.230940 0.230940 0.230940 0.230940 0.230940 0.244339 0.244339 0.244339 0.244339 0.244339 0.244339 0.244339 0.244339 0.244339 0.244339 0.244339 0.244339 0.244339 0.244339 0.244339 0.244339 0.244339 0.244339 0.244339 0.244339 0.244339 0.244339 0.244339 0.251976 0.251976 0.251976 0.251976 0.251976 0.251976 0.251976 0.251976 0.251976 0.251976 0.251976 0.251976 0.251976 0.251976 0.251976 0.251976 0.251976 0.251976 0.251976 0.251976 0.264906 0.264906 0.264906 0.264906 0.264906 0.264906 0.264906 0.264906 0.264906 0.264906 0.264906 0.264906 0.264906 0.264906 0.264906 0.264906 0.264906 0.264906 0.264906 0.264906 0.264906 0.264906 0.264906 0.264906 0.264906 0.264906 0.264906 0.264906 0.264906 0.264906 0.264906 0.264906 0.264906 0.264906 0.264906 0.264906 0.264906 0.264906 0.264906 0.264906 0.264906 0.264906 0.264906 0.264906 0.264906 0.264906 0.264906 0.264906 0.264906 0.264906 0.264906 0.264906 0.264906 0.264906 0.264906 0.264906 0.264906 0.264906 0.264906 0.264906 0.264906 0.264906 0.264906 0.264906 0.264906 0.264906 0.264906 0.264906 0.264906 0.264906 0.264906 0.264906 0.264906 0.264906 0.264906 0.269680 0.269680 0.269680 0.269680 0.269680 0.269680 0.269680 0.269680 0.269680 0.269680 0.269680 0.269680 0.264906 0.264906 0.264906 0.264906 0.264906 0.264906 0.264906 0.264906 0.264906 0.264906 0.264906 0.264906 0.269680 0.269680 0.269680 0.269680 0.269680 0.269680 0.269680 0.269680 0.269680 0.269680 0.269680 0.264906 0.264906 0.264906 0.264906 0.264906 0.264906 0.264906 0.264906 0.264906 0.264906 0.264906 0.269680 0.269680 0.269680 0.269680 0.269680 0.269680 0.269680 0.269680 0.269680 0.269680 0.251976 0.251976 0.251976 0.251976 0.251976 0.251976 0.251976 0.251976 0.251976 0.251976 0.251976 0.269680 0.269680 0.269680 0.269680 0.269680 0.269680 0.269680 0.269680 0.269680 0.256074 0.256074 0.256074 0.256074 0.256074 0.256074 0.256074 0.256074 0.256074 0.256074 0.260378 0.260378 0.260378 0.260378 0.260378 0.260378 0.260378 0.260378 0.260378 0.256074 0.256074 0.256074 0.256074 0.256074 0.256074 0.256074 0.256074 0.256074 0.251976 0.251976 0.251976 0.251976 0.251976 0.251976 0.251976 0.251976 0.251976 0.264906 0.264906 0.264906 0.264906 0.264906 0.264906 0.264906 0.264906 0.264906
