# Output from CTFFind version 4.1.9, run on 2019-10-31 15:30:43
# Input file: ub_stacked2.mrc ; Number of micrographs: 1
# Pixel size: 1.500 Angstroms ; acceleration voltage: 300.0 keV ; spherical aberration: 0.00 mm ; amplitude contrast: 0.07
# Box size: 512 pixels ; min. res.: 30.0 Angstroms ; max. res.: 5.0 Angstroms ; min. def.: 5000.0 um; max. def. 50000.0 um; num. frames averaged: 50
# 6 lines per micrograph: #1 - spatial frequency (1/Angstroms); #2 - 1D rotational average of spectrum (assuming no astigmatism); #3 - 1D rotational average of spectrum; #4 - CTF fit; #5 - cross-correlation between spectrum and CTF fit; #6 - 2sigma of expected cross correlation of noise
0.000000 0.001302 0.002604 0.003906 0.005208 0.006510 0.007812 0.009115 0.010417 0.011719 0.013021 0.014323 0.015625 0.016927 0.018229 0.019531 0.020833 0.022135 0.023438 0.024740 0.026042 0.027344 0.028646 0.029948 0.031250 0.032552 0.033854 0.035156 0.036458 0.037760 0.039062 0.040365 0.041667 0.042969 0.044271 0.045573 0.046875 0.048177 0.049479 0.050781 0.052083 0.053385 0.054688 0.055990 0.057292 0.058594 0.059896 0.061198 0.062500 0.063802 0.065104 0.066406 0.067708 0.069010 0.070312 0.071615 0.072917 0.074219 0.075521 0.076823 0.078125 0.079427 0.080729 0.082031 0.083333 0.084635 0.085938 0.087240 0.088542 0.089844 0.091146 0.092448 0.093750 0.095052 0.096354 0.097656 0.098958 0.100260 0.101562 0.102865 0.104167 0.105469 0.106771 0.108073 0.109375 0.110677 0.111979 0.113281 0.114583 0.115885 0.117188 0.118490 0.119792 0.121094 0.122396 0.123698 0.125000 0.126302 0.127604 0.128906 0.130208 0.131510 0.132812 0.134115 0.135417 0.136719 0.138021 0.139323 0.140625 0.141927 0.143229 0.144531 0.145833 0.147135 0.148438 0.149740 0.151042 0.152344 0.153646 0.154948 0.156250 0.157552 0.158854 0.160156 0.161458 0.162760 0.164062 0.165365 0.166667 0.167969 0.169271 0.170573 0.171875 0.173177 0.174479 0.175781 0.177083 0.178385 0.179688 0.180990 0.182292 0.183594 0.184896 0.186198 0.187500 0.188802 0.190104 0.191406 0.192708 0.194010 0.195312 0.196615 0.197917 0.199219 0.200521 0.201823 0.203125 0.204427 0.205729 0.207031 0.208333 0.209635 0.210938 0.212240 0.213542 0.214844 0.216146 0.217448 0.218750 0.220052 0.221354 0.222656 0.223958 0.225260 0.226562 0.227865 0.229167 0.230469 0.231771 0.233073 0.234375 0.235677 0.236979 0.238281 0.239583 0.240885 0.242188 0.243490 0.244792 0.246094 0.247396 0.248698 0.250000 0.251302 0.252604 0.253906 0.255208 0.256510 0.257812 0.259115 0.260417 0.261719 0.263021 0.264323 0.265625 0.266927 0.268229 0.269531 0.270833 0.272135 0.273438 0.274740 0.276042 0.277344 0.278646 0.279948 0.281250 0.282552 0.283854 0.285156 0.286458 0.287760 0.289062 0.290365 0.291667 0.292969 0.294271 0.295573 0.296875 0.298177 0.299479 0.300781 0.302083 0.303385 0.304688 0.305990 0.307292 0.308594 0.309896 0.311198 0.312500 0.313802 0.315104 0.316406 0.317708 0.319010 0.320312 0.321615 0.322917 0.324219 0.325521 0.326823 0.328125 0.329427 0.330729 0.332031 0.333333 0.334635 0.335938 0.337240 0.338542 0.339844 0.341146 0.342448 0.343750 0.345052 0.346354 0.347656 0.348958 0.350260 0.351562 0.352865 0.354167 0.355469 0.356771 0.358073 0.359375 0.360677 0.361979 0.363281 0.364583 0.365885 0.367188 0.368490 0.369792 0.371094 0.372396 0.373698 0.375000 0.376302 0.377604 0.378906 0.380208 0.381510 0.382812 0.384115 0.385417 0.386719 0.388021 0.389323 0.390625 0.391927 0.393229 0.394531 0.395833 0.397135 0.398438 0.399740 0.401042 0.402344 0.403646 0.404948 0.406250 0.407552 0.408854 0.410156 0.411458 0.412760 0.414062 0.415365 0.416667 0.417969 0.419271 0.420573 0.421875 0.423177 0.424479 0.425781 0.427083 0.428385 0.429688 0.430990 0.432292 0.433594 0.434896 0.436198 0.437500 0.438802 0.440104 0.441406 0.442708 0.444010 0.445312 0.446615 0.447917 0.449219 0.450521 0.451823 0.453125 0.454427 0.455729 0.457031 0.458333 0.459635 0.460938 0.462240 0.463542 0.464844 0.466146 0.467448 0.468750 0.470052 0.471354
       0.02692        0.02692        0.02692        0.02692        0.02692        0.02692        0.02692        0.02692        0.02692        0.02692        0.02692        0.02692        0.02692        0.02692        0.02692        0.02692        0.02692        0.02692        0.02692        0.02692        0.02692        0.02692        0.02692        0.02692        0.02692        0.14886        0.71258        0.17196       -1.08284       -1.96362       -2.24772       -1.64042       -1.11329       -0.13028        0.24818        1.02594        1.65383        1.63771        1.81412        1.50706        0.93724        0.04245       -0.39176       -0.73678       -0.87403       -0.76823       -0.33900        0.05797        0.17395        0.31981        0.49675        0.60177        0.26318        0.04750       -0.13211       -0.32604       -0.43999       -0.19545       -0.19765       -0.07186        0.00146       -0.09936       -0.00917        0.03598        0.10547       -0.01251       -0.06184       -0.16657       -0.25979       -0.35829       -0.31620       -0.24765       -0.18863       -0.34730       -0.27085       -0.46612       -0.38869       -0.38739       -0.33425       -0.34499       -0.32969       -0.26653       -0.18921       -0.18360       -0.04850       -0.11376       -0.01661        0.03341        0.13958        0.20719        0.24361        0.26492        0.30121        0.29992        0.42146        0.37014        0.38959        0.29177        0.25627        0.32511        0.18987        0.08797        0.04115       -0.01082       -0.10764       -0.07101       -0.08346       -0.23781       -0.24962       -0.33801       -0.33400       -0.27616       -0.31717       -0.22571       -0.20461       -0.07820       -0.03456        0.02471        0.09613        0.25902        0.23619        0.28798        0.37092        0.39068        0.32253        0.33430        0.30866        0.23217        0.24341        0.05309        0.01320       -0.05709       -0.16691       -0.24837       -0.18893       -0.21622       -0.25649       -0.23999       -0.12502       -0.11279       -0.01996        0.03531        0.09354        0.18209        0.26453        0.22346        0.22859        0.27572        0.23551        0.15769        0.15791        0.02886       -0.04178       -0.04430       -0.05634       -0.14832       -0.13892       -0.13168       -0.08727       -0.06263        0.00771        0.04560        0.06870        0.13237        0.12053        0.15565        0.12654        0.14189        0.11804        0.08556        0.06702        0.03555       -0.00922       -0.02112       -0.08814       -0.09601       -0.07848       -0.04004       -0.02797        0.04703        0.05673        0.03156        0.08436        0.14292        0.12651        0.08646        0.09890        0.04875        0.02285       -0.00151       -0.03418       -0.01167       -0.03596       -0.00134       -0.00073        0.03299        0.02885        0.07974        0.07655        0.08308        0.07210        0.08483        0.05754        0.02889       -0.01933       -0.00576        0.00377       -0.02060       -0.04313        0.02127        0.04795        0.03046        0.03792        0.04451        0.03024        0.07071        0.06303        0.03035        0.02754        0.02237        0.01385        0.01462        0.01346        0.01044       -0.01043        0.01976        0.04064        0.05519        0.02585        0.01566        0.01566        0.03630        0.00660       -0.01047        0.01239        0.02451        0.04100        0.02020        0.02656        0.04185        0.01763        0.01573        0.03669        0.01951        0.00015       -0.00900       -0.01429        0.00098        0.02257        0.03299        0.02292        0.02301        0.03674        0.01769        0.00728        0.00132        0.00578        0.01775        0.00807        0.01644        0.04123        0.02001        0.03744        0.03717        0.02719        0.02809        0.02116        0.02338        0.02195       -0.00441       -0.00245        0.04704        0.01025        0.02197        0.03627        0.02789        0.02859        0.01257        0.02806        0.00482        0.00301       -0.00977        0.01164        0.03105        0.03267        0.00690        0.01551        0.01799        0.01419        0.00041        0.02630        0.00044        0.01195        0.01206        0.02203        0.00522        0.02471        0.02202        0.03308        0.02195        0.01577        0.03536        0.06298        0.00043        0.02744        0.03260        0.00348        0.01714        0.01974        0.01248        0.00623       -0.00719        0.02054       -0.00088        0.00106        0.01759        0.00719        0.01939        0.01592       -0.00257       -0.01037        0.02159        0.02998        0.04228       -0.01238        0.01253       -0.00256        0.00229        0.03941        0.02888        0.01212        0.00027        0.03973        0.03467        0.00901        0.01120        0.00835        0.00818        0.02066        0.00815       -0.00836        0.02553       -0.00446       -0.02281        0.00506       -0.02349        0.02653        0.03800        0.04067        0.03530        0.00150        0.05001        0.05565        0.00594       -0.00322       -0.04595       -0.06456        0.01363        0.12054        0.04018       -0.04882       -0.21770       -0.44576
-0.068191 0.625361 0.625855 0.626318 0.626751 0.627152 0.627524 0.627864 0.628174 0.628453 0.628701 0.628919 0.629106 0.629262 0.629387 0.629482 0.629546 0.629580 0.629583 0.629555 0.629496 0.629407 0.629287 0.629136 0.628955 0.628743 2.118910 0.805357 -0.920589 -2.854761 -3.326508 -2.106648 -1.584035 0.360944 0.878831 2.048632 3.600747 3.417896 3.464739 3.374669 2.242069 0.671877 0.004796 -0.578926 -0.999336 -0.800314 -0.104296 0.733169 0.821235 0.870856 1.377105 1.753752 0.978192 0.894877 0.357400 0.088717 -0.320695 0.312438 0.055303 0.502039 0.634636 0.272913 0.519695 0.651717 0.763832 0.578432 0.500911 0.282914 0.013303 -0.005570 -0.042327 0.068569 0.341680 -0.074117 0.091482 -0.245205 -0.114542 -0.143869 -0.030431 -0.060977 -0.034518 0.053006 0.198462 0.156089 0.436422 0.305119 0.500647 0.460029 0.789750 0.795264 0.875209 0.952531 1.006649 0.969144 1.202237 1.080805 1.216135 0.986525 0.874164 1.061626 0.824722 0.708980 0.505983 0.509261 0.327792 0.296341 0.432169 0.079931 0.038600 -0.051961 -0.204689 0.108357 -0.176556 0.025015 0.141867 0.231462 0.338877 0.441335 0.567595 0.719289 0.898038 0.765794 1.086785 1.065723 0.940921 0.991829 0.928931 0.833603 0.777640 0.618012 0.420005 0.342963 0.153191 -0.044563 0.026929 0.104848 -0.104476 -0.060057 0.110074 0.158652 0.243980 0.395865 0.453967 0.560350 0.765353 0.787718 0.694859 0.709728 0.763932 0.620375 0.553887 0.469706 0.248501 0.218114 0.178054 0.090423 0.030412 0.037105 0.159667 0.067105 0.220143 0.341652 0.293620 0.465739 0.438659 0.440507 0.555202 0.439777 0.446200 0.420319 0.358454 0.288615 0.266265 0.170690 0.138972 0.008675 0.074209 0.140595 0.130055 0.209905 0.257909 0.235004 0.292061 0.334552 0.401884 0.331210 0.234688 0.202353 0.206998 0.127238 0.042044 0.095612 0.002816 0.077074 0.071574 0.092761 0.109571 0.143671 0.243407 0.150495 0.215518 0.179212 0.201101 0.141389 0.055056 -0.017685 0.068315 0.031886 -0.000528 -0.037273 0.107148 0.128772 0.052338 0.109720 0.083986 0.060705 0.183045 0.051051 0.048556 0.057840 0.027001 0.011821 -0.004153 0.030543 -0.009900 -0.018396 0.031579 0.047226 0.069470 -0.019274 0.021251 0.003545 0.050850 -0.012887 -0.026564 0.003086 0.027206 0.035980 0.010708 0.052428 0.018589 0.005493 -0.011002 0.027450 -0.037829 -0.033593 -0.037582 -0.083036 -0.027312 -0.008118 0.044491 -0.027052 0.008230 0.010440 -0.025564 -0.023792 -0.041752 -0.034224 -0.012081 -0.034768 -0.016978 0.036323 -0.043542 0.039623 -0.002862 0.016055 -0.017002 -0.014358 0.016872 -0.040175 -0.079158 -0.024956 0.035039 -0.037101 -0.003080 0.017788 -0.005898 -0.003789 0.006572 -0.033423 -0.024272 -0.085032 -0.038262 -0.005120 0.002873 0.005212 -0.020167 -0.043239 0.004599 0.025325 -0.047460 0.081095 -0.052134 0.044246 0.004152 0.025653 -0.003910 0.040313 0.027931 0.085284 0.049393 0.013632 0.115416 0.096988 -0.007056 0.076033 0.057790 0.018284 0.029012 0.010408 0.005378 0.003238 -0.074618 0.052994 -0.059776 -0.002510 0.011645 -0.021277 0.016565 0.008321 -0.043220 -0.056114 -0.001443 0.021699 0.052627 -0.080846 0.024239 -0.072199 -0.051888 0.080546 -0.037824 0.008831 -0.051870 0.057016 0.003550 -0.045383 0.009354 -0.027614 -0.030795 0.048529 -0.022734 -0.051749 0.053914 -0.058353 -0.050679 -0.021174 -0.034399 0.074082 0.024357 0.055536 0.052425 -0.013613 0.048452 0.135594 -0.011529 -0.071306 -0.035639 -0.164897 0.067929 0.242873 0.047171 -0.082157 -0.749301
0.072396 0.072903 0.074423 0.076957 0.080504 0.085062 0.090630 0.097208 0.104791 0.113379 0.122967 0.133551 0.145126 0.157684 0.171219 0.185720 0.201176 0.217575 0.234900 0.253135 0.272258 0.292247 0.313074 0.334709 0.357119 0.380266 0.404106 0.428594 0.453677 0.479298 0.505394 0.531896 0.558731 0.585817 0.613067 0.640387 0.667678 0.694830 0.721730 0.748256 0.774280 0.799667 0.824276 0.847957 0.870556 0.891915 0.911866 0.930241 0.946866 0.961564 0.974156 0.984462 0.992301 0.997494 0.999865 0.999241 0.995455 0.988349 0.977771 0.963583 0.945660 0.923891 0.898183 0.868463 0.834680 0.796808 0.754847 0.708824 0.658801 0.604868 0.547154 0.485823 0.421077 0.353157 0.282345 0.208965 0.133380 0.055995 0.022744 0.102354 0.182312 0.262061 0.341012 0.418548 0.494027 0.566787 0.636154 0.701444 0.761974 0.817068 0.866064 0.908324 0.943241 0.970253 0.988848 0.998573 0.999048 0.989976 0.971145 0.942446 0.903874 0.855540 0.797674 0.730633 0.654901 0.571094 0.479959 0.382371 0.279332 0.171960 0.061485 0.050766 0.163380 0.274876 0.383721 0.488351 0.587198 0.678709 0.761374 0.833754 0.894509 0.942425 0.976441 0.995680 0.999471 0.987374 0.959200 0.915031 0.855230 0.780451 0.691645 0.590053 0.477202 0.354889 0.225159 0.090278 0.047303 0.184987 0.320079 0.449838 0.571532 0.682499 0.780206 0.862319 0.926757 0.971754 0.995921 0.998287 0.978350 0.936108 0.872084 0.787337 0.683461 0.562571 0.427274 0.280622 0.126057 0.032667 0.191565 0.346516 0.493379 0.628095 0.746808 0.845988 0.922534 0.973893 0.998153 0.994126 0.961418 0.900469 0.812581 0.699910 0.565435 0.412895 0.246712 0.071863 0.106252 0.281970 0.449547 0.603342 0.738017 0.848734 0.931336 0.982522 1.000000 0.982605 0.930385 0.844646 0.727951 0.584074 0.417899 0.235280 0.042854 0.152194 0.342393 0.520257 0.678602 0.810836 0.911253 0.975299 0.999801 0.983150 0.925426 0.828452 0.695777 0.532582 0.345506 0.142406 0.067957 0.276288 0.473151 0.649415 0.796680 0.907699 0.976757 0.999998 0.975674 0.904294 0.788678 0.633891 0.447060 0.237081 0.014228 0.210338 0.425112 0.618842 0.781124 0.902990 0.977425 0.999813 0.968260 0.883787 0.750355 0.574741 0.366233 0.136189 0.102568 0.336433 0.551799 0.735857 0.877373 0.967412 0.999945 0.972295 0.885404 0.743877 0.555802 0.332342 0.087117 0.164595 0.406791 0.623762 0.801123 0.926804 0.991905 0.991387 0.924516 0.795030 0.611009 0.384436 0.130468 0.133529 0.389159 0.618256 0.804207 0.933186 0.995225 0.985054 0.902614 0.753192 0.547173 0.299384 0.028091 0.246310 0.502818 0.721426 0.884712 0.979287 0.996947 0.935463 0.798911 0.597503 0.346905 0.067087 0.219219 0.488333 0.717606 0.887346 0.982562 0.994366 0.920886 0.767596 0.547021 0.277803 0.016806 0.310895 0.578167 0.794292 0.939175 0.998887 0.967099 0.845841 0.645513 0.384101 0.085653 0.221870 0.509191 0.748481 0.916127 0.995111 0.976838 0.862180 0.661599 0.394318 0.086575 0.230871 0.525790 0.767757 0.931328 0.998798 0.962233 0.824510 0.599250 0.309602 0.014029 0.337112 0.624652 0.844987 0.973350 0.994751 0.905854 0.715594 0.444429 0.122278 0.214697 0.528104 0.781689 0.945584 0.999932 0.937411 0.764364 0.500325 0.175954 0.170407 0.497206 0.764666 0.939678 0.999995 0.937204 0.758045 0.483876 0.148283 0.206924 0.536860 0.799228 0.959808 0.997048 0.905092 0.694869 0.392969 0.038454 0.322099 0.640675
1.000000 1.000000 1.000000 1.000000 1.000000 1.000000 1.000000 1.000000 1.000000 1.000000 1.000000 1.000000 1.000000 1.000000 1.000000 1.000000 1.000000 1.000000 1.000000 1.000000 1.000000 1.000000 1.000000 1.000000 1.000000 1.000000 0.353687 0.353687 0.353687 0.353687 0.353687 0.353687 0.353687 0.353687 0.353687 0.353687 0.353687 0.353687 0.353687 0.353687 0.353687 0.353687 0.353687 0.353687 0.353687 0.353687 0.353687 0.353687 0.353687 0.353687 0.353687 0.353687 0.353687 0.353687 0.353687 0.312036 0.312036 0.312036 0.312036 0.312036 0.312036 0.312036 0.312036 0.312036 0.312036 0.312036 0.312036 0.312036 0.312036 0.312036 0.312036 0.312036 0.312036 0.312036 0.312036 0.312036 0.308752 0.320354 0.319399 0.310602 0.305062 0.308563 0.311354 0.323796 0.329027 0.331227 0.349140 0.370803 0.384102 0.393912 0.400500 0.399173 0.408592 0.433212 0.479697 0.555474 0.914858 0.916116 0.912441 0.918572 0.919578 0.919928 0.920332 0.921169 0.922656 0.923168 0.926065 0.929376 0.934492 0.937051 0.951909 0.952959 0.964254 0.964943 0.963947 0.962470 0.970530 0.969329 0.968919 0.968836 0.969858 0.968775 0.968214 0.968365 0.971338 0.969947 0.968169 0.967710 0.965559 0.964038 0.962197 0.961731 0.961855 0.962128 0.962210 0.962650 0.963465 0.963515 0.964003 0.964404 0.966291 0.966961 0.968047 0.967940 0.963202 0.970318 0.969079 0.968109 0.967996 0.966807 0.966409 0.966737 0.967367 0.967612 0.965331 0.954339 0.943857 0.939593 0.933453 0.926568 0.927447 0.931069 0.931974 0.932323 0.929625 0.924417 0.915173 0.916724 0.913097 0.895855 0.898013 0.899355 0.900803 0.901025 0.894421 0.881877 0.878431 0.874828 0.874665 0.872930 0.865142 0.861034 0.853524 0.853561 0.832020 0.845055 0.817181 0.789125 0.789154 0.768247 0.761880 0.760381 0.764362 0.768130 0.772928 0.768815 0.761142 0.739065 0.724718 0.712794 0.720940 0.721445 0.663926 0.640444 0.620783 0.633067 0.631626 0.645301 0.642571 0.603026 0.569728 0.554554 0.534121 0.523403 0.516465 0.529994 0.521066 0.518361 0.518565 0.523527 0.502898 0.451184 0.399108 0.391276 0.393918 0.405407 0.382084 0.352210 0.321225 0.320825 0.321441 0.232321 0.222663 0.192150 0.184613 0.200442 0.205126 0.215475 0.223423 0.200025 0.180597 0.184635 0.111428 0.197720 0.159572 0.088893 0.097530 0.092906 0.093184 0.079356 0.056546 0.073187 0.058464 0.059455 0.069805 0.029803 0.004043 -0.038734 -0.000909 -0.002819 0.019022 0.018327 -0.012351 -0.026940 -0.036644 -0.044443 -0.020097 -0.028014 -0.033386 -0.027497 -0.021483 -0.037318 -0.009502 -0.010133 -0.027495 -0.058708 -0.087326 -0.022323 -0.033441 -0.020123 -0.030167 -0.027152 -0.033223 -0.008705 0.009899 0.017419 0.073483 0.071058 0.051078 0.079636 0.043472 0.009518 0.049394 0.008101 -0.041721 -0.008152 -0.017405 -0.036902 -0.071190 -0.056266 -0.099068 -0.018306 -0.052433 -0.050007 -0.032748 -0.065533 -0.078236 -0.105183 -0.109951 -0.114767 -0.102777 -0.112320 -0.101165 -0.108781 -0.038163 -0.017039 -0.022033 -0.040846 -0.040937 -0.054881 -0.049256 -0.055939 -0.041231 -0.016081 -0.011502 -0.022402 -0.037552 -0.071336 -0.119302 -0.140984 -0.132169 -0.082679 -0.063930 -0.047587 -0.063245 -0.063245 -0.063245 -0.063245 -0.066071 -0.066071 -0.066071 -0.066071 -0.066071 -0.066071 -0.066071 -0.066071 -0.066071 -0.040518 -0.040518 -0.040518 -0.040518 -0.040518 -0.040518 -0.040518 -0.040518 -0.040518 -0.040518 -0.040518 -0.040518 -0.040518 -0.040518 -0.040518 -0.040518
0.000000 0.000000 0.000000 0.000000 0.000000 0.000000 0.000000 0.000000 0.000000 0.000000 0.000000 0.000000 0.000000 0.000000 0.000000 0.000000 0.000000 0.000000 0.000000 0.000000 0.000000 0.000000 0.000000 0.000000 0.000000 0.000000 0.180334 0.180334 0.180334 0.180334 0.180334 0.180334 0.180334 0.180334 0.180334 0.180334 0.180334 0.180334 0.180334 0.180334 0.180334 0.180334 0.180334 0.180334 0.180334 0.180334 0.180334 0.180334 0.180334 0.180334 0.180334 0.180334 0.180334 0.180334 0.180334 0.199007 0.199007 0.199007 0.199007 0.199007 0.199007 0.199007 0.199007 0.199007 0.199007 0.199007 0.199007 0.199007 0.199007 0.199007 0.199007 0.199007 0.199007 0.199007 0.199007 0.199007 0.199007 0.199007 0.199007 0.199007 0.199007 0.199007 0.199007 0.199007 0.199007 0.199007 0.199007 0.199007 0.199007 0.199007 0.199007 0.199007 0.199007 0.199007 0.199007 0.199007 0.230940 0.230940 0.230940 0.230940 0.230940 0.230940 0.230940 0.230940 0.230940 0.230940 0.230940 0.230940 0.230940 0.230940 0.230940 0.230940 0.230940 0.230940 0.230940 0.230940 0.230940 0.230940 0.230940 0.230940 0.230940 0.230940 0.230940 0.230940 0.244339 0.244339 0.244339 0.244339 0.244339 0.244339 0.244339 0.244339 0.244339 0.244339 0.244339 0.244339 0.244339 0.244339 0.244339 0.244339 0.244339 0.244339 0.244339 0.244339 0.244339 0.244339 0.244339 0.251976 0.251976 0.251976 0.251976 0.251976 0.251976 0.251976 0.251976 0.251976 0.251976 0.251976 0.251976 0.251976 0.251976 0.251976 0.251976 0.251976 0.251976 0.251976 0.251976 0.256074 0.256074 0.256074 0.256074 0.256074 0.256074 0.256074 0.256074 0.256074 0.256074 0.256074 0.256074 0.256074 0.256074 0.256074 0.256074 0.256074 0.256074 0.264906 0.264906 0.264906 0.264906 0.264906 0.264906 0.264906 0.264906 0.264906 0.264906 0.264906 0.264906 0.264906 0.264906 0.264906 0.264906 0.269680 0.269680 0.269680 0.269680 0.269680 0.269680 0.269680 0.269680 0.269680 0.269680 0.269680 0.269680 0.269680 0.269680 0.264906 0.264906 0.264906 0.264906 0.264906 0.264906 0.264906 0.264906 0.264906 0.264906 0.264906 0.264906 0.264906 0.264906 0.256074 0.256074 0.256074 0.256074 0.256074 0.256074 0.256074 0.256074 0.256074 0.256074 0.256074 0.256074 0.256074 0.256074 0.269680 0.269680 0.269680 0.269680 0.269680 0.269680 0.269680 0.269680 0.269680 0.269680 0.269680 0.269680 0.264906 0.264906 0.264906 0.264906 0.264906 0.264906 0.264906 0.264906 0.264906 0.264906 0.264906 0.264906 0.269680 0.269680 0.269680 0.269680 0.269680 0.269680 0.269680 0.269680 0.269680 0.269680 0.269680 0.264906 0.264906 0.264906 0.264906 0.264906 0.264906 0.264906 0.264906 0.264906 0.264906 0.264906 0.256074 0.256074 0.256074 0.256074 0.256074 0.256074 0.256074 0.256074 0.256074 0.256074 0.256074 0.264906 0.264906 0.264906 0.264906 0.264906 0.264906 0.264906 0.264906 0.264906 0.264906 0.260378 0.260378 0.260378 0.260378 0.260378 0.260378 0.260378 0.260378 0.260378 0.260378 0.264906 0.264906 0.264906 0.264906 0.264906 0.264906 0.264906 0.264906 0.264906 0.260378 0.260378 0.260378 0.260378 0.260378 0.260378 0.260378 0.260378 0.260378 0.256074 0.256074 0.256074 0.256074 0.256074 0.256074 0.256074 0.256074 0.256074 0.251976 0.251976 0.251976 0.251976 0.251976 0.251976 0.251976 0.251976 0.251976 0.251976 0.251976 0.251976 0.251976 0.251976 0.251976 0.251976
