# Output from CTFFind version 4.1.9, run on 2019-11-02 12:27:13
# Input file: stack16_ub_averaged_750.mrc ; Number of micrographs: 1
# Pixel size: 3.000 Angstroms ; acceleration voltage: 300.0 keV ; spherical aberration: 0.00 mm ; amplitude contrast: 0.07
# Box size: 512 pixels ; min. res.: 30.0 Angstroms ; max. res.: 5.0 Angstroms ; min. def.: 5000.0 um; max. def. 50000.0 um; num. frames averaged: 1
# 6 lines per micrograph: #1 - spatial frequency (1/Angstroms); #2 - 1D rotational average of spectrum (assuming no astigmatism); #3 - 1D rotational average of spectrum; #4 - CTF fit; #5 - cross-correlation between spectrum and CTF fit; #6 - 2sigma of expected cross correlation of noise
0.000000 0.000651 0.001302 0.001953 0.002604 0.003255 0.003906 0.004557 0.005208 0.005859 0.006510 0.007161 0.007812 0.008464 0.009115 0.009766 0.010417 0.011068 0.011719 0.012370 0.013021 0.013672 0.014323 0.014974 0.015625 0.016276 0.016927 0.017578 0.018229 0.018880 0.019531 0.020182 0.020833 0.021484 0.022135 0.022786 0.023438 0.024089 0.024740 0.025391 0.026042 0.026693 0.027344 0.027995 0.028646 0.029297 0.029948 0.030599 0.031250 0.031901 0.032552 0.033203 0.033854 0.034505 0.035156 0.035807 0.036458 0.037109 0.037760 0.038411 0.039062 0.039714 0.040365 0.041016 0.041667 0.042318 0.042969 0.043620 0.044271 0.044922 0.045573 0.046224 0.046875 0.047526 0.048177 0.048828 0.049479 0.050130 0.050781 0.051432 0.052083 0.052734 0.053385 0.054036 0.054688 0.055339 0.055990 0.056641 0.057292 0.057943 0.058594 0.059245 0.059896 0.060547 0.061198 0.061849 0.062500 0.063151 0.063802 0.064453 0.065104 0.065755 0.066406 0.067057 0.067708 0.068359 0.069010 0.069661 0.070312 0.070964 0.071615 0.072266 0.072917 0.073568 0.074219 0.074870 0.075521 0.076172 0.076823 0.077474 0.078125 0.078776 0.079427 0.080078 0.080729 0.081380 0.082031 0.082682 0.083333 0.083984 0.084635 0.085286 0.085938 0.086589 0.087240 0.087891 0.088542 0.089193 0.089844 0.090495 0.091146 0.091797 0.092448 0.093099 0.093750 0.094401 0.095052 0.095703 0.096354 0.097005 0.097656 0.098307 0.098958 0.099609 0.100260 0.100911 0.101562 0.102214 0.102865 0.103516 0.104167 0.104818 0.105469 0.106120 0.106771 0.107422 0.108073 0.108724 0.109375 0.110026 0.110677 0.111328 0.111979 0.112630 0.113281 0.113932 0.114583 0.115234 0.115885 0.116536 0.117188 0.117839 0.118490 0.119141 0.119792 0.120443 0.121094 0.121745 0.122396 0.123047 0.123698 0.124349 0.125000 0.125651 0.126302 0.126953 0.127604 0.128255 0.128906 0.129557 0.130208 0.130859 0.131510 0.132161 0.132812 0.133464 0.134115 0.134766 0.135417 0.136068 0.136719 0.137370 0.138021 0.138672 0.139323 0.139974 0.140625 0.141276 0.141927 0.142578 0.143229 0.143880 0.144531 0.145182 0.145833 0.146484 0.147135 0.147786 0.148438 0.149089 0.149740 0.150391 0.151042 0.151693 0.152344 0.152995 0.153646 0.154297 0.154948 0.155599 0.156250 0.156901 0.157552 0.158203 0.158854 0.159505 0.160156 0.160807 0.161458 0.162109 0.162760 0.163411 0.164062 0.164714 0.165365 0.166016 0.166667 0.167318 0.167969 0.168620 0.169271 0.169922 0.170573 0.171224 0.171875 0.172526 0.173177 0.173828 0.174479 0.175130 0.175781 0.176432 0.177083 0.177734 0.178385 0.179036 0.179688 0.180339 0.180990 0.181641 0.182292 0.182943 0.183594 0.184245 0.184896 0.185547 0.186198 0.186849 0.187500 0.188151 0.188802 0.189453 0.190104 0.190755 0.191406 0.192057 0.192708 0.193359 0.194010 0.194661 0.195312 0.195964 0.196615 0.197266 0.197917 0.198568 0.199219 0.199870 0.200521 0.201172 0.201823 0.202474 0.203125 0.203776 0.204427 0.205078 0.205729 0.206380 0.207031 0.207682 0.208333 0.208984 0.209635 0.210286 0.210938 0.211589 0.212240 0.212891 0.213542 0.214193 0.214844 0.215495 0.216146 0.216797 0.217448 0.218099 0.218750 0.219401 0.220052 0.220703 0.221354 0.222005 0.222656 0.223307 0.223958 0.224609 0.225260 0.225911 0.226562 0.227214 0.227865 0.228516 0.229167 0.229818 0.230469 0.231120 0.231771 0.232422 0.233073 0.233724 0.234375 0.235026 0.235677
       0.34220        0.34220        0.34220        0.34220        0.34220        0.34220        0.34220        0.34220        0.34220        0.34220        0.34220        0.34220        0.34220        0.34220        0.34220        0.34220        0.34220        0.34220        0.34220        0.34220        0.34220        0.34220        0.34220        0.34220        0.34220        0.34220        0.34220        0.34220        0.34220        0.34220        0.34220        0.34220        0.34220        0.34220        0.34220        0.34220        0.34220        0.34220        0.34220        0.34220        0.34220        0.34220        0.34220        0.34220        0.34220        0.34220        0.34220        0.34220        0.34220        0.34220        0.34220        0.48861        0.70274        0.45465       -0.11216       -0.41332       -0.57260       -0.66336       -0.74710       -0.76463       -0.86960       -0.91506       -0.76016       -0.92595       -0.87256       -1.02485       -1.09778       -0.99013       -0.96342       -0.88461       -0.86341       -0.75231       -0.64215       -0.50165       -0.42542       -0.21915       -0.11798       -0.02252        0.20360        0.24344        0.30759        0.38454        0.43881        0.51598        0.57992        0.59422        0.59112        0.50170        0.54512        0.48615        0.39058        0.32183        0.20562        0.17166        0.10287       -0.06172       -0.11099       -0.09331        0.00912       -0.01725        0.01131        0.02811        0.20953        0.21917        0.39114        0.45626        0.56078        0.69824        0.75906        0.72906        0.70526        0.70127        0.58333        0.54192        0.39954        0.27126        0.19195        0.14376        0.06563        0.02215        0.02207        0.06156        0.07622        0.26938        0.41709        0.50555        0.58769        0.63812        0.70424        0.66049        0.65068        0.67022        0.60913        0.47970        0.28347        0.23423        0.20607        0.12974        0.04519        0.09113        0.12297        0.24993        0.33818        0.41436        0.49980        0.53737        0.66240        0.60978        0.55553        0.50963        0.36580        0.21021        0.21220        0.15158        0.11196        0.12090        0.21599        0.25188        0.35781        0.44151        0.43956        0.56516        0.50959        0.44691        0.45230        0.38241        0.32327        0.27632        0.21772        0.23677        0.20889        0.20992        0.32347        0.44815        0.48469        0.47913        0.54990        0.49526        0.45573        0.39433        0.29359        0.22402        0.23139        0.24525        0.26603        0.27394        0.32301        0.44215        0.49858        0.48549        0.45947        0.41668        0.38675        0.36210        0.24787        0.22517        0.24559        0.29328        0.35322        0.36094        0.39044        0.40949        0.44257        0.36979        0.34792        0.31281        0.30326        0.26622        0.25787        0.30844        0.34491        0.41500        0.41534        0.39714        0.39368        0.40685        0.34930        0.28846        0.29076        0.27627        0.30904        0.35920        0.36637        0.41550        0.35836        0.36663        0.38998        0.34659        0.31649        0.27867        0.29635        0.33964        0.33007        0.32525        0.37539        0.39456        0.33338        0.35175        0.29510        0.30746        0.28732        0.28212        0.29979        0.33095        0.38312        0.36500        0.34643        0.32641        0.28397        0.27674        0.29588        0.28179        0.31271        0.36739        0.39367        0.33771        0.31756        0.31023        0.29675        0.28034        0.27844        0.29866        0.34017        0.33655        0.34189        0.31530        0.34698        0.32377        0.28661        0.31591        0.32157        0.33139        0.33723        0.31880        0.31576        0.30670        0.32636        0.31052        0.33457        0.38702        0.33424        0.36101        0.32081        0.31395        0.28991        0.31032        0.28973        0.30936        0.31505        0.35068        0.36045        0.31701        0.32209        0.31528        0.29135        0.29091        0.28975        0.33240        0.34329        0.35545        0.33288        0.32404        0.25820        0.26556        0.31348        0.34760        0.31876        0.30001        0.28383        0.28588        0.32469        0.30764        0.30856        0.33387        0.34422        0.31085        0.24081        0.28927        0.28156        0.28621        0.32130        0.31947        0.34338        0.34219        0.27838        0.26531        0.29195        0.26975        0.28841        0.27638        0.24786        0.26510        0.24750        0.28009        0.27964        0.27598        0.26319        0.31746        0.32619        0.31461        0.28677        0.30571        0.24394        0.26853        0.25445        0.33794        0.34406        0.22962        0.25374        0.26619        0.24248        0.24906        0.29646        0.22671        0.14558        0.17718        0.25137        0.27661        0.22978        0.13786        0.02990       -0.41881       -0.74916
3.163237 3.123519 3.084058 3.044854 3.005906 2.967214 2.928779 2.890601 2.852679 2.815014 2.777605 2.740453 2.703558 2.666919 2.630536 2.594410 2.558541 2.522928 2.487572 2.452472 2.417629 2.383043 2.348713 2.314640 2.280823 2.247262 2.213959 2.180912 2.148121 2.115587 2.083310 2.051289 2.019524 1.988017 1.956766 1.925771 1.895033 1.864551 1.834326 1.804358 1.774646 1.745191 1.715992 1.687050 1.658364 1.629935 1.601763 1.573847 1.546188 1.518785 1.491639 1.548533 1.739192 1.648081 0.993550 0.707925 0.497893 0.450350 0.339142 0.280232 0.215650 0.033841 0.212000 0.092880 0.003772 -0.048699 -0.191743 -0.145093 -0.085254 -0.085522 -0.093486 0.015816 0.036051 0.241220 0.153822 0.371611 0.453648 0.485544 0.725418 0.708575 0.715552 0.847126 0.830038 0.862665 0.929368 0.898816 0.946700 0.756788 0.841441 0.845375 0.623311 0.607525 0.456004 0.434022 0.385502 0.205314 0.115638 0.093785 0.199576 0.139947 0.187935 0.103177 0.307163 0.281801 0.452486 0.409870 0.576397 0.638221 0.760150 0.689074 0.657435 0.661878 0.524732 0.498605 0.360274 0.282502 0.105177 0.133641 -0.010944 -0.027685 -0.052711 -0.041835 -0.016338 0.017869 0.262862 0.321684 0.373837 0.389265 0.458118 0.487116 0.438121 0.485281 0.380430 0.368844 0.131069 0.044383 0.050143 -0.025516 -0.149232 -0.067829 -0.133835 -0.004915 0.112534 0.134898 0.233404 0.235798 0.364501 0.440954 0.332222 0.367709 0.260292 0.102648 0.025799 0.026503 -0.013506 -0.022484 -0.016465 0.085121 0.104812 0.241076 0.216243 0.287736 0.350266 0.222150 0.230839 0.202472 0.117761 0.067351 0.037976 0.013470 0.026520 -0.030068 0.015189 0.174911 0.212453 0.236796 0.271617 0.238700 0.248565 0.154561 0.114589 -0.014041 -0.009995 0.004062 0.025644 0.019253 0.038456 0.114658 0.202201 0.216817 0.216958 0.139155 0.146638 0.080635 0.057267 -0.060943 -0.015802 -0.007470 0.055754 0.066249 0.076452 0.152382 0.088889 0.170952 0.070227 0.055065 0.045728 0.029299 0.002398 0.009295 0.055249 0.085152 0.135462 0.145570 0.065377 0.133552 0.103178 0.019967 0.009664 0.007469 -0.004277 0.059664 0.063148 0.101663 0.100598 0.077026 0.066368 0.084115 0.036972 0.015662 -0.013895 0.014939 0.057514 0.029087 0.042577 0.083673 0.086133 0.055501 0.034800 0.009156 0.016034 -0.006521 -0.010409 0.015016 0.055540 0.106465 0.061270 0.057936 0.040673 -0.014207 -0.000022 0.015360 0.013383 0.027952 0.106666 0.059144 0.026577 0.044930 0.003005 0.027254 -0.012133 -0.001165 0.023461 0.065739 0.040949 0.043660 0.031587 0.057762 0.029451 -0.004015 0.033480 0.044241 0.040974 0.035900 0.031625 0.006201 -0.006493 0.029183 0.008368 0.047170 0.077763 0.048333 0.027109 0.011967 0.004364 -0.003644 0.008949 0.003741 0.013418 -0.004396 0.086812 0.051912 0.037211 0.041472 0.005219 0.008626 0.009446 -0.005951 0.056657 0.063886 0.086316 0.045840 0.050416 -0.026007 0.013334 0.038265 0.074741 0.030742 0.036399 0.006910 0.004081 0.051225 0.047692 0.038820 0.068267 0.070528 0.056947 -0.023896 0.021567 0.041081 0.025408 0.045462 0.073882 0.076515 0.071961 0.016851 0.004238 0.017468 0.002528 0.021255 -0.014925 -0.027293 -0.008289 -0.049685 0.004852 -0.005851 0.005817 -0.073108 0.007804 0.015012 0.000843 -0.035439 0.029435 -0.091471 -0.024895 -0.038488 0.040527 0.070128 -0.107595 -0.020589 0.032821 0.015201 -0.041010 0.045013 0.029627 0.003780 -0.043388 0.083205 0.242518 0.203417 0.096338 0.029759 -0.664286
0.072396 0.073046 0.074994 0.078241 0.082786 0.088626 0.095760 0.104184 0.113896 0.124889 0.137157 0.150692 0.165483 0.181519 0.198783 0.217258 0.236920 0.257745 0.279702 0.302755 0.326864 0.351981 0.378054 0.405021 0.432816 0.461360 0.490571 0.520353 0.550603 0.581207 0.612040 0.642969 0.673845 0.704512 0.734801 0.764531 0.793511 0.821537 0.848397 0.873867 0.897715 0.919698 0.939569 0.957073 0.971952 0.983945 0.992789 0.998225 0.999997 0.997858 0.991570 0.980908 0.965665 0.945656 0.920717 0.890718 0.855558 0.815173 0.769545 0.718696 0.662700 0.601686 0.535838 0.465400 0.390679 0.312050 0.229953 0.144893 0.057446 0.031746 0.121979 0.212486 0.302443 0.390979 0.477175 0.560080 0.638718 0.712097 0.779228 0.839134 0.890866 0.933520 0.966255 0.988309 0.999019 0.997837 0.984349 0.958292 0.919570 0.868270 0.804670 0.729255 0.642719 0.545973 0.440141 0.326557 0.206756 0.082461 0.044436 0.171900 0.297782 0.419852 0.535836 0.643465 0.740516 0.824864 0.894534 0.947753 0.983001 0.999062 0.995072 0.970558 0.925477 0.860244 0.775748 0.673365 0.554947 0.422810 0.279704 0.128767 0.026535 0.182475 0.335156 0.480604 0.614866 0.734135 0.834855 0.913844 0.968401 0.996417 0.996473 0.967913 0.910914 0.826521 0.716658 0.584121 0.432525 0.266234 0.090251 0.089917 0.268422 0.439258 0.596468 0.734355 0.847704 0.931992 0.983593 0.999955 0.979752 0.922991 0.831077 0.706823 0.554406 0.379264 0.187925 0.012205 0.213116 0.406503 0.584112 0.738100 0.861399 0.948062 0.993584 0.995169 0.951930 0.865023 0.737670 0.575100 0.384382 0.174154 0.045732 0.264652 0.471723 0.656330 0.808705 0.920460 0.985085 0.998377 0.958758 0.867464 0.728590 0.548976 0.337927 0.106782 0.131660 0.363830 0.576152 0.755850 0.891747 0.975003 0.999740 0.963521 0.867627 0.717116 0.520639 0.290013 0.039566 0.214703 0.456141 0.668525 0.837175 0.950011 0.998485 0.978294 0.889833 0.738333 0.533646 0.289701 0.023620 0.245441 0.497637 0.713916 0.877478 0.975147 0.998504 0.944703 0.816876 0.624082 0.380778 0.105816 0.178941 0.450333 0.685776 0.865175 0.972710 0.998302 0.938679 0.797858 0.587033 0.323797 0.030785 0.266216 0.540491 0.766826 0.923858 0.996192 0.976012 0.864045 0.669755 0.410686 0.111000 0.200681 0.493958 0.739629 0.912645 0.994741 0.976506 0.858587 0.651916 0.376864 0.061365 0.261814 0.558446 0.796463 0.949500 0.999924 0.941016 0.778015 0.527855 0.217592 0.118403 0.442168 0.716413 0.908878 0.996220 0.967011 0.823400 0.581224 0.268445 0.077894 0.415987 0.704265 0.906554 0.996739 0.962294 0.806227 0.547083 0.216960 0.142293 0.484294 0.764095 0.944156 0.999522 0.921487 0.719164 0.418692 0.060069 0.308004 0.634680 0.874014 0.991525 0.969375 0.809300 0.532831 0.178658 0.202587 0.555464 0.827785 0.978422 0.983716 0.841443 0.571647 0.214103 0.177327 0.542671 0.825034 0.979550 0.980723 0.826900 0.541074 0.167757 0.233725 0.598536 0.866797 0.993545 0.956514 0.760334 0.436360 0.037958 0.368057 0.712533 0.935824 0.998284 0.887602 0.621548 0.245484 0.175078 0.565709 0.856215 0.993396 0.951036 0.735266 0.384102 0.038876 0.455829 0.788910 0.974853 0.977275 0.794124 0.458788 0.034386 0.397829 0.753912 0.963596 0.984413 0.810643 0.475201 0.043823 0.397529 0.759658 0.968229 0.979299 0.788951 0.434898 0.010546 0.454956 0.804839 0.985414 0.956896 0.723688 0.334278 0.128402 0.564355
1.000000 1.000000 1.000000 1.000000 1.000000 1.000000 1.000000 1.000000 1.000000 1.000000 1.000000 1.000000 1.000000 1.000000 1.000000 1.000000 1.000000 1.000000 1.000000 1.000000 1.000000 1.000000 1.000000 1.000000 1.000000 1.000000 1.000000 1.000000 1.000000 1.000000 1.000000 1.000000 1.000000 1.000000 1.000000 1.000000 1.000000 1.000000 1.000000 1.000000 1.000000 1.000000 1.000000 1.000000 1.000000 1.000000 1.000000 1.000000 1.000000 1.000000 1.000000 1.000000 0.941788 0.941788 0.941788 0.941788 0.941788 0.941788 0.941788 0.941788 0.941788 0.941788 0.941788 0.941788 0.941788 0.941788 0.941788 0.941788 0.941788 0.941788 0.941788 0.941788 0.941788 0.941788 0.941788 0.941788 0.941788 0.941788 0.941788 0.941788 0.941788 0.941788 0.941788 0.941788 0.941788 0.922156 0.923644 0.926645 0.927728 0.927688 0.927225 0.926899 0.927110 0.928825 0.931152 0.947799 0.949974 0.950665 0.951972 0.952393 0.955246 0.954031 0.956981 0.965762 0.964677 0.965089 0.965625 0.967121 0.967501 0.967483 0.966119 0.966410 0.965994 0.965134 0.964273 0.963967 0.963674 0.965307 0.965650 0.965602 0.966908 0.966818 0.966514 0.962992 0.961614 0.962924 0.964646 0.964216 0.970352 0.970592 0.979276 0.980038 0.978546 0.978433 0.978533 0.978653 0.968857 0.963068 0.957752 0.946561 0.937561 0.935290 0.937551 0.938439 0.937019 0.932533 0.931680 0.929618 0.925058 0.924326 0.924115 0.925545 0.921367 0.917608 0.900332 0.898978 0.901208 0.900721 0.898684 0.890702 0.886026 0.886725 0.889756 0.892870 0.890124 0.892421 0.888890 0.890119 0.890910 0.892737 0.895974 0.892164 0.890979 0.886896 0.883458 0.878284 0.879681 0.867456 0.870567 0.864511 0.854835 0.847165 0.850213 0.859871 0.868112 0.876128 0.875012 0.875155 0.874320 0.863085 0.864975 0.856986 0.858034 0.863185 0.869348 0.865397 0.862859 0.867804 0.865847 0.868864 0.871060 0.867073 0.865075 0.855713 0.855895 0.857379 0.874765 0.873717 0.862808 0.856382 0.848231 0.855302 0.858972 0.858059 0.859712 0.851768 0.853654 0.843218 0.831103 0.832948 0.837877 0.832468 0.833589 0.831654 0.835575 0.837674 0.836459 0.831398 0.830009 0.835243 0.813894 0.821475 0.824522 0.819662 0.823922 0.816812 0.810255 0.805483 0.805104 0.804407 0.818200 0.815892 0.783840 0.773358 0.781458 0.762166 0.753105 0.749514 0.750056 0.722033 0.705172 0.678460 0.672453 0.661551 0.665332 0.661719 0.649278 0.637695 0.623615 0.618355 0.632597 0.634230 0.599898 0.599783 0.591721 0.586949 0.582473 0.580674 0.576172 0.584522 0.590350 0.554579 0.550511 0.557580 0.532328 0.531365 0.529134 0.521668 0.493569 0.501015 0.499039 0.516165 0.542520 0.504807 0.500473 0.511251 0.527833 0.540000 0.539890 0.524621 0.500304 0.511279 0.483966 0.467614 0.483468 0.495203 0.484910 0.502777 0.491867 0.524461 0.518608 0.505766 0.527777 0.543820 0.543904 0.532150 0.544369 0.523785 0.526774 0.512114 0.467403 0.482543 0.467507 0.417959 0.413838 0.432027 0.420052 0.422022 0.395747 0.395211 0.372329 0.336662 0.349447 0.343383 0.310073 0.269418 0.270868 0.273145 0.241207 0.212657 0.232895 0.181068 0.172475 0.191588 0.203608 0.201223 0.195259 0.215959 0.215959 0.215959 0.215959 0.215959 0.215959 0.215959 0.215959 0.215959 0.215959 0.215959 0.215959 0.215959 0.215959 0.242361 0.242361 0.242361 0.242361 0.242361 0.242361 0.242361 0.242361 0.242361 0.242361 0.242361 0.242361
0.000000 0.000000 0.000000 0.000000 0.000000 0.000000 0.000000 0.000000 0.000000 0.000000 0.000000 0.000000 0.000000 0.000000 0.000000 0.000000 0.000000 0.000000 0.000000 0.000000 0.000000 9401.000000 0.000000 0.000000 0.000000 0.000000 0.000000 0.000000 0.000000 0.000000 0.000000 0.000000 0.000000 0.000000 0.000000 0.000000 0.000000 0.000000 0.000000 0.000000 0.000000 0.000000 0.000000 0.000000 0.000000 0.000000 0.000000 0.000000 0.000000 0.000000 0.000000 0.000000 0.209657 0.209657 0.209657 0.209657 0.209657 0.209657 0.209657 0.209657 0.209657 0.209657 0.209657 0.209657 0.209657 0.209657 0.209657 0.209657 0.209657 0.209657 0.209657 0.209657 0.209657 0.209657 0.209657 0.209657 0.209657 0.209657 0.209657 0.209657 0.209657 0.209657 0.209657 0.209657 0.209657 0.244339 0.244339 0.244339 0.244339 0.244339 0.244339 0.244339 0.244339 0.244339 0.244339 0.244339 0.244339 0.244339 0.244339 0.244339 0.244339 0.244339 0.244339 0.244339 0.244339 0.244339 0.244339 0.244339 0.244339 0.244339 0.260378 0.260378 0.260378 0.260378 0.260378 0.260378 0.260378 0.260378 0.260378 0.260378 0.260378 0.260378 0.260378 0.260378 0.260378 0.260378 0.260378 0.260378 0.260378 0.260378 0.269680 0.269680 0.269680 0.269680 0.269680 0.269680 0.269680 0.269680 0.269680 0.269680 0.269680 0.269680 0.269680 0.269680 0.269680 0.269680 0.269680 0.269680 0.269680 0.269680 0.269680 0.269680 0.269680 0.269680 0.269680 0.269680 0.269680 0.269680 0.269680 0.269680 0.269680 0.269680 0.269680 0.280056 0.280056 0.280056 0.280056 0.280056 0.280056 0.280056 0.280056 0.280056 0.280056 0.280056 0.280056 0.280056 0.280056 0.280056 0.280056 0.280056 0.280056 0.280056 0.280056 0.280056 0.280056 0.280056 0.280056 0.280056 0.280056 0.280056 0.274721 0.274721 0.274721 0.274721 0.274721 0.274721 0.274721 0.274721 0.274721 0.274721 0.274721 0.274721 0.274721 0.285714 0.285714 0.285714 0.285714 0.285714 0.285714 0.285714 0.285714 0.285714 0.285714 0.285714 0.280056 0.280056 0.280056 0.280056 0.280056 0.280056 0.280056 0.280056 0.280056 0.280056 0.280056 0.274721 0.274721 0.274721 0.274721 0.274721 0.274721 0.274721 0.274721 0.274721 0.274721 0.274721 0.280056 0.280056 0.280056 0.280056 0.280056 0.280056 0.280056 0.280056 0.280056 0.280056 0.285714 0.285714 0.285714 0.285714 0.285714 0.285714 0.285714 0.285714 0.285714 0.269680 0.269680 0.269680 0.269680 0.269680 0.269680 0.269680 0.269680 0.269680 0.269680 0.274721 0.274721 0.274721 0.274721 0.274721 0.274721 0.274721 0.274721 0.274721 0.285714 0.285714 0.285714 0.285714 0.285714 0.285714 0.285714 0.285714 0.264906 0.264906 0.264906 0.264906 0.264906 0.264906 0.264906 0.264906 0.264906 0.274721 0.274721 0.274721 0.274721 0.274721 0.274721 0.274721 0.274721 0.269680 0.269680 0.269680 0.269680 0.269680 0.269680 0.269680 0.269680 0.269680 0.269680 0.269680 0.269680 0.269680 0.269680 0.269680 0.269680 0.280056 0.280056 0.280056 0.280056 0.280056 0.280056 0.280056 0.260378 0.260378 0.260378 0.260378 0.260378 0.260378 0.260378 0.260378 0.269680 0.269680 0.269680 0.269680 0.269680 0.269680 0.269680 0.264906 0.264906 0.264906 0.264906 0.264906 0.264906 0.264906 0.264906 0.264906 0.264906 0.264906 0.264906 0.264906 0.264906 0.260378 0.260378 0.260378 0.260378 0.260378 0.260378 0.260378 0.260378 0.260378 0.260378 0.260378 0.260378
