# Output from CTFFind version 4.1.9, run on 2019-11-03 18:51:10
# Input file: stack17_ub_averaged_50.mrc ; Number of micrographs: 1
# Pixel size: 3.000 Angstroms ; acceleration voltage: 300.0 keV ; spherical aberration: 0.00 mm ; amplitude contrast: 0.07
# Box size: 512 pixels ; min. res.: 30.0 Angstroms ; max. res.: 5.0 Angstroms ; min. def.: 5000.0 um; max. def. 50000.0 um; num. frames averaged: 1
# 6 lines per micrograph: #1 - spatial frequency (1/Angstroms); #2 - 1D rotational average of spectrum (assuming no astigmatism); #3 - 1D rotational average of spectrum; #4 - CTF fit; #5 - cross-correlation between spectrum and CTF fit; #6 - 2sigma of expected cross correlation of noise
0.000000 0.000651 0.001302 0.001953 0.002604 0.003255 0.003906 0.004557 0.005208 0.005859 0.006510 0.007161 0.007812 0.008464 0.009115 0.009766 0.010417 0.011068 0.011719 0.012370 0.013021 0.013672 0.014323 0.014974 0.015625 0.016276 0.016927 0.017578 0.018229 0.018880 0.019531 0.020182 0.020833 0.021484 0.022135 0.022786 0.023438 0.024089 0.024740 0.025391 0.026042 0.026693 0.027344 0.027995 0.028646 0.029297 0.029948 0.030599 0.031250 0.031901 0.032552 0.033203 0.033854 0.034505 0.035156 0.035807 0.036458 0.037109 0.037760 0.038411 0.039062 0.039714 0.040365 0.041016 0.041667 0.042318 0.042969 0.043620 0.044271 0.044922 0.045573 0.046224 0.046875 0.047526 0.048177 0.048828 0.049479 0.050130 0.050781 0.051432 0.052083 0.052734 0.053385 0.054036 0.054688 0.055339 0.055990 0.056641 0.057292 0.057943 0.058594 0.059245 0.059896 0.060547 0.061198 0.061849 0.062500 0.063151 0.063802 0.064453 0.065104 0.065755 0.066406 0.067057 0.067708 0.068359 0.069010 0.069661 0.070312 0.070964 0.071615 0.072266 0.072917 0.073568 0.074219 0.074870 0.075521 0.076172 0.076823 0.077474 0.078125 0.078776 0.079427 0.080078 0.080729 0.081380 0.082031 0.082682 0.083333 0.083984 0.084635 0.085286 0.085938 0.086589 0.087240 0.087891 0.088542 0.089193 0.089844 0.090495 0.091146 0.091797 0.092448 0.093099 0.093750 0.094401 0.095052 0.095703 0.096354 0.097005 0.097656 0.098307 0.098958 0.099609 0.100260 0.100911 0.101562 0.102214 0.102865 0.103516 0.104167 0.104818 0.105469 0.106120 0.106771 0.107422 0.108073 0.108724 0.109375 0.110026 0.110677 0.111328 0.111979 0.112630 0.113281 0.113932 0.114583 0.115234 0.115885 0.116536 0.117188 0.117839 0.118490 0.119141 0.119792 0.120443 0.121094 0.121745 0.122396 0.123047 0.123698 0.124349 0.125000 0.125651 0.126302 0.126953 0.127604 0.128255 0.128906 0.129557 0.130208 0.130859 0.131510 0.132161 0.132812 0.133464 0.134115 0.134766 0.135417 0.136068 0.136719 0.137370 0.138021 0.138672 0.139323 0.139974 0.140625 0.141276 0.141927 0.142578 0.143229 0.143880 0.144531 0.145182 0.145833 0.146484 0.147135 0.147786 0.148438 0.149089 0.149740 0.150391 0.151042 0.151693 0.152344 0.152995 0.153646 0.154297 0.154948 0.155599 0.156250 0.156901 0.157552 0.158203 0.158854 0.159505 0.160156 0.160807 0.161458 0.162109 0.162760 0.163411 0.164062 0.164714 0.165365 0.166016 0.166667 0.167318 0.167969 0.168620 0.169271 0.169922 0.170573 0.171224 0.171875 0.172526 0.173177 0.173828 0.174479 0.175130 0.175781 0.176432 0.177083 0.177734 0.178385 0.179036 0.179688 0.180339 0.180990 0.181641 0.182292 0.182943 0.183594 0.184245 0.184896 0.185547 0.186198 0.186849 0.187500 0.188151 0.188802 0.189453 0.190104 0.190755 0.191406 0.192057 0.192708 0.193359 0.194010 0.194661 0.195312 0.195964 0.196615 0.197266 0.197917 0.198568 0.199219 0.199870 0.200521 0.201172 0.201823 0.202474 0.203125 0.203776 0.204427 0.205078 0.205729 0.206380 0.207031 0.207682 0.208333 0.208984 0.209635 0.210286 0.210938 0.211589 0.212240 0.212891 0.213542 0.214193 0.214844 0.215495 0.216146 0.216797 0.217448 0.218099 0.218750 0.219401 0.220052 0.220703 0.221354 0.222005 0.222656 0.223307 0.223958 0.224609 0.225260 0.225911 0.226562 0.227214 0.227865 0.228516 0.229167 0.229818 0.230469 0.231120 0.231771 0.232422 0.233073 0.233724 0.234375 0.235026 0.235677
       0.33473        0.33671        0.33837        0.33896        0.33921        0.33943        0.33951        0.33960        0.33966        0.33970        0.33975        0.33977        0.33981        0.33983        0.33984        0.33986        0.33987        0.33989        0.33990        0.33991        0.33992        0.33992        0.33993        0.33994        0.33995        0.33995        0.33996        0.33996        0.33996        0.33997        0.33997        0.33998        0.33998        0.33998        0.33999        0.33999        0.33999        0.33999        0.34000        0.34000        0.34000        0.34000        0.34000        0.34001        0.34001        0.34001        0.34001        0.34001        0.34002        0.34002        0.34002        0.57705        1.06368        0.81756        0.25580        0.10621       -0.00969       -0.14329        0.09505        0.15576        0.33945        0.27797        0.28682        0.16579        0.24021        0.11862        0.07857        0.01623        0.04085       -0.01540       -0.02468        0.01678       -0.09067       -0.16371       -0.13003       -0.12576       -0.21373       -0.24782       -0.31606       -0.26168       -0.29864       -0.42224       -0.43619       -0.30854       -0.34099       -0.30009       -0.20996       -0.19246       -0.19696       -0.15596       -0.07578       -0.02741        0.01107        0.16344        0.28794        0.40482        0.46758        0.46540        0.47517        0.58617        0.58072        0.63233        0.67716        0.66418        0.69951        0.67190        0.65073        0.68736        0.66231        0.59108        0.63836        0.47756        0.38723        0.31595        0.30801        0.18403        0.11055        0.04433        0.06389        0.01265       -0.02506       -0.01120        0.04891        0.05816        0.02761        0.14815        0.24491        0.38012        0.47200        0.49951        0.60820        0.65853        0.65205        0.64225        0.73298        0.65677        0.61583        0.64036        0.63696        0.55634        0.52184        0.40186        0.27075        0.21483        0.13913        0.17197        0.13940        0.09788        0.08903        0.11102        0.09973        0.16902        0.23177        0.31766        0.38908        0.41516        0.49308        0.53024        0.49677        0.43865        0.50224        0.51802        0.51056        0.44196        0.39867        0.33340        0.27884        0.24813        0.25453        0.22451        0.17733        0.23621        0.27442        0.27403        0.32307        0.35375        0.41372        0.46200        0.53172        0.47883        0.49329        0.51962        0.46273        0.42616        0.41804        0.37454        0.36677        0.29776        0.21385        0.23364        0.23337        0.21582        0.28404        0.26334        0.30993        0.30936        0.37279        0.40748        0.43010        0.45041        0.43209        0.42432        0.41766        0.40875        0.31578        0.33050        0.32670        0.29447        0.25526        0.25769        0.28385        0.29377        0.35642        0.33973        0.35665        0.40485        0.41052        0.39877        0.39767        0.40142        0.39952        0.37531        0.33439        0.28710        0.29562        0.28394        0.30305        0.30012        0.26064        0.28260        0.32963        0.40209        0.37912        0.40281        0.39246        0.39211        0.36226        0.31583        0.33491        0.31652        0.29065        0.29779        0.29114        0.32527        0.32939        0.34602        0.31611        0.33466        0.37269        0.35261        0.33806        0.33686        0.32180        0.26864        0.27398        0.23351        0.25750        0.26811        0.28288        0.32007        0.33983        0.33103        0.33938        0.32401        0.29481        0.30857        0.32029        0.31636        0.27257        0.28501        0.31432        0.30306        0.31746        0.31758        0.33614        0.32506        0.35941        0.33354        0.30089        0.27949        0.33812        0.30458        0.31215        0.32401        0.27039        0.32364        0.34574        0.33711        0.30170        0.34575        0.36867        0.33800        0.32257        0.30291        0.32109        0.32080        0.28376        0.27643        0.32430        0.31469        0.35981        0.35342        0.32509        0.36132        0.27161        0.27548        0.30251        0.22739        0.27908        0.26633        0.27822        0.29022        0.32895        0.30193        0.26216        0.29412        0.30799        0.27525        0.27782        0.26739        0.29077        0.30087        0.26611        0.24353        0.27720        0.27971        0.32975        0.30826        0.31741        0.29237        0.24932        0.25062        0.23896        0.31344        0.28306        0.36378        0.37621        0.26329        0.26519        0.25687        0.25188        0.28672        0.26848        0.24314        0.22699        0.36932        0.37345        0.32796        0.21475        0.20783        0.26690        0.26599        0.12411        0.12645        0.18411        0.22589        0.22750        0.24985        0.00903       -0.00146       -0.24877       -0.58305       -0.78544
2.302224 2.286076 2.267499 2.248382 2.229671 2.209971 2.190820 2.171436 2.152269 2.133252 2.114044 2.095143 2.076188 2.057449 2.038700 2.020026 2.001548 1.983071 1.964685 1.946399 1.928185 1.910131 1.892102 1.874175 1.856333 1.838612 1.820948 1.803373 1.785919 1.768519 1.751246 1.734033 1.716914 1.699904 1.682980 1.666136 1.649385 1.632720 1.616162 1.599675 1.583298 1.566991 1.550790 1.534676 1.518644 1.502717 1.486866 1.471121 1.455457 1.439882 1.424407 1.694846 2.290893 2.350909 1.009253 1.190969 0.935377 0.537134 1.005644 0.867822 1.214031 1.132942 1.238986 0.964342 0.991832 0.942502 0.895537 0.706282 0.679207 0.668993 0.648978 0.689465 0.581082 0.337538 0.424382 0.362972 0.318134 0.226023 0.128565 0.076076 0.204639 -0.045373 -0.223172 0.086586 0.018902 0.008818 0.132748 0.127697 0.160143 0.133831 0.297242 0.368998 0.338424 0.510122 0.733458 0.889953 0.943848 0.984020 1.010321 1.049456 1.129064 1.141207 1.180252 1.244488 1.077043 1.268640 1.054923 1.236467 1.174711 1.015811 1.074494 0.864157 0.749169 0.675940 0.599447 0.404848 0.263417 0.229864 0.202011 0.182934 -0.016312 0.049998 0.131053 0.143131 0.135319 0.110964 0.383637 0.415333 0.714696 0.732761 0.738974 0.889120 0.945455 0.880072 0.979017 0.895135 0.839135 0.789493 0.867733 0.772930 0.627781 0.607478 0.325099 0.253333 0.074396 0.158135 0.092357 0.038382 -0.004213 -0.006855 -0.016003 0.048310 0.155615 0.226242 0.327059 0.382252 0.500346 0.582105 0.532489 0.397290 0.467776 0.529936 0.522457 0.420079 0.366911 0.245367 0.194215 0.150043 0.027696 0.131139 0.012181 0.058380 0.034306 0.136565 0.124846 0.224768 0.255836 0.253715 0.470726 0.380861 0.390221 0.408021 0.393398 0.292375 0.302840 0.264654 0.178834 0.148987 0.028886 -0.035618 0.019778 -0.041468 -0.005949 0.049350 0.035247 0.124696 0.098632 0.219940 0.208179 0.274938 0.288855 0.234688 0.216476 0.246953 0.125504 0.075974 0.106331 0.114504 -0.005121 -0.005748 -0.004774 0.034574 0.063660 0.118476 0.118533 0.148224 0.229246 0.202344 0.195591 0.184237 0.217393 0.207544 0.180816 0.065180 0.074197 0.046715 0.012324 0.121076 0.028848 0.013904 0.050832 0.167401 0.190824 0.170739 0.219848 0.186941 0.189975 0.111374 0.116873 0.083546 0.054969 0.079157 0.021393 0.050401 0.087260 0.131597 0.082127 0.085118 0.119344 0.162329 0.129164 0.093007 0.102405 0.087793 -0.028546 0.031877 -0.058078 0.001180 0.032334 0.016261 0.096710 0.100590 0.068659 0.115470 0.021461 0.033734 0.038287 0.064558 0.022225 -0.019109 0.010546 0.054192 0.020617 0.091233 0.029751 0.095328 0.077238 0.085995 0.082112 0.002830 -0.018479 0.136265 -0.001358 0.065484 0.034762 -0.016807 0.089399 0.071768 0.082678 0.035541 0.100914 0.101285 0.033849 0.073791 -0.021163 0.026362 0.017510 0.005165 -0.037168 0.075298 -0.009891 0.153253 0.097733 0.050584 0.163615 -0.028819 -0.014865 0.052733 -0.068218 0.007509 -0.026332 0.025932 0.019310 0.100484 0.078288 -0.062424 0.068231 0.030490 -0.016965 0.002411 0.038031 -0.020297 0.087130 -0.032583 -0.011809 0.015357 0.004749 0.154860 0.023363 0.130385 0.030105 -0.022286 0.032387 -0.001906 0.104616 0.036919 0.209419 0.193855 0.036447 0.048178 0.104523 0.002886 0.093107 0.090842 0.101500 0.041158 0.265690 0.268370 0.450610 0.315728 0.274729 0.403661 0.364341 0.167116 0.171187 0.247256 0.384198 0.140869 0.333755 -0.138316 0.096553 -0.346216 -1.109115
0.072396 0.072824 0.074107 0.076246 0.079240 0.083088 0.087789 0.093343 0.099748 0.107001 0.115101 0.124045 0.133829 0.144449 0.155899 0.168175 0.181268 0.195171 0.209874 0.225365 0.241633 0.258661 0.276434 0.294933 0.314136 0.334021 0.354560 0.375725 0.397483 0.419799 0.442633 0.465943 0.489683 0.513800 0.538242 0.562948 0.587856 0.612896 0.637996 0.663079 0.688060 0.712854 0.737367 0.761501 0.785155 0.808221 0.830587 0.852137 0.872750 0.892302 0.910663 0.927703 0.943287 0.957278 0.969538 0.979927 0.988305 0.994533 0.998473 0.999987 0.998944 0.995215 0.988677 0.979214 0.966716 0.951086 0.932233 0.910083 0.884570 0.855649 0.823286 0.787469 0.748202 0.705514 0.659452 0.610089 0.557522 0.501875 0.443298 0.381969 0.318096 0.251912 0.183685 0.113707 0.042303 0.030176 0.103350 0.176812 0.250132 0.322855 0.394506 0.464592 0.532605 0.598025 0.660326 0.718976 0.773447 0.823216 0.867773 0.906623 0.939297 0.965354 0.984391 0.996044 1.000000 0.996000 0.983846 0.963408 0.934628 0.897525 0.852202 0.798847 0.737740 0.669249 0.593838 0.512065 0.424577 0.332115 0.235503 0.135651 0.033540 0.069779 0.173197 0.275561 0.375679 0.472339 0.564324 0.650425 0.729460 0.800289 0.861837 0.913108 0.953204 0.981345 0.996887 0.999335 0.988361 0.963816 0.925744 0.874388 0.810198 0.733835 0.646167 0.548270 0.441419 0.327075 0.206872 0.082594 0.043844 0.170426 0.295066 0.415638 0.530019 0.636120 0.731932 0.815565 0.885289 0.939574 0.977128 0.996936 0.998287 0.980807 0.944478 0.889654 0.817071 0.727850 0.623485 0.505831 0.377078 0.239719 0.096505 0.049603 0.195493 0.337967 0.473807 0.599855 0.713085 0.810681 0.890116 0.949218 0.986245 0.999937 0.989575 0.955012 0.896705 0.815723 0.713745 0.593036 0.456414 0.307189 0.149100 0.013779 0.177136 0.336530 0.487515 0.625764 0.747200 0.848118 0.925315 0.976196 0.998874 0.992254 0.956095 0.891044 0.798649 0.681346 0.542400 0.385849 0.216378 0.039213 0.140054 0.315622 0.481677 0.632580 0.763070 0.868455 0.944794 0.989055 0.999258 0.974576 0.915401 0.823371 0.701352 0.553366 0.384485 0.200670 0.008576 0.184680 0.371783 0.545486 0.698906 0.825801 0.920842 0.979849 1.000000 0.979982 0.920096 0.822289 0.690124 0.528676 0.344366 0.144719 0.061925 0.266745 0.460823 0.635527 0.782901 0.896053 0.969489 0.999406 0.983916 0.923184 0.819485 0.677150 0.502419 0.303199 0.088727 0.130842 0.344904 0.542924 0.714949 0.852131 0.947203 0.994885 0.992213 0.938753 0.836689 0.690781 0.508178 0.298110 0.071435 0.159888 0.383431 0.586959 0.759109 0.890047 0.972051 1.000000 0.971737 0.888261 0.753750 0.575402 0.363095 0.128857 0.113762 0.350488 0.567144 0.750510 0.889154 0.974168 0.999788 0.963819 0.867865 0.717313 0.521095 0.291187 0.041934 0.210839 0.450808 0.662212 0.830899 0.945305 0.997293 0.982764 0.902043 0.759951 0.565578 0.331766 0.074290 0.189170 0.440226 0.661066 0.835745 0.951353 0.999022 0.974664 0.879366 0.719437 0.506047 0.254510 0.016771 0.287622 0.537583 0.747477 0.900884 0.985484 0.994102 0.925370 0.783970 0.580385 0.330194 0.052935 0.229385 0.494024 0.719330 0.886542 0.981406 0.995438 0.926756 0.780378 0.567938 0.306838 0.018880 0.271509 0.539350 0.761241 0.917459 0.993748 0.982704 0.884558 0.707314 0.466196 0.182393 0.118725 0.409850 0.664204 0.858033 0.972859 0.997322 0.928378 0.771752 0.541570 0.259168
1.000000 1.000000 1.000000 1.000000 1.000000 1.000000 1.000000 1.000000 1.000000 1.000000 1.000000 1.000000 1.000000 1.000000 1.000000 1.000000 1.000000 1.000000 1.000000 1.000000 1.000000 1.000000 1.000000 1.000000 1.000000 1.000000 1.000000 1.000000 1.000000 1.000000 1.000000 1.000000 1.000000 1.000000 1.000000 1.000000 1.000000 1.000000 1.000000 1.000000 1.000000 1.000000 1.000000 1.000000 1.000000 1.000000 1.000000 1.000000 1.000000 1.000000 1.000000 1.000000 0.808971 0.808971 0.808971 0.808971 0.808971 0.808971 0.808971 0.808971 0.784454 0.784454 0.784454 0.784454 0.784454 0.784454 0.784454 0.784454 0.784454 0.784454 0.784454 0.784454 0.784454 0.784454 0.784454 0.784454 0.784454 0.784454 0.784454 0.784454 0.784454 0.784454 0.784454 0.784454 0.784454 0.784454 0.784454 0.784454 0.784454 0.784454 0.784454 0.784454 0.784454 0.784454 0.784454 0.784454 0.784454 0.784454 0.784454 0.784454 0.784454 0.784454 0.784454 0.784454 0.784454 0.957964 0.956924 0.957836 0.959369 0.959515 0.958603 0.958879 0.959138 0.959112 0.961428 0.961669 0.962123 0.962680 0.963705 0.962574 0.966808 0.968340 0.970247 0.971900 0.974503 0.974555 0.976499 0.975511 0.971076 0.969863 0.970700 0.968328 0.969576 0.969069 0.967625 0.968459 0.969063 0.968011 0.965984 0.965374 0.964721 0.964739 0.963897 0.964395 0.964282 0.964566 0.965286 0.965777 0.965936 0.966122 0.966234 0.966324 0.966487 0.961384 0.959823 0.959145 0.958936 0.955402 0.952313 0.949786 0.955105 0.953902 0.953324 0.953277 0.953375 0.953878 0.954257 0.951884 0.948668 0.948133 0.938224 0.925875 0.923917 0.923334 0.923059 0.926531 0.928584 0.928718 0.926805 0.926907 0.922858 0.919002 0.917847 0.910817 0.911214 0.913121 0.913399 0.912887 0.913484 0.912377 0.910345 0.904921 0.907124 0.907852 0.910554 0.898498 0.895537 0.881334 0.868092 0.869203 0.871475 0.865827 0.871220 0.867562 0.873168 0.873421 0.875156 0.868964 0.867670 0.867612 0.868114 0.862593 0.865690 0.865175 0.862847 0.861077 0.851161 0.837546 0.838889 0.839539 0.841483 0.841594 0.836749 0.836829 0.843599 0.838231 0.841349 0.840908 0.844595 0.845506 0.844624 0.845552 0.820310 0.805085 0.796802 0.799436 0.799418 0.798889 0.801281 0.798743 0.788180 0.757603 0.754802 0.742741 0.737636 0.743044 0.743208 0.738789 0.732718 0.697552 0.665831 0.637233 0.641299 0.621805 0.618665 0.621481 0.607738 0.588155 0.605971 0.578817 0.589260 0.602925 0.592675 0.586465 0.566075 0.554861 0.547284 0.551025 0.558389 0.557636 0.551133 0.526775 0.514003 0.510632 0.506004 0.514568 0.508448 0.502246 0.535992 0.539256 0.528042 0.514426 0.501282 0.504317 0.521643 0.475984 0.486159 0.462200 0.459652 0.460989 0.419844 0.406011 0.386958 0.371030 0.347550 0.356255 0.331971 0.336076 0.346682 0.375809 0.380787 0.381772 0.369590 0.375753 0.358340 0.385586 0.403306 0.379899 0.368367 0.359690 0.367556 0.379982 0.398399 0.414256 0.391899 0.415028 0.416616 0.440908 0.450119 0.441879 0.452364 0.432946 0.406715 0.432066 0.436881 0.432862 0.410398 0.394031 0.360328 0.344018 0.336989 0.370976 0.370596 0.370596 0.370596 0.370596 0.370596 0.379693 0.379693 0.379693 0.379693 0.379693 0.379693 0.379693 0.379693 0.379693 0.379693 0.379693 0.380161 0.380161 0.380161 0.380161 0.380161 0.380161 0.380161 0.380161 0.380161 0.380161 0.380161 0.380161 0.380161 0.380161 0.380161
0.000000 0.000000 0.000000 0.000000 0.000000 0.000000 0.000000 0.000000 0.000000 0.000000 0.000000 0.000000 0.000000 0.000000 0.000000 0.000000 0.000000 0.000000 0.000000 0.000000 0.000000 0.000000 0.000000 0.000000 0.000000 0.000000 0.000000 0.000000 0.000000 0.000000 0.000000 0.000000 0.000000 0.000000 0.000000 0.000000 0.000000 0.000000 0.000000 0.000000 0.000000 0.000000 0.000000 0.000000 0.000000 0.000000 0.000000 0.000000 0.000000 0.000000 0.000000 0.000000 0.172133 0.172133 0.172133 0.172133 0.172133 0.172133 0.172133 0.172133 0.189832 0.189832 0.189832 0.189832 0.189832 0.189832 0.189832 0.189832 0.189832 0.189832 0.189832 0.189832 0.189832 0.189832 0.189832 0.189832 0.189832 0.189832 0.189832 0.189832 0.189832 0.189832 0.189832 0.189832 0.189832 0.189832 0.189832 0.189832 0.189832 0.189832 0.189832 0.189832 0.189832 0.189832 0.189832 0.189832 0.189832 0.189832 0.189832 0.189832 0.189832 0.189832 0.189832 0.189832 0.189832 0.222222 0.222222 0.222222 0.222222 0.222222 0.222222 0.222222 0.222222 0.222222 0.222222 0.222222 0.222222 0.222222 0.222222 0.222222 0.222222 0.222222 0.222222 0.222222 0.222222 0.222222 0.222222 0.222222 0.222222 0.222222 0.222222 0.222222 0.222222 0.222222 0.222222 0.234082 0.234082 0.234082 0.234082 0.234082 0.234082 0.234082 0.234082 0.234082 0.234082 0.234082 0.234082 0.234082 0.234082 0.234082 0.234082 0.234082 0.234082 0.234082 0.234082 0.234082 0.234082 0.234082 0.234082 0.234082 0.240772 0.240772 0.240772 0.240772 0.240772 0.240772 0.240772 0.240772 0.240772 0.240772 0.240772 0.240772 0.240772 0.240772 0.240772 0.240772 0.240772 0.240772 0.240772 0.240772 0.240772 0.240772 0.248069 0.248069 0.248069 0.248069 0.248069 0.248069 0.248069 0.248069 0.248069 0.248069 0.248069 0.248069 0.248069 0.248069 0.248069 0.248069 0.248069 0.248069 0.248069 0.256074 0.256074 0.256074 0.256074 0.256074 0.256074 0.256074 0.256074 0.256074 0.256074 0.256074 0.256074 0.256074 0.256074 0.256074 0.256074 0.256074 0.248069 0.248069 0.248069 0.248069 0.248069 0.248069 0.248069 0.248069 0.248069 0.248069 0.248069 0.248069 0.248069 0.248069 0.248069 0.248069 0.248069 0.256074 0.256074 0.256074 0.256074 0.256074 0.256074 0.256074 0.256074 0.256074 0.256074 0.256074 0.256074 0.256074 0.256074 0.256074 0.256074 0.256074 0.256074 0.256074 0.256074 0.256074 0.256074 0.256074 0.256074 0.256074 0.256074 0.256074 0.256074 0.256074 0.260378 0.260378 0.260378 0.260378 0.260378 0.260378 0.260378 0.260378 0.260378 0.260378 0.260378 0.260378 0.260378 0.256074 0.256074 0.256074 0.256074 0.256074 0.256074 0.256074 0.256074 0.256074 0.256074 0.256074 0.256074 0.256074 0.248069 0.248069 0.248069 0.248069 0.248069 0.248069 0.248069 0.248069 0.248069 0.248069 0.248069 0.248069 0.248069 0.251976 0.251976 0.251976 0.251976 0.251976 0.251976 0.251976 0.251976 0.251976 0.251976 0.251976 0.251976 0.256074 0.256074 0.256074 0.256074 0.256074 0.256074 0.256074 0.256074 0.256074 0.256074 0.256074 0.251976 0.251976 0.251976 0.251976 0.251976 0.251976 0.251976 0.251976 0.251976 0.251976 0.251976 0.248069 0.248069 0.248069 0.248069 0.248069 0.248069 0.248069 0.248069 0.248069 0.248069 0.248069 0.256074 0.256074 0.256074 0.256074 0.256074 0.256074 0.256074 0.256074 0.256074 0.256074 0.256074 0.256074 0.256074 0.256074 0.256074
