# Output from CTFFind version 4.1.9, run on 2019-11-03 18:51:41
# Input file: stack10_ub_averaged_1000.mrc ; Number of micrographs: 1
# Pixel size: 3.000 Angstroms ; acceleration voltage: 300.0 keV ; spherical aberration: 0.00 mm ; amplitude contrast: 0.07
# Box size: 512 pixels ; min. res.: 30.0 Angstroms ; max. res.: 5.0 Angstroms ; min. def.: 5000.0 um; max. def. 50000.0 um; num. frames averaged: 1
# 6 lines per micrograph: #1 - spatial frequency (1/Angstroms); #2 - 1D rotational average of spectrum (assuming no astigmatism); #3 - 1D rotational average of spectrum; #4 - CTF fit; #5 - cross-correlation between spectrum and CTF fit; #6 - 2sigma of expected cross correlation of noise
0.000000 0.000651 0.001302 0.001953 0.002604 0.003255 0.003906 0.004557 0.005208 0.005859 0.006510 0.007161 0.007812 0.008464 0.009115 0.009766 0.010417 0.011068 0.011719 0.012370 0.013021 0.013672 0.014323 0.014974 0.015625 0.016276 0.016927 0.017578 0.018229 0.018880 0.019531 0.020182 0.020833 0.021484 0.022135 0.022786 0.023438 0.024089 0.024740 0.025391 0.026042 0.026693 0.027344 0.027995 0.028646 0.029297 0.029948 0.030599 0.031250 0.031901 0.032552 0.033203 0.033854 0.034505 0.035156 0.035807 0.036458 0.037109 0.037760 0.038411 0.039062 0.039714 0.040365 0.041016 0.041667 0.042318 0.042969 0.043620 0.044271 0.044922 0.045573 0.046224 0.046875 0.047526 0.048177 0.048828 0.049479 0.050130 0.050781 0.051432 0.052083 0.052734 0.053385 0.054036 0.054688 0.055339 0.055990 0.056641 0.057292 0.057943 0.058594 0.059245 0.059896 0.060547 0.061198 0.061849 0.062500 0.063151 0.063802 0.064453 0.065104 0.065755 0.066406 0.067057 0.067708 0.068359 0.069010 0.069661 0.070312 0.070964 0.071615 0.072266 0.072917 0.073568 0.074219 0.074870 0.075521 0.076172 0.076823 0.077474 0.078125 0.078776 0.079427 0.080078 0.080729 0.081380 0.082031 0.082682 0.083333 0.083984 0.084635 0.085286 0.085938 0.086589 0.087240 0.087891 0.088542 0.089193 0.089844 0.090495 0.091146 0.091797 0.092448 0.093099 0.093750 0.094401 0.095052 0.095703 0.096354 0.097005 0.097656 0.098307 0.098958 0.099609 0.100260 0.100911 0.101562 0.102214 0.102865 0.103516 0.104167 0.104818 0.105469 0.106120 0.106771 0.107422 0.108073 0.108724 0.109375 0.110026 0.110677 0.111328 0.111979 0.112630 0.113281 0.113932 0.114583 0.115234 0.115885 0.116536 0.117188 0.117839 0.118490 0.119141 0.119792 0.120443 0.121094 0.121745 0.122396 0.123047 0.123698 0.124349 0.125000 0.125651 0.126302 0.126953 0.127604 0.128255 0.128906 0.129557 0.130208 0.130859 0.131510 0.132161 0.132812 0.133464 0.134115 0.134766 0.135417 0.136068 0.136719 0.137370 0.138021 0.138672 0.139323 0.139974 0.140625 0.141276 0.141927 0.142578 0.143229 0.143880 0.144531 0.145182 0.145833 0.146484 0.147135 0.147786 0.148438 0.149089 0.149740 0.150391 0.151042 0.151693 0.152344 0.152995 0.153646 0.154297 0.154948 0.155599 0.156250 0.156901 0.157552 0.158203 0.158854 0.159505 0.160156 0.160807 0.161458 0.162109 0.162760 0.163411 0.164062 0.164714 0.165365 0.166016 0.166667 0.167318 0.167969 0.168620 0.169271 0.169922 0.170573 0.171224 0.171875 0.172526 0.173177 0.173828 0.174479 0.175130 0.175781 0.176432 0.177083 0.177734 0.178385 0.179036 0.179688 0.180339 0.180990 0.181641 0.182292 0.182943 0.183594 0.184245 0.184896 0.185547 0.186198 0.186849 0.187500 0.188151 0.188802 0.189453 0.190104 0.190755 0.191406 0.192057 0.192708 0.193359 0.194010 0.194661 0.195312 0.195964 0.196615 0.197266 0.197917 0.198568 0.199219 0.199870 0.200521 0.201172 0.201823 0.202474 0.203125 0.203776 0.204427 0.205078 0.205729 0.206380 0.207031 0.207682 0.208333 0.208984 0.209635 0.210286 0.210938 0.211589 0.212240 0.212891 0.213542 0.214193 0.214844 0.215495 0.216146 0.216797 0.217448 0.218099 0.218750 0.219401 0.220052 0.220703 0.221354 0.222005 0.222656 0.223307 0.223958 0.224609 0.225260 0.225911 0.226562 0.227214 0.227865 0.228516 0.229167 0.229818 0.230469 0.231120 0.231771 0.232422 0.233073 0.233724 0.234375 0.235026 0.235677
       0.34008        0.34008        0.34008        0.34008        0.34008        0.34008        0.34008        0.34008        0.34008        0.34008        0.34008        0.34008        0.34008        0.34008        0.34008        0.34008        0.34008        0.34008        0.34008        0.34008        0.34008        0.34008        0.34008        0.34008        0.34008        0.34008        0.34008        0.34008        0.34008        0.34008        0.34008        0.34008        0.34008        0.34008        0.34008        0.34008        0.34008        0.34008        0.34008        0.34008        0.34008        0.34008        0.34008        0.34008        0.34008        0.34008        0.34008        0.34008        0.34008        0.34008        0.34008        0.60488        0.75296        0.13017       -0.34922       -0.56406       -0.62221       -0.71425       -0.78998       -0.78829       -0.77475       -0.75870       -0.75609       -0.90952       -1.05741       -1.07165       -1.05603       -1.05767       -1.06587       -0.88573       -0.83836       -0.74123       -0.61211       -0.57783       -0.32547       -0.31340       -0.11815       -0.01416        0.06570        0.18023        0.25392        0.39328        0.37482        0.63893        0.63435        0.68524        0.61868        0.58965        0.55288        0.52494        0.51905        0.39909        0.22072        0.19931        0.11638        0.02232       -0.06041       -0.07582       -0.02648       -0.01884        0.07429        0.12248        0.15246        0.20706        0.39247        0.45521        0.56103        0.53111        0.63612        0.74864        0.64937        0.65908        0.60497        0.50632        0.47009        0.30280        0.24543        0.12075        0.03517        0.00821       -0.04423       -0.02441        0.13176        0.17738        0.33095        0.38421        0.44434        0.66482        0.65598        0.67505        0.65285        0.65621        0.64222        0.60546        0.37822        0.24891        0.16293        0.13239        0.05787        0.07447        0.08482        0.23595        0.27352        0.35231        0.50399        0.57738        0.58594        0.59528        0.61183        0.57085        0.40909        0.36174        0.28790        0.19467        0.17168        0.15171        0.19019        0.21180        0.28871        0.41663        0.41531        0.52487        0.56409        0.53252        0.46694        0.43718        0.35210        0.25973        0.18987        0.15042        0.14791        0.21479        0.28817        0.35772        0.42241        0.42819        0.59586        0.57913        0.47725        0.41153        0.34101        0.28091        0.28045        0.23627        0.23822        0.25460        0.30565        0.29948        0.39271        0.48688        0.47192        0.45244        0.40557        0.37146        0.30257        0.27660        0.27103        0.27508        0.28805        0.35461        0.41044        0.42474        0.41435        0.44248        0.36519        0.34334        0.30569        0.25959        0.26668        0.29442        0.33787        0.34869        0.36912        0.41478        0.42490        0.39304        0.34132        0.30466        0.27775        0.29738        0.32115        0.33609        0.35332        0.40981        0.36927        0.37142        0.34548        0.33347        0.30320        0.25742        0.27823        0.28548        0.31487        0.37075        0.37323        0.38181        0.39140        0.36320        0.30352        0.32674        0.28750        0.28155        0.31176        0.34464        0.33488        0.33240        0.32843        0.34555        0.30768        0.30809        0.30233        0.29522        0.31593        0.31465        0.34768        0.31858        0.29968        0.29713        0.29635        0.30074        0.28777        0.30850        0.31492        0.31656        0.35026        0.33746        0.31143        0.30653        0.31651        0.29557        0.32857        0.33663        0.36084        0.40097        0.34167        0.32872        0.32712        0.30090        0.27627        0.28531        0.32993        0.32556        0.34904        0.34289        0.29044        0.30334        0.27644        0.28216        0.29804        0.31113        0.31818        0.34185        0.30157        0.30343        0.31086        0.27849        0.32019        0.30945        0.30725        0.34442        0.35155        0.32553        0.27912        0.22842        0.25578        0.31893        0.33369        0.34306        0.36344        0.33241        0.30120        0.28406        0.30288        0.31920        0.32283        0.30643        0.34667        0.30338        0.29011        0.28758        0.32036        0.29004        0.30010        0.25708        0.28971        0.33774        0.24553        0.28217        0.29831        0.31169        0.33735        0.27319        0.28665        0.29330        0.28456        0.34016        0.31785        0.28468        0.17732        0.20838        0.19920        0.26162        0.29563        0.27444        0.30943        0.42727        0.28177        0.18191        0.22628        0.34088        0.19388        0.20659        0.23093        0.24830        0.19153        0.13200        0.24055        0.23265        0.22715        0.14620        0.09196       -0.45056       -0.42309
2.895467 2.860187 2.825131 2.790300 2.755694 2.721313 2.687157 2.653226 2.619519 2.586038 2.552781 2.519749 2.486942 2.454360 2.422003 2.389870 2.357963 2.326280 2.294822 2.263590 2.232582 2.201798 2.171240 2.140907 2.110798 2.080915 2.051256 2.021822 1.992613 1.963629 1.934870 1.906335 1.878026 1.849941 1.822081 1.794446 1.767036 1.739851 1.712891 1.686155 1.659645 1.633359 1.607298 1.581462 1.555851 1.530465 1.505304 1.480367 1.455655 1.431169 1.406907 1.529510 1.835229 1.134702 0.801787 0.485155 0.433836 0.389648 0.239757 0.216560 0.187281 0.218112 0.177215 0.099717 -0.091678 -0.135474 -0.158203 -0.141752 -0.254291 -0.089420 -0.040993 0.009835 0.082683 0.077117 0.314076 0.311961 0.392823 0.571278 0.504648 0.703550 0.631219 0.836931 0.752352 0.964566 0.956290 0.984211 0.887043 0.942711 0.811689 0.799082 0.785056 0.696618 0.514636 0.457798 0.356291 0.317847 0.216175 0.144664 0.205948 0.165257 0.254686 0.241022 0.317351 0.280953 0.431672 0.523580 0.551583 0.568695 0.600635 0.718999 0.624327 0.647076 0.633154 0.430430 0.485359 0.279594 0.277517 0.099533 0.070815 0.009845 -0.050526 -0.091775 0.034324 0.069673 0.176931 0.278223 0.258850 0.428690 0.510549 0.487051 0.457087 0.513198 0.463019 0.490746 0.256759 0.166578 0.036847 0.006633 -0.034975 -0.090978 -0.035628 0.009111 0.089773 0.129161 0.236835 0.348448 0.341234 0.485905 0.442289 0.469028 0.342856 0.239535 0.176820 0.148515 0.058872 0.040545 0.088726 0.080678 0.110773 0.238978 0.244709 0.299863 0.379309 0.349268 0.284762 0.239572 0.229028 0.116680 0.053709 -0.012429 -0.035986 0.027440 0.058637 0.118113 0.212380 0.187726 0.307954 0.336689 0.302990 0.174951 0.181846 0.081146 0.050527 0.070306 0.016443 0.029962 0.051381 0.069559 0.076843 0.198135 0.240237 0.199482 0.134532 0.157481 0.052010 0.057631 0.014723 0.009281 0.033260 0.057680 0.112821 0.154849 0.112567 0.135430 0.149074 0.041868 0.064499 0.012191 -0.031910 -0.013337 0.060579 0.052292 0.061600 0.094376 0.116688 0.138243 0.060639 0.070235 0.017667 -0.012022 0.051563 0.056962 0.048352 0.079711 0.114596 0.089127 0.080318 0.043779 0.036786 0.027606 -0.042132 0.019230 0.008474 0.043619 0.069260 0.101502 0.072105 0.096944 0.034426 0.019677 0.018121 -0.006158 -0.002133 0.020704 0.050607 0.028214 0.022646 0.055961 0.041294 0.000549 0.021231 -0.009116 0.014697 0.007300 0.021065 0.031760 0.001914 0.001456 -0.022978 -0.020810 -0.003539 -0.018187 -0.013338 -0.000812 0.003208 0.044946 0.007866 -0.005644 -0.002410 0.002040 -0.008338 0.017487 0.012922 0.059544 0.082142 -0.016067 0.013865 0.021279 -0.018646 -0.030448 -0.004925 0.012595 0.020093 0.047964 0.018169 -0.009476 0.019959 -0.035105 -0.024498 0.003327 0.010520 0.038053 0.031938 -0.001569 0.014476 0.004307 0.001875 0.013799 0.012375 0.052509 0.059457 0.045828 0.034441 -0.015671 -0.058100 -0.019894 0.035113 0.012226 0.057383 0.054694 0.023897 -0.003441 -0.021649 0.021404 0.006166 -0.005669 -0.016587 0.019080 -0.009990 -0.037794 -0.028361 0.003739 -0.026526 -0.018679 -0.091048 -0.006695 0.040461 -0.093010 -0.050731 -0.016357 0.045480 -0.000192 -0.038942 -0.002679 -0.011078 -0.026420 0.051343 0.009111 -0.025224 -0.113568 -0.048403 -0.073295 -0.026901 0.029929 -0.073136 0.070355 0.155271 0.005103 -0.049947 -0.016671 0.034933 -0.069191 0.021490 0.001554 0.039541 -0.023294 -0.021649 0.063682 0.182691 0.245044 0.032518 0.087357 -0.363385
0.072396 0.073044 0.074989 0.078229 0.082764 0.088591 0.095710 0.104117 0.113808 0.124777 0.137020 0.150526 0.165287 0.181289 0.198517 0.216954 0.236576 0.257359 0.279271 0.302279 0.326340 0.351410 0.377433 0.404352 0.432097 0.460593 0.489755 0.519491 0.549696 0.580259 0.611054 0.641949 0.672797 0.703441 0.733715 0.763437 0.792418 0.820455 0.847337 0.872842 0.896737 0.918782 0.938730 0.956328 0.971318 0.983440 0.992433 0.998038 1.000000 0.998070 0.992013 0.981602 0.966631 0.946913 0.922285 0.892614 0.857797 0.817771 0.772511 0.722039 0.666425 0.605793 0.540324 0.470256 0.395893 0.317603 0.235818 0.151040 0.063837 0.025157 0.115242 0.205660 0.295594 0.384177 0.470499 0.553611 0.632544 0.706310 0.773921 0.834403 0.886805 0.930225 0.963815 0.986810 0.998539 0.998445 0.986102 0.961234 0.923730 0.873658 0.811277 0.737052 0.651652 0.555966 0.451093 0.338341 0.219223 0.095436 0.031148 0.158517 0.284537 0.406992 0.523619 0.632152 0.730369 0.816139 0.887472 0.942577 0.979908 0.998215 0.996593 0.974525 0.931916 0.869123 0.786977 0.686788 0.570347 0.439908 0.298160 0.148183 0.006600 0.162509 0.315671 0.462131 0.597939 0.719275 0.822555 0.904549 0.962495 0.994204 0.998163 0.973610 0.920602 0.840057 0.733773 0.604413 0.455469 0.291189 0.116476 0.063247 0.242186 0.414366 0.573830 0.714846 0.832127 0.921047 0.977841 0.999790 0.985373 0.934382 0.847996 0.728798 0.580740 0.409048 0.220068 0.021056 0.180081 0.375091 0.555715 0.714038 0.842859 0.936039 0.988820 0.998106 0.962674 0.883316 0.762886 0.606253 0.420154 0.212947 0.005734 0.225404 0.435220 0.624512 0.783346 0.903065 0.976802 0.999907 0.970300 0.888674 0.758573 0.586311 0.380721 0.152753 0.085067 0.319302 0.536356 0.723277 0.868544 0.962827 0.999630 0.975804 0.891864 0.752090 0.564400 0.339972 0.092632 0.161939 0.407190 0.626766 0.805616 0.931070 0.993786 0.988519 0.914633 0.776302 0.582386 0.345940 0.083426 0.186400 0.443783 0.669424 0.845954 0.959316 0.999962 0.963742 0.852406 0.673661 0.440751 0.171564 0.112660 0.388973 0.634555 0.828628 0.954258 0.999930 0.960695 0.838801 0.643729 0.391577 0.103844 0.194341 0.476352 0.716461 0.892216 0.986623 0.989883 0.900543 0.725875 0.481433 0.189816 0.121340 0.421910 0.682200 0.875891 0.982807 0.991114 0.898779 0.714046 0.454892 0.147397 0.176741 0.483446 0.739818 0.917724 0.996985 0.967805 0.832135 0.603779 0.307175 0.025085 0.355734 0.646973 0.864835 0.983218 0.987172 0.874955 0.658582 0.362756 0.022211 0.322243 0.628565 0.858643 0.983125 0.985324 0.863641 0.632162 0.319243 0.035768 0.387375 0.689712 0.902569 0.996866 0.958808 0.792117 0.517957 0.172489 0.197738 0.541951 0.812113 0.969718 0.991447 0.872848 0.629416 0.294849 0.083411 0.450757 0.753270 0.945695 0.998380 0.902076 0.669808 0.335416 0.051134 0.431054 0.745621 0.945318 0.997811 0.893425 0.647205 0.297054 0.101820 0.485469 0.791405 0.968865 0.987447 0.842592 0.556925 0.177036 0.233842 0.606241 0.876204 0.996392 0.944661 0.728451 0.384124 0.028840 0.437885 0.770064 0.965131 0.986672 0.829240 0.519995 0.114397 0.313479 0.684307 0.928279 0.998413 0.879940 0.593775 0.193220 0.245615 0.638121 0.907483 0.999916 0.895719 0.613860 0.208995 0.238821 0.639730 0.912128 0.999447 0.882263 0.583033 0.162233 0.293455 0.688875 0.940239 0.993136 0.834689 0.497112 0.051654 0.406139
1.000000 1.000000 1.000000 1.000000 1.000000 1.000000 1.000000 1.000000 1.000000 1.000000 1.000000 1.000000 1.000000 1.000000 1.000000 1.000000 1.000000 1.000000 1.000000 1.000000 1.000000 1.000000 1.000000 1.000000 1.000000 1.000000 1.000000 1.000000 1.000000 1.000000 1.000000 1.000000 1.000000 1.000000 1.000000 1.000000 1.000000 1.000000 1.000000 1.000000 1.000000 1.000000 1.000000 1.000000 1.000000 1.000000 1.000000 1.000000 1.000000 1.000000 1.000000 1.000000 0.961078 0.961078 0.961078 0.961078 0.961078 0.961078 0.961078 0.961078 0.961078 0.961078 0.961078 0.961078 0.961078 0.961078 0.961078 0.961078 0.961078 0.961078 0.961078 0.961078 0.961078 0.961078 0.961078 0.961078 0.961078 0.961078 0.961078 0.961078 0.961078 0.961078 0.961078 0.961078 0.961078 0.952313 0.953253 0.955229 0.955855 0.955714 0.955245 0.954820 0.955117 0.957111 0.959992 0.961913 0.963885 0.961720 0.964116 0.965910 0.965873 0.966166 0.964568 0.972655 0.971824 0.972037 0.972929 0.973344 0.973508 0.973592 0.973771 0.974214 0.973953 0.973364 0.972807 0.972317 0.972105 0.971843 0.974061 0.974027 0.974812 0.975022 0.975083 0.975063 0.975121 0.975473 0.976962 0.971551 0.971805 0.970205 0.972320 0.973575 0.974272 0.974611 0.975044 0.975255 0.973128 0.969795 0.968606 0.964574 0.961442 0.960929 0.964016 0.964999 0.964999 0.963489 0.963023 0.957409 0.957187 0.957094 0.951776 0.955255 0.956193 0.956433 0.942662 0.937477 0.928044 0.924183 0.924681 0.930878 0.929536 0.921424 0.905537 0.880380 0.875507 0.872482 0.871338 0.865287 0.866341 0.862993 0.865412 0.870640 0.873200 0.869910 0.860855 0.856012 0.855836 0.863633 0.858350 0.857993 0.860675 0.867000 0.868879 0.858900 0.873175 0.870578 0.876901 0.883387 0.885981 0.882805 0.881189 0.878071 0.875132 0.873656 0.870488 0.872370 0.845470 0.836831 0.836781 0.837568 0.840332 0.840232 0.839444 0.833543 0.837049 0.814680 0.819034 0.819014 0.826254 0.829355 0.828301 0.818811 0.809955 0.814713 0.830064 0.856943 0.860784 0.854744 0.852547 0.850403 0.850966 0.835259 0.825753 0.813136 0.811417 0.802156 0.805993 0.813321 0.808315 0.791820 0.789488 0.797051 0.778593 0.757714 0.729449 0.743843 0.729732 0.724752 0.722258 0.692875 0.694048 0.670093 0.658534 0.664713 0.664782 0.658349 0.651856 0.675992 0.690228 0.667448 0.665504 0.650488 0.648492 0.642851 0.632998 0.626117 0.620769 0.647131 0.656740 0.659860 0.656583 0.603476 0.607795 0.599930 0.600598 0.610379 0.614023 0.603857 0.580587 0.583107 0.589009 0.583645 0.585236 0.601846 0.599360 0.560025 0.549939 0.550606 0.564429 0.554200 0.546592 0.557396 0.546011 0.550785 0.545255 0.519062 0.539897 0.534015 0.537781 0.531636 0.549192 0.520577 0.491335 0.519434 0.526840 0.524485 0.511250 0.497217 0.481356 0.381673 0.395032 0.376172 0.345700 0.386022 0.384244 0.389218 0.363660 0.357579 0.354199 0.378749 0.383445 0.366210 0.359773 0.359101 0.393917 0.390509 0.327019 0.328594 0.319368 0.333505 0.333084 0.318316 0.341227 0.294873 0.314930 0.268783 0.255663 0.236428 0.201760 0.239838 0.219288 0.201242 0.181175 0.191674 0.208414 0.231077 0.229043 0.237167 0.237167 0.237167 0.237167 0.237167 0.237167 0.237167 0.237167 0.237167 0.237167 0.237167 0.237167 0.237167 0.237167 0.243401 0.243401 0.243401 0.243401 0.243401 0.243401 0.243401 0.243401 0.243401 0.243401 0.243401 0.243401
0.000000 0.000000 0.000000 0.000000 0.000000 0.000000 0.000000 0.000000 0.000000 0.000000 0.000000 0.000000 0.000000 0.000000 0.000000 0.000000 0.000000 0.000000 0.000000 0.000000 0.000000 0.000000 0.000000 0.000000 0.000000 0.000000 0.000000 0.000000 0.000000 0.000000 0.000000 0.000000 0.000000 0.000000 0.000000 0.000000 0.000000 0.000000 0.000000 0.000000 0.000000 0.000000 0.000000 0.000000 0.000000 0.000000 0.000000 0.000000 0.000000 0.000000 0.000000 0.000000 0.212000 0.212000 0.212000 0.212000 0.212000 0.212000 0.212000 0.212000 0.212000 0.212000 0.212000 0.212000 0.212000 0.212000 0.212000 0.212000 0.212000 0.212000 0.212000 0.212000 0.212000 0.212000 0.212000 0.212000 0.212000 0.212000 0.212000 0.212000 0.212000 0.212000 0.212000 0.212000 0.212000 0.244339 0.244339 0.244339 0.244339 0.244339 0.244339 0.244339 0.244339 0.244339 0.244339 0.244339 0.244339 0.244339 0.244339 0.244339 0.244339 0.244339 0.244339 0.244339 0.244339 0.244339 0.244339 0.244339 0.244339 0.244339 0.260378 0.260378 0.260378 0.260378 0.260378 0.260378 0.260378 0.260378 0.260378 0.260378 0.260378 0.260378 0.260378 0.260378 0.260378 0.260378 0.260378 0.260378 0.260378 0.260378 0.264906 0.264906 0.264906 0.264906 0.264906 0.264906 0.264906 0.264906 0.264906 0.264906 0.264906 0.264906 0.264906 0.264906 0.264906 0.264906 0.264906 0.264906 0.280056 0.280056 0.280056 0.280056 0.280056 0.280056 0.280056 0.280056 0.280056 0.280056 0.280056 0.280056 0.280056 0.280056 0.280056 0.280056 0.280056 0.280056 0.280056 0.280056 0.280056 0.280056 0.280056 0.280056 0.280056 0.280056 0.280056 0.280056 0.280056 0.269680 0.269680 0.269680 0.269680 0.269680 0.269680 0.269680 0.269680 0.269680 0.269680 0.269680 0.269680 0.269680 0.269680 0.285714 0.285714 0.285714 0.285714 0.285714 0.285714 0.285714 0.285714 0.285714 0.285714 0.285714 0.285714 0.274721 0.274721 0.274721 0.274721 0.274721 0.274721 0.274721 0.274721 0.274721 0.274721 0.274721 0.274721 0.280056 0.280056 0.280056 0.280056 0.280056 0.280056 0.280056 0.280056 0.280056 0.280056 0.280056 0.285714 0.285714 0.285714 0.285714 0.285714 0.285714 0.285714 0.285714 0.285714 0.285714 0.280056 0.280056 0.280056 0.280056 0.280056 0.280056 0.280056 0.280056 0.280056 0.280056 0.274721 0.274721 0.274721 0.274721 0.274721 0.274721 0.274721 0.274721 0.274721 0.274721 0.280056 0.280056 0.280056 0.280056 0.280056 0.280056 0.280056 0.280056 0.280056 0.274721 0.274721 0.274721 0.274721 0.274721 0.274721 0.274721 0.274721 0.274721 0.269680 0.269680 0.269680 0.269680 0.269680 0.269680 0.269680 0.269680 0.269680 0.280056 0.280056 0.280056 0.280056 0.280056 0.280056 0.280056 0.280056 0.274721 0.274721 0.274721 0.274721 0.274721 0.274721 0.274721 0.274721 0.269680 0.269680 0.269680 0.269680 0.269680 0.269680 0.269680 0.269680 0.269680 0.269680 0.269680 0.269680 0.269680 0.269680 0.269680 0.269680 0.264906 0.264906 0.264906 0.264906 0.264906 0.264906 0.264906 0.264906 0.274721 0.274721 0.274721 0.274721 0.274721 0.274721 0.274721 0.269680 0.269680 0.269680 0.269680 0.269680 0.269680 0.269680 0.264906 0.264906 0.264906 0.264906 0.264906 0.264906 0.264906 0.264906 0.264906 0.264906 0.264906 0.264906 0.264906 0.264906 0.260378 0.260378 0.260378 0.260378 0.260378 0.260378 0.260378 0.260378 0.260378 0.260378 0.260378 0.260378
