# Output from CTFFind version 4.1.9, run on 2019-11-03 18:51:41
# Input file: stack7_ub_averaged_1000.mrc ; Number of micrographs: 1
# Pixel size: 3.000 Angstroms ; acceleration voltage: 300.0 keV ; spherical aberration: 0.00 mm ; amplitude contrast: 0.07
# Box size: 512 pixels ; min. res.: 30.0 Angstroms ; max. res.: 5.0 Angstroms ; min. def.: 5000.0 um; max. def. 50000.0 um; num. frames averaged: 1
# 6 lines per micrograph: #1 - spatial frequency (1/Angstroms); #2 - 1D rotational average of spectrum (assuming no astigmatism); #3 - 1D rotational average of spectrum; #4 - CTF fit; #5 - cross-correlation between spectrum and CTF fit; #6 - 2sigma of expected cross correlation of noise
0.000000 0.000651 0.001302 0.001953 0.002604 0.003255 0.003906 0.004557 0.005208 0.005859 0.006510 0.007161 0.007812 0.008464 0.009115 0.009766 0.010417 0.011068 0.011719 0.012370 0.013021 0.013672 0.014323 0.014974 0.015625 0.016276 0.016927 0.017578 0.018229 0.018880 0.019531 0.020182 0.020833 0.021484 0.022135 0.022786 0.023438 0.024089 0.024740 0.025391 0.026042 0.026693 0.027344 0.027995 0.028646 0.029297 0.029948 0.030599 0.031250 0.031901 0.032552 0.033203 0.033854 0.034505 0.035156 0.035807 0.036458 0.037109 0.037760 0.038411 0.039062 0.039714 0.040365 0.041016 0.041667 0.042318 0.042969 0.043620 0.044271 0.044922 0.045573 0.046224 0.046875 0.047526 0.048177 0.048828 0.049479 0.050130 0.050781 0.051432 0.052083 0.052734 0.053385 0.054036 0.054688 0.055339 0.055990 0.056641 0.057292 0.057943 0.058594 0.059245 0.059896 0.060547 0.061198 0.061849 0.062500 0.063151 0.063802 0.064453 0.065104 0.065755 0.066406 0.067057 0.067708 0.068359 0.069010 0.069661 0.070312 0.070964 0.071615 0.072266 0.072917 0.073568 0.074219 0.074870 0.075521 0.076172 0.076823 0.077474 0.078125 0.078776 0.079427 0.080078 0.080729 0.081380 0.082031 0.082682 0.083333 0.083984 0.084635 0.085286 0.085938 0.086589 0.087240 0.087891 0.088542 0.089193 0.089844 0.090495 0.091146 0.091797 0.092448 0.093099 0.093750 0.094401 0.095052 0.095703 0.096354 0.097005 0.097656 0.098307 0.098958 0.099609 0.100260 0.100911 0.101562 0.102214 0.102865 0.103516 0.104167 0.104818 0.105469 0.106120 0.106771 0.107422 0.108073 0.108724 0.109375 0.110026 0.110677 0.111328 0.111979 0.112630 0.113281 0.113932 0.114583 0.115234 0.115885 0.116536 0.117188 0.117839 0.118490 0.119141 0.119792 0.120443 0.121094 0.121745 0.122396 0.123047 0.123698 0.124349 0.125000 0.125651 0.126302 0.126953 0.127604 0.128255 0.128906 0.129557 0.130208 0.130859 0.131510 0.132161 0.132812 0.133464 0.134115 0.134766 0.135417 0.136068 0.136719 0.137370 0.138021 0.138672 0.139323 0.139974 0.140625 0.141276 0.141927 0.142578 0.143229 0.143880 0.144531 0.145182 0.145833 0.146484 0.147135 0.147786 0.148438 0.149089 0.149740 0.150391 0.151042 0.151693 0.152344 0.152995 0.153646 0.154297 0.154948 0.155599 0.156250 0.156901 0.157552 0.158203 0.158854 0.159505 0.160156 0.160807 0.161458 0.162109 0.162760 0.163411 0.164062 0.164714 0.165365 0.166016 0.166667 0.167318 0.167969 0.168620 0.169271 0.169922 0.170573 0.171224 0.171875 0.172526 0.173177 0.173828 0.174479 0.175130 0.175781 0.176432 0.177083 0.177734 0.178385 0.179036 0.179688 0.180339 0.180990 0.181641 0.182292 0.182943 0.183594 0.184245 0.184896 0.185547 0.186198 0.186849 0.187500 0.188151 0.188802 0.189453 0.190104 0.190755 0.191406 0.192057 0.192708 0.193359 0.194010 0.194661 0.195312 0.195964 0.196615 0.197266 0.197917 0.198568 0.199219 0.199870 0.200521 0.201172 0.201823 0.202474 0.203125 0.203776 0.204427 0.205078 0.205729 0.206380 0.207031 0.207682 0.208333 0.208984 0.209635 0.210286 0.210938 0.211589 0.212240 0.212891 0.213542 0.214193 0.214844 0.215495 0.216146 0.216797 0.217448 0.218099 0.218750 0.219401 0.220052 0.220703 0.221354 0.222005 0.222656 0.223307 0.223958 0.224609 0.225260 0.225911 0.226562 0.227214 0.227865 0.228516 0.229167 0.229818 0.230469 0.231120 0.231771 0.232422 0.233073 0.233724 0.234375 0.235026 0.235677
       0.35027        0.35027        0.35027        0.35027        0.35027        0.35027        0.35027        0.35027        0.35027        0.35027        0.35027        0.35027        0.35027        0.35027        0.35027        0.35027        0.35027        0.35027        0.35027        0.35027        0.35027        0.35027        0.35027        0.35027        0.35027        0.35027        0.35027        0.35027        0.35027        0.35027        0.35027        0.35027        0.35027        0.35027        0.35027        0.35027        0.35027        0.35027        0.35027        0.35027        0.35027        0.35027        0.35027        0.35027        0.35027        0.35027        0.35027        0.35027        0.35027        0.35027        0.35027        0.53991        0.93126        0.45285        0.23806        0.27459       -0.01408        0.07901       -0.07050        0.03004        0.20008        0.15632        0.35815        0.24127        0.05462       -0.03797       -0.03791       -0.04171       -0.20437       -0.25091       -0.17517       -0.19202       -0.14307       -0.12744       -0.30943       -0.30226       -0.32892       -0.40404       -0.47060       -0.39421       -0.28099       -0.31622       -0.33583       -0.41226       -0.23375       -0.17861       -0.19151       -0.17801       -0.02731        0.03565        0.15387        0.28653        0.33476        0.43288        0.51741        0.59706        0.59636        0.62876        0.59901        0.56913        0.66298        0.67268        0.72639        0.79869        0.64316        0.53551        0.53599        0.49407        0.43223        0.30027        0.28924        0.21816        0.12211        0.03548        0.05729        0.07259        0.07042        0.02543        0.05749        0.06984        0.15519        0.16647        0.30608        0.39149        0.34652        0.52472        0.59934        0.57553        0.63458        0.72381        0.69062        0.67676        0.66297        0.53514        0.52091        0.41428        0.42158        0.29558        0.26056        0.23224        0.15699        0.08806        0.03078        0.06755        0.16585        0.19273        0.20973        0.24482        0.36953        0.42908        0.46462        0.57077        0.57376        0.57899        0.58990        0.57101        0.53376        0.47558        0.47750        0.37816        0.26587        0.24948        0.34313        0.22322        0.11158        0.19820        0.21979        0.23341        0.33242        0.34804        0.41380        0.45948        0.48786        0.53023        0.50542        0.51871        0.48148        0.50899        0.41972        0.44234        0.36923        0.28816        0.26825        0.22663        0.19677        0.26498        0.27110        0.31539        0.32047        0.38426        0.38101        0.48225        0.47648        0.45936        0.44311        0.46607        0.43172        0.31472        0.33717        0.30882        0.31041        0.28097        0.25859        0.26566        0.33102        0.35678        0.36317        0.36982        0.40374        0.45454        0.45523        0.39481        0.41444        0.35674        0.28523        0.29724        0.33015        0.32205        0.29435        0.27752        0.32910        0.36937        0.37259        0.34682        0.39793        0.40849        0.41100        0.36543        0.35637        0.35163        0.30665        0.29965        0.30342        0.29452        0.28865        0.31948        0.35275        0.39190        0.34597        0.39624        0.36719        0.37476        0.34887        0.32084        0.34032        0.33075        0.32373        0.30259        0.30478        0.30025        0.32203        0.31457        0.35422        0.35249        0.34173        0.32604        0.28839        0.30935        0.32878        0.29730        0.28635        0.27444        0.28757        0.29657        0.35732        0.36430        0.35001        0.36932        0.38347        0.31027        0.30734        0.37416        0.30620        0.29667        0.35800        0.35748        0.33631        0.30360        0.34695        0.37373        0.34364        0.36851        0.32426        0.36522        0.29901        0.31636        0.28716        0.33876        0.33061        0.29976        0.30834        0.35734        0.35306        0.33784        0.35298        0.34405        0.28534        0.27454        0.29200        0.31697        0.31518        0.31834        0.32372        0.26234        0.32312        0.35648        0.31169        0.28916        0.33622        0.30520        0.29896        0.31142        0.34615        0.34348        0.31959        0.29706        0.28684        0.28916        0.32397        0.32433        0.28141        0.26537        0.29921        0.33443        0.30875        0.26924        0.29084        0.26242        0.24328        0.23935        0.25997        0.31615        0.35242        0.26585        0.24815        0.31663        0.32353        0.30509        0.29865        0.27482        0.27030        0.23598        0.33938        0.26830        0.24478        0.24238        0.27546        0.18224        0.19150        0.28454        0.22295        0.25061        0.23980        0.32882        0.27701        0.22329        0.25919        0.15803        0.05398        0.02113       -0.08673       -0.52715       -0.90719
2.208983 2.188690 2.168496 2.148400 2.128404 2.108506 2.088707 2.069007 2.049406 2.029903 2.010500 1.991195 1.971989 1.952882 1.933874 1.914965 1.896154 1.877443 1.858830 1.840316 1.821901 1.803585 1.785367 1.767249 1.749229 1.731308 1.713486 1.695763 1.678139 1.660613 1.643187 1.625859 1.608630 1.591500 1.574469 1.557537 1.540703 1.523968 1.507333 1.490796 1.474357 1.458018 1.441778 1.425636 1.409593 1.393650 1.377804 1.362058 1.346411 1.330862 1.315413 1.371040 2.174591 1.549442 1.028202 1.271171 0.756051 0.882986 0.618815 0.695832 0.968701 0.898465 1.124643 1.026377 0.707372 0.631463 0.484108 0.553819 0.370232 0.115550 0.400210 0.294299 0.350954 0.306355 0.128309 0.055176 0.068424 -0.032570 -0.258020 -0.122339 0.024325 0.060057 -0.071982 -0.216653 0.041891 0.081056 0.093997 0.093348 0.276408 0.320243 0.457941 0.630281 0.733539 0.835881 0.910604 1.081686 1.010114 1.044367 1.103633 0.953768 1.032913 1.087618 1.155221 1.251209 1.098289 0.923834 0.825129 0.746410 0.767617 0.563031 0.454374 0.490778 0.211140 0.200534 0.057580 0.147711 0.173170 0.078014 0.079039 0.075246 0.197678 0.174455 0.347021 0.533109 0.436825 0.546342 0.844265 0.667130 0.793895 0.871499 0.889369 0.823816 0.825606 0.677295 0.656683 0.339621 0.582264 0.301683 0.233806 0.192418 0.122802 -0.026044 -0.058379 -0.112457 0.003524 0.038401 0.136798 0.065125 0.222240 0.381381 0.405408 0.478995 0.561353 0.552165 0.693275 0.485572 0.587574 0.433937 0.457751 0.289218 0.190261 0.058274 0.223772 0.117587 -0.069650 -0.035098 0.073883 -0.019598 0.141020 0.196950 0.207688 0.333447 0.361747 0.395591 0.413086 0.454367 0.398997 0.486919 0.325690 0.384292 0.295680 0.115807 0.190061 0.030444 -0.022029 0.102328 0.069987 0.103040 0.129122 0.269681 0.206946 0.231779 0.418703 0.324131 0.293982 0.227405 0.360780 0.126011 0.114150 0.116477 0.035967 0.089000 -0.005009 -0.022400 0.048967 0.108103 0.145489 0.120172 0.116556 0.217056 0.268512 0.197628 0.160721 0.152475 0.022665 -0.004431 0.012982 0.039843 0.057059 -0.057599 -0.023394 0.084255 0.106314 0.072151 0.058647 0.128361 0.110809 0.108504 0.020481 0.048692 -0.019525 -0.010296 -0.047508 -0.045973 -0.043036 -0.078569 -0.011113 0.085877 0.042954 0.006335 0.132233 0.050186 0.050124 0.054165 -0.024534 0.016860 0.006135 0.021370 -0.031374 -0.031213 -0.013095 -0.021548 0.024741 0.040165 0.094817 0.037882 -0.003528 -0.021696 0.030442 0.054526 -0.083541 0.024710 -0.020808 -0.019885 0.007063 0.087781 0.088786 0.076188 0.110046 0.146090 -0.015365 0.031347 0.181915 -0.049294 0.042636 0.109750 0.088484 0.062938 0.010753 0.107749 0.102497 0.100094 0.108843 0.051545 0.125219 0.061107 0.026019 0.019073 0.069831 0.081437 0.017195 0.057909 0.073250 0.018145 0.104596 0.087961 0.007554 -0.043747 -0.010477 0.007735 0.013623 -0.004466 0.031147 -0.028718 -0.045883 -0.001792 0.061930 -0.024492 -0.028579 0.040958 -0.036339 -0.016218 -0.018198 0.050870 0.067192 -0.017461 -0.004635 -0.029186 -0.034640 0.037313 0.027748 -0.062524 -0.067016 -0.011025 0.048528 -0.072189 -0.069713 -0.072729 -0.078328 -0.138748 -0.090102 -0.119365 0.036531 0.070088 -0.109399 -0.059224 -0.016910 0.044652 0.025924 0.011280 0.009889 -0.028214 -0.049003 0.167598 0.016006 0.029938 0.004564 0.070952 -0.093963 0.006772 0.109973 0.092771 0.060572 0.033480 0.236845 0.371103 0.304642 0.392753 0.231429 -0.043677 0.044055 -0.113085 -1.228287
0.072396 0.072856 0.074236 0.076536 0.079755 0.083892 0.088946 0.094917 0.101802 0.109599 0.118305 0.127918 0.138432 0.149842 0.162143 0.175327 0.189385 0.204308 0.220084 0.236698 0.254136 0.272379 0.291408 0.311198 0.331725 0.352960 0.374869 0.397418 0.420566 0.444270 0.468483 0.493151 0.518218 0.543622 0.569296 0.595168 0.621160 0.647190 0.673168 0.699002 0.724589 0.749825 0.774599 0.798793 0.822284 0.844946 0.866644 0.887242 0.906597 0.924564 0.940992 0.955732 0.968626 0.979522 0.988262 0.994690 0.998654 1.000000 0.998582 0.994257 0.986888 0.976348 0.962518 0.945291 0.924571 0.900278 0.872349 0.840737 0.805415 0.766379 0.723648 0.677265 0.627301 0.573853 0.517051 0.457051 0.394047 0.328260 0.259949 0.189404 0.116951 0.042947 0.032216 0.108114 0.184293 0.260269 0.335535 0.409555 0.481778 0.551634 0.618540 0.681907 0.741144 0.795663 0.844887 0.888253 0.925223 0.955291 0.977986 0.992886 0.999620 0.997879 0.987422 0.968083 0.939782 0.902523 0.856408 0.801637 0.738513 0.667446 0.588953 0.503660 0.412297 0.315702 0.214808 0.110645 0.004326 0.102959 0.209958 0.315369 0.417853 0.516055 0.608619 0.694211 0.771534 0.839355 0.896527 0.942006 0.974878 0.994378 0.999911 0.991068 0.967647 0.929666 0.877371 0.811247 0.732023 0.640669 0.538393 0.426633 0.307040 0.181463 0.051920 0.079425 0.210302 0.338367 0.461247 0.576585 0.682083 0.775556 0.854976 0.918526 0.964645 0.992069 0.999879 0.987529 0.954881 0.902221 0.830275 0.740214 0.633644 0.512589 0.379465 0.237039 0.088377 0.063213 0.214251 0.361164 0.500373 0.628378 0.741851 0.837727 0.913299 0.966298 0.994973 0.998161 0.975336 0.926658 0.852988 0.755897 0.637646 0.501154 0.349936 0.188026 0.019876 0.149753 0.315930 0.473691 0.618193 0.744863 0.849553 0.928692 0.979411 0.999670 0.988349 0.945320 0.871489 0.768802 0.640214 0.489632 0.321803 0.142194 0.043188 0.227979 0.405682 0.569889 0.714521 0.834061 0.923782 0.979944 0.999973 0.982600 0.927949 0.837584 0.714493 0.563014 0.388714 0.198198 0.001119 0.201293 0.394168 0.571693 0.726280 0.851136 0.940575 0.990302 0.997646 0.961723 0.883536 0.765986 0.613802 0.433376 0.232535 0.020208 0.193952 0.399993 0.588135 0.749242 0.875274 0.959723 0.997962 0.987543 0.928375 0.822797 0.675537 0.493533 0.285646 0.062252 0.165260 0.385045 0.585431 0.755549 0.885929 0.969066 0.999879 0.976063 0.898292 0.770262 0.598570 0.392415 0.163142 0.076356 0.312342 0.531022 0.719357 0.865863 0.961329 0.999450 0.977275 0.895484 0.758438 0.574000 0.353147 0.109340 0.142253 0.385691 0.605266 0.786525 0.917261 0.988358 0.994483 0.934535 0.811826 0.633970 0.412462 0.161995 0.100485 0.356898 0.589269 0.781015 0.918134 0.990290 0.991636 0.921353 0.783825 0.588441 0.349033 0.082930 0.190241 0.450002 0.676535 0.852239 0.963122 0.999978 0.959211 0.843252 0.660504 0.424810 0.154470 0.129131 0.403190 0.645308 0.835354 0.957166 0.999990 0.959502 0.838318 0.645920 0.398007 0.115279 0.178238 0.457205 0.697156 0.876682 0.979374 0.995406 0.922552 0.766554 0.540764 0.265105 0.035635 0.333978 0.602251 0.815181 0.952300 0.999999 0.952958 0.814832 0.598080 0.322952 0.015664 0.294024 0.575700 0.801266 0.947804 0.999977 0.951725 0.807069 0.579907 0.292778 0.025270 0.341581 0.623216 0.840400 0.969728 0.996775 0.917807 0.740396 0.482822 0.172303 0.157798 0.471520 0.734200
1.000000 1.000000 1.000000 1.000000 1.000000 1.000000 1.000000 1.000000 1.000000 1.000000 1.000000 1.000000 1.000000 1.000000 1.000000 1.000000 1.000000 1.000000 1.000000 1.000000 1.000000 1.000000 1.000000 1.000000 1.000000 1.000000 1.000000 1.000000 1.000000 1.000000 1.000000 1.000000 1.000000 1.000000 1.000000 1.000000 1.000000 1.000000 1.000000 1.000000 1.000000 1.000000 1.000000 1.000000 1.000000 1.000000 1.000000 1.000000 1.000000 1.000000 1.000000 1.000000 0.889850 0.889850 0.889850 0.889850 0.889850 0.879916 0.879916 0.879916 0.879916 0.879916 0.879916 0.879916 0.879916 0.879916 0.879916 0.879916 0.879916 0.879916 0.879916 0.879916 0.879916 0.879916 0.879916 0.879916 0.879916 0.879916 0.879916 0.879916 0.879916 0.879916 0.879916 0.879916 0.879916 0.879916 0.879916 0.879916 0.879916 0.879916 0.879916 0.879916 0.879916 0.879916 0.879916 0.879916 0.879916 0.879916 0.879916 0.879916 0.879916 0.923445 0.924487 0.926864 0.927782 0.927594 0.927338 0.924095 0.926041 0.943739 0.943731 0.945075 0.946192 0.947636 0.948650 0.950961 0.951172 0.953817 0.956747 0.957099 0.960900 0.973247 0.969571 0.964365 0.962215 0.962879 0.963658 0.963021 0.961291 0.961403 0.963039 0.962881 0.960784 0.960304 0.959575 0.959517 0.959518 0.959425 0.959343 0.959418 0.959404 0.959058 0.959127 0.958276 0.958207 0.958107 0.956753 0.956385 0.957319 0.958910 0.958978 0.956732 0.957633 0.955902 0.956056 0.956001 0.953611 0.954442 0.954529 0.955161 0.954681 0.951934 0.943812 0.941863 0.928553 0.921328 0.919435 0.918547 0.917397 0.922234 0.921970 0.921094 0.919528 0.916591 0.905723 0.897768 0.878354 0.873994 0.876859 0.880792 0.877774 0.877894 0.866050 0.859256 0.859807 0.857422 0.843239 0.844285 0.840575 0.837453 0.835009 0.827053 0.813351 0.818134 0.825132 0.821078 0.820313 0.824768 0.816302 0.817258 0.816607 0.818698 0.823242 0.822889 0.823222 0.816673 0.811211 0.802240 0.801060 0.790011 0.796695 0.795067 0.795844 0.776506 0.776507 0.770250 0.757177 0.762174 0.774403 0.763139 0.769126 0.765460 0.752296 0.723601 0.710789 0.704425 0.713814 0.712623 0.710726 0.685627 0.696210 0.658017 0.659700 0.647411 0.635694 0.635163 0.642860 0.641155 0.648412 0.658463 0.640957 0.631368 0.572108 0.585122 0.574127 0.565929 0.567417 0.562805 0.544517 0.566715 0.558313 0.557063 0.559321 0.558035 0.523689 0.519518 0.501753 0.507269 0.516555 0.513490 0.517111 0.478341 0.465151 0.462905 0.445174 0.434002 0.421171 0.425379 0.426086 0.435789 0.448378 0.452190 0.450437 0.450016 0.447205 0.407409 0.366329 0.335177 0.310326 0.317704 0.293452 0.318952 0.327293 0.324547 0.318307 0.333119 0.327210 0.329940 0.330007 0.352298 0.287109 0.280701 0.271616 0.281605 0.259074 0.235541 0.252439 0.236340 0.218498 0.225848 0.226544 0.287525 0.269385 0.236687 0.231505 0.268482 0.238485 0.238575 0.251303 0.265388 0.264926 0.282531 0.247145 0.252002 0.249818 0.229966 0.197881 0.222520 0.229869 0.263977 0.264191 0.240959 0.171373 0.137974 0.142365 0.107919 0.115619 0.134531 0.163672 0.170098 0.105173 0.131178 0.131178 0.131178 0.131178 0.131178 0.096356 0.096356 0.096356 0.096356 0.096356 0.096356 0.096356 0.096356 0.096356 0.096356 0.094679 0.094679 0.094679 0.094679 0.094679 0.094679 0.094679 0.094679 0.094679 0.094679 0.094679 0.094679 0.094679 0.094679 0.094679 0.094679 0.094679
0.000000 0.000000 0.000000 0.000000 0.000000 0.000000 0.000000 0.000000 0.000000 0.000000 0.000000 0.000000 0.000000 0.000000 0.000000 0.000000 0.000000 0.000000 0.000000 0.000000 0.000000 9401.000000 0.000000 0.000000 0.000000 0.000000 0.000000 0.000000 0.000000 0.000000 0.000000 0.000000 0.000000 0.000000 0.000000 0.000000 0.000000 0.000000 0.000000 0.000000 0.000000 0.000000 0.000000 0.000000 0.000000 0.000000 0.000000 0.000000 0.000000 0.000000 0.000000 0.000000 0.177471 0.177471 0.177471 0.177471 0.177471 0.191565 0.191565 0.191565 0.191565 0.191565 0.191565 0.191565 0.191565 0.191565 0.191565 0.191565 0.191565 0.191565 0.191565 0.191565 0.191565 0.191565 0.191565 0.191565 0.191565 0.191565 0.191565 0.191565 0.191565 0.191565 0.191565 0.191565 0.191565 0.191565 0.191565 0.191565 0.191565 0.191565 0.191565 0.191565 0.191565 0.191565 0.191565 0.191565 0.191565 0.191565 0.191565 0.191565 0.191565 0.225018 0.225018 0.225018 0.225018 0.225018 0.225018 0.225018 0.225018 0.225018 0.225018 0.225018 0.225018 0.225018 0.225018 0.225018 0.225018 0.225018 0.225018 0.225018 0.225018 0.225018 0.225018 0.225018 0.225018 0.225018 0.225018 0.225018 0.225018 0.225018 0.237356 0.237356 0.237356 0.237356 0.237356 0.237356 0.237356 0.237356 0.237356 0.237356 0.237356 0.237356 0.237356 0.237356 0.237356 0.237356 0.237356 0.237356 0.237356 0.237356 0.237356 0.237356 0.237356 0.237356 0.244339 0.244339 0.244339 0.244339 0.244339 0.244339 0.244339 0.244339 0.244339 0.244339 0.244339 0.244339 0.244339 0.244339 0.244339 0.244339 0.244339 0.244339 0.244339 0.244339 0.244339 0.248069 0.248069 0.248069 0.248069 0.248069 0.248069 0.248069 0.248069 0.248069 0.248069 0.248069 0.248069 0.248069 0.248069 0.248069 0.248069 0.248069 0.248069 0.248069 0.256074 0.256074 0.256074 0.256074 0.256074 0.256074 0.256074 0.256074 0.256074 0.256074 0.256074 0.256074 0.256074 0.256074 0.256074 0.256074 0.256074 0.264906 0.264906 0.264906 0.264906 0.264906 0.264906 0.264906 0.264906 0.264906 0.264906 0.264906 0.264906 0.264906 0.264906 0.264906 0.256074 0.256074 0.256074 0.256074 0.256074 0.256074 0.256074 0.256074 0.256074 0.256074 0.256074 0.256074 0.256074 0.256074 0.256074 0.256074 0.256074 0.256074 0.256074 0.256074 0.256074 0.256074 0.256074 0.256074 0.256074 0.256074 0.256074 0.256074 0.256074 0.260378 0.260378 0.260378 0.260378 0.260378 0.260378 0.260378 0.260378 0.260378 0.260378 0.260378 0.260378 0.260378 0.264906 0.264906 0.264906 0.264906 0.264906 0.264906 0.264906 0.264906 0.264906 0.264906 0.264906 0.264906 0.260378 0.260378 0.260378 0.260378 0.260378 0.260378 0.260378 0.260378 0.260378 0.260378 0.260378 0.260378 0.264906 0.264906 0.264906 0.264906 0.264906 0.264906 0.264906 0.264906 0.264906 0.264906 0.264906 0.248069 0.248069 0.248069 0.248069 0.248069 0.248069 0.248069 0.248069 0.248069 0.248069 0.248069 0.248069 0.264906 0.264906 0.264906 0.264906 0.264906 0.264906 0.264906 0.264906 0.264906 0.264906 0.248069 0.248069 0.248069 0.248069 0.248069 0.248069 0.248069 0.248069 0.248069 0.248069 0.248069 0.256074 0.256074 0.256074 0.256074 0.256074 0.256074 0.256074 0.256074 0.256074 0.256074 0.260378 0.260378 0.260378 0.260378 0.260378 0.260378 0.260378 0.260378 0.260378 0.260378 0.260378 0.260378 0.260378 0.260378 0.260378 0.260378 0.260378
