# Output from CTFFind version 4.1.9, run on 2019-11-03 18:52:06
# Input file: stack2_ub_averaged_2000.mrc ; Number of micrographs: 1
# Pixel size: 3.000 Angstroms ; acceleration voltage: 300.0 keV ; spherical aberration: 0.00 mm ; amplitude contrast: 0.07
# Box size: 512 pixels ; min. res.: 30.0 Angstroms ; max. res.: 5.0 Angstroms ; min. def.: 5000.0 um; max. def. 50000.0 um; num. frames averaged: 1
# 6 lines per micrograph: #1 - spatial frequency (1/Angstroms); #2 - 1D rotational average of spectrum (assuming no astigmatism); #3 - 1D rotational average of spectrum; #4 - CTF fit; #5 - cross-correlation between spectrum and CTF fit; #6 - 2sigma of expected cross correlation of noise
0.000000 0.000651 0.001302 0.001953 0.002604 0.003255 0.003906 0.004557 0.005208 0.005859 0.006510 0.007161 0.007812 0.008464 0.009115 0.009766 0.010417 0.011068 0.011719 0.012370 0.013021 0.013672 0.014323 0.014974 0.015625 0.016276 0.016927 0.017578 0.018229 0.018880 0.019531 0.020182 0.020833 0.021484 0.022135 0.022786 0.023438 0.024089 0.024740 0.025391 0.026042 0.026693 0.027344 0.027995 0.028646 0.029297 0.029948 0.030599 0.031250 0.031901 0.032552 0.033203 0.033854 0.034505 0.035156 0.035807 0.036458 0.037109 0.037760 0.038411 0.039062 0.039714 0.040365 0.041016 0.041667 0.042318 0.042969 0.043620 0.044271 0.044922 0.045573 0.046224 0.046875 0.047526 0.048177 0.048828 0.049479 0.050130 0.050781 0.051432 0.052083 0.052734 0.053385 0.054036 0.054688 0.055339 0.055990 0.056641 0.057292 0.057943 0.058594 0.059245 0.059896 0.060547 0.061198 0.061849 0.062500 0.063151 0.063802 0.064453 0.065104 0.065755 0.066406 0.067057 0.067708 0.068359 0.069010 0.069661 0.070312 0.070964 0.071615 0.072266 0.072917 0.073568 0.074219 0.074870 0.075521 0.076172 0.076823 0.077474 0.078125 0.078776 0.079427 0.080078 0.080729 0.081380 0.082031 0.082682 0.083333 0.083984 0.084635 0.085286 0.085938 0.086589 0.087240 0.087891 0.088542 0.089193 0.089844 0.090495 0.091146 0.091797 0.092448 0.093099 0.093750 0.094401 0.095052 0.095703 0.096354 0.097005 0.097656 0.098307 0.098958 0.099609 0.100260 0.100911 0.101562 0.102214 0.102865 0.103516 0.104167 0.104818 0.105469 0.106120 0.106771 0.107422 0.108073 0.108724 0.109375 0.110026 0.110677 0.111328 0.111979 0.112630 0.113281 0.113932 0.114583 0.115234 0.115885 0.116536 0.117188 0.117839 0.118490 0.119141 0.119792 0.120443 0.121094 0.121745 0.122396 0.123047 0.123698 0.124349 0.125000 0.125651 0.126302 0.126953 0.127604 0.128255 0.128906 0.129557 0.130208 0.130859 0.131510 0.132161 0.132812 0.133464 0.134115 0.134766 0.135417 0.136068 0.136719 0.137370 0.138021 0.138672 0.139323 0.139974 0.140625 0.141276 0.141927 0.142578 0.143229 0.143880 0.144531 0.145182 0.145833 0.146484 0.147135 0.147786 0.148438 0.149089 0.149740 0.150391 0.151042 0.151693 0.152344 0.152995 0.153646 0.154297 0.154948 0.155599 0.156250 0.156901 0.157552 0.158203 0.158854 0.159505 0.160156 0.160807 0.161458 0.162109 0.162760 0.163411 0.164062 0.164714 0.165365 0.166016 0.166667 0.167318 0.167969 0.168620 0.169271 0.169922 0.170573 0.171224 0.171875 0.172526 0.173177 0.173828 0.174479 0.175130 0.175781 0.176432 0.177083 0.177734 0.178385 0.179036 0.179688 0.180339 0.180990 0.181641 0.182292 0.182943 0.183594 0.184245 0.184896 0.185547 0.186198 0.186849 0.187500 0.188151 0.188802 0.189453 0.190104 0.190755 0.191406 0.192057 0.192708 0.193359 0.194010 0.194661 0.195312 0.195964 0.196615 0.197266 0.197917 0.198568 0.199219 0.199870 0.200521 0.201172 0.201823 0.202474 0.203125 0.203776 0.204427 0.205078 0.205729 0.206380 0.207031 0.207682 0.208333 0.208984 0.209635 0.210286 0.210938 0.211589 0.212240 0.212891 0.213542 0.214193 0.214844 0.215495 0.216146 0.216797 0.217448 0.218099 0.218750 0.219401 0.220052 0.220703 0.221354 0.222005 0.222656 0.223307 0.223958 0.224609 0.225260 0.225911 0.226562 0.227214 0.227865 0.228516 0.229167 0.229818 0.230469 0.231120 0.231771 0.232422 0.233073 0.233724 0.234375 0.235026 0.235677
       0.34314        0.34314        0.34314        0.34314        0.34314        0.34314        0.34314        0.34314        0.34314        0.34314        0.34314        0.34314        0.34314        0.34314        0.34314        0.34314        0.34314        0.34314        0.34314        0.34314        0.34314        0.34314        0.34314        0.34314        0.34314        0.34314        0.34314        0.34314        0.34314        0.34314        0.34314        0.34314        0.34314        0.34314        0.34314        0.34314        0.34314        0.34314        0.34314        0.34314        0.34314        0.34314        0.34314        0.34314        0.34314        0.34314        0.34314        0.34314        0.34314        0.34314        0.34314        0.56629        0.78964        0.37134        0.08808       -0.22532       -0.46927       -0.38180       -0.33273       -0.27114       -0.39134       -0.26796       -0.25899       -0.49325       -0.49314       -0.58204       -0.60856       -0.68269       -0.68561       -0.66113       -0.67181       -0.69764       -0.63320       -0.53824       -0.56271       -0.60214       -0.44956       -0.34503       -0.26106       -0.23669       -0.15348       -0.06024        0.12407        0.16922        0.26240        0.44976        0.41110        0.57781        0.69824        0.59143        0.74502        0.67976        0.61526        0.61713        0.58548        0.45142        0.48673        0.32885        0.22870        0.25822        0.11404       -0.01307       -0.01275       -0.00964        0.00196       -0.00861        0.03284        0.10076        0.13293        0.29442        0.35719        0.41462        0.53345        0.65489        0.72940        0.77409        0.80831        0.71817        0.64526        0.58871        0.56033        0.44591        0.33141        0.32471        0.14654        0.12639        0.05503        0.14774        0.10572        0.10364        0.14217        0.16555        0.37824        0.44054        0.49170        0.51278        0.61297        0.54526        0.61334        0.57336        0.56432        0.50047        0.45758        0.37275        0.31465        0.21340        0.17302        0.16090        0.11360        0.11634        0.24622        0.25357        0.35597        0.44157        0.49121        0.50464        0.55690        0.49650        0.47288        0.41993        0.38978        0.34177        0.24182        0.18291        0.20721        0.23180        0.23533        0.26353        0.32502        0.31418        0.35427        0.47466        0.42142        0.49849        0.47504        0.43810        0.41336        0.35318        0.30139        0.29268        0.26895        0.29035        0.26408        0.29488        0.34092        0.41553        0.41665        0.40983        0.42200        0.44685        0.39914        0.40944        0.36363        0.30095        0.29122        0.29278        0.28604        0.33506        0.37605        0.36099        0.38445        0.41488        0.42120        0.45209        0.41441        0.40751        0.32393        0.30379        0.27455        0.31782        0.35399        0.35821        0.35902        0.31660        0.40507        0.39205        0.37472        0.36961        0.33980        0.29854        0.28096        0.28667        0.32404        0.31238        0.31544        0.31119        0.37012        0.38545        0.37920        0.37205        0.34411        0.33907        0.32687        0.34652        0.33278        0.35826        0.34777        0.33135        0.32205        0.31028        0.35365        0.36983        0.36282        0.29655        0.31199        0.31672        0.30884        0.31293        0.29986        0.32010        0.30997        0.31192        0.30532        0.34105        0.30218        0.27712        0.28184        0.28525        0.28796        0.30944        0.32976        0.34839        0.35374        0.30871        0.30584        0.32485        0.31079        0.32981        0.30704        0.30498        0.32118        0.32611        0.34550        0.33462        0.35183        0.38271        0.34976        0.31734        0.31171        0.32544        0.28655        0.31926        0.31891        0.32519        0.27728        0.34659        0.32205        0.29927        0.29600        0.30272        0.34223        0.32499        0.32973        0.30891        0.30212        0.36824        0.30793        0.33489        0.29092        0.27765        0.36338        0.31660        0.33687        0.34998        0.34760        0.33081        0.32064        0.32464        0.33959        0.31047        0.33629        0.33617        0.31715        0.32768        0.30549        0.30961        0.27501        0.26181        0.28082        0.29141        0.25609        0.29756        0.29142        0.31136        0.28445        0.26346        0.23642        0.27061        0.33046        0.29379        0.23396        0.24316        0.26887        0.27584        0.29516        0.29823        0.23675        0.26080        0.27885        0.26490        0.26888        0.25278        0.25076        0.29730        0.29297        0.32007        0.27640        0.23278        0.26385        0.33429        0.21659        0.24271        0.27819        0.30525        0.26388        0.16762        0.32648        0.27716        0.24361        0.07352       -0.04225       -0.30128       -0.75327
2.530325 2.502625 2.475082 2.447695 2.420466 2.393394 2.366479 2.339720 2.313119 2.286675 2.260388 2.234258 2.208285 2.182469 2.156810 2.131308 2.105963 2.080775 2.055744 2.030870 2.006154 1.981594 1.957191 1.932945 1.908856 1.884925 1.861150 1.837533 1.814072 1.790768 1.767622 1.744632 1.721800 1.699124 1.676606 1.654244 1.632040 1.609993 1.588102 1.566369 1.544793 1.523373 1.502111 1.481006 1.460058 1.439267 1.418633 1.398155 1.377835 1.357672 1.337666 1.299454 1.920358 1.338707 1.037069 0.600722 0.290826 0.402767 0.465937 0.490051 0.261812 0.462080 0.449635 0.221699 0.102715 0.035312 0.012698 -0.129959 -0.125590 -0.152528 -0.135598 -0.221597 -0.158153 -0.047716 -0.110927 -0.186917 -0.059812 0.081228 0.241217 0.099484 0.256938 0.285360 0.530044 0.545383 0.642506 0.812709 0.788308 0.904057 1.127428 0.971749 1.012584 1.049066 1.005036 0.862763 0.991951 0.689812 0.761769 0.600459 0.437065 0.476671 0.348887 0.129958 0.130387 0.111699 0.092614 0.103062 0.070984 0.178575 0.179301 0.351572 0.412463 0.469550 0.574021 0.701991 0.767623 0.830887 0.913415 0.718233 0.720470 0.643924 0.595091 0.440822 0.305778 0.323917 0.102453 0.078779 -0.062422 0.035226 0.012451 -0.029733 0.025420 -0.013244 0.233450 0.264159 0.416010 0.361012 0.497302 0.394050 0.513155 0.513460 0.425159 0.411005 0.311185 0.246579 0.197839 0.097996 -0.048591 0.000100 -0.090180 -0.129065 -0.012751 0.079556 0.103507 0.192208 0.307780 0.303687 0.371763 0.342111 0.354914 0.287809 0.221468 0.206932 0.098384 0.006684 -0.055046 0.062624 -0.006973 0.037666 0.117255 0.107674 0.132778 0.210691 0.258536 0.248764 0.293468 0.214869 0.221128 0.150842 0.086520 0.078765 0.061131 -0.008276 0.038366 0.022267 0.060621 0.120432 0.197086 0.173211 0.146580 0.165026 0.154136 0.103625 0.145771 0.002976 0.010950 -0.023954 -0.029194 -0.010200 0.094903 0.041264 0.077320 0.085333 0.108294 0.121445 0.124521 0.108212 0.047324 -0.030360 -0.066164 -0.027821 0.012164 0.000216 0.068915 -0.002177 0.001076 0.109371 0.044188 0.033140 0.064411 -0.067238 -0.025909 -0.072510 -0.044970 0.000548 -0.041410 -0.014495 -0.018177 0.063901 0.051093 0.056808 0.006402 0.025446 0.008639 -0.020992 0.035928 0.015312 0.038041 0.001853 0.005009 -0.017694 -0.005451 0.055506 0.073061 0.035337 -0.024032 0.035594 -0.010406 -0.003176 0.004206 -0.009871 0.023242 -0.001169 0.013864 0.011743 0.056730 -0.019216 -0.025873 -0.022736 -0.016985 -0.005775 0.020320 0.034948 0.084465 0.023794 0.002579 0.020350 0.034548 0.020111 0.012739 0.008344 0.008061 0.033815 0.031325 0.068235 0.009206 0.049181 0.075837 0.039740 0.006874 0.000798 0.008751 -0.031732 0.033380 -0.026109 0.005368 -0.025974 0.023364 0.000136 0.001696 -0.026145 -0.034041 0.044916 0.011533 0.017794 -0.001923 0.007413 0.055452 -0.002931 0.037622 -0.037190 -0.059036 0.056476 0.006112 0.044468 0.023097 0.052393 -0.013211 0.042808 0.018093 0.011610 0.021621 0.017430 0.029776 0.002219 0.035395 0.008444 0.002645 -0.035385 -0.012775 -0.022219 -0.034089 -0.054758 0.020712 -0.000620 0.026653 -0.016063 -0.022726 -0.026344 -0.064072 0.081867 0.018761 -0.042139 -0.044353 0.018114 0.038293 0.008738 0.069943 -0.034046 0.025959 0.047203 0.026013 0.033415 0.000954 0.016044 0.060609 0.091207 0.092356 0.094215 -0.029071 0.108296 0.107943 0.074133 0.257085 0.322976 0.288773 0.335516 0.197121 0.402644 0.337501 0.270776 0.048317 -0.048085 -0.838535
0.072396 0.072964 0.074666 0.077503 0.081473 0.086576 0.092810 0.100173 0.108661 0.118272 0.129000 0.140840 0.153785 0.167825 0.182950 0.199147 0.216401 0.234694 0.254006 0.274311 0.295582 0.317786 0.340888 0.364846 0.389612 0.415136 0.441358 0.468215 0.495634 0.523538 0.551841 0.580449 0.609261 0.638166 0.667047 0.695776 0.724218 0.752228 0.779654 0.806334 0.832098 0.856768 0.880159 0.902079 0.922330 0.940707 0.957003 0.971007 0.982504 0.991282 0.997128 0.999832 0.999189 0.995002 0.987083 0.975255 0.959356 0.939241 0.914785 0.885887 0.852469 0.814484 0.771917 0.724786 0.673150 0.617104 0.556790 0.492394 0.424148 0.352336 0.277291 0.199397 0.119091 0.036859 0.046760 0.131181 0.215771 0.299854 0.382718 0.463616 0.541773 0.616394 0.686674 0.751803 0.810975 0.863405 0.908333 0.945041 0.972863 0.991197 0.999522 0.997405 0.984519 0.960652 0.925720 0.879776 0.823021 0.755810 0.678658 0.592242 0.497405 0.395152 0.286646 0.173198 0.056261 0.062592 0.181680 0.299238 0.413443 0.522438 0.624367 0.717407 0.799800 0.869895 0.926181 0.967325 0.992211 0.999970 0.990019 0.962083 0.916221 0.852846 0.772737 0.677040 0.567270 0.445295 0.313315 0.173834 0.029620 0.116348 0.260931 0.400899 0.533006 0.654059 0.761007 0.851022 0.921579 0.970542 0.996231 0.997497 0.973775 0.925131 0.852291 0.756655 0.640290 0.505905 0.356808 0.196834 0.030265 0.138283 0.303975 0.461898 0.607211 0.735290 0.841892 0.923308 0.976499 0.999235 0.990200 0.949082 0.876620 0.774637 0.646013 0.494640 0.325323 0.143649 0.044181 0.231555 0.411678 0.577817 0.723561 0.843077 0.931368 0.984493 0.999777 0.975963 0.913325 0.813715 0.680552 0.518741 0.334526 0.135275 0.070803 0.274963 0.468312 0.642184 0.788550 0.900401 0.972111 0.999753 0.981348 0.917026 0.809104 0.662053 0.482361 0.278279 0.059484 0.163368 0.379136 0.576763 0.745841 0.877186 0.963366 0.999157 0.981905 0.911759 0.791758 0.627766 0.428237 0.203824 0.033148 0.269340 0.491142 0.685457 0.840496 0.946530 0.996537 0.986723 0.916859 0.790413 0.614449 0.399300 0.158015 0.094389 0.341844 0.568239 0.758487 0.899556 0.981406 0.997763 0.946665 0.830726 0.657094 0.437095 0.185557 0.080142 0.341238 0.578897 0.775593 0.916433 0.990332 0.990964 0.917374 0.774207 0.571517 0.324143 0.050700 0.227783 0.489453 0.713346 0.881108 0.978544 0.996906 0.933751 0.793332 0.586424 0.329593 0.043954 0.246506 0.516922 0.743688 0.906545 0.990468 0.987139 0.895866 0.723850 0.485752 0.202529 0.100315 0.394976 0.653909 0.852408 0.971041 0.997630 0.928622 0.769650 0.535222 0.247505 0.065648 0.373367 0.644763 0.852072 0.973550 0.995864 0.915677 0.740235 0.486880 0.181457 0.144206 0.455589 0.719089 0.905725 0.994390 0.974370 0.846773 0.624696 0.332029 0.001032 0.331157 0.626638 0.851095 0.977874 0.991253 0.888552 0.680752 0.391500 0.054566 0.289985 0.600521 0.838884 0.975162 0.991560 0.884906 0.667361 0.365236 0.015979 0.336377 0.646701 0.874583 0.989684 0.975933 0.833946 0.581316 0.250632 0.114564 0.465417 0.754264 0.941178 0.999608 0.920341 0.713144 0.405801 0.040590 0.331407 0.657372 0.890296 0.995863 0.957686 0.780061 0.487776 0.122869 0.261250 0.607533 0.863778 0.990608 0.967693 0.797249 0.504151 0.132538 0.260625 0.614226 0.872495 0.993902 0.958055 0.769365 0.456822 0.069791 0.329581 0.676278 0.913041 0.999940 0.921347 0.689022
1.000000 1.000000 1.000000 1.000000 1.000000 1.000000 1.000000 1.000000 1.000000 1.000000 1.000000 1.000000 1.000000 1.000000 1.000000 1.000000 1.000000 1.000000 1.000000 1.000000 1.000000 1.000000 1.000000 1.000000 1.000000 1.000000 1.000000 1.000000 1.000000 1.000000 1.000000 1.000000 1.000000 1.000000 1.000000 1.000000 1.000000 1.000000 1.000000 1.000000 1.000000 1.000000 1.000000 1.000000 1.000000 1.000000 1.000000 1.000000 1.000000 1.000000 1.000000 1.000000 0.920444 0.920444 0.920444 0.920444 0.920444 0.920444 0.920444 0.920444 0.920444 0.920444 0.920444 0.920444 0.920444 0.920444 0.920444 0.920444 0.920444 0.920444 0.920444 0.920444 0.920444 0.920444 0.920444 0.920444 0.920444 0.920444 0.920444 0.920444 0.920444 0.920444 0.920444 0.920444 0.920444 0.920444 0.920444 0.920444 0.920444 0.920444 0.920444 0.896935 0.904681 0.908129 0.910235 0.907157 0.908409 0.907716 0.908470 0.906789 0.908707 0.911594 0.913733 0.926670 0.930814 0.934228 0.933717 0.935072 0.935969 0.956727 0.955945 0.951812 0.950997 0.953627 0.956572 0.956910 0.957221 0.957038 0.957553 0.957138 0.956363 0.955550 0.954354 0.953996 0.953894 0.953950 0.954567 0.954827 0.955715 0.955586 0.955697 0.955920 0.950172 0.940772 0.946523 0.947048 0.942738 0.938176 0.938842 0.936537 0.936959 0.937824 0.939016 0.937859 0.938752 0.933690 0.931370 0.923501 0.911315 0.906537 0.906381 0.909182 0.910450 0.913038 0.911730 0.910811 0.911007 0.912905 0.910757 0.910111 0.908832 0.901043 0.907306 0.908533 0.905230 0.901878 0.880940 0.875576 0.874875 0.879699 0.882185 0.866563 0.866200 0.866428 0.869270 0.871641 0.874851 0.868963 0.863611 0.853086 0.850496 0.854641 0.837707 0.836517 0.825211 0.816684 0.800629 0.799346 0.798683 0.797656 0.797279 0.799523 0.763397 0.776425 0.774061 0.774033 0.759332 0.763072 0.764223 0.757669 0.756180 0.757826 0.757759 0.738541 0.737122 0.741586 0.739313 0.734962 0.686938 0.664801 0.635152 0.631179 0.621209 0.573738 0.554740 0.563313 0.558896 0.547722 0.538532 0.522861 0.546837 0.553808 0.543288 0.504448 0.481416 0.485904 0.479780 0.473392 0.469352 0.482600 0.494255 0.490298 0.474260 0.462567 0.468065 0.490145 0.464623 0.423284 0.432309 0.434581 0.458188 0.461979 0.461805 0.453380 0.431776 0.411671 0.430276 0.451099 0.436145 0.430559 0.429253 0.393904 0.392282 0.392155 0.368540 0.368727 0.316296 0.291074 0.286892 0.267731 0.259648 0.239967 0.282206 0.326765 0.314586 0.335502 0.376983 0.392988 0.377003 0.357394 0.300628 0.279747 0.262081 0.237068 0.241608 0.221122 0.232317 0.238014 0.204497 0.247163 0.219537 0.220717 0.202476 0.243681 0.258741 0.240863 0.172956 0.129858 0.122786 0.118829 0.099886 0.063085 0.066124 0.096380 0.073930 0.046808 -0.002362 -0.067929 -0.063093 -0.062791 -0.070663 -0.129930 -0.102393 -0.076519 -0.034452 -0.026307 -0.015473 -0.035910 -0.014160 -0.039537 -0.023049 -0.020875 -0.034211 -0.006918 -0.017114 0.009651 0.040705 0.045163 0.028986 0.058893 -0.006624 0.031829 0.006081 0.005899 0.032302 0.012537 0.033951 0.030715 0.031232 0.000439 -0.007358 -0.014051 -0.012143 -0.012143 -0.012143 -0.012143 -0.012143 -0.029376 -0.029376 -0.029376 -0.029376 -0.029376 -0.029376 -0.029376 -0.029376 -0.013466 -0.013466 -0.013466 -0.013466 -0.013466 -0.013466 -0.013466 -0.013466 0.000404 0.000404 0.000404 0.000404 0.000404 0.000404 0.000404 0.000404 0.000404 0.000404
0.000000 0.000000 0.000000 0.000000 0.000000 0.000000 0.000000 0.000000 0.000000 0.000000 0.000000 0.000000 0.000000 0.000000 0.000000 0.000000 0.000000 0.000000 0.000000 0.000000 0.000000 9401.000000 0.000000 0.000000 0.000000 0.000000 0.000000 0.000000 0.000000 0.000000 0.000000 0.000000 0.000000 0.000000 0.000000 0.000000 0.000000 0.000000 0.000000 0.000000 0.000000 0.000000 0.000000 0.000000 0.000000 0.000000 0.000000 0.000000 0.000000 0.000000 0.000000 0.000000 0.203069 0.203069 0.203069 0.203069 0.203069 0.203069 0.203069 0.203069 0.203069 0.203069 0.203069 0.203069 0.203069 0.203069 0.203069 0.203069 0.203069 0.203069 0.203069 0.203069 0.203069 0.203069 0.203069 0.203069 0.203069 0.203069 0.203069 0.203069 0.203069 0.203069 0.203069 0.203069 0.203069 0.203069 0.203069 0.203069 0.203069 0.203069 0.203069 0.237356 0.237356 0.237356 0.237356 0.237356 0.237356 0.237356 0.237356 0.237356 0.237356 0.237356 0.237356 0.237356 0.237356 0.237356 0.237356 0.237356 0.237356 0.237356 0.237356 0.237356 0.237356 0.237356 0.237356 0.237356 0.237356 0.248069 0.248069 0.248069 0.248069 0.248069 0.248069 0.248069 0.248069 0.248069 0.248069 0.248069 0.248069 0.248069 0.248069 0.248069 0.248069 0.248069 0.248069 0.248069 0.248069 0.248069 0.248069 0.256074 0.256074 0.256074 0.256074 0.256074 0.256074 0.256074 0.256074 0.256074 0.256074 0.256074 0.256074 0.256074 0.256074 0.256074 0.256074 0.256074 0.256074 0.256074 0.269680 0.269680 0.269680 0.269680 0.269680 0.269680 0.269680 0.269680 0.269680 0.269680 0.269680 0.269680 0.269680 0.269680 0.269680 0.269680 0.264906 0.264906 0.264906 0.264906 0.264906 0.264906 0.264906 0.264906 0.264906 0.264906 0.264906 0.264906 0.264906 0.264906 0.264906 0.264906 0.269680 0.269680 0.269680 0.269680 0.269680 0.269680 0.269680 0.269680 0.269680 0.269680 0.269680 0.269680 0.269680 0.269680 0.274721 0.274721 0.274721 0.274721 0.274721 0.274721 0.274721 0.274721 0.274721 0.274721 0.274721 0.274721 0.274721 0.274721 0.274721 0.274721 0.274721 0.274721 0.274721 0.274721 0.274721 0.274721 0.274721 0.274721 0.274721 0.269680 0.269680 0.269680 0.269680 0.269680 0.269680 0.269680 0.269680 0.269680 0.269680 0.269680 0.269680 0.274721 0.274721 0.274721 0.274721 0.274721 0.274721 0.274721 0.274721 0.274721 0.274721 0.274721 0.269680 0.269680 0.269680 0.269680 0.269680 0.269680 0.269680 0.269680 0.269680 0.269680 0.269680 0.274721 0.274721 0.274721 0.274721 0.274721 0.274721 0.274721 0.274721 0.274721 0.274721 0.269680 0.269680 0.269680 0.269680 0.269680 0.269680 0.269680 0.269680 0.269680 0.269680 0.264906 0.264906 0.264906 0.264906 0.264906 0.264906 0.264906 0.264906 0.264906 0.264906 0.269680 0.269680 0.269680 0.269680 0.269680 0.269680 0.269680 0.269680 0.269680 0.264906 0.264906 0.264906 0.264906 0.264906 0.264906 0.264906 0.264906 0.264906 0.260378 0.260378 0.260378 0.260378 0.260378 0.260378 0.260378 0.260378 0.260378 0.269680 0.269680 0.269680 0.269680 0.269680 0.269680 0.269680 0.269680 0.251976 0.251976 0.251976 0.251976 0.251976 0.251976 0.251976 0.251976 0.251976 0.264906 0.264906 0.264906 0.264906 0.264906 0.264906 0.264906 0.264906 0.260378 0.260378 0.260378 0.260378 0.260378 0.260378 0.260378 0.260378 0.256074 0.256074 0.256074 0.256074 0.256074 0.256074 0.256074 0.256074 0.256074 0.256074
