# Output from CTFFind version 4.1.9, run on 2019-11-03 18:51:43
# Input file: stack14_ub_averaged_1000.mrc ; Number of micrographs: 1
# Pixel size: 3.000 Angstroms ; acceleration voltage: 300.0 keV ; spherical aberration: 0.00 mm ; amplitude contrast: 0.07
# Box size: 512 pixels ; min. res.: 30.0 Angstroms ; max. res.: 5.0 Angstroms ; min. def.: 5000.0 um; max. def. 50000.0 um; num. frames averaged: 1
# 6 lines per micrograph: #1 - spatial frequency (1/Angstroms); #2 - 1D rotational average of spectrum (assuming no astigmatism); #3 - 1D rotational average of spectrum; #4 - CTF fit; #5 - cross-correlation between spectrum and CTF fit; #6 - 2sigma of expected cross correlation of noise
0.000000 0.000651 0.001302 0.001953 0.002604 0.003255 0.003906 0.004557 0.005208 0.005859 0.006510 0.007161 0.007812 0.008464 0.009115 0.009766 0.010417 0.011068 0.011719 0.012370 0.013021 0.013672 0.014323 0.014974 0.015625 0.016276 0.016927 0.017578 0.018229 0.018880 0.019531 0.020182 0.020833 0.021484 0.022135 0.022786 0.023438 0.024089 0.024740 0.025391 0.026042 0.026693 0.027344 0.027995 0.028646 0.029297 0.029948 0.030599 0.031250 0.031901 0.032552 0.033203 0.033854 0.034505 0.035156 0.035807 0.036458 0.037109 0.037760 0.038411 0.039062 0.039714 0.040365 0.041016 0.041667 0.042318 0.042969 0.043620 0.044271 0.044922 0.045573 0.046224 0.046875 0.047526 0.048177 0.048828 0.049479 0.050130 0.050781 0.051432 0.052083 0.052734 0.053385 0.054036 0.054688 0.055339 0.055990 0.056641 0.057292 0.057943 0.058594 0.059245 0.059896 0.060547 0.061198 0.061849 0.062500 0.063151 0.063802 0.064453 0.065104 0.065755 0.066406 0.067057 0.067708 0.068359 0.069010 0.069661 0.070312 0.070964 0.071615 0.072266 0.072917 0.073568 0.074219 0.074870 0.075521 0.076172 0.076823 0.077474 0.078125 0.078776 0.079427 0.080078 0.080729 0.081380 0.082031 0.082682 0.083333 0.083984 0.084635 0.085286 0.085938 0.086589 0.087240 0.087891 0.088542 0.089193 0.089844 0.090495 0.091146 0.091797 0.092448 0.093099 0.093750 0.094401 0.095052 0.095703 0.096354 0.097005 0.097656 0.098307 0.098958 0.099609 0.100260 0.100911 0.101562 0.102214 0.102865 0.103516 0.104167 0.104818 0.105469 0.106120 0.106771 0.107422 0.108073 0.108724 0.109375 0.110026 0.110677 0.111328 0.111979 0.112630 0.113281 0.113932 0.114583 0.115234 0.115885 0.116536 0.117188 0.117839 0.118490 0.119141 0.119792 0.120443 0.121094 0.121745 0.122396 0.123047 0.123698 0.124349 0.125000 0.125651 0.126302 0.126953 0.127604 0.128255 0.128906 0.129557 0.130208 0.130859 0.131510 0.132161 0.132812 0.133464 0.134115 0.134766 0.135417 0.136068 0.136719 0.137370 0.138021 0.138672 0.139323 0.139974 0.140625 0.141276 0.141927 0.142578 0.143229 0.143880 0.144531 0.145182 0.145833 0.146484 0.147135 0.147786 0.148438 0.149089 0.149740 0.150391 0.151042 0.151693 0.152344 0.152995 0.153646 0.154297 0.154948 0.155599 0.156250 0.156901 0.157552 0.158203 0.158854 0.159505 0.160156 0.160807 0.161458 0.162109 0.162760 0.163411 0.164062 0.164714 0.165365 0.166016 0.166667 0.167318 0.167969 0.168620 0.169271 0.169922 0.170573 0.171224 0.171875 0.172526 0.173177 0.173828 0.174479 0.175130 0.175781 0.176432 0.177083 0.177734 0.178385 0.179036 0.179688 0.180339 0.180990 0.181641 0.182292 0.182943 0.183594 0.184245 0.184896 0.185547 0.186198 0.186849 0.187500 0.188151 0.188802 0.189453 0.190104 0.190755 0.191406 0.192057 0.192708 0.193359 0.194010 0.194661 0.195312 0.195964 0.196615 0.197266 0.197917 0.198568 0.199219 0.199870 0.200521 0.201172 0.201823 0.202474 0.203125 0.203776 0.204427 0.205078 0.205729 0.206380 0.207031 0.207682 0.208333 0.208984 0.209635 0.210286 0.210938 0.211589 0.212240 0.212891 0.213542 0.214193 0.214844 0.215495 0.216146 0.216797 0.217448 0.218099 0.218750 0.219401 0.220052 0.220703 0.221354 0.222005 0.222656 0.223307 0.223958 0.224609 0.225260 0.225911 0.226562 0.227214 0.227865 0.228516 0.229167 0.229818 0.230469 0.231120 0.231771 0.232422 0.233073 0.233724 0.234375 0.235026 0.235677
       0.30807        0.30807        0.30807        0.30807        0.30807        0.30807        0.30807        0.30807        0.30807        0.30807        0.30807        0.30807        0.30807        0.30807        0.30807        0.30807        0.30807        0.30807        0.30807        0.30807        0.30807        0.30807        0.30807        0.30807        0.30807        0.30807        0.30807        0.30807        0.30807        0.30807        0.30807        0.30807        0.30807        0.30807        0.30807        0.30807        0.30807        0.30807        0.30807        0.30807        0.30807        0.30807        0.30807        0.30807        0.30807        0.30807        0.30807        0.30807        0.30807        0.30807        0.30807        0.43318        0.54222        0.19460       -0.14231       -0.34803       -0.39243       -0.47136       -0.60478       -0.61014       -0.61053       -0.58374       -0.57105       -0.58461       -0.71322       -0.80943       -0.80971       -0.83495       -0.78216       -0.85327       -0.69359       -0.79835       -0.74739       -0.56396       -0.47589       -0.36585       -0.22786       -0.12026       -0.13967        0.09913        0.25468        0.23979        0.33381        0.45336        0.47525        0.58140        0.49412        0.62836        0.61132        0.62101        0.51771        0.41387        0.32950        0.27632        0.25403        0.17867        0.09191        0.06853       -0.05910       -0.03849       -0.06496       -0.07768       -0.01559        0.04605        0.13703        0.18601        0.36734        0.45449        0.53300        0.58581        0.55487        0.64849        0.70390        0.63304        0.53803        0.49046        0.49806        0.38692        0.29471        0.17256        0.09145        0.03131       -0.01931       -0.05055        0.05890        0.12323        0.22778        0.34865        0.44481        0.55718        0.55004        0.61198        0.64362        0.58337        0.53063        0.54594        0.43447        0.35431        0.25510        0.17045        0.10186        0.03122        0.07030        0.09687        0.18179        0.28554        0.31272        0.42163        0.47377        0.46865        0.50295        0.53883        0.43195        0.43629        0.32119        0.19208        0.21123        0.10265        0.13215        0.13520        0.15779        0.25731        0.33277        0.44028        0.44056        0.42337        0.48430        0.46830        0.44458        0.41357        0.34890        0.21782        0.14492        0.23786        0.24704        0.21326        0.22723        0.34713        0.41466        0.48230        0.49267        0.44174        0.39232        0.35610        0.27559        0.27913        0.23383        0.23711        0.18810        0.24387        0.26931        0.35412        0.37912        0.43731        0.41985        0.37061        0.34023        0.34058        0.27187        0.23692        0.23137        0.25381        0.27096        0.33775        0.36457        0.35290        0.36177        0.39096        0.38256        0.36316        0.26087        0.26174        0.25009        0.24337        0.25652        0.23456        0.32053        0.40828        0.36733        0.33766        0.35258        0.30169        0.27807        0.26710        0.23521        0.27137        0.31908        0.30742        0.33268        0.32751        0.35074        0.34792        0.32260        0.31575        0.26224        0.28592        0.26565        0.28192        0.31105        0.31660        0.29555        0.31450        0.32555        0.29725        0.28277        0.25175        0.28154        0.27461        0.27242        0.33173        0.31667        0.26520        0.29789        0.27867        0.26817        0.22982        0.24031        0.30647        0.29031        0.30267        0.28994        0.31705        0.28480        0.23873        0.27200        0.28310        0.26889        0.26078        0.31513        0.35985        0.35621        0.31816        0.31227        0.27240        0.29100        0.27248        0.27330        0.29616        0.30116        0.31131        0.26615        0.25919        0.27027        0.28124        0.26423        0.27703        0.29682        0.33612        0.31531        0.28618        0.29449        0.28887        0.26231        0.25842        0.24962        0.29158        0.29135        0.29857        0.25649        0.20072        0.24199        0.24278        0.24354        0.28699        0.30711        0.29063        0.24723        0.25245        0.26688        0.25902        0.23272        0.23126        0.27686        0.27396        0.35644        0.31215        0.24997        0.26429        0.24027        0.23484        0.29579        0.30684        0.30376        0.24443        0.31582        0.28023        0.24914        0.27306        0.28163        0.27550        0.29414        0.23444        0.24396        0.27890        0.26397        0.24405        0.22079        0.22489        0.24204        0.23238        0.19413        0.16433        0.23562        0.26277        0.21274        0.25518        0.30375        0.22886        0.26770        0.26668        0.34033        0.29066        0.19093        0.29541        0.22263        0.21206        0.30071        0.18129        0.09415        0.03890        0.02333       -0.27912       -0.16808
2.499326 2.471633 2.444101 2.416732 2.389525 2.362481 2.335598 2.308878 2.282320 2.255925 2.229691 2.203620 2.177711 2.151965 2.126380 2.100958 2.075698 2.050600 2.025665 2.000892 1.976281 1.951832 1.927546 1.903421 1.879459 1.855660 1.832022 1.808547 1.785234 1.762083 1.739095 1.716268 1.693604 1.671103 1.648763 1.626586 1.604571 1.582718 1.561027 1.539499 1.518133 1.496929 1.475888 1.455008 1.434291 1.413736 1.393344 1.373113 1.353045 1.333139 1.313396 1.424082 1.541922 1.189669 0.789590 0.459331 0.542613 0.358738 0.135191 0.207533 0.149612 0.091459 0.179864 0.129948 0.039851 -0.197344 -0.193375 -0.208063 -0.182934 -0.305011 -0.049218 -0.297214 -0.227074 -0.026408 0.007406 0.125479 0.290355 0.368275 0.348334 0.466364 0.751963 0.709830 0.775532 0.856026 0.912024 1.020694 0.975161 0.945554 1.033409 0.982265 0.974583 0.683852 0.765944 0.553499 0.577872 0.485166 0.350556 0.328462 0.157920 0.210869 0.110165 0.091180 0.191851 0.194753 0.246249 0.345069 0.466979 0.643222 0.642710 0.656179 0.785700 0.717033 0.792098 0.741191 0.671086 0.595060 0.601610 0.453689 0.387905 0.208785 0.165114 0.026186 -0.017071 -0.070550 -0.063529 0.131577 0.128670 0.329248 0.359103 0.453449 0.558350 0.549357 0.609247 0.612679 0.467045 0.529409 0.342497 0.366425 0.218133 0.093261 0.012056 -0.051204 -0.070599 -0.044222 -0.003623 0.147340 0.190712 0.237720 0.358801 0.340601 0.421546 0.503238 0.388896 0.349555 0.300405 0.100336 0.076152 0.037036 -0.019994 0.016892 -0.007222 0.090310 0.151157 0.304169 0.281696 0.315461 0.342056 0.336331 0.309258 0.300374 0.227528 0.104347 -0.039769 0.029141 0.084501 0.041112 0.021224 0.102680 0.198845 0.286808 0.265349 0.311288 0.173616 0.215436 0.100786 0.073496 0.018783 -0.008402 0.020661 -0.026067 0.007173 0.110414 0.146516 0.190156 0.208968 0.159196 0.140272 0.100108 0.102038 -0.026306 0.003866 -0.018827 0.018089 0.057660 0.097788 0.131907 0.116973 0.134692 0.151430 0.162395 0.083114 -0.001149 0.002995 0.006446 0.000306 -0.006243 -0.003047 0.118611 0.164861 0.097863 0.113194 0.092567 0.010939 0.015761 -0.017935 -0.013328 0.033489 0.058903 0.040980 0.075351 0.088838 0.075041 0.103152 0.071802 0.006861 0.009671 0.042284 -0.018956 0.030359 0.055231 0.033507 0.044657 0.057711 0.044021 0.023044 0.012017 -0.032678 0.021933 -0.012316 0.022774 0.078500 0.031271 0.003421 0.004714 0.028545 -0.018972 -0.064840 -0.006631 0.036862 0.031985 0.023319 0.035612 0.052325 -0.003475 -0.026611 0.015627 0.025398 0.008353 -0.016876 0.075031 0.098517 0.069256 0.062492 0.042969 -0.013019 0.038622 -0.015423 0.029182 0.046106 0.022894 0.057428 -0.015868 0.022590 0.003728 0.007016 0.034582 -0.004211 0.046553 0.098687 0.023024 0.061016 0.033865 0.023417 -0.002915 -0.000922 0.009146 0.046679 0.016459 0.046296 -0.060357 -0.046748 0.000252 -0.056928 -0.033405 0.030243 0.068333 0.032394 -0.048646 -0.013239 0.027996 -0.002912 -0.032542 -0.035814 0.068495 -0.033983 0.133183 0.021943 0.017862 0.016194 -0.031735 0.002548 0.055922 0.047923 0.080170 -0.017524 0.078376 0.065688 -0.025720 0.056997 0.026291 0.079757 0.058947 0.000935 -0.002290 0.039937 0.017899 -0.017825 -0.089465 -0.028024 -0.065242 -0.030024 -0.086977 -0.130443 -0.030860 -0.023816 -0.114329 -0.038482 0.065212 -0.039703 0.004799 0.015553 0.128255 0.043821 -0.078772 0.096345 0.032385 -0.027851 0.181158 0.147827 0.207420 -0.063338 0.031378 -0.179441
0.072396 0.073021 0.074895 0.078017 0.082387 0.088004 0.094865 0.102967 0.112308 0.122882 0.134683 0.147704 0.161936 0.177367 0.193984 0.211770 0.230705 0.250766 0.271926 0.294152 0.317408 0.341653 0.366838 0.392909 0.419805 0.447458 0.475792 0.504723 0.534156 0.563991 0.594115 0.624406 0.654734 0.684956 0.714918 0.744459 0.773405 0.801571 0.828763 0.854777 0.879401 0.902412 0.923582 0.942676 0.959452 0.973666 0.985072 0.993423 0.998474 0.999985 0.997722 0.991462 0.980993 0.966120 0.946667 0.922481 0.893435 0.859432 0.820411 0.776346 0.727254 0.673199 0.614290 0.550693 0.482624 0.410362 0.334242 0.254661 0.172081 0.087023 0.000072 0.088127 0.176873 0.265408 0.352929 0.438585 0.521494 0.600743 0.675405 0.744542 0.807226 0.862544 0.909621 0.947625 0.975792 0.993437 0.999972 0.994921 0.977939 0.948825 0.907536 0.854201 0.789131 0.712826 0.625985 0.529504 0.424478 0.312195 0.194126 0.071915 0.052640 0.177611 0.300966 0.420598 0.534365 0.640126 0.735781 0.819323 0.888879 0.942759 0.979502 0.997927 0.997168 0.976720 0.936466 0.876713 0.798200 0.702116 0.590093 0.464201 0.326915 0.181084 0.029885 0.123250 0.274692 0.420710 0.557556 0.681568 0.789270 0.877483 0.943425 0.984812 0.999952 0.987826 0.948152 0.881431 0.788979 0.672924 0.536185 0.382422 0.215952 0.041654 0.135173 0.308956 0.474023 0.624793 0.755968 0.862732 0.940948 0.987330 0.999610 0.976666 0.918617 0.826878 0.704166 0.554456 0.382886 0.195605 0.000423 0.197662 0.388289 0.564502 0.718843 0.844535 0.935796 0.988131 0.998591 0.965960 0.890891 0.775956 0.625599 0.446024 0.244966 0.031392 0.184874 0.393592 0.584594 0.748288 0.876156 0.961231 0.998515 0.985313 0.921465 0.809455 0.654376 0.463763 0.247273 0.016241 0.216899 0.439253 0.638194 0.802088 0.921012 0.987388 0.996524 0.946993 0.840846 0.683606 0.484060 0.253823 0.006723 0.242014 0.476664 0.682020 0.844399 0.952583 0.998661 0.978668 0.892990 0.746482 0.548295 0.311372 0.051672 0.212858 0.463505 0.682110 0.852421 0.961333 0.999979 0.964521 0.856609 0.683425 0.457317 0.194998 0.083621 0.356897 0.603134 0.802309 0.937765 0.997660 0.976100 0.873811 0.698278 0.463322 0.188113 0.104320 0.388972 0.640982 0.837824 0.961401 0.999774 0.948433 0.810928 0.598766 0.330594 0.030650 0.273354 0.552752 0.780648 0.934550 0.998686 0.965735 0.837784 0.626390 0.351674 0.040542 0.275883 0.565319 0.797647 0.948098 0.999999 0.946753 0.792822 0.553528 0.253713 0.074747 0.396228 0.675206 0.880224 0.987525 0.983937 0.868648 0.653628 0.362557 0.028400 0.310250 0.613566 0.845198 0.976710 0.991218 0.885721 0.671825 0.374669 0.030153 0.319286 0.629853 0.861899 0.985089 0.982521 0.853235 0.612726 0.291316 0.069496 0.422282 0.719875 0.921736 0.999605 0.941640 0.754440 0.462557 0.105501 0.267434 0.603924 0.855931 0.986703 0.976293 0.824842 0.553015 0.199431 0.184609 0.542472 0.820526 0.976277 0.985037 0.844094 0.573610 0.214019 0.179802 0.546776 0.829096 0.981418 0.978362 0.818992 0.527511 0.149858 0.253280 0.616126 0.878550 0.996154 0.948041 0.740801 0.407991 0.004992 0.400009 0.737457 0.948451 0.995223 0.868157 0.588095 0.203241 0.218833 0.602919 0.879563 0.997769 0.934664 0.700262 0.336280 0.090962 0.502416 0.820881 0.985579 0.964029 0.758787 0.407653 0.022941 0.450220 0.790938 0.977638 0.972290 0.774393 0.421786 0.016176 0.452012
1.000000 1.000000 1.000000 1.000000 1.000000 1.000000 1.000000 1.000000 1.000000 1.000000 1.000000 1.000000 1.000000 1.000000 1.000000 1.000000 1.000000 1.000000 1.000000 1.000000 1.000000 1.000000 1.000000 1.000000 1.000000 1.000000 1.000000 1.000000 1.000000 1.000000 1.000000 1.000000 1.000000 1.000000 1.000000 1.000000 1.000000 1.000000 1.000000 1.000000 1.000000 1.000000 1.000000 1.000000 1.000000 1.000000 1.000000 1.000000 1.000000 1.000000 1.000000 1.000000 0.942234 0.942234 0.942234 0.942234 0.942234 0.942234 0.942234 0.942234 0.942234 0.942234 0.942234 0.942234 0.942234 0.942234 0.942234 0.942234 0.942234 0.942234 0.942234 0.942234 0.942234 0.942234 0.942234 0.942234 0.942234 0.942234 0.942234 0.942234 0.942234 0.942234 0.942234 0.942234 0.942234 0.942234 0.942234 0.920938 0.922468 0.926248 0.927499 0.927839 0.944110 0.944171 0.945452 0.950969 0.952936 0.954577 0.955307 0.963939 0.967039 0.966419 0.966330 0.963543 0.984785 0.983875 0.983375 0.983533 0.984447 0.984686 0.984507 0.984909 0.986261 0.985792 0.985006 0.984115 0.983341 0.983232 0.984075 0.982527 0.982592 0.983225 0.983834 0.983735 0.984096 0.984447 0.984494 0.984883 0.985617 0.981339 0.980688 0.979336 0.978295 0.978260 0.977925 0.977496 0.976029 0.975823 0.974940 0.975145 0.975020 0.974700 0.972949 0.973624 0.973451 0.970004 0.968714 0.966848 0.965088 0.951517 0.939268 0.934324 0.934346 0.932853 0.934348 0.924454 0.923912 0.917215 0.915351 0.916324 0.919024 0.919483 0.907626 0.888410 0.880770 0.874436 0.877248 0.879619 0.876890 0.869503 0.866051 0.864571 0.871090 0.874415 0.879166 0.877826 0.872832 0.868199 0.864660 0.859472 0.859634 0.856006 0.857911 0.856024 0.839085 0.848411 0.849665 0.858876 0.865640 0.863329 0.838580 0.797573 0.794757 0.796076 0.797226 0.794740 0.799145 0.805592 0.813372 0.810395 0.815091 0.823031 0.808426 0.813987 0.819196 0.819297 0.800774 0.778515 0.773151 0.770616 0.761825 0.748226 0.742920 0.744650 0.740734 0.740767 0.735108 0.730187 0.718093 0.713871 0.677489 0.680916 0.674794 0.661365 0.666198 0.666847 0.661318 0.645367 0.641959 0.626781 0.622425 0.615581 0.619287 0.611176 0.617359 0.627662 0.618717 0.605606 0.587417 0.584826 0.585055 0.541533 0.544646 0.574256 0.614488 0.608130 0.592787 0.616491 0.611006 0.594785 0.582583 0.565898 0.555246 0.564361 0.568548 0.548551 0.552202 0.536418 0.544841 0.540567 0.513350 0.538545 0.509089 0.494905 0.501501 0.526750 0.538363 0.505423 0.466498 0.473156 0.476328 0.495823 0.512865 0.499940 0.520566 0.519869 0.509815 0.476650 0.477684 0.497722 0.496715 0.500352 0.491008 0.492935 0.458058 0.417128 0.417923 0.382750 0.368496 0.366427 0.355381 0.325763 0.316024 0.309549 0.333802 0.325642 0.347491 0.308260 0.321565 0.271778 0.272596 0.216534 0.234226 0.226455 0.232935 0.252470 0.245223 0.244458 0.246016 0.278084 0.280415 0.263111 0.243342 0.212226 0.227040 0.202050 0.180921 0.194243 0.187324 0.184344 0.114189 0.118722 0.106810 0.136873 0.157362 0.148268 0.110315 0.103795 0.079976 0.067272 0.064918 0.043072 -0.009191 -0.023705 -0.010357 0.023605 0.089274 0.089274 0.089274 0.089274 0.089274 0.089274 0.089274 0.089274 0.092109 0.092109 0.092109 0.092109 0.092109 0.092109 0.092109 0.092109 0.092109 0.092109 0.092109 0.092109 0.092109 0.092109 0.092109 0.092109 0.092109 0.092109 0.092109
0.000000 0.000000 0.000000 0.000000 0.000000 0.000000 0.000000 0.000000 0.000000 0.000000 0.000000 0.000000 0.000000 0.000000 0.000000 0.000000 0.000000 0.000000 0.000000 0.000000 0.000000 0.000000 0.000000 0.000000 0.000000 0.000000 0.000000 0.000000 0.000000 0.000000 0.000000 0.000000 0.000000 0.000000 0.000000 0.000000 0.000000 0.000000 0.000000 0.000000 0.000000 0.000000 0.000000 0.000000 0.000000 0.000000 0.000000 0.000000 0.000000 0.000000 0.000000 0.000000 0.207390 0.207390 0.207390 0.207390 0.207390 0.207390 0.207390 0.207390 0.207390 0.207390 0.207390 0.207390 0.207390 0.207390 0.207390 0.207390 0.207390 0.207390 0.207390 0.207390 0.207390 0.207390 0.207390 0.207390 0.207390 0.207390 0.207390 0.207390 0.207390 0.207390 0.207390 0.207390 0.207390 0.207390 0.207390 0.244339 0.244339 0.244339 0.244339 0.244339 0.244339 0.244339 0.244339 0.244339 0.244339 0.244339 0.244339 0.244339 0.244339 0.244339 0.244339 0.244339 0.244339 0.244339 0.244339 0.244339 0.244339 0.244339 0.244339 0.244339 0.256074 0.256074 0.256074 0.256074 0.256074 0.256074 0.256074 0.256074 0.256074 0.256074 0.256074 0.256074 0.256074 0.256074 0.256074 0.256074 0.256074 0.256074 0.256074 0.256074 0.256074 0.269680 0.269680 0.269680 0.269680 0.269680 0.269680 0.269680 0.269680 0.269680 0.269680 0.269680 0.269680 0.269680 0.269680 0.269680 0.269680 0.269680 0.269680 0.269680 0.269680 0.269680 0.269680 0.269680 0.269680 0.269680 0.269680 0.269680 0.269680 0.269680 0.269680 0.269680 0.269680 0.269680 0.269680 0.269680 0.269680 0.269680 0.269680 0.269680 0.269680 0.269680 0.269680 0.269680 0.269680 0.269680 0.269680 0.269680 0.269680 0.280056 0.280056 0.280056 0.280056 0.280056 0.280056 0.280056 0.280056 0.280056 0.280056 0.280056 0.280056 0.280056 0.274721 0.274721 0.274721 0.274721 0.274721 0.274721 0.274721 0.274721 0.274721 0.274721 0.274721 0.274721 0.274721 0.274721 0.274721 0.274721 0.274721 0.274721 0.274721 0.274721 0.274721 0.274721 0.274721 0.274721 0.274721 0.280056 0.280056 0.280056 0.280056 0.280056 0.280056 0.280056 0.280056 0.280056 0.280056 0.280056 0.285714 0.285714 0.285714 0.285714 0.285714 0.285714 0.285714 0.285714 0.285714 0.285714 0.269680 0.269680 0.269680 0.269680 0.269680 0.269680 0.269680 0.269680 0.269680 0.269680 0.269680 0.285714 0.285714 0.285714 0.285714 0.285714 0.285714 0.285714 0.285714 0.285714 0.269680 0.269680 0.269680 0.269680 0.269680 0.269680 0.269680 0.269680 0.269680 0.269680 0.274721 0.274721 0.274721 0.274721 0.274721 0.274721 0.274721 0.274721 0.274721 0.269680 0.269680 0.269680 0.269680 0.269680 0.269680 0.269680 0.269680 0.269680 0.264906 0.264906 0.264906 0.264906 0.264906 0.264906 0.264906 0.264906 0.264906 0.274721 0.274721 0.274721 0.274721 0.274721 0.274721 0.274721 0.274721 0.269680 0.269680 0.269680 0.269680 0.269680 0.269680 0.269680 0.269680 0.269680 0.269680 0.269680 0.269680 0.269680 0.269680 0.269680 0.269680 0.264906 0.264906 0.264906 0.264906 0.264906 0.264906 0.264906 0.264906 0.274721 0.274721 0.274721 0.274721 0.274721 0.274721 0.274721 0.256074 0.256074 0.256074 0.256074 0.256074 0.256074 0.256074 0.256074 0.264906 0.264906 0.264906 0.264906 0.264906 0.264906 0.264906 0.264906 0.264906 0.264906 0.264906 0.264906 0.264906 0.264906 0.264906 0.264906 0.264906 0.264906 0.264906
