# Output from CTFFind version 4.1.9, run on 2019-11-03 18:51:24
# Input file: stack4_ub_averaged_250.mrc ; Number of micrographs: 1
# Pixel size: 3.000 Angstroms ; acceleration voltage: 300.0 keV ; spherical aberration: 0.00 mm ; amplitude contrast: 0.07
# Box size: 512 pixels ; min. res.: 30.0 Angstroms ; max. res.: 5.0 Angstroms ; min. def.: 5000.0 um; max. def. 50000.0 um; num. frames averaged: 1
# 6 lines per micrograph: #1 - spatial frequency (1/Angstroms); #2 - 1D rotational average of spectrum (assuming no astigmatism); #3 - 1D rotational average of spectrum; #4 - CTF fit; #5 - cross-correlation between spectrum and CTF fit; #6 - 2sigma of expected cross correlation of noise
0.000000 0.000651 0.001302 0.001953 0.002604 0.003255 0.003906 0.004557 0.005208 0.005859 0.006510 0.007161 0.007812 0.008464 0.009115 0.009766 0.010417 0.011068 0.011719 0.012370 0.013021 0.013672 0.014323 0.014974 0.015625 0.016276 0.016927 0.017578 0.018229 0.018880 0.019531 0.020182 0.020833 0.021484 0.022135 0.022786 0.023438 0.024089 0.024740 0.025391 0.026042 0.026693 0.027344 0.027995 0.028646 0.029297 0.029948 0.030599 0.031250 0.031901 0.032552 0.033203 0.033854 0.034505 0.035156 0.035807 0.036458 0.037109 0.037760 0.038411 0.039062 0.039714 0.040365 0.041016 0.041667 0.042318 0.042969 0.043620 0.044271 0.044922 0.045573 0.046224 0.046875 0.047526 0.048177 0.048828 0.049479 0.050130 0.050781 0.051432 0.052083 0.052734 0.053385 0.054036 0.054688 0.055339 0.055990 0.056641 0.057292 0.057943 0.058594 0.059245 0.059896 0.060547 0.061198 0.061849 0.062500 0.063151 0.063802 0.064453 0.065104 0.065755 0.066406 0.067057 0.067708 0.068359 0.069010 0.069661 0.070312 0.070964 0.071615 0.072266 0.072917 0.073568 0.074219 0.074870 0.075521 0.076172 0.076823 0.077474 0.078125 0.078776 0.079427 0.080078 0.080729 0.081380 0.082031 0.082682 0.083333 0.083984 0.084635 0.085286 0.085938 0.086589 0.087240 0.087891 0.088542 0.089193 0.089844 0.090495 0.091146 0.091797 0.092448 0.093099 0.093750 0.094401 0.095052 0.095703 0.096354 0.097005 0.097656 0.098307 0.098958 0.099609 0.100260 0.100911 0.101562 0.102214 0.102865 0.103516 0.104167 0.104818 0.105469 0.106120 0.106771 0.107422 0.108073 0.108724 0.109375 0.110026 0.110677 0.111328 0.111979 0.112630 0.113281 0.113932 0.114583 0.115234 0.115885 0.116536 0.117188 0.117839 0.118490 0.119141 0.119792 0.120443 0.121094 0.121745 0.122396 0.123047 0.123698 0.124349 0.125000 0.125651 0.126302 0.126953 0.127604 0.128255 0.128906 0.129557 0.130208 0.130859 0.131510 0.132161 0.132812 0.133464 0.134115 0.134766 0.135417 0.136068 0.136719 0.137370 0.138021 0.138672 0.139323 0.139974 0.140625 0.141276 0.141927 0.142578 0.143229 0.143880 0.144531 0.145182 0.145833 0.146484 0.147135 0.147786 0.148438 0.149089 0.149740 0.150391 0.151042 0.151693 0.152344 0.152995 0.153646 0.154297 0.154948 0.155599 0.156250 0.156901 0.157552 0.158203 0.158854 0.159505 0.160156 0.160807 0.161458 0.162109 0.162760 0.163411 0.164062 0.164714 0.165365 0.166016 0.166667 0.167318 0.167969 0.168620 0.169271 0.169922 0.170573 0.171224 0.171875 0.172526 0.173177 0.173828 0.174479 0.175130 0.175781 0.176432 0.177083 0.177734 0.178385 0.179036 0.179688 0.180339 0.180990 0.181641 0.182292 0.182943 0.183594 0.184245 0.184896 0.185547 0.186198 0.186849 0.187500 0.188151 0.188802 0.189453 0.190104 0.190755 0.191406 0.192057 0.192708 0.193359 0.194010 0.194661 0.195312 0.195964 0.196615 0.197266 0.197917 0.198568 0.199219 0.199870 0.200521 0.201172 0.201823 0.202474 0.203125 0.203776 0.204427 0.205078 0.205729 0.206380 0.207031 0.207682 0.208333 0.208984 0.209635 0.210286 0.210938 0.211589 0.212240 0.212891 0.213542 0.214193 0.214844 0.215495 0.216146 0.216797 0.217448 0.218099 0.218750 0.219401 0.220052 0.220703 0.221354 0.222005 0.222656 0.223307 0.223958 0.224609 0.225260 0.225911 0.226562 0.227214 0.227865 0.228516 0.229167 0.229818 0.230469 0.231120 0.231771 0.232422 0.233073 0.233724 0.234375 0.235026 0.235677
       0.36575        0.36575        0.36575        0.36575        0.36575        0.36575        0.36575        0.36575        0.36575        0.36575        0.36575        0.36575        0.36575        0.36575        0.36575        0.36575        0.36575        0.36575        0.36575        0.36575        0.36575        0.36575        0.36575        0.36575        0.36575        0.36575        0.36575        0.36575        0.36575        0.36575        0.36575        0.36575        0.36575        0.36575        0.36575        0.36575        0.36575        0.36575        0.36575        0.36575        0.36575        0.36575        0.36575        0.36575        0.36575        0.36575        0.36575        0.36575        0.36575        0.36575        0.36575        0.70669        0.77804        0.46430        0.03969        0.05948       -0.15440       -0.30560       -0.07358       -0.04149       -0.09855       -0.17208       -0.13157       -0.15876       -0.36120       -0.43491       -0.30331       -0.33809       -0.39046       -0.46103       -0.44313       -0.40131       -0.53990       -0.42949       -0.52343       -0.57664       -0.49127       -0.39470       -0.43960       -0.30194       -0.19734       -0.17527       -0.11765       -0.07151        0.00974        0.05851        0.25174        0.43574        0.37508        0.57656        0.67739        0.65706        0.63483        0.65110        0.69968        0.65628        0.64219        0.71943        0.67289        0.60720        0.53373        0.44070        0.34484        0.26092        0.19944        0.10594        0.08952        0.02432        0.08822        0.04727        0.08662        0.09463        0.11544        0.26445        0.42174        0.44733        0.48480        0.52960        0.52795        0.61148        0.62324        0.68523        0.67696        0.62987        0.62849        0.60012        0.49276        0.39637        0.38342        0.26022        0.21902        0.18458        0.15611        0.10445        0.06663        0.11503        0.22311        0.31178        0.28640        0.49099        0.53129        0.53981        0.61179        0.64071        0.59882        0.62005        0.52559        0.49591        0.51844        0.47030        0.39257        0.24187        0.12327        0.20726        0.21456        0.20012        0.20246        0.29260        0.25551        0.40371        0.45259        0.45590        0.51633        0.52944        0.55544        0.51702        0.37564        0.39838        0.42397        0.30165        0.30454        0.24796        0.20805        0.25711        0.30592        0.29798        0.37248        0.40257        0.42009        0.46590        0.54201        0.54085        0.51011        0.41170        0.41806        0.38437        0.35102        0.32373        0.30968        0.27999        0.30865        0.34219        0.36029        0.41195        0.44651        0.44156        0.45829        0.42957        0.41889        0.39265        0.32900        0.34359        0.36022        0.33741        0.31272        0.30911        0.30988        0.37565        0.40784        0.38342        0.39413        0.44381        0.39847        0.40596        0.40043        0.38569        0.37185        0.33043        0.33174        0.32517        0.34277        0.37526        0.38280        0.38551        0.35470        0.35043        0.34707        0.34353        0.35942        0.35069        0.37150        0.36426        0.36005        0.37811        0.38096        0.35481        0.37070        0.37331        0.37790        0.37396        0.34344        0.36888        0.33931        0.32695        0.34326        0.33378        0.32876        0.37718        0.32707        0.36602        0.37154        0.34188        0.34393        0.31627        0.37068        0.28997        0.31117        0.30139        0.30253        0.34425        0.36516        0.35711        0.33627        0.35608        0.34295        0.33743        0.33721        0.34820        0.37202        0.32048        0.34741        0.33966        0.32220        0.31901        0.34446        0.37602        0.34384        0.35230        0.36160        0.34080        0.35942        0.34696        0.32144        0.36254        0.29591        0.35415        0.33511        0.33862        0.36665        0.36785        0.37474        0.36996        0.33306        0.31617        0.33906        0.33775        0.30970        0.33320        0.35253        0.36581        0.37576        0.37605        0.34530        0.34527        0.33498        0.32833        0.31229        0.35487        0.31655        0.28361        0.31300        0.35060        0.32067        0.33575        0.31749        0.31448        0.32822        0.33136        0.30953        0.29609        0.27179        0.28797        0.27878        0.26130        0.34365        0.35240        0.31639        0.30760        0.35023        0.33421        0.33681        0.33109        0.26575        0.29724        0.29749        0.25560        0.29535        0.30660        0.30342        0.31580        0.32540        0.30737        0.32818        0.27497        0.29586        0.18845        0.29070        0.28388        0.28078        0.31977        0.30258        0.29202        0.32008        0.26642        0.19463        0.21545        0.39422        0.37363        0.28654        0.08334        0.12127       -0.01407       -0.20621
2.677743 2.648194 2.618812 2.589598 2.560551 2.531671 2.502959 2.474415 2.446038 2.417828 2.389786 2.361911 2.334204 2.306664 2.279292 2.252087 2.225050 2.198180 2.171477 2.144942 2.118574 2.092374 2.066341 2.040476 2.014778 1.989248 1.963885 1.938689 1.913661 1.888801 1.864108 1.839582 1.815224 1.791033 1.767010 1.743154 1.719465 1.695944 1.672590 1.649404 1.626386 1.603535 1.580851 1.558334 1.535986 1.513804 1.491790 1.469944 1.448265 1.426753 1.405409 1.663420 1.871566 1.516163 0.950787 1.103524 0.710686 0.475019 0.770520 0.799875 0.668383 0.572461 0.657848 0.610316 0.329906 0.253161 0.312232 0.287374 0.288323 0.132899 0.089265 0.168547 -0.004108 0.114010 -0.039477 -0.074849 -0.055485 0.055602 -0.031525 0.095846 0.252625 0.235199 0.233308 0.302025 0.372436 0.418599 0.576301 0.741642 0.737652 0.917555 1.051044 0.975620 0.920356 0.976749 0.948470 0.959570 0.897660 0.960392 0.953287 0.799138 0.783670 0.671602 0.492270 0.411544 0.383412 0.210856 0.177991 0.106744 0.119321 0.134327 0.092326 0.151411 0.120872 0.178677 0.390205 0.523038 0.463301 0.503247 0.553933 0.537386 0.643330 0.618360 0.670788 0.572438 0.613618 0.522251 0.488091 0.300923 0.323842 0.126425 0.153538 -0.001617 0.030356 -0.042975 -0.125166 -0.131540 0.020738 0.106368 0.095944 0.231386 0.326689 0.364926 0.378331 0.455776 0.451286 0.411288 0.375010 0.284348 0.276891 0.265407 0.224116 0.040520 -0.068859 -0.156671 -0.002751 -0.124568 -0.073226 -0.008742 -0.041309 0.085189 0.173228 0.172386 0.204156 0.253426 0.353205 0.338897 0.185715 0.137566 0.214316 0.126333 0.060627 -0.007303 -0.024049 -0.036395 0.031380 0.019382 0.100235 0.087701 0.192850 0.167345 0.281868 0.260714 0.300881 0.175672 0.141400 0.155500 0.052183 0.058351 0.043082 -0.001100 0.003638 0.000987 0.105602 0.069913 0.137024 0.167617 0.163702 0.182151 0.110804 0.117783 0.077580 0.028549 0.053824 0.064480 0.014479 0.014760 -0.011203 0.020219 0.079081 0.118594 0.085902 0.082047 0.097376 0.032400 0.122908 0.031159 0.073658 -0.005146 -0.016298 -0.007160 -0.000908 0.008390 0.029416 0.064998 0.034478 0.037354 0.013265 0.058132 0.011155 0.044511 0.019193 0.053768 0.028891 0.047401 0.059021 0.053785 0.012460 0.071675 0.035267 0.051511 0.065679 -0.013070 0.086415 -0.015266 0.000599 0.028514 -0.011834 0.002120 0.050119 -0.017897 0.080743 0.030155 0.017427 0.010396 0.010671 0.036283 -0.056674 -0.008024 -0.033614 -0.025152 0.034253 0.045265 0.020817 0.004779 0.029673 -0.011936 0.017142 -0.001856 0.050025 0.018523 -0.023319 -0.005852 0.009072 -0.024818 -0.003816 -0.000107 0.032442 -0.021103 0.027546 -0.017795 -0.006937 0.007303 -0.012789 0.012691 -0.054252 -0.060423 -0.006737 -0.001149 -0.041736 0.019808 0.030543 0.011289 0.005233 -0.025946 -0.011921 -0.001203 -0.010435 -0.016806 0.003638 -0.014356 0.085972 0.049266 0.039927 0.036070 0.006202 0.027156 0.008315 -0.023593 0.043214 0.002392 -0.049149 0.018566 0.031328 0.006622 0.003155 -0.014078 -0.029864 0.028843 -0.001433 -0.012412 -0.016260 -0.060322 0.004937 -0.027390 -0.055402 0.064409 0.086774 0.030837 0.000666 0.072572 0.052737 0.057928 0.048396 -0.010655 0.017744 -0.003336 -0.043986 0.061652 0.041898 0.063555 0.013305 0.095343 0.046266 0.066133 0.002118 0.076260 -0.112421 0.077136 -0.019119 0.028899 0.314831 0.377274 0.246683 0.335079 0.299220 0.227957 0.235272 0.547201 0.425364 0.326387 0.008725 0.132907 -0.225389
0.072396 0.072920 0.074491 0.077108 0.080772 0.085481 0.091234 0.098029 0.105863 0.114734 0.124638 0.135570 0.147524 0.160493 0.174469 0.189441 0.205396 0.222321 0.240199 0.259010 0.278732 0.299339 0.320802 0.343089 0.366161 0.389977 0.414491 0.439651 0.465400 0.491677 0.518410 0.545527 0.572946 0.600577 0.628326 0.656091 0.683761 0.711220 0.738343 0.764998 0.791045 0.816339 0.840725 0.864045 0.886130 0.906811 0.925909 0.943242 0.958627 0.971876 0.982798 0.991206 0.996909 0.999724 0.999467 0.995962 0.989042 0.978549 0.964334 0.946266 0.924227 0.898121 0.867870 0.833421 0.794746 0.751848 0.704757 0.653539 0.598294 0.539162 0.476317 0.409979 0.340408 0.267908 0.192826 0.115552 0.036523 0.043786 0.124854 0.206122 0.286998 0.366851 0.445025 0.520839 0.593592 0.662570 0.727057 0.786337 0.839704 0.886474 0.925991 0.957637 0.980847 0.995113 1.000000 0.995152 0.980305 0.955299 0.920082 0.874720 0.819407 0.754468 0.680365 0.597700 0.507212 0.409781 0.306422 0.198276 0.086608 0.027212 0.141720 0.255371 0.366565 0.473664 0.575021 0.669000 0.754010 0.828531 0.891145 0.940567 0.975675 0.995540 0.999452 0.986950 0.957838 0.912210 0.850461 0.773299 0.681744 0.577130 0.461093 0.335553 0.202693 0.064927 0.075141 0.214760 0.351086 0.481236 0.602356 0.711678 0.806595 0.884725 0.943980 0.982627 0.999353 0.993309 0.964161 0.912121 0.837965 0.743044 0.629276 0.499123 0.355549 0.201966 0.042167 0.119768 0.279567 0.432873 0.575376 0.702924 0.811659 0.898141 0.959468 0.993389 0.998397 0.973809 0.919826 0.837560 0.729037 0.597177 0.445731 0.279193 0.102685 0.078191 0.257523 0.429280 0.587513 0.726572 0.841313 0.927304 0.981016 0.999984 0.982943 0.929920 0.842285 0.722749 0.575310 0.405152 0.218480 0.022318 0.175753 0.367860 0.546180 0.703232 0.832233 0.927386 0.984174 0.999603 0.972379 0.903032 0.793955 0.649364 0.475171 0.278776 0.068775 0.145393 0.353864 0.546801 0.714863 0.849674 0.944266 0.993464 0.994207 0.945773 0.849889 0.710731 0.534779 0.330568 0.108303 0.120630 0.344228 0.550493 0.728100 0.867019 0.959120 0.998691 0.982823 0.911675 0.788552 0.619818 0.414614 0.184416 0.057582 0.297195 0.520081 0.712592 0.862646 0.960508 0.999469 0.976363 0.891863 0.750558 0.560768 0.334121 0.084876 0.170919 0.416467 0.635301 0.812419 0.935345 0.995047 0.986669 0.909978 0.769521 0.574422 0.337872 0.076286 0.191785 0.446969 0.670451 0.845399 0.958260 0.999882 0.966314 0.859254 0.686064 0.459358 0.196146 0.083369 0.357332 0.603914 0.803082 0.938251 0.997749 0.975880 0.873559 0.698410 0.464286 0.190268 0.100839 0.384352 0.635804 0.833075 0.958385 0.999967 0.953265 0.821519 0.615661 0.353518 0.058352 0.243150 0.523248 0.755720 0.918352 0.995133 0.977917 0.867402 0.673263 0.413428 0.112531 0.200360 0.494512 0.740535 0.913381 0.994946 0.976081 0.857731 0.651071 0.376574 0.062111 0.259829 0.555443 0.793166 0.947120 0.999997 0.945136 0.787482 0.543305 0.238643 0.093342 0.415941 0.692913 0.892619 0.991687 0.977891 0.851783 0.626911 0.328516 0.009163 0.346757 0.644303 0.866005 0.984632 0.984968 0.865921 0.640955 0.336731 0.009908 0.356300 0.659200 0.880186 0.990631 0.975546 0.835776 0.588209 0.263930 0.095560 0.443550 0.734177 0.928518 0.999910 0.937767 0.749325 0.459022 0.105497 0.263414 0.597082 0.849063 0.983630 0.980997 0.840407 0.580617 0.237592
1.000000 1.000000 1.000000 1.000000 1.000000 1.000000 1.000000 1.000000 1.000000 1.000000 1.000000 1.000000 1.000000 1.000000 1.000000 1.000000 1.000000 1.000000 1.000000 1.000000 1.000000 1.000000 1.000000 1.000000 1.000000 1.000000 1.000000 1.000000 1.000000 1.000000 1.000000 1.000000 1.000000 1.000000 1.000000 1.000000 1.000000 1.000000 1.000000 1.000000 1.000000 1.000000 1.000000 1.000000 1.000000 1.000000 1.000000 1.000000 1.000000 1.000000 1.000000 1.000000 0.945259 0.945259 0.944735 0.944735 0.944735 0.944735 0.944735 0.944735 0.944735 0.944735 0.944735 0.944735 0.944735 0.944735 0.944735 0.944735 0.944735 0.944735 0.944735 0.944735 0.944735 0.944735 0.944735 0.944735 0.944735 0.944735 0.944735 0.944735 0.944735 0.944735 0.944735 0.944735 0.944735 0.944735 0.944735 0.944735 0.944735 0.944735 0.944735 0.944735 0.944735 0.944735 0.944735 0.941874 0.941910 0.943829 0.945184 0.945286 0.944862 0.945858 0.954328 0.954286 0.954607 0.957185 0.960685 0.964214 0.965564 0.968520 0.970899 0.971354 0.971256 0.971607 0.971252 0.969905 0.966868 0.967024 0.961745 0.963006 0.963476 0.960560 0.963383 0.963349 0.959868 0.958874 0.958054 0.957270 0.957128 0.957071 0.957415 0.957611 0.958133 0.957145 0.955765 0.953886 0.953880 0.954091 0.954678 0.955779 0.956880 0.957617 0.952213 0.951810 0.947547 0.951590 0.951600 0.949355 0.949041 0.948559 0.948842 0.946875 0.946937 0.935627 0.923239 0.918913 0.906259 0.904707 0.908988 0.914108 0.918244 0.913943 0.913260 0.901482 0.890453 0.882690 0.884014 0.887000 0.884433 0.882043 0.876854 0.867031 0.867014 0.863039 0.863903 0.864509 0.859689 0.851886 0.848370 0.848205 0.842394 0.841172 0.849030 0.840478 0.839310 0.851235 0.830950 0.830617 0.827270 0.820509 0.821817 0.825849 0.827070 0.825717 0.819276 0.812719 0.820294 0.791056 0.743658 0.750733 0.726865 0.723453 0.715404 0.680821 0.668151 0.656319 0.639588 0.636879 0.604917 0.603391 0.588947 0.582699 0.586450 0.568568 0.540289 0.550657 0.553367 0.533109 0.517852 0.498326 0.492179 0.455648 0.475799 0.480008 0.476679 0.462019 0.441565 0.412304 0.429992 0.426405 0.434081 0.430001 0.440399 0.438759 0.429177 0.406777 0.409931 0.404740 0.392552 0.379327 0.367262 0.295403 0.270426 0.268166 0.264832 0.250342 0.179033 0.149516 0.135661 0.130086 0.138935 0.102994 0.096890 0.102254 0.105397 0.153975 0.110163 0.095110 0.099706 0.086406 0.119983 0.054139 0.021811 0.025966 0.035726 0.008963 0.001074 -0.037301 -0.071890 -0.078865 -0.075029 -0.091341 -0.074756 -0.119499 -0.140596 -0.152540 -0.127983 -0.174550 -0.172913 -0.145651 -0.136944 -0.136773 -0.148336 -0.215210 -0.076014 -0.067413 -0.058448 -0.119013 -0.143027 -0.155289 -0.152457 -0.161728 -0.174356 -0.194071 -0.212114 -0.197131 -0.241707 -0.183643 -0.179789 -0.191703 -0.160115 -0.172926 -0.142812 -0.131271 -0.098792 -0.116966 -0.094413 -0.117477 -0.122528 -0.085791 -0.130070 -0.153040 -0.120160 -0.094109 -0.095061 -0.084988 -0.002250 -0.010756 -0.014238 -0.029553 -0.017879 0.007788 0.004897 0.008866 0.045748 0.096795 0.149142 0.156525 0.160381 0.103270 0.124146 0.104622 0.109117 0.150727 0.150727 0.150727 0.150727 0.150727 0.150727 0.150727 0.150727 0.150727 0.150440 0.150440 0.150440 0.150440 0.150440 0.150440 0.150440 0.150440 0.150440 0.153519 0.153519 0.153519 0.153519 0.153519 0.153519 0.153519 0.153519 0.153519 0.153519 0.153519 0.153519
0.000000 0.000000 0.000000 0.000000 0.000000 0.000000 0.000000 0.000000 0.000000 0.000000 0.000000 0.000000 0.000000 0.000000 0.000000 0.000000 0.000000 0.000000 0.000000 0.000000 0.000000 0.000000 0.000000 0.000000 0.000000 0.000000 0.000000 0.000000 0.000000 0.000000 0.000000 0.000000 0.000000 0.000000 0.000000 0.000000 0.000000 0.000000 0.000000 0.000000 0.000000 0.000000 0.000000 0.000000 0.000000 0.000000 0.000000 0.000000 0.000000 0.000000 0.000000 0.000000 0.181818 0.181818 0.199007 0.199007 0.199007 0.199007 0.199007 0.199007 0.199007 0.199007 0.199007 0.199007 0.199007 0.199007 0.199007 0.199007 0.199007 0.199007 0.199007 0.199007 0.199007 0.199007 0.199007 0.199007 0.199007 0.199007 0.199007 0.199007 0.199007 0.199007 0.199007 0.199007 0.199007 0.199007 0.199007 0.199007 0.199007 0.199007 0.199007 0.199007 0.199007 0.199007 0.199007 0.234082 0.234082 0.234082 0.234082 0.234082 0.234082 0.234082 0.234082 0.234082 0.234082 0.234082 0.234082 0.234082 0.234082 0.234082 0.234082 0.234082 0.234082 0.234082 0.234082 0.234082 0.234082 0.234082 0.234082 0.234082 0.234082 0.234082 0.244339 0.244339 0.244339 0.244339 0.244339 0.244339 0.244339 0.244339 0.244339 0.244339 0.244339 0.244339 0.244339 0.244339 0.244339 0.244339 0.244339 0.244339 0.244339 0.244339 0.244339 0.244339 0.244339 0.256074 0.256074 0.256074 0.256074 0.256074 0.256074 0.256074 0.256074 0.256074 0.256074 0.256074 0.256074 0.256074 0.256074 0.256074 0.256074 0.256074 0.256074 0.256074 0.256074 0.256074 0.256074 0.256074 0.256074 0.256074 0.256074 0.256074 0.256074 0.256074 0.256074 0.256074 0.256074 0.256074 0.256074 0.256074 0.256074 0.256074 0.269680 0.269680 0.269680 0.269680 0.269680 0.269680 0.269680 0.269680 0.269680 0.269680 0.269680 0.269680 0.269680 0.269680 0.269680 0.264906 0.264906 0.264906 0.264906 0.264906 0.264906 0.264906 0.264906 0.264906 0.264906 0.264906 0.264906 0.264906 0.264906 0.264906 0.264906 0.264906 0.264906 0.264906 0.264906 0.264906 0.264906 0.264906 0.264906 0.264906 0.264906 0.264906 0.264906 0.264906 0.264906 0.264906 0.264906 0.264906 0.264906 0.264906 0.264906 0.264906 0.264906 0.264906 0.264906 0.264906 0.264906 0.269680 0.269680 0.269680 0.269680 0.269680 0.269680 0.269680 0.269680 0.269680 0.269680 0.269680 0.269680 0.264906 0.264906 0.264906 0.264906 0.264906 0.264906 0.264906 0.264906 0.264906 0.264906 0.264906 0.264906 0.269680 0.269680 0.269680 0.269680 0.269680 0.269680 0.269680 0.269680 0.269680 0.269680 0.269680 0.274721 0.274721 0.274721 0.274721 0.274721 0.274721 0.274721 0.274721 0.274721 0.274721 0.256074 0.256074 0.256074 0.256074 0.256074 0.256074 0.256074 0.256074 0.256074 0.256074 0.256074 0.264906 0.264906 0.264906 0.264906 0.264906 0.264906 0.264906 0.264906 0.264906 0.264906 0.269680 0.269680 0.269680 0.269680 0.269680 0.269680 0.269680 0.269680 0.269680 0.256074 0.256074 0.256074 0.256074 0.256074 0.256074 0.256074 0.256074 0.256074 0.256074 0.260378 0.260378 0.260378 0.260378 0.260378 0.260378 0.260378 0.260378 0.260378 0.256074 0.256074 0.256074 0.256074 0.256074 0.256074 0.256074 0.256074 0.256074 0.251976 0.251976 0.251976 0.251976 0.251976 0.251976 0.251976 0.251976 0.251976 0.264906 0.264906 0.264906 0.264906 0.264906 0.264906 0.264906 0.264906 0.264906 0.264906 0.264906 0.264906
