# Output from CTFFind version 4.1.9, run on 2019-11-03 18:52:04
# Input file: stack3_ub_averaged_2000.mrc ; Number of micrographs: 1
# Pixel size: 3.000 Angstroms ; acceleration voltage: 300.0 keV ; spherical aberration: 0.00 mm ; amplitude contrast: 0.07
# Box size: 512 pixels ; min. res.: 30.0 Angstroms ; max. res.: 5.0 Angstroms ; min. def.: 5000.0 um; max. def. 50000.0 um; num. frames averaged: 1
# 6 lines per micrograph: #1 - spatial frequency (1/Angstroms); #2 - 1D rotational average of spectrum (assuming no astigmatism); #3 - 1D rotational average of spectrum; #4 - CTF fit; #5 - cross-correlation between spectrum and CTF fit; #6 - 2sigma of expected cross correlation of noise
0.000000 0.000651 0.001302 0.001953 0.002604 0.003255 0.003906 0.004557 0.005208 0.005859 0.006510 0.007161 0.007812 0.008464 0.009115 0.009766 0.010417 0.011068 0.011719 0.012370 0.013021 0.013672 0.014323 0.014974 0.015625 0.016276 0.016927 0.017578 0.018229 0.018880 0.019531 0.020182 0.020833 0.021484 0.022135 0.022786 0.023438 0.024089 0.024740 0.025391 0.026042 0.026693 0.027344 0.027995 0.028646 0.029297 0.029948 0.030599 0.031250 0.031901 0.032552 0.033203 0.033854 0.034505 0.035156 0.035807 0.036458 0.037109 0.037760 0.038411 0.039062 0.039714 0.040365 0.041016 0.041667 0.042318 0.042969 0.043620 0.044271 0.044922 0.045573 0.046224 0.046875 0.047526 0.048177 0.048828 0.049479 0.050130 0.050781 0.051432 0.052083 0.052734 0.053385 0.054036 0.054688 0.055339 0.055990 0.056641 0.057292 0.057943 0.058594 0.059245 0.059896 0.060547 0.061198 0.061849 0.062500 0.063151 0.063802 0.064453 0.065104 0.065755 0.066406 0.067057 0.067708 0.068359 0.069010 0.069661 0.070312 0.070964 0.071615 0.072266 0.072917 0.073568 0.074219 0.074870 0.075521 0.076172 0.076823 0.077474 0.078125 0.078776 0.079427 0.080078 0.080729 0.081380 0.082031 0.082682 0.083333 0.083984 0.084635 0.085286 0.085938 0.086589 0.087240 0.087891 0.088542 0.089193 0.089844 0.090495 0.091146 0.091797 0.092448 0.093099 0.093750 0.094401 0.095052 0.095703 0.096354 0.097005 0.097656 0.098307 0.098958 0.099609 0.100260 0.100911 0.101562 0.102214 0.102865 0.103516 0.104167 0.104818 0.105469 0.106120 0.106771 0.107422 0.108073 0.108724 0.109375 0.110026 0.110677 0.111328 0.111979 0.112630 0.113281 0.113932 0.114583 0.115234 0.115885 0.116536 0.117188 0.117839 0.118490 0.119141 0.119792 0.120443 0.121094 0.121745 0.122396 0.123047 0.123698 0.124349 0.125000 0.125651 0.126302 0.126953 0.127604 0.128255 0.128906 0.129557 0.130208 0.130859 0.131510 0.132161 0.132812 0.133464 0.134115 0.134766 0.135417 0.136068 0.136719 0.137370 0.138021 0.138672 0.139323 0.139974 0.140625 0.141276 0.141927 0.142578 0.143229 0.143880 0.144531 0.145182 0.145833 0.146484 0.147135 0.147786 0.148438 0.149089 0.149740 0.150391 0.151042 0.151693 0.152344 0.152995 0.153646 0.154297 0.154948 0.155599 0.156250 0.156901 0.157552 0.158203 0.158854 0.159505 0.160156 0.160807 0.161458 0.162109 0.162760 0.163411 0.164062 0.164714 0.165365 0.166016 0.166667 0.167318 0.167969 0.168620 0.169271 0.169922 0.170573 0.171224 0.171875 0.172526 0.173177 0.173828 0.174479 0.175130 0.175781 0.176432 0.177083 0.177734 0.178385 0.179036 0.179688 0.180339 0.180990 0.181641 0.182292 0.182943 0.183594 0.184245 0.184896 0.185547 0.186198 0.186849 0.187500 0.188151 0.188802 0.189453 0.190104 0.190755 0.191406 0.192057 0.192708 0.193359 0.194010 0.194661 0.195312 0.195964 0.196615 0.197266 0.197917 0.198568 0.199219 0.199870 0.200521 0.201172 0.201823 0.202474 0.203125 0.203776 0.204427 0.205078 0.205729 0.206380 0.207031 0.207682 0.208333 0.208984 0.209635 0.210286 0.210938 0.211589 0.212240 0.212891 0.213542 0.214193 0.214844 0.215495 0.216146 0.216797 0.217448 0.218099 0.218750 0.219401 0.220052 0.220703 0.221354 0.222005 0.222656 0.223307 0.223958 0.224609 0.225260 0.225911 0.226562 0.227214 0.227865 0.228516 0.229167 0.229818 0.230469 0.231120 0.231771 0.232422 0.233073 0.233724 0.234375 0.235026 0.235677
       0.33420        0.33420        0.33420        0.33420        0.33420        0.33420        0.33420        0.33420        0.33420        0.33420        0.33420        0.33420        0.33420        0.33420        0.33420        0.33420        0.33420        0.33420        0.33420        0.33420        0.33420        0.33420        0.33420        0.33420        0.33420        0.33420        0.33420        0.33420        0.33420        0.33420        0.33420        0.33420        0.33420        0.33420        0.33420        0.33420        0.33420        0.33420        0.33420        0.33420        0.33420        0.33420        0.33420        0.33420        0.33420        0.33420        0.33420        0.33420        0.33420        0.33420        0.33420        0.45109        0.75867        0.36402        0.09178       -0.16687       -0.20529       -0.37118       -0.43946       -0.44957       -0.38088       -0.43120       -0.40388       -0.41428       -0.58969       -0.59618       -0.62410       -0.75809       -0.74943       -0.64406       -0.67735       -0.67577       -0.69359       -0.61867       -0.60559       -0.54867       -0.34686       -0.34608       -0.30389       -0.12515        0.01910        0.04871        0.20521        0.21532        0.39073        0.50196        0.59031        0.54070        0.60181        0.57964        0.50504        0.62085        0.60694        0.57250        0.54713        0.47972        0.38604        0.30261        0.17322        0.06685        0.00379       -0.05209       -0.04254       -0.02779        0.00214        0.00610        0.11527        0.16178        0.26900        0.33943        0.42041        0.54021        0.57084        0.64404        0.77512        0.76265        0.79001        0.75801        0.57053        0.49750        0.34696        0.35202        0.21895        0.13515        0.13381        0.08104        0.01473        0.04053        0.08582        0.18542        0.31614        0.33971        0.48596        0.55024        0.61873        0.54905        0.57572        0.57126        0.51592        0.49254        0.48681        0.36612        0.22445        0.16214        0.15295        0.16675        0.10539        0.12734        0.14935        0.21714        0.33361        0.36270        0.41206        0.50231        0.62425        0.51582        0.53263        0.46843        0.40055        0.30191        0.26844        0.23184        0.22857        0.15971        0.18825        0.20633        0.26805        0.38806        0.44820        0.45320        0.49839        0.50600        0.50164        0.46703        0.42497        0.38882        0.27566        0.23623        0.22321        0.22012        0.26042        0.31003        0.37091        0.40622        0.41444        0.42871        0.43238        0.44416        0.40865        0.36688        0.27831        0.31195        0.30370        0.31593        0.26315        0.30958        0.31351        0.40767        0.43367        0.39407        0.39600        0.36051        0.36145        0.34860        0.29663        0.23860        0.26082        0.23918        0.24249        0.31570        0.37170        0.37054        0.38505        0.37341        0.40097        0.38174        0.34746        0.27838        0.29974        0.31722        0.29320        0.33005        0.36853        0.34709        0.38239        0.34668        0.34456        0.32367        0.34213        0.32798        0.35111        0.31386        0.29057        0.32581        0.36028        0.34190        0.32370        0.31110        0.32527        0.31275        0.32053        0.32307        0.32567        0.31570        0.30619        0.33935        0.31562        0.32787        0.31904        0.34253        0.31915        0.29678        0.29312        0.29964        0.30495        0.28830        0.30696        0.36015        0.34179        0.33097        0.28054        0.31444        0.33384        0.32939        0.29555        0.27857        0.27582        0.31998        0.30921        0.31219        0.30953        0.30439        0.28543        0.28530        0.28663        0.28878        0.30940        0.33440        0.31281        0.34364        0.28541        0.26545        0.31509        0.33619        0.31996        0.29932        0.27199        0.29532        0.35289        0.37280        0.35047        0.29381        0.30155        0.35472        0.29451        0.32744        0.32037        0.31047        0.32537        0.31741        0.33406        0.32674        0.28181        0.29193        0.29244        0.29107        0.36260        0.34520        0.31634        0.31022        0.28690        0.26517        0.27511        0.29282        0.29873        0.24710        0.28591        0.28138        0.29177        0.25621        0.22913        0.25106        0.28430        0.33603        0.34838        0.33667        0.34231        0.28739        0.30145        0.28203        0.21284        0.18793        0.26584        0.27488        0.30711        0.36371        0.24488        0.27734        0.19900        0.25261        0.27350        0.33360        0.25201        0.18910        0.21506        0.27261        0.21229        0.19630        0.27151        0.27008        0.21460        0.19600        0.28308        0.24164        0.16616        0.19241        0.30740        0.15724        0.15748        0.23772       -0.00740       -0.42489       -0.52687
2.514994 2.486370 2.457914 2.429627 2.401509 2.373559 2.345778 2.318166 2.290723 2.263448 2.236341 2.209404 2.182635 2.156034 2.129603 2.103340 2.077245 2.051320 2.025563 1.999975 1.974555 1.949304 1.924222 1.899308 1.874563 1.849987 1.825579 1.801340 1.777270 1.753368 1.729635 1.706071 1.682675 1.659448 1.636389 1.613500 1.590779 1.568226 1.545843 1.523627 1.501581 1.479703 1.457994 1.436454 1.415082 1.393879 1.372845 1.351979 1.331282 1.310753 1.290394 1.438441 1.608408 1.289717 0.937877 0.797480 0.700613 0.520041 0.483323 0.366345 0.420730 0.413404 0.405758 0.356646 0.188823 0.170246 0.154587 -0.013682 -0.067760 0.060693 -0.002824 0.018627 -0.065615 0.007115 -0.014425 0.026949 0.214999 0.176740 0.152183 0.312426 0.502920 0.397852 0.660551 0.542462 0.759447 0.755252 0.951807 0.815359 0.815425 0.943896 0.774129 0.910398 0.805150 0.764285 0.809090 0.700362 0.600979 0.549601 0.372484 0.267130 0.205777 0.118469 0.083876 0.162096 0.136121 0.145415 0.167100 0.252987 0.297901 0.367881 0.453759 0.516488 0.563408 0.605300 0.694863 0.741409 0.705704 0.714904 0.555064 0.493875 0.293732 0.331497 0.161721 0.098471 0.054034 0.062385 -0.056817 -0.053556 -0.011651 0.044539 0.183666 0.155963 0.307118 0.320493 0.492583 0.370002 0.405990 0.400825 0.337234 0.339670 0.306402 0.263469 0.059307 0.041854 -0.024927 -0.022498 -0.051814 -0.055180 -0.031784 -0.029660 0.080013 0.147610 0.141860 0.228024 0.353054 0.277284 0.332599 0.329829 0.237031 0.144377 0.092291 0.061945 0.079641 0.004123 -0.035220 0.010827 0.057394 0.098134 0.251970 0.207402 0.248100 0.268855 0.259828 0.236190 0.199494 0.168645 0.079584 0.011717 -0.020030 -0.009106 -0.006116 0.044076 0.068455 0.159276 0.121810 0.163161 0.181041 0.159946 0.159884 0.128190 0.048520 0.026069 0.046996 0.050802 0.011548 0.022291 0.050070 0.058100 0.138563 0.146016 0.102002 0.086164 0.085364 0.091485 0.016269 -0.001937 -0.017914 -0.057832 -0.029906 -0.035501 0.059139 0.068725 0.078466 0.104119 0.068686 0.067440 0.087322 0.031238 -0.015901 0.002852 0.009365 -0.015104 0.050536 0.068231 0.040444 0.089299 0.019824 0.036509 0.042172 0.016592 0.045641 0.033580 -0.004856 0.012355 0.043224 0.040431 0.048300 -0.023626 -0.016067 0.001770 -0.017685 -0.001082 -0.001443 -0.014734 -0.015175 -0.018034 0.018650 -0.009416 0.012813 0.018099 0.001250 0.028982 -0.034697 -0.007110 -0.015227 0.006990 -0.019214 0.007272 0.030878 0.057605 0.027864 -0.047047 0.040407 0.029340 0.019656 0.004579 -0.029002 -0.017440 0.026474 0.000175 0.019026 0.018873 -0.018491 -0.003067 -0.032002 -0.002790 -0.002964 0.010831 0.030836 -0.015346 0.061023 -0.049443 -0.037109 0.012593 0.029028 0.010365 -0.014660 -0.030757 -0.026968 0.032145 0.085025 0.024544 -0.015666 0.008213 0.037571 -0.019729 0.015219 0.022270 0.016545 0.027250 0.007680 0.039294 0.011364 -0.024102 -0.004277 -0.009505 -0.011303 0.060986 0.028762 0.031521 0.037762 -0.019261 -0.025165 -0.006022 0.003322 -0.011207 -0.085726 -0.004352 -0.011600 -0.026077 -0.053071 -0.063760 -0.021625 -0.023114 0.025003 0.049312 0.030314 0.028517 -0.009838 0.033460 -0.001091 -0.073096 -0.101434 0.007060 -0.029529 0.043629 0.082336 -0.070465 0.052406 -0.062734 0.030477 0.024102 0.129439 -0.054995 0.001685 -0.028973 0.056397 0.028664 -0.058115 0.062801 0.091814 0.028363 -0.024268 0.088821 0.067145 0.132850 0.212886 0.328122 0.151861 0.128138 0.219188 -0.001367 -0.476706
0.072396 0.072980 0.074732 0.077651 0.081737 0.086988 0.093403 0.100979 0.109714 0.119602 0.130640 0.142821 0.156138 0.170580 0.186136 0.202792 0.220533 0.239338 0.259185 0.280048 0.301896 0.324694 0.348403 0.372978 0.398369 0.424518 0.451363 0.478835 0.506855 0.535339 0.564194 0.593318 0.622603 0.651929 0.681169 0.710185 0.738832 0.766954 0.794386 0.820957 0.846482 0.870773 0.893632 0.914854 0.934228 0.951539 0.966567 0.979091 0.988887 0.995732 0.999406 0.999695 0.996390 0.989291 0.978211 0.962978 0.943435 0.919448 0.890906 0.857724 0.819848 0.777257 0.729965 0.678028 0.621544 0.560654 0.495550 0.426473 0.353716 0.277624 0.198599 0.117096 0.033625 0.051251 0.136918 0.222714 0.307929 0.391816 0.473593 0.552447 0.627548 0.698052 0.763115 0.821898 0.873586 0.917393 0.952581 0.978469 0.994449 0.999998 0.994696 0.978233 0.950429 0.911241 0.860774 0.799294 0.727230 0.645186 0.553936 0.454428 0.347783 0.235283 0.118364 0.001396 0.122298 0.242543 0.360251 0.473499 0.580346 0.678867 0.767194 0.843551 0.906297 0.953965 0.985298 0.999293 0.995234 0.972724 0.931710 0.872510 0.795825 0.702747 0.594756 0.473713 0.341836 0.201675 0.056065 0.091921 0.239030 0.381902 0.517145 0.641415 0.751505 0.844436 0.917542 0.968558 0.995702 0.997749 0.974089 0.924781 0.850582 0.752962 0.634097 0.496843 0.344685 0.181664 0.012284 0.158610 0.325954 0.484621 0.629578 0.756053 0.859701 0.936768 0.984243 0.999995 0.982883 0.932845 0.850945 0.739389 0.601495 0.441625 0.265069 0.077893 0.113261 0.301391 0.479398 0.640352 0.777775 0.885908 0.959985 0.996460 0.993202 0.949648 0.866887 0.747682 0.596422 0.418994 0.222584 0.015422 0.193560 0.395097 0.580002 0.739587 0.866104 0.953131 0.995941 0.991784 0.940105 0.842649 0.703465 0.528781 0.326783 0.107254 0.118866 0.340010 0.544571 0.721524 0.861031 0.955029 0.997729 0.986021 0.919740 0.801779 0.638038 0.437176 0.210215 0.030033 0.269661 0.494463 0.690778 0.846343 0.951098 0.997877 0.982961 0.906421 0.772239 0.588187 0.365435 0.117937 0.138400 0.386721 0.610327 0.793807 0.924143 0.991678 0.990903 0.920967 0.785887 0.594410 0.359530 0.097669 0.172420 0.430970 0.658649 0.838021 0.954935 0.999703 0.967978 0.861258 0.686933 0.457881 0.191596 0.091078 0.367545 0.615250 0.813537 0.945422 0.999116 0.969170 0.857118 0.671541 0.427525 0.145531 0.150251 0.433946 0.680236 0.866663 0.975731 0.996643 0.926472 0.770646 0.542668 0.263063 0.042378 0.344914 0.615544 0.827800 0.960403 0.999485 0.940158 0.787233 0.554992 0.265987 0.051044 0.363977 0.640519 0.851576 0.974384 0.995072 0.910359 0.728174 0.467083 0.154530 0.175937 0.488209 0.747562 0.924570 0.998532 0.960036 0.812306 0.571136 0.263369 0.075963 0.407537 0.692282 0.896011 0.993638 0.972387 0.833646 0.593122 0.279251 0.070018 0.411714 0.703110 0.907109 0.997063 0.960422 0.800661 0.537198 0.203229 0.158301 0.500148 0.776908 0.951132 0.998521 0.911499 0.700618 0.393501 0.031434 0.336059 0.657931 0.888735 0.995149 0.960969 0.789785 0.504898 0.146370 0.234437 0.582129 0.845352 0.984460 0.977675 0.824720 0.547307 0.186309 0.204051 0.564292 0.838663 0.983923 0.976325 0.815738 0.526154 0.152368 0.246736 0.607376 0.871067 0.994212 0.955538 0.760020 0.438608 0.043559 0.359817 0.703907 0.930168 0.999231 0.898017 0.642486 0.275460 0.140306 0.532696 0.832698 0.986667
1.000000 1.000000 1.000000 1.000000 1.000000 1.000000 1.000000 1.000000 1.000000 1.000000 1.000000 1.000000 1.000000 1.000000 1.000000 1.000000 1.000000 1.000000 1.000000 1.000000 1.000000 1.000000 1.000000 1.000000 1.000000 1.000000 1.000000 1.000000 1.000000 1.000000 1.000000 1.000000 1.000000 1.000000 1.000000 1.000000 1.000000 1.000000 1.000000 1.000000 1.000000 1.000000 1.000000 1.000000 1.000000 1.000000 1.000000 1.000000 1.000000 1.000000 1.000000 1.000000 0.953287 0.953287 0.953287 0.953287 0.953287 0.953287 0.953287 0.953287 0.953287 0.953287 0.953287 0.953287 0.953287 0.953287 0.953287 0.953287 0.953287 0.953287 0.953287 0.953287 0.953287 0.953287 0.953287 0.953287 0.953287 0.953287 0.953287 0.953287 0.953287 0.953287 0.953287 0.953287 0.953287 0.953287 0.953287 0.953287 0.953287 0.953287 0.943309 0.945251 0.945863 0.945548 0.944805 0.946572 0.947052 0.946914 0.947493 0.948230 0.950604 0.953053 0.954123 0.962115 0.971113 0.970877 0.969915 0.970326 0.969459 0.967288 0.965480 0.967025 0.971354 0.971472 0.971888 0.971618 0.972294 0.972814 0.972384 0.971400 0.970191 0.969704 0.969142 0.969110 0.969455 0.968778 0.969368 0.969876 0.969466 0.968716 0.967767 0.962274 0.962180 0.962974 0.966319 0.964693 0.963344 0.963379 0.962977 0.962498 0.960651 0.960188 0.960215 0.960266 0.960160 0.959806 0.958426 0.957346 0.951923 0.946912 0.946480 0.949045 0.950119 0.951015 0.947990 0.945006 0.936863 0.933291 0.935492 0.940122 0.940797 0.940359 0.923152 0.911560 0.911823 0.908296 0.910395 0.908550 0.904318 0.895472 0.896302 0.898701 0.897468 0.902543 0.899642 0.899915 0.898589 0.900237 0.903143 0.906416 0.909970 0.910507 0.905675 0.901645 0.899691 0.899954 0.901976 0.899038 0.898333 0.897425 0.898580 0.892612 0.893867 0.894556 0.896372 0.897602 0.900650 0.892305 0.892872 0.857985 0.843569 0.838484 0.836271 0.833645 0.823627 0.801829 0.802934 0.797739 0.795473 0.792665 0.789925 0.732347 0.698608 0.690343 0.674368 0.660706 0.635793 0.645009 0.652468 0.642660 0.640608 0.608622 0.605854 0.612573 0.616192 0.599145 0.596120 0.589046 0.566133 0.546404 0.538840 0.547701 0.563439 0.567290 0.536325 0.495362 0.456177 0.420335 0.414095 0.394975 0.367642 0.344665 0.358904 0.356041 0.372832 0.362958 0.343137 0.318892 0.345332 0.341604 0.337693 0.311344 0.348373 0.363251 0.342638 0.361036 0.346598 0.356792 0.307665 0.278191 0.262237 0.236151 0.192480 0.187819 0.242073 0.270024 0.290473 0.310561 0.309479 0.285082 0.307302 0.296901 0.293502 0.293857 0.240289 0.240462 0.242183 0.221320 0.201500 0.209490 0.213919 0.196544 0.171037 0.189299 0.203764 0.198686 0.211293 0.218205 0.163008 0.168728 0.178475 0.175637 0.166765 0.174072 0.171837 0.188275 0.126326 0.131719 0.136165 0.099605 0.113898 0.110253 0.098975 0.031178 0.004849 0.008985 0.000002 -0.030004 -0.020946 -0.059195 -0.092649 -0.069819 -0.056009 -0.078805 -0.060630 -0.030305 -0.026450 -0.013294 -0.022313 0.011141 -0.007660 -0.024817 -0.009060 -0.026892 -0.057983 -0.054598 -0.057801 -0.081985 -0.101347 -0.081825 -0.074642 -0.074737 -0.039838 -0.052503 -0.093107 -0.099722 -0.099722 -0.099722 -0.099722 -0.099722 -0.083455 -0.083455 -0.083455 -0.083455 -0.083455 -0.083455 -0.083455 -0.083455 -0.086036 -0.086036 -0.086036 -0.086036 -0.086036 -0.086036 -0.086036 -0.086036 -0.086036 -0.086036 -0.086036 -0.086036 -0.086036 -0.086036 -0.086036
0.000000 0.000000 0.000000 0.000000 0.000000 0.000000 0.000000 0.000000 0.000000 0.000000 0.000000 0.000000 0.000000 0.000000 0.000000 0.000000 0.000000 0.000000 0.000000 0.000000 0.000000 9401.000000 0.000000 0.000000 0.000000 0.000000 0.000000 0.000000 0.000000 0.000000 0.000000 0.000000 0.000000 0.000000 0.000000 0.000000 0.000000 0.000000 0.000000 0.000000 0.000000 0.000000 0.000000 0.000000 0.000000 0.000000 0.000000 0.000000 0.000000 0.000000 0.000000 0.000000 0.203069 0.203069 0.203069 0.203069 0.203069 0.203069 0.203069 0.203069 0.203069 0.203069 0.203069 0.203069 0.203069 0.203069 0.203069 0.203069 0.203069 0.203069 0.203069 0.203069 0.203069 0.203069 0.203069 0.203069 0.203069 0.203069 0.203069 0.203069 0.203069 0.203069 0.203069 0.203069 0.203069 0.203069 0.203069 0.203069 0.203069 0.203069 0.237356 0.237356 0.237356 0.237356 0.237356 0.237356 0.237356 0.237356 0.237356 0.237356 0.237356 0.237356 0.237356 0.237356 0.237356 0.237356 0.237356 0.237356 0.237356 0.237356 0.237356 0.237356 0.237356 0.237356 0.237356 0.237356 0.256074 0.256074 0.256074 0.256074 0.256074 0.256074 0.256074 0.256074 0.256074 0.256074 0.256074 0.256074 0.256074 0.256074 0.256074 0.256074 0.256074 0.256074 0.256074 0.256074 0.256074 0.264906 0.264906 0.264906 0.264906 0.264906 0.264906 0.264906 0.264906 0.264906 0.264906 0.264906 0.264906 0.264906 0.264906 0.264906 0.264906 0.264906 0.264906 0.264906 0.264906 0.264906 0.264906 0.264906 0.264906 0.264906 0.264906 0.264906 0.264906 0.264906 0.264906 0.264906 0.264906 0.264906 0.264906 0.264906 0.269680 0.269680 0.269680 0.269680 0.269680 0.269680 0.269680 0.269680 0.269680 0.269680 0.269680 0.269680 0.269680 0.269680 0.269680 0.269680 0.269680 0.269680 0.269680 0.269680 0.269680 0.269680 0.269680 0.269680 0.269680 0.269680 0.269680 0.269680 0.269680 0.274721 0.274721 0.274721 0.274721 0.274721 0.274721 0.274721 0.274721 0.274721 0.274721 0.274721 0.274721 0.274721 0.274721 0.274721 0.274721 0.274721 0.274721 0.274721 0.274721 0.274721 0.274721 0.274721 0.274721 0.274721 0.269680 0.269680 0.269680 0.269680 0.269680 0.269680 0.269680 0.269680 0.269680 0.269680 0.269680 0.269680 0.274721 0.274721 0.274721 0.274721 0.274721 0.274721 0.274721 0.274721 0.274721 0.274721 0.274721 0.280056 0.280056 0.280056 0.280056 0.280056 0.280056 0.280056 0.280056 0.280056 0.280056 0.274721 0.274721 0.274721 0.274721 0.274721 0.274721 0.274721 0.274721 0.274721 0.274721 0.269680 0.269680 0.269680 0.269680 0.269680 0.269680 0.269680 0.269680 0.269680 0.269680 0.264906 0.264906 0.264906 0.264906 0.264906 0.264906 0.264906 0.264906 0.264906 0.264906 0.269680 0.269680 0.269680 0.269680 0.269680 0.269680 0.269680 0.269680 0.269680 0.264906 0.264906 0.264906 0.264906 0.264906 0.264906 0.264906 0.264906 0.264906 0.274721 0.274721 0.274721 0.274721 0.274721 0.274721 0.274721 0.274721 0.256074 0.256074 0.256074 0.256074 0.256074 0.256074 0.256074 0.256074 0.256074 0.269680 0.269680 0.269680 0.269680 0.269680 0.269680 0.269680 0.269680 0.264906 0.264906 0.264906 0.264906 0.264906 0.264906 0.264906 0.264906 0.260378 0.260378 0.260378 0.260378 0.260378 0.260378 0.260378 0.260378 0.269680 0.269680 0.269680 0.269680 0.269680 0.269680 0.269680 0.269680 0.269680 0.269680 0.269680 0.269680 0.269680 0.269680 0.269680
