# Output from CTFFind version 4.1.9, run on 2019-11-02 12:25:57
# Input file: stack6_ub_averaged_1000.mrc ; Number of micrographs: 1
# Pixel size: 3.000 Angstroms ; acceleration voltage: 300.0 keV ; spherical aberration: 0.00 mm ; amplitude contrast: 0.07
# Box size: 512 pixels ; min. res.: 30.0 Angstroms ; max. res.: 5.0 Angstroms ; min. def.: 5000.0 um; max. def. 50000.0 um; num. frames averaged: 1
# 6 lines per micrograph: #1 - spatial frequency (1/Angstroms); #2 - 1D rotational average of spectrum (assuming no astigmatism); #3 - 1D rotational average of spectrum; #4 - CTF fit; #5 - cross-correlation between spectrum and CTF fit; #6 - 2sigma of expected cross correlation of noise
0.000000 0.000651 0.001302 0.001953 0.002604 0.003255 0.003906 0.004557 0.005208 0.005859 0.006510 0.007161 0.007812 0.008464 0.009115 0.009766 0.010417 0.011068 0.011719 0.012370 0.013021 0.013672 0.014323 0.014974 0.015625 0.016276 0.016927 0.017578 0.018229 0.018880 0.019531 0.020182 0.020833 0.021484 0.022135 0.022786 0.023438 0.024089 0.024740 0.025391 0.026042 0.026693 0.027344 0.027995 0.028646 0.029297 0.029948 0.030599 0.031250 0.031901 0.032552 0.033203 0.033854 0.034505 0.035156 0.035807 0.036458 0.037109 0.037760 0.038411 0.039062 0.039714 0.040365 0.041016 0.041667 0.042318 0.042969 0.043620 0.044271 0.044922 0.045573 0.046224 0.046875 0.047526 0.048177 0.048828 0.049479 0.050130 0.050781 0.051432 0.052083 0.052734 0.053385 0.054036 0.054688 0.055339 0.055990 0.056641 0.057292 0.057943 0.058594 0.059245 0.059896 0.060547 0.061198 0.061849 0.062500 0.063151 0.063802 0.064453 0.065104 0.065755 0.066406 0.067057 0.067708 0.068359 0.069010 0.069661 0.070312 0.070964 0.071615 0.072266 0.072917 0.073568 0.074219 0.074870 0.075521 0.076172 0.076823 0.077474 0.078125 0.078776 0.079427 0.080078 0.080729 0.081380 0.082031 0.082682 0.083333 0.083984 0.084635 0.085286 0.085938 0.086589 0.087240 0.087891 0.088542 0.089193 0.089844 0.090495 0.091146 0.091797 0.092448 0.093099 0.093750 0.094401 0.095052 0.095703 0.096354 0.097005 0.097656 0.098307 0.098958 0.099609 0.100260 0.100911 0.101562 0.102214 0.102865 0.103516 0.104167 0.104818 0.105469 0.106120 0.106771 0.107422 0.108073 0.108724 0.109375 0.110026 0.110677 0.111328 0.111979 0.112630 0.113281 0.113932 0.114583 0.115234 0.115885 0.116536 0.117188 0.117839 0.118490 0.119141 0.119792 0.120443 0.121094 0.121745 0.122396 0.123047 0.123698 0.124349 0.125000 0.125651 0.126302 0.126953 0.127604 0.128255 0.128906 0.129557 0.130208 0.130859 0.131510 0.132161 0.132812 0.133464 0.134115 0.134766 0.135417 0.136068 0.136719 0.137370 0.138021 0.138672 0.139323 0.139974 0.140625 0.141276 0.141927 0.142578 0.143229 0.143880 0.144531 0.145182 0.145833 0.146484 0.147135 0.147786 0.148438 0.149089 0.149740 0.150391 0.151042 0.151693 0.152344 0.152995 0.153646 0.154297 0.154948 0.155599 0.156250 0.156901 0.157552 0.158203 0.158854 0.159505 0.160156 0.160807 0.161458 0.162109 0.162760 0.163411 0.164062 0.164714 0.165365 0.166016 0.166667 0.167318 0.167969 0.168620 0.169271 0.169922 0.170573 0.171224 0.171875 0.172526 0.173177 0.173828 0.174479 0.175130 0.175781 0.176432 0.177083 0.177734 0.178385 0.179036 0.179688 0.180339 0.180990 0.181641 0.182292 0.182943 0.183594 0.184245 0.184896 0.185547 0.186198 0.186849 0.187500 0.188151 0.188802 0.189453 0.190104 0.190755 0.191406 0.192057 0.192708 0.193359 0.194010 0.194661 0.195312 0.195964 0.196615 0.197266 0.197917 0.198568 0.199219 0.199870 0.200521 0.201172 0.201823 0.202474 0.203125 0.203776 0.204427 0.205078 0.205729 0.206380 0.207031 0.207682 0.208333 0.208984 0.209635 0.210286 0.210938 0.211589 0.212240 0.212891 0.213542 0.214193 0.214844 0.215495 0.216146 0.216797 0.217448 0.218099 0.218750 0.219401 0.220052 0.220703 0.221354 0.222005 0.222656 0.223307 0.223958 0.224609 0.225260 0.225911 0.226562 0.227214 0.227865 0.228516 0.229167 0.229818 0.230469 0.231120 0.231771 0.232422 0.233073 0.233724 0.234375 0.235026 0.235677
       0.31185        0.31185        0.31185        0.31185        0.31185        0.31185        0.31185        0.31185        0.31185        0.31185        0.31185        0.31185        0.31185        0.31185        0.31185        0.31185        0.31185        0.31185        0.31185        0.31185        0.31185        0.31185        0.31185        0.31185        0.31185        0.31185        0.31185        0.31185        0.31185        0.31185        0.31185        0.31185        0.31185        0.31185        0.31185        0.31185        0.31185        0.31185        0.31185        0.31185        0.31185        0.31185        0.31185        0.31185        0.31185        0.31185        0.31185        0.31185        0.31185        0.31185        0.31185        0.63450        0.81998        0.41758        0.31261        0.18834       -0.10506        0.11207       -0.00295        0.03392        0.11846        0.33607        0.42349        0.40610        0.22526       -0.01263        0.04790        0.07070       -0.16728       -0.17952       -0.08582       -0.10686       -0.29190       -0.18899       -0.30134       -0.25626       -0.28577       -0.40161       -0.47541       -0.47869       -0.42201       -0.33713       -0.43977       -0.36730       -0.40748       -0.34799       -0.27514       -0.19924       -0.19267       -0.13585       -0.09417        0.03778        0.08369        0.25030        0.27922        0.36854        0.40333        0.52140        0.59083        0.60821        0.74129        0.70112        0.74201        0.65038        0.66603        0.69663        0.63346        0.61546        0.60882        0.43548        0.40051        0.35910        0.32294        0.22209        0.13119        0.05988        0.05831        0.00068       -0.07952       -0.03048       -0.03121       -0.06963        0.06260        0.16382        0.25347        0.32216        0.33548        0.43148        0.54935        0.59572        0.54551        0.67129        0.56701        0.54459        0.59780        0.64457        0.53294        0.45924        0.40729        0.37502        0.24848        0.21399        0.13068        0.11648        0.05548        0.05680        0.10916        0.16959        0.14367        0.18020        0.21882        0.24022        0.33266        0.46011        0.49344        0.49828        0.52006        0.57876        0.56965        0.52248        0.42670        0.38522        0.36699        0.27186        0.24702        0.21391        0.20600        0.20239        0.18179        0.16170        0.12684        0.19385        0.25089        0.34775        0.38493        0.40677        0.46269        0.53680        0.47671        0.48394        0.42263        0.40215        0.38379        0.36332        0.29001        0.25646        0.19684        0.23150        0.21582        0.19068        0.21868        0.22407        0.24093        0.29988        0.40193        0.40287        0.37238        0.39079        0.45636        0.48598        0.42664        0.35230        0.32653        0.27736        0.26238        0.24875        0.21308        0.28459        0.29286        0.29675        0.31664        0.31232        0.35021        0.37313        0.37149        0.37381        0.35722        0.31841        0.33425        0.31720        0.29629        0.28004        0.27237        0.21836        0.27375        0.27374        0.30152        0.32144        0.34618        0.38015        0.34178        0.32061        0.36164        0.36752        0.26572        0.29459        0.30513        0.24429        0.20917        0.25787        0.27223        0.27684        0.29983        0.30712        0.33639        0.33542        0.36320        0.32581        0.32048        0.30931        0.29628        0.27688        0.25164        0.25437        0.25736        0.27678        0.29972        0.29887        0.30373        0.31363        0.32428        0.26252        0.30426        0.26971        0.26280        0.27880        0.26386        0.26291        0.26651        0.31036        0.28523        0.31746        0.28609        0.27289        0.30589        0.31023        0.33063        0.31429        0.29031        0.25325        0.26662        0.27020        0.26448        0.31341        0.31675        0.33773        0.31876        0.30989        0.25569        0.27893        0.20905        0.20823        0.24389        0.25531        0.25728        0.28770        0.31060        0.29779        0.35000        0.31013        0.26287        0.23753        0.23628        0.28986        0.31391        0.30446        0.26781        0.28021        0.26377        0.32325        0.28357        0.25319        0.26682        0.25616        0.28974        0.24968        0.28503        0.32761        0.28927        0.22130        0.23890        0.28804        0.32092        0.27100        0.26481        0.24298        0.27542        0.29354        0.37757        0.28891        0.27222        0.25276        0.25862        0.22094        0.17640        0.24740        0.22816        0.20881        0.18422        0.19635        0.23954        0.22406        0.23469        0.19316        0.25513        0.22479        0.20630        0.17575        0.17114        0.19728        0.24332        0.13922        0.05669        0.19771        0.20228        0.15238        0.24554        0.15118        0.20949        0.21611       -0.04888       -0.46331       -0.93928
2.843723 2.815748 2.787917 2.760231 2.732688 2.705290 2.678035 2.650924 2.623957 2.597134 2.570455 2.543920 2.517529 2.491282 2.465179 2.439220 2.413405 2.387734 2.362207 2.336824 2.311584 2.286489 2.261538 2.236730 2.212067 2.187547 2.163172 2.138940 2.114853 2.090909 2.067109 2.043454 2.019942 1.996574 1.973350 1.950270 1.927335 1.904543 1.881895 1.859391 1.837031 1.814814 1.792742 1.770814 1.749030 1.727390 1.705894 1.684541 1.663333 1.642268 1.621348 1.915775 2.272841 1.697688 1.738945 1.377639 0.940532 1.196438 1.019275 1.070708 1.029236 1.488702 1.514902 1.538689 1.278795 0.938228 0.822219 1.007087 0.713793 0.489194 0.586557 0.677540 0.420808 0.486192 0.324160 0.369598 0.243851 0.158930 -0.036795 0.000609 0.021564 0.082244 0.036392 0.071925 -0.039511 0.028975 0.111709 0.223713 0.285172 0.207904 0.317176 0.550050 0.450280 0.726331 0.787759 0.874435 0.908407 1.121506 1.144758 1.173385 1.325663 1.236131 1.370541 1.194056 1.113956 1.294553 1.144089 1.051401 1.126248 0.885872 0.742022 0.680447 0.672410 0.457318 0.392801 0.257209 0.228444 0.092053 -0.006833 0.087381 0.027418 -0.064103 0.113571 0.251860 0.305697 0.463638 0.486616 0.554575 0.724357 0.827569 0.663542 0.962058 0.802331 0.667084 0.765376 0.807266 0.714861 0.638052 0.447472 0.501054 0.280537 0.190063 0.140730 0.005524 -0.017241 -0.109064 -0.015864 0.031207 0.085881 -0.049724 0.252041 0.096372 0.210749 0.379716 0.441142 0.531295 0.436486 0.568055 0.645624 0.506258 0.392273 0.336873 0.323588 0.148466 0.141301 0.011289 0.090949 0.028864 -0.001750 -0.022525 -0.118676 -0.008136 0.025786 0.110875 0.296314 0.203626 0.356352 0.371763 0.425132 0.417706 0.386241 0.329179 0.230223 0.303372 0.167521 0.155157 0.002691 0.042343 0.062777 -0.027393 -0.009667 0.017376 0.057852 0.073344 0.214485 0.308539 0.244696 0.207842 0.379854 0.409713 0.351309 0.241887 0.175575 0.148918 0.081394 0.076147 0.025774 0.020720 0.135701 0.056279 0.186779 0.093736 0.143064 0.235721 0.212101 0.235069 0.199786 0.200905 0.118546 0.164743 0.123748 0.093320 0.110252 0.000650 0.036373 0.091706 0.049947 0.147380 0.126372 0.212115 0.212756 0.138989 0.131653 0.234770 0.114343 0.074175 0.085555 0.059770 0.000064 -0.030655 0.044678 0.071258 0.032845 0.117737 0.112941 0.126508 0.131893 0.179701 0.112611 0.080789 0.102133 0.085553 0.027845 0.015223 0.033734 -0.002823 0.071958 0.103817 0.067351 0.075580 0.130270 0.090857 0.018075 0.113391 0.029054 0.031758 0.065643 0.019696 0.020968 0.059074 0.087525 0.029012 0.112536 0.052497 0.028468 0.110760 0.072004 0.094456 0.086043 0.020105 -0.007952 0.003274 0.042309 0.006995 0.072925 0.096816 0.094551 0.054066 0.137650 -0.015480 0.027332 -0.092759 -0.016296 -0.043018 0.006406 0.020980 0.033096 0.071509 0.084039 0.108249 0.016979 -0.017271 -0.059080 -0.074431 0.069091 0.053089 0.050055 -0.014245 0.002749 -0.026664 0.068393 0.016895 -0.062800 -0.013272 -0.070713 0.027114 -0.046090 0.022151 0.064273 -0.008724 -0.069923 -0.039978 0.100434 0.039800 0.007781 0.003534 -0.048239 0.072804 0.079692 0.177370 0.044518 0.015924 0.029843 0.052803 -0.048903 -0.047281 0.054696 0.023049 -0.018191 -0.038953 -0.032427 0.096660 -0.044948 0.068074 0.007579 0.132963 -0.005647 0.064800 -0.087492 -0.005666 -0.035358 0.122881 -0.022115 -0.202094 0.287121 0.295123 0.215167 0.413954 0.181629 0.274823 0.372009 -0.066839 -1.312608
0.072396 0.072834 0.074148 0.076338 0.079404 0.083344 0.088157 0.093844 0.100401 0.107828 0.116121 0.125277 0.135293 0.146165 0.157886 0.170451 0.183852 0.198080 0.213125 0.228974 0.245615 0.263031 0.281205 0.300117 0.319744 0.340061 0.361040 0.382649 0.404855 0.427618 0.450898 0.474649 0.498820 0.523358 0.548204 0.573296 0.598565 0.623939 0.649339 0.674684 0.699885 0.724848 0.749476 0.773665 0.797307 0.820286 0.842486 0.863783 0.884050 0.903156 0.920964 0.937338 0.952137 0.965217 0.976434 0.985644 0.992701 0.997462 0.999785 0.999531 0.996565 0.990758 0.981988 0.970140 0.955108 0.936798 0.915127 0.890027 0.861445 0.829344 0.793707 0.754536 0.711855 0.665712 0.616177 0.563349 0.507352 0.448339 0.386492 0.322022 0.255172 0.186216 0.115456 0.043227 0.030108 0.104154 0.178491 0.252671 0.326224 0.398656 0.469456 0.538095 0.604036 0.666731 0.725631 0.780188 0.829862 0.874126 0.912471 0.944416 0.969510 0.987340 0.997542 0.999802 0.993863 0.979538 0.956709 0.925335 0.885460 0.837214 0.780819 0.716593 0.644949 0.566397 0.481549 0.391109 0.295877 0.196739 0.094669 0.009288 0.114017 0.218348 0.321066 0.420928 0.516672 0.607039 0.690787 0.766712 0.833664 0.890568 0.936444 0.970427 0.991783 0.999929 0.994452 0.975118 0.941892 0.894945 0.834662 0.761646 0.676724 0.580936 0.475537 0.361981 0.241908 0.117123 0.010424 0.138673 0.265474 0.388633 0.505947 0.615239 0.714408 0.801467 0.874590 0.932153 0.972774 0.995357 0.999120 0.983629 0.948821 0.895026 0.822968 0.733776 0.628975 0.510465 0.380502 0.241656 0.096777 0.051071 0.198664 0.342685 0.479804 0.606751 0.720403 0.817856 0.896519 0.954177 0.989072 0.999961 0.986167 0.947623 0.884895 0.799190 0.692354 0.566843 0.425680 0.272392 0.110937 0.054400 0.219105 0.378565 0.528195 0.663569 0.780560 0.875479 0.945187 0.987226 0.999909 0.982405 0.934794 0.858093 0.754264 0.626178 0.477558 0.312882 0.137264 0.043691 0.224068 0.397829 0.559007 0.701932 0.821424 0.913000 0.973055 0.999022 0.989495 0.944323 0.864655 0.752939 0.612873 0.449306 0.268089 0.075874 0.120099 0.312294 0.493146 0.655372 0.792274 0.898025 0.967933 0.998677 0.988482 0.937240 0.846568 0.719792 0.561851 0.379137 0.179252 0.029284 0.237394 0.435824 0.615567 0.768270 0.886646 0.964838 0.998735 0.986214 0.927301 0.824227 0.681387 0.505188 0.303786 0.086742 0.135424 0.351725 0.551251 0.723728 0.860065 0.952846 0.996773 0.988996 0.929327 0.820331 0.667251 0.477807 0.261834 0.030805 0.202765 0.425986 0.626302 0.792213 0.913956 0.984114 0.998092 0.954470 0.855159 0.705381 0.513437 0.290290 0.048978 0.196133 0.430188 0.638748 0.808687 0.929053 0.991800 0.992380 0.930108 0.808304 0.634179 0.418462 0.174776 0.081187 0.332642 0.562839 0.756146 0.899171 0.981704 0.997506 0.944822 0.826618 0.650477 0.428179 0.174955 0.091506 0.352283 0.588546 0.782947 0.920905 0.991754 0.989613 0.913944 0.769704 0.567095 0.320915 0.049519 0.226512 0.485916 0.708382 0.876178 0.975597 0.998137 0.941290 0.808880 0.610890 0.362773 0.084319 0.201881 0.472262 0.704214 0.877990 0.978459 0.996461 0.929727 0.783216 0.568839 0.304572 0.013006 0.280540 0.550195 0.771833 0.925258 0.996112 0.977285 0.869709 0.682443 0.432001 0.140971 0.163962 0.454430 0.703020 0.885893 0.985121 0.990518 0.900779 0.723778 0.475987 0.181030 0.132509 0.433805 0.692826 0.883352
1.000000 1.000000 1.000000 1.000000 1.000000 1.000000 1.000000 1.000000 1.000000 1.000000 1.000000 1.000000 1.000000 1.000000 1.000000 1.000000 1.000000 1.000000 1.000000 1.000000 1.000000 1.000000 1.000000 1.000000 1.000000 1.000000 1.000000 1.000000 1.000000 1.000000 1.000000 1.000000 1.000000 1.000000 1.000000 1.000000 1.000000 1.000000 1.000000 1.000000 1.000000 1.000000 1.000000 1.000000 1.000000 1.000000 1.000000 1.000000 1.000000 1.000000 1.000000 1.000000 0.834338 0.834338 0.834338 0.834338 0.834338 0.834338 0.834338 0.811660 0.811660 0.811660 0.811660 0.811660 0.811660 0.811660 0.811660 0.811660 0.811660 0.811660 0.811660 0.811660 0.811660 0.811660 0.811660 0.811660 0.811660 0.811660 0.811660 0.811660 0.811660 0.811660 0.811660 0.811660 0.811660 0.811660 0.811660 0.811660 0.811660 0.811660 0.811660 0.811660 0.811660 0.811660 0.811660 0.811660 0.811660 0.811660 0.811660 0.811660 0.811660 0.811660 0.811660 0.951719 0.952408 0.944788 0.943686 0.941937 0.938710 0.934260 0.933787 0.935135 0.935350 0.936000 0.938197 0.939273 0.941012 0.942286 0.943186 0.944039 0.952085 0.955690 0.956106 0.955649 0.951074 0.957683 0.956821 0.956660 0.957429 0.957723 0.958434 0.958318 0.958154 0.957618 0.956456 0.957167 0.957018 0.956299 0.955276 0.952978 0.952959 0.952510 0.952633 0.953587 0.954278 0.954914 0.955424 0.955387 0.955568 0.955552 0.955456 0.950467 0.950496 0.943964 0.944616 0.945780 0.945469 0.944428 0.943023 0.943076 0.942945 0.942861 0.942664 0.942887 0.923484 0.922900 0.922928 0.923008 0.915226 0.904209 0.896864 0.890305 0.891240 0.895375 0.900317 0.900759 0.897825 0.896837 0.880886 0.884580 0.871431 0.868540 0.856842 0.867259 0.868339 0.869672 0.863305 0.862726 0.861462 0.859766 0.851255 0.855385 0.855562 0.851435 0.847731 0.845992 0.844682 0.846594 0.851354 0.848530 0.844810 0.842073 0.829919 0.820837 0.819741 0.822136 0.829833 0.842113 0.842097 0.841321 0.834637 0.830951 0.824525 0.818597 0.816866 0.818561 0.816438 0.820132 0.818095 0.825701 0.815661 0.810360 0.815219 0.824388 0.829401 0.832055 0.834702 0.832764 0.833821 0.819994 0.820736 0.818483 0.768405 0.769874 0.760038 0.760092 0.745751 0.744767 0.739846 0.738502 0.730661 0.715080 0.726376 0.721542 0.697446 0.705784 0.700406 0.686929 0.664629 0.671752 0.686333 0.694750 0.693260 0.694016 0.682654 0.681830 0.692338 0.690882 0.696888 0.689384 0.686519 0.679376 0.682166 0.672156 0.673779 0.671524 0.670632 0.670866 0.666857 0.655496 0.663063 0.658308 0.650752 0.641324 0.600904 0.562322 0.545446 0.538535 0.520796 0.499341 0.516687 0.524571 0.504283 0.495951 0.477638 0.440266 0.435974 0.434541 0.415212 0.399605 0.379443 0.342717 0.350330 0.352086 0.352783 0.338778 0.341364 0.326596 0.288831 0.276990 0.240676 0.256704 0.274494 0.263682 0.239051 0.239681 0.249477 0.243308 0.253837 0.252226 0.267649 0.222408 0.168834 0.181429 0.179770 0.188636 0.171146 0.143961 0.171890 0.156725 0.168146 0.171675 0.128074 0.097605 0.078236 0.053783 0.058453 0.083280 0.099776 0.093051 0.069667 -0.020543 0.012573 0.041168 0.041168 0.041168 0.041168 0.041168 0.041168 0.041168 0.041168 0.041168 0.041168 0.041168 -0.025399 -0.025399 -0.025399 -0.025399 -0.025399 -0.025399 -0.025399 -0.025399 -0.025399 -0.025399 -0.025399 -0.025399 -0.025399 -0.025399 -0.025399 -0.025399 -0.025399 -0.025399 -0.025399
0.000000 0.000000 0.000000 0.000000 0.000000 0.000000 0.000000 0.000000 0.000000 0.000000 0.000000 0.000000 0.000000 0.000000 0.000000 0.000000 0.000000 0.000000 0.000000 0.000000 0.000000 9401.000000 0.000000 0.000000 0.000000 0.000000 0.000000 0.000000 0.000000 0.000000 0.000000 0.000000 0.000000 0.000000 0.000000 0.000000 0.000000 0.000000 0.000000 0.000000 0.000000 0.000000 0.000000 0.000000 0.000000 0.000000 0.000000 0.000000 0.000000 0.000000 0.000000 0.000000 0.173422 0.173422 0.173422 0.173422 0.173422 0.173422 0.173422 0.191565 0.191565 0.191565 0.191565 0.191565 0.191565 0.191565 0.191565 0.191565 0.191565 0.191565 0.191565 0.191565 0.191565 0.191565 0.191565 0.191565 0.191565 0.191565 0.191565 0.191565 0.191565 0.191565 0.191565 0.191565 0.191565 0.191565 0.191565 0.191565 0.191565 0.191565 0.191565 0.191565 0.191565 0.191565 0.191565 0.191565 0.191565 0.191565 0.191565 0.191565 0.191565 0.191565 0.191565 0.219529 0.219529 0.219529 0.219529 0.219529 0.219529 0.219529 0.219529 0.219529 0.219529 0.219529 0.219529 0.219529 0.219529 0.219529 0.219529 0.219529 0.219529 0.219529 0.219529 0.219529 0.219529 0.219529 0.219529 0.219529 0.219529 0.219529 0.219529 0.219529 0.219529 0.219529 0.237356 0.237356 0.237356 0.237356 0.237356 0.237356 0.237356 0.237356 0.237356 0.237356 0.237356 0.237356 0.237356 0.237356 0.237356 0.237356 0.237356 0.237356 0.237356 0.237356 0.237356 0.237356 0.237356 0.237356 0.244339 0.244339 0.244339 0.244339 0.244339 0.244339 0.244339 0.244339 0.244339 0.244339 0.244339 0.244339 0.244339 0.244339 0.244339 0.244339 0.244339 0.244339 0.244339 0.244339 0.244339 0.248069 0.248069 0.248069 0.248069 0.248069 0.248069 0.248069 0.248069 0.248069 0.248069 0.248069 0.248069 0.248069 0.248069 0.248069 0.248069 0.248069 0.248069 0.248069 0.248069 0.248069 0.248069 0.248069 0.248069 0.248069 0.248069 0.248069 0.248069 0.248069 0.248069 0.248069 0.248069 0.248069 0.248069 0.248069 0.248069 0.248069 0.256074 0.256074 0.256074 0.256074 0.256074 0.256074 0.256074 0.256074 0.256074 0.256074 0.256074 0.256074 0.256074 0.256074 0.256074 0.256074 0.256074 0.256074 0.256074 0.256074 0.256074 0.256074 0.256074 0.256074 0.256074 0.256074 0.256074 0.256074 0.256074 0.256074 0.256074 0.256074 0.256074 0.256074 0.256074 0.256074 0.256074 0.256074 0.256074 0.256074 0.256074 0.256074 0.256074 0.256074 0.256074 0.260378 0.260378 0.260378 0.260378 0.260378 0.260378 0.260378 0.260378 0.260378 0.260378 0.260378 0.260378 0.260378 0.256074 0.256074 0.256074 0.256074 0.256074 0.256074 0.256074 0.256074 0.256074 0.256074 0.256074 0.256074 0.256074 0.260378 0.260378 0.260378 0.260378 0.260378 0.260378 0.260378 0.260378 0.260378 0.260378 0.260378 0.260378 0.251976 0.251976 0.251976 0.251976 0.251976 0.251976 0.251976 0.251976 0.251976 0.251976 0.251976 0.251976 0.256074 0.256074 0.256074 0.256074 0.256074 0.256074 0.256074 0.256074 0.256074 0.256074 0.256074 0.251976 0.251976 0.251976 0.251976 0.251976 0.251976 0.251976 0.251976 0.251976 0.251976 0.251976 0.248069 0.248069 0.248069 0.248069 0.248069 0.248069 0.248069 0.248069 0.248069 0.248069 0.248069 0.256074 0.256074 0.256074 0.256074 0.256074 0.256074 0.256074 0.256074 0.256074 0.256074 0.256074 0.256074 0.256074 0.256074 0.256074 0.256074 0.256074 0.256074 0.256074
