# Output from CTFFind version 4.1.9, run on 2019-11-03 18:51:41
# Input file: stack20_ub_averaged_1000.mrc ; Number of micrographs: 1
# Pixel size: 3.000 Angstroms ; acceleration voltage: 300.0 keV ; spherical aberration: 0.00 mm ; amplitude contrast: 0.07
# Box size: 512 pixels ; min. res.: 30.0 Angstroms ; max. res.: 5.0 Angstroms ; min. def.: 5000.0 um; max. def. 50000.0 um; num. frames averaged: 1
# 6 lines per micrograph: #1 - spatial frequency (1/Angstroms); #2 - 1D rotational average of spectrum (assuming no astigmatism); #3 - 1D rotational average of spectrum; #4 - CTF fit; #5 - cross-correlation between spectrum and CTF fit; #6 - 2sigma of expected cross correlation of noise
0.000000 0.000651 0.001302 0.001953 0.002604 0.003255 0.003906 0.004557 0.005208 0.005859 0.006510 0.007161 0.007812 0.008464 0.009115 0.009766 0.010417 0.011068 0.011719 0.012370 0.013021 0.013672 0.014323 0.014974 0.015625 0.016276 0.016927 0.017578 0.018229 0.018880 0.019531 0.020182 0.020833 0.021484 0.022135 0.022786 0.023438 0.024089 0.024740 0.025391 0.026042 0.026693 0.027344 0.027995 0.028646 0.029297 0.029948 0.030599 0.031250 0.031901 0.032552 0.033203 0.033854 0.034505 0.035156 0.035807 0.036458 0.037109 0.037760 0.038411 0.039062 0.039714 0.040365 0.041016 0.041667 0.042318 0.042969 0.043620 0.044271 0.044922 0.045573 0.046224 0.046875 0.047526 0.048177 0.048828 0.049479 0.050130 0.050781 0.051432 0.052083 0.052734 0.053385 0.054036 0.054688 0.055339 0.055990 0.056641 0.057292 0.057943 0.058594 0.059245 0.059896 0.060547 0.061198 0.061849 0.062500 0.063151 0.063802 0.064453 0.065104 0.065755 0.066406 0.067057 0.067708 0.068359 0.069010 0.069661 0.070312 0.070964 0.071615 0.072266 0.072917 0.073568 0.074219 0.074870 0.075521 0.076172 0.076823 0.077474 0.078125 0.078776 0.079427 0.080078 0.080729 0.081380 0.082031 0.082682 0.083333 0.083984 0.084635 0.085286 0.085938 0.086589 0.087240 0.087891 0.088542 0.089193 0.089844 0.090495 0.091146 0.091797 0.092448 0.093099 0.093750 0.094401 0.095052 0.095703 0.096354 0.097005 0.097656 0.098307 0.098958 0.099609 0.100260 0.100911 0.101562 0.102214 0.102865 0.103516 0.104167 0.104818 0.105469 0.106120 0.106771 0.107422 0.108073 0.108724 0.109375 0.110026 0.110677 0.111328 0.111979 0.112630 0.113281 0.113932 0.114583 0.115234 0.115885 0.116536 0.117188 0.117839 0.118490 0.119141 0.119792 0.120443 0.121094 0.121745 0.122396 0.123047 0.123698 0.124349 0.125000 0.125651 0.126302 0.126953 0.127604 0.128255 0.128906 0.129557 0.130208 0.130859 0.131510 0.132161 0.132812 0.133464 0.134115 0.134766 0.135417 0.136068 0.136719 0.137370 0.138021 0.138672 0.139323 0.139974 0.140625 0.141276 0.141927 0.142578 0.143229 0.143880 0.144531 0.145182 0.145833 0.146484 0.147135 0.147786 0.148438 0.149089 0.149740 0.150391 0.151042 0.151693 0.152344 0.152995 0.153646 0.154297 0.154948 0.155599 0.156250 0.156901 0.157552 0.158203 0.158854 0.159505 0.160156 0.160807 0.161458 0.162109 0.162760 0.163411 0.164062 0.164714 0.165365 0.166016 0.166667 0.167318 0.167969 0.168620 0.169271 0.169922 0.170573 0.171224 0.171875 0.172526 0.173177 0.173828 0.174479 0.175130 0.175781 0.176432 0.177083 0.177734 0.178385 0.179036 0.179688 0.180339 0.180990 0.181641 0.182292 0.182943 0.183594 0.184245 0.184896 0.185547 0.186198 0.186849 0.187500 0.188151 0.188802 0.189453 0.190104 0.190755 0.191406 0.192057 0.192708 0.193359 0.194010 0.194661 0.195312 0.195964 0.196615 0.197266 0.197917 0.198568 0.199219 0.199870 0.200521 0.201172 0.201823 0.202474 0.203125 0.203776 0.204427 0.205078 0.205729 0.206380 0.207031 0.207682 0.208333 0.208984 0.209635 0.210286 0.210938 0.211589 0.212240 0.212891 0.213542 0.214193 0.214844 0.215495 0.216146 0.216797 0.217448 0.218099 0.218750 0.219401 0.220052 0.220703 0.221354 0.222005 0.222656 0.223307 0.223958 0.224609 0.225260 0.225911 0.226562 0.227214 0.227865 0.228516 0.229167 0.229818 0.230469 0.231120 0.231771 0.232422 0.233073 0.233724 0.234375 0.235026 0.235677
       0.32615        0.32615        0.32615        0.32615        0.32615        0.32615        0.32615        0.32615        0.32615        0.32615        0.32615        0.32615        0.32615        0.32615        0.32615        0.32615        0.32615        0.32615        0.32615        0.32615        0.32615        0.32615        0.32615        0.32615        0.32615        0.32615        0.32615        0.32615        0.32615        0.32615        0.32615        0.32615        0.32615        0.32615        0.32615        0.32615        0.32615        0.32615        0.32615        0.32615        0.32615        0.32615        0.32615        0.32615        0.32615        0.32615        0.32615        0.32615        0.32615        0.32615        0.32615        0.67758        0.99686        0.52978        0.23083        0.13481        0.10328        0.03503        0.16038        0.21649        0.14878        0.32331        0.45704        0.41189        0.21714        0.05204        0.00192        0.12424        0.11586        0.01459        0.12851        0.00403        0.04331        0.07771        0.16800        0.01502       -0.08128       -0.11852       -0.10964       -0.19169       -0.39244       -0.29223       -0.33224       -0.29860       -0.37402       -0.29882       -0.35278       -0.26003       -0.30234       -0.30179       -0.26897       -0.18071       -0.17838       -0.02531       -0.03457        0.06191        0.24293        0.32166        0.46905        0.41538        0.43047        0.56037        0.61094        0.69828        0.55158        0.63297        0.67128        0.76366        0.65882        0.69845        0.72636        0.72407        0.59344        0.55294        0.51952        0.49371        0.39841        0.30776        0.20430        0.19938        0.05271       -0.03018       -0.04652       -0.02240       -0.06932       -0.01332       -0.01001        0.05330        0.08804        0.18162        0.27469        0.41119        0.44283        0.50727        0.52031        0.55898        0.59995        0.63252        0.70185        0.63290        0.63489        0.59004        0.54943        0.49476        0.42412        0.39606        0.35617        0.31282        0.22312        0.18566        0.08522        0.06772        0.01804        0.07975        0.19762        0.22491        0.26214        0.27519        0.35432        0.40083        0.46567        0.52986        0.55716        0.53267        0.55673        0.54368        0.49996        0.47766        0.43494        0.40732        0.32522        0.30693        0.20148        0.21866        0.18594        0.15087        0.22342        0.21346        0.18903        0.26316        0.31036        0.27219        0.38887        0.38704        0.47278        0.45594        0.44167        0.46241        0.47457        0.42364        0.39947        0.31155        0.30556        0.28514        0.23583        0.25673        0.22715        0.25487        0.29368        0.25640        0.30389        0.35193        0.36153        0.36218        0.45426        0.39878        0.39168        0.37822        0.36676        0.41278        0.35713        0.33759        0.28710        0.25495        0.26173        0.25976        0.25184        0.29297        0.27990        0.33234        0.33141        0.35816        0.38590        0.38472        0.40048        0.37574        0.34879        0.31713        0.29110        0.30434        0.29656        0.29315        0.26546        0.24668        0.28915        0.29678        0.29697        0.34900        0.36672        0.33341        0.39542        0.36092        0.33708        0.31078        0.29602        0.28470        0.30819        0.28145        0.28179        0.26632        0.25105        0.30186        0.27999        0.30614        0.30838        0.32025        0.29596        0.33488        0.33451        0.29931        0.32472        0.31994        0.25171        0.26160        0.26929        0.26534        0.27759        0.27804        0.28736        0.31451        0.32310        0.33844        0.28562        0.32332        0.33126        0.27164        0.30449        0.25710        0.30440        0.28761        0.30479        0.34943        0.33476        0.33862        0.32075        0.31199        0.33711        0.31632        0.29581        0.32422        0.28743        0.28520        0.24692        0.32592        0.31115        0.33407        0.28253        0.28856        0.32009        0.30090        0.29409        0.32667        0.29190        0.31666        0.25800        0.25583        0.32995        0.29707        0.27135        0.35227        0.30669        0.29820        0.26634        0.32957        0.32365        0.26808        0.27442        0.23949        0.28730        0.30478        0.32216        0.28840        0.23490        0.22847        0.22445        0.29526        0.27461        0.26823        0.28430        0.29367        0.28114        0.22655        0.20509        0.27025        0.32526        0.25675        0.26936        0.25719        0.29391        0.23544        0.25221        0.23958        0.24748        0.24259        0.19261        0.21166        0.20704        0.17066        0.18903        0.21962        0.18255        0.16108        0.18101        0.18582        0.30540        0.14548        0.11694        0.31192        0.07925        0.08071       -0.03879       -0.30033       -0.65081
1.478057 1.467825 1.457629 1.447470 1.437346 1.427259 1.417208 1.407193 1.397215 1.387273 1.377367 1.367498 1.357664 1.347867 1.338107 1.328382 1.318694 1.309042 1.299426 1.289847 1.280304 1.270797 1.261326 1.251892 1.242494 1.233132 1.223806 1.214517 1.205264 1.196047 1.186866 1.177722 1.168614 1.159542 1.150507 1.141508 1.132545 1.123618 1.114728 1.105874 1.097056 1.088274 1.079529 1.070820 1.062147 1.053510 1.044910 1.036346 1.027818 1.019327 1.010872 1.348334 1.894499 1.226245 0.859541 0.793888 0.620562 0.684378 0.682469 0.845788 0.685110 1.022134 1.023152 1.067441 0.809584 0.538504 0.438834 0.662255 0.746838 0.408621 0.555668 0.499364 0.528220 0.500949 0.583960 0.476239 0.358546 0.290588 0.235950 0.187294 -0.060725 0.040797 -0.072505 0.018904 -0.080327 -0.009500 -0.104940 0.000315 -0.001690 0.026689 -0.092529 0.036893 0.120131 0.222618 0.186252 0.348847 0.472493 0.650227 0.804850 0.720043 0.761132 0.884962 0.898169 1.081665 0.926031 0.950047 0.906803 1.132662 1.000536 1.073710 0.996009 1.078353 0.875268 0.887530 0.789215 0.766143 0.610988 0.565870 0.367480 0.393582 0.233624 0.095745 0.061981 0.101566 0.019840 -0.004174 0.079870 0.105281 0.180118 0.252087 0.306450 0.564299 0.525925 0.637657 0.645595 0.675148 0.776191 0.716389 0.865988 0.734241 0.814112 0.690786 0.699987 0.645804 0.450983 0.478335 0.477770 0.295149 0.360834 0.153046 0.123555 0.061345 -0.048953 -0.031339 0.164897 0.172323 0.218966 0.270953 0.264052 0.455149 0.319363 0.599188 0.529855 0.569925 0.528512 0.527781 0.459866 0.450401 0.406538 0.341470 0.251891 0.263102 0.133532 0.082003 0.104076 0.013699 0.055413 0.080428 0.065035 0.065866 0.185336 0.122662 0.226261 0.244319 0.368842 0.333990 0.331715 0.307293 0.373424 0.320961 0.274936 0.211413 0.105300 0.161860 0.070184 0.031962 0.094540 0.004986 0.104166 0.079750 0.072014 0.176551 0.140632 0.193650 0.196918 0.301408 0.200043 0.169530 0.137908 0.209329 0.186917 0.120972 0.097129 0.045890 -0.018657 0.030696 -0.009704 0.009261 0.073780 0.053650 0.111501 0.071851 0.166509 0.115975 0.160668 0.214475 0.112479 0.128361 0.063801 0.067155 0.060354 0.077341 0.029874 -0.025566 0.049361 0.048616 0.059417 0.073283 0.128919 0.094567 0.100446 0.176821 0.122668 0.047599 0.087369 0.025334 0.015365 0.061524 0.003136 0.025682 -0.022055 0.036508 0.013697 0.011472 0.055002 0.058117 0.039453 0.024485 0.104077 0.041254 0.011797 0.071634 0.018891 -0.039281 -0.012427 -0.018045 -0.019837 0.008803 -0.014308 0.024642 0.040070 0.054629 0.047621 -0.033939 0.069812 0.041102 -0.028340 0.000352 -0.002141 -0.003018 -0.002278 0.045392 0.068024 0.094229 0.052688 0.016750 0.074172 0.086648 0.069147 0.020640 0.087494 0.011759 0.033517 -0.025249 0.106590 0.053591 0.093983 -0.012970 0.078362 0.029653 0.053956 0.039720 0.090388 0.071521 0.061765 -0.020701 0.023766 0.105539 0.040646 0.026691 0.144853 0.056656 0.060611 -0.014240 0.150251 0.077042 0.003645 0.057294 -0.045285 0.072984 0.073748 0.075965 0.100941 -0.017210 -0.060800 0.007503 0.049484 0.041557 0.021789 0.062840 0.035073 0.057090 -0.022783 -0.036659 0.049972 0.114851 0.021156 0.010149 0.071083 0.033459 0.061375 0.027614 0.053686 0.009262 0.024569 -0.021172 -0.010819 0.311525 0.196189 0.244431 0.249903 0.218242 0.193866 0.199353 0.223094 0.482166 0.178488 0.042899 0.512711 0.114200 0.168381 -0.045972 -0.779381
0.072396 0.072799 0.074006 0.076018 0.078833 0.082453 0.086875 0.092100 0.098125 0.104949 0.112569 0.120985 0.130191 0.140186 0.150964 0.162520 0.174849 0.187943 0.201795 0.216394 0.231729 0.247790 0.264560 0.282026 0.300168 0.318968 0.338402 0.358446 0.379073 0.400254 0.421954 0.444138 0.466768 0.489799 0.513186 0.536879 0.560824 0.584964 0.609237 0.633576 0.657911 0.682169 0.706269 0.730129 0.753661 0.776772 0.799368 0.821346 0.842603 0.863029 0.882514 0.900941 0.918193 0.934146 0.948679 0.961666 0.972979 0.982492 0.990076 0.995605 0.998952 0.999995 0.998613 0.994689 0.988111 0.978774 0.966580 0.951437 0.933266 0.911995 0.887567 0.859937 0.829072 0.794960 0.757600 0.717013 0.673240 0.626339 0.576392 0.523505 0.467804 0.409442 0.348597 0.285471 0.220294 0.153319 0.084827 0.015125 0.055456 0.126562 0.197813 0.268811 0.339134 0.408347 0.475995 0.541612 0.604725 0.664851 0.721505 0.774207 0.822479 0.865855 0.903885 0.936138 0.962209 0.981727 0.994352 0.999792 0.997799 0.988177 0.970792 0.945569 0.912503 0.871659 0.823177 0.767278 0.704259 0.634504 0.558475 0.476720 0.389866 0.298619 0.203760 0.106142 0.006681 0.093650 0.193829 0.292793 0.389452 0.482698 0.571421 0.654519 0.730917 0.799576 0.859515 0.909824 0.949677 0.978355 0.995253 0.999898 0.991964 0.971281 0.937845 0.891830 0.833589 0.763661 0.682772 0.591830 0.491924 0.384311 0.270410 0.151780 0.030107 0.092819 0.215129 0.334903 0.450198 0.559083 0.659669 0.750147 0.828821 0.894144 0.944754 0.979503 0.997489 0.998087 0.980965 0.946111 0.893842 0.824810 0.740008 0.640764 0.528724 0.405835 0.274320 0.136636 0.004561 0.146463 0.286173 0.420754 0.547295 0.662977 0.765137 0.851337 0.919422 0.967587 0.994429 0.998992 0.980814 0.939948 0.876987 0.793066 0.689856 0.569541 0.434782 0.288672 0.134665 0.023494 0.181857 0.336371 0.482977 0.617728 0.736888 0.837050 0.915234 0.968992 0.996487 0.996574 0.968852 0.913700 0.832296 0.726605 0.599353 0.453965 0.294488 0.125492 0.048062 0.220953 0.387861 0.543528 0.682929 0.801443 0.895008 0.960279 0.994758 0.996902 0.966209 0.903261 0.809748 0.688435 0.543103 0.378448 0.199947 0.013682 0.173861 0.356000 0.526116 0.677882 0.805509 0.903985 0.969276 0.998518 0.990155 0.944038 0.861475 0.745218 0.599398 0.429400 0.241685 0.043553 0.157119 0.352200 0.533621 0.693718 0.825568 0.923299 0.982374 0.999820 0.974401 0.906719 0.799237 0.656228 0.483618 0.288779 0.080226 0.132740 0.340441 0.533256 0.702078 0.838750 0.936484 0.990210 0.996877 0.955645 0.867988 0.737675 0.570651 0.374789 0.159548 0.064465 0.286011 0.493768 0.676928 0.825764 0.932159 0.990093 0.995996 0.949011 0.851101 0.707012 0.524089 0.311923 0.081891 0.153447 0.381026 0.587982 0.762405 0.894044 0.974921 0.999865 0.966865 0.877275 0.735805 0.550314 0.331436 0.091968 0.153817 0.391050 0.605121 0.782623 0.912203 0.985313 0.996820 0.945408 0.833744 0.668405 0.459526 0.220232 0.034159 0.287087 0.521848 0.722667 0.875802 0.970512 0.999845 0.961202 0.856605 0.692664 0.480206 0.233620 0.030096 0.292470 0.534843 0.739711 0.892008 0.980246 0.997434 0.941685 0.816456 0.630414 0.396880 0.132944 0.141763 0.406512 0.641024 0.827048 0.949815 0.999258 0.970887 0.866264 0.692995 0.464253 0.197824 0.085217 0.362163 0.610478 0.809643 0.942899 0.998696 0.971757 0.863646 0.682766 0.443788
1.000000 1.000000 1.000000 1.000000 1.000000 1.000000 1.000000 1.000000 1.000000 1.000000 1.000000 1.000000 1.000000 1.000000 1.000000 1.000000 1.000000 1.000000 1.000000 1.000000 1.000000 1.000000 1.000000 1.000000 1.000000 1.000000 1.000000 1.000000 1.000000 1.000000 1.000000 1.000000 1.000000 1.000000 1.000000 1.000000 1.000000 1.000000 1.000000 1.000000 1.000000 1.000000 1.000000 1.000000 1.000000 1.000000 1.000000 1.000000 1.000000 1.000000 1.000000 1.000000 0.803079 0.803079 0.803079 0.803079 0.803079 0.803079 0.803079 0.803079 0.803079 0.780819 0.780819 0.780819 0.780819 0.780819 0.780819 0.780819 0.780819 0.780819 0.780819 0.780819 0.780819 0.780819 0.780819 0.780819 0.780819 0.780819 0.780819 0.780819 0.780819 0.780819 0.780819 0.780819 0.780819 0.780819 0.780819 0.780819 0.780819 0.780819 0.780819 0.780819 0.780819 0.780819 0.780819 0.780819 0.780819 0.780819 0.780819 0.780819 0.780819 0.780819 0.780819 0.780819 0.780819 0.780819 0.780819 0.780819 0.942943 0.943169 0.944178 0.952551 0.953307 0.954154 0.953956 0.953627 0.953832 0.953944 0.953469 0.954043 0.954611 0.955493 0.965628 0.966369 0.969923 0.969961 0.969841 0.969465 0.968810 0.975394 0.974707 0.974657 0.973500 0.972677 0.972610 0.973499 0.967827 0.967547 0.967218 0.974634 0.968576 0.967996 0.967044 0.964731 0.963884 0.963155 0.963059 0.962653 0.962609 0.962687 0.962627 0.962995 0.963306 0.963466 0.963525 0.958603 0.958842 0.957838 0.957223 0.946693 0.948560 0.943187 0.940806 0.932401 0.929214 0.935436 0.930584 0.928963 0.928175 0.928101 0.928148 0.928315 0.927039 0.923547 0.915918 0.914848 0.914058 0.912025 0.910952 0.912876 0.910224 0.912092 0.917127 0.919000 0.918275 0.915545 0.912870 0.904538 0.895023 0.895303 0.891105 0.893937 0.895971 0.886943 0.882802 0.870407 0.863905 0.860894 0.858173 0.858226 0.863260 0.860441 0.859794 0.858244 0.856061 0.857468 0.851701 0.851303 0.838276 0.836387 0.843201 0.815794 0.809587 0.800197 0.793753 0.795100 0.800863 0.799861 0.804217 0.801302 0.793312 0.776750 0.767263 0.755955 0.745941 0.735602 0.744891 0.742006 0.729964 0.744455 0.730280 0.752315 0.755317 0.760933 0.772191 0.772506 0.763104 0.758673 0.754857 0.750834 0.748221 0.696500 0.750220 0.699952 0.699990 0.693009 0.684090 0.673180 0.667314 0.674030 0.677624 0.670019 0.662022 0.653356 0.651857 0.640598 0.640853 0.657777 0.624078 0.625163 0.604072 0.623483 0.577763 0.575527 0.576954 0.541906 0.524164 0.509212 0.503848 0.497920 0.498014 0.491954 0.488566 0.464298 0.478963 0.494802 0.471979 0.480436 0.475531 0.487801 0.474949 0.468736 0.422159 0.421683 0.417800 0.428249 0.436188 0.432160 0.470639 0.442936 0.439464 0.447168 0.454745 0.432600 0.368907 0.354022 0.341963 0.325107 0.315276 0.203658 0.204880 0.198497 0.210752 0.231194 0.217486 0.199233 0.238347 0.228834 0.223973 0.233268 0.222363 0.213241 0.173313 0.174457 0.150814 0.108553 0.107403 0.097595 0.078826 0.058656 0.052244 0.064968 0.084006 0.077258 0.067942 0.037234 -0.008415 -0.005793 -0.016523 -0.026234 0.028770 0.014850 0.014850 0.014850 0.014850 0.014850 0.020442 0.020442 0.020442 0.020442 0.020442 0.020442 0.020442 0.020442 0.020442 0.020442 0.020442 0.020442 0.014850 0.014850 0.014850 0.014850 0.014850 0.014850 0.014850 0.014850 0.014850 0.014850 0.014850 0.014850 0.014850 0.014850 0.014850
0.000000 0.000000 0.000000 0.000000 0.000000 0.000000 0.000000 0.000000 0.000000 0.000000 0.000000 0.000000 0.000000 0.000000 0.000000 0.000000 0.000000 0.000000 0.000000 0.000000 0.000000 0.000000 0.000000 0.000000 0.000000 0.000000 0.000000 0.000000 0.000000 0.000000 0.000000 0.000000 0.000000 0.000000 0.000000 0.000000 0.000000 0.000000 0.000000 0.000000 0.000000 0.000000 0.000000 0.000000 0.000000 0.000000 0.000000 0.000000 0.000000 0.000000 0.000000 0.000000 0.170872 0.170872 0.170872 0.170872 0.170872 0.170872 0.170872 0.170872 0.170872 0.186501 0.186501 0.186501 0.186501 0.186501 0.186501 0.186501 0.186501 0.186501 0.186501 0.186501 0.186501 0.186501 0.186501 0.186501 0.186501 0.186501 0.186501 0.186501 0.186501 0.186501 0.186501 0.186501 0.186501 0.186501 0.186501 0.186501 0.186501 0.186501 0.186501 0.186501 0.186501 0.186501 0.186501 0.186501 0.186501 0.186501 0.186501 0.186501 0.186501 0.186501 0.186501 0.186501 0.186501 0.186501 0.186501 0.186501 0.219529 0.219529 0.219529 0.219529 0.219529 0.219529 0.219529 0.219529 0.219529 0.219529 0.219529 0.219529 0.219529 0.219529 0.219529 0.219529 0.219529 0.219529 0.219529 0.219529 0.219529 0.219529 0.219529 0.219529 0.219529 0.219529 0.219529 0.219529 0.219529 0.219529 0.219529 0.230940 0.230940 0.230940 0.230940 0.230940 0.230940 0.230940 0.230940 0.230940 0.230940 0.230940 0.230940 0.230940 0.230940 0.230940 0.230940 0.230940 0.230940 0.230940 0.230940 0.230940 0.230940 0.230940 0.230940 0.230940 0.230940 0.240772 0.240772 0.240772 0.240772 0.240772 0.240772 0.240772 0.240772 0.240772 0.240772 0.240772 0.240772 0.240772 0.240772 0.240772 0.240772 0.240772 0.240772 0.240772 0.240772 0.240772 0.240772 0.244339 0.244339 0.244339 0.244339 0.244339 0.244339 0.244339 0.244339 0.244339 0.244339 0.244339 0.244339 0.244339 0.244339 0.244339 0.244339 0.244339 0.244339 0.244339 0.244339 0.248069 0.248069 0.248069 0.248069 0.248069 0.248069 0.248069 0.248069 0.248069 0.248069 0.248069 0.248069 0.248069 0.248069 0.248069 0.248069 0.248069 0.248069 0.248069 0.248069 0.248069 0.248069 0.248069 0.248069 0.248069 0.248069 0.248069 0.248069 0.248069 0.248069 0.248069 0.248069 0.248069 0.248069 0.248069 0.256074 0.256074 0.256074 0.256074 0.256074 0.256074 0.256074 0.256074 0.256074 0.256074 0.256074 0.256074 0.256074 0.256074 0.256074 0.248069 0.248069 0.248069 0.248069 0.248069 0.248069 0.248069 0.248069 0.248069 0.248069 0.248069 0.248069 0.248069 0.248069 0.248069 0.251976 0.251976 0.251976 0.251976 0.251976 0.251976 0.251976 0.251976 0.251976 0.251976 0.251976 0.251976 0.251976 0.251976 0.256074 0.256074 0.256074 0.256074 0.256074 0.256074 0.256074 0.256074 0.256074 0.256074 0.256074 0.256074 0.256074 0.248069 0.248069 0.248069 0.248069 0.248069 0.248069 0.248069 0.248069 0.248069 0.248069 0.248069 0.248069 0.248069 0.251976 0.251976 0.251976 0.251976 0.251976 0.251976 0.251976 0.251976 0.251976 0.251976 0.251976 0.251976 0.248069 0.248069 0.248069 0.248069 0.248069 0.248069 0.248069 0.248069 0.248069 0.248069 0.248069 0.248069 0.244339 0.244339 0.244339 0.244339 0.244339 0.244339 0.244339 0.244339 0.244339 0.244339 0.244339 0.244339 0.248069 0.248069 0.248069 0.248069 0.248069 0.248069 0.248069 0.248069 0.248069 0.248069 0.248069 0.248069 0.248069 0.248069 0.248069
