# Output from CTFFind version 4.1.9, run on 2019-11-03 18:51:43
# Input file: stack3_ub_averaged_1000.mrc ; Number of micrographs: 1
# Pixel size: 3.000 Angstroms ; acceleration voltage: 300.0 keV ; spherical aberration: 0.00 mm ; amplitude contrast: 0.07
# Box size: 512 pixels ; min. res.: 30.0 Angstroms ; max. res.: 5.0 Angstroms ; min. def.: 5000.0 um; max. def. 50000.0 um; num. frames averaged: 1
# 6 lines per micrograph: #1 - spatial frequency (1/Angstroms); #2 - 1D rotational average of spectrum (assuming no astigmatism); #3 - 1D rotational average of spectrum; #4 - CTF fit; #5 - cross-correlation between spectrum and CTF fit; #6 - 2sigma of expected cross correlation of noise
0.000000 0.000651 0.001302 0.001953 0.002604 0.003255 0.003906 0.004557 0.005208 0.005859 0.006510 0.007161 0.007812 0.008464 0.009115 0.009766 0.010417 0.011068 0.011719 0.012370 0.013021 0.013672 0.014323 0.014974 0.015625 0.016276 0.016927 0.017578 0.018229 0.018880 0.019531 0.020182 0.020833 0.021484 0.022135 0.022786 0.023438 0.024089 0.024740 0.025391 0.026042 0.026693 0.027344 0.027995 0.028646 0.029297 0.029948 0.030599 0.031250 0.031901 0.032552 0.033203 0.033854 0.034505 0.035156 0.035807 0.036458 0.037109 0.037760 0.038411 0.039062 0.039714 0.040365 0.041016 0.041667 0.042318 0.042969 0.043620 0.044271 0.044922 0.045573 0.046224 0.046875 0.047526 0.048177 0.048828 0.049479 0.050130 0.050781 0.051432 0.052083 0.052734 0.053385 0.054036 0.054688 0.055339 0.055990 0.056641 0.057292 0.057943 0.058594 0.059245 0.059896 0.060547 0.061198 0.061849 0.062500 0.063151 0.063802 0.064453 0.065104 0.065755 0.066406 0.067057 0.067708 0.068359 0.069010 0.069661 0.070312 0.070964 0.071615 0.072266 0.072917 0.073568 0.074219 0.074870 0.075521 0.076172 0.076823 0.077474 0.078125 0.078776 0.079427 0.080078 0.080729 0.081380 0.082031 0.082682 0.083333 0.083984 0.084635 0.085286 0.085938 0.086589 0.087240 0.087891 0.088542 0.089193 0.089844 0.090495 0.091146 0.091797 0.092448 0.093099 0.093750 0.094401 0.095052 0.095703 0.096354 0.097005 0.097656 0.098307 0.098958 0.099609 0.100260 0.100911 0.101562 0.102214 0.102865 0.103516 0.104167 0.104818 0.105469 0.106120 0.106771 0.107422 0.108073 0.108724 0.109375 0.110026 0.110677 0.111328 0.111979 0.112630 0.113281 0.113932 0.114583 0.115234 0.115885 0.116536 0.117188 0.117839 0.118490 0.119141 0.119792 0.120443 0.121094 0.121745 0.122396 0.123047 0.123698 0.124349 0.125000 0.125651 0.126302 0.126953 0.127604 0.128255 0.128906 0.129557 0.130208 0.130859 0.131510 0.132161 0.132812 0.133464 0.134115 0.134766 0.135417 0.136068 0.136719 0.137370 0.138021 0.138672 0.139323 0.139974 0.140625 0.141276 0.141927 0.142578 0.143229 0.143880 0.144531 0.145182 0.145833 0.146484 0.147135 0.147786 0.148438 0.149089 0.149740 0.150391 0.151042 0.151693 0.152344 0.152995 0.153646 0.154297 0.154948 0.155599 0.156250 0.156901 0.157552 0.158203 0.158854 0.159505 0.160156 0.160807 0.161458 0.162109 0.162760 0.163411 0.164062 0.164714 0.165365 0.166016 0.166667 0.167318 0.167969 0.168620 0.169271 0.169922 0.170573 0.171224 0.171875 0.172526 0.173177 0.173828 0.174479 0.175130 0.175781 0.176432 0.177083 0.177734 0.178385 0.179036 0.179688 0.180339 0.180990 0.181641 0.182292 0.182943 0.183594 0.184245 0.184896 0.185547 0.186198 0.186849 0.187500 0.188151 0.188802 0.189453 0.190104 0.190755 0.191406 0.192057 0.192708 0.193359 0.194010 0.194661 0.195312 0.195964 0.196615 0.197266 0.197917 0.198568 0.199219 0.199870 0.200521 0.201172 0.201823 0.202474 0.203125 0.203776 0.204427 0.205078 0.205729 0.206380 0.207031 0.207682 0.208333 0.208984 0.209635 0.210286 0.210938 0.211589 0.212240 0.212891 0.213542 0.214193 0.214844 0.215495 0.216146 0.216797 0.217448 0.218099 0.218750 0.219401 0.220052 0.220703 0.221354 0.222005 0.222656 0.223307 0.223958 0.224609 0.225260 0.225911 0.226562 0.227214 0.227865 0.228516 0.229167 0.229818 0.230469 0.231120 0.231771 0.232422 0.233073 0.233724 0.234375 0.235026 0.235677
       0.33441        0.33441        0.33441        0.33441        0.33441        0.33441        0.33441        0.33441        0.33441        0.33441        0.33441        0.33441        0.33441        0.33441        0.33441        0.33441        0.33441        0.33441        0.33441        0.33441        0.33441        0.33441        0.33441        0.33441        0.33441        0.33441        0.33441        0.33441        0.33441        0.33441        0.33441        0.33441        0.33441        0.33441        0.33441        0.33441        0.33441        0.33441        0.33441        0.33441        0.33441        0.33441        0.33441        0.33441        0.33441        0.33441        0.33441        0.33441        0.33441        0.33441        0.33441        0.45025        0.75824        0.36344        0.09243       -0.16566       -0.20662       -0.37054       -0.43720       -0.44828       -0.37900       -0.43035       -0.40231       -0.41392       -0.58794       -0.59638       -0.62374       -0.75567       -0.74887       -0.64389       -0.67445       -0.67453       -0.69145       -0.61714       -0.60478       -0.54592       -0.34531       -0.34607       -0.30191       -0.12441        0.01944        0.04845        0.20437        0.21464        0.39156        0.50015        0.59040        0.53942        0.60280        0.58020        0.50489        0.62114        0.60662        0.57217        0.54743        0.47941        0.38556        0.30290        0.17692        0.06923        0.00516       -0.05279       -0.04075       -0.02612        0.00396        0.00850        0.11525        0.16203        0.27179        0.33699        0.42084        0.54147        0.57166        0.64413        0.77423        0.76294        0.79123        0.75764        0.57250        0.49841        0.34763        0.35147        0.21848        0.13570        0.13423        0.08365        0.01546        0.03877        0.08305        0.18364        0.31295        0.33896        0.48551        0.55056        0.61962        0.54770        0.57282        0.57262        0.51787        0.49343        0.48617        0.36457        0.22375        0.16056        0.15278        0.17007        0.10614        0.12924        0.14839        0.21772        0.33335        0.36368        0.41116        0.50154        0.62395        0.51636        0.53246        0.46878        0.40299        0.30354        0.26788        0.23204        0.22785        0.15914        0.18871        0.20721        0.27019        0.39046        0.44770        0.45114        0.49976        0.50549        0.50155        0.46720        0.42317        0.38955        0.27612        0.23483        0.22552        0.22148        0.25954        0.31189        0.37258        0.40798        0.41298        0.42654        0.43368        0.44643        0.41023        0.36515        0.27813        0.31317        0.30169        0.31785        0.26510        0.31044        0.31417        0.40775        0.43386        0.39582        0.39943        0.36115        0.36247        0.35045        0.29305        0.23761        0.25865        0.23821        0.23875        0.31661        0.37161        0.37171        0.38540        0.37429        0.40066        0.38232        0.34721        0.27953        0.29789        0.31670        0.29398        0.32973        0.36814        0.34960        0.38436        0.34813        0.34390        0.32611        0.34293        0.33249        0.35069        0.31056        0.28929        0.32642        0.36036        0.34338        0.32722        0.31241        0.32233        0.30940        0.31874        0.32237        0.32563        0.31434        0.30520        0.33925        0.31541        0.32575        0.31804        0.34136        0.31903        0.29752        0.29188        0.29915        0.30560        0.28858        0.30876        0.36136        0.34348        0.33208        0.28375        0.31736        0.33655        0.32966        0.29443        0.27742        0.27249        0.32149        0.31182        0.31185        0.30866        0.30400        0.28715        0.28459        0.28344        0.29106        0.30708        0.33356        0.31426        0.34590        0.28603        0.26827        0.31911        0.33718        0.32137        0.30359        0.27329        0.29643        0.35538        0.37475        0.35114        0.29477        0.30495        0.35118        0.28961        0.32624        0.32181        0.30945        0.32525        0.31319        0.33294        0.32349        0.27550        0.29149        0.29744        0.29384        0.36243        0.34487        0.31812        0.30830        0.28855        0.26031        0.27583        0.29481        0.30346        0.25438        0.28991        0.27877        0.29140        0.25921        0.23332        0.25189        0.28595        0.33695        0.35048        0.33401        0.34278        0.28427        0.29877        0.28232        0.20926        0.18817        0.26390        0.27892        0.30938        0.36047        0.24831        0.27798        0.20253        0.25554        0.27113        0.33036        0.24926        0.18604        0.20910        0.26766        0.21423        0.19664        0.27129        0.27462        0.22626        0.19259        0.27822        0.23837        0.17098        0.20064        0.30355        0.13732        0.15650        0.22916       -0.01532       -0.38833       -0.47809
2.470648 2.442496 2.414510 2.386692 2.359040 2.331556 2.304238 2.277088 2.250104 2.223287 2.196638 2.170155 2.143839 2.117690 2.091709 2.065894 2.040246 2.014765 1.989451 1.964304 1.939324 1.914511 1.889864 1.865385 1.841073 1.816928 1.792950 1.769138 1.745494 1.722017 1.698706 1.675563 1.652586 1.629777 1.607134 1.584659 1.562350 1.540209 1.518234 1.496426 1.474786 1.453312 1.432005 1.410865 1.389892 1.369086 1.348447 1.327975 1.307670 1.287532 1.267561 1.425004 1.582066 1.266485 0.920558 0.781927 0.683838 0.507889 0.472701 0.356936 0.411560 0.402989 0.396623 0.345992 0.183001 0.162740 0.146246 -0.016283 -0.070995 0.054321 -0.003705 0.014860 -0.067393 0.004319 -0.017740 0.024711 0.209979 0.171175 0.148188 0.306977 0.494398 0.389570 0.648706 0.532885 0.748747 0.742392 0.939279 0.801560 0.803710 0.962194 0.735449 0.898644 0.794152 0.754125 0.797749 0.691845 0.593703 0.541962 0.371096 0.264776 0.206365 0.115327 0.084897 0.161530 0.136919 0.147597 0.166030 0.251330 0.298631 0.363691 0.449885 0.513479 0.558565 0.599684 0.690586 0.711855 0.717735 0.709390 0.551876 0.493527 0.293322 0.331155 0.162207 0.101802 0.057397 0.067958 -0.049953 -0.049213 -0.009657 0.048064 0.183916 0.156199 0.308672 0.322535 0.493858 0.371129 0.399274 0.413702 0.333409 0.343486 0.308830 0.267212 0.062288 0.047945 -0.018868 -0.010872 -0.043672 -0.043886 -0.023331 -0.020459 0.087360 0.156196 0.149629 0.234322 0.313744 0.462179 0.314662 0.339997 0.253466 0.159868 0.107211 0.078223 0.092969 0.021341 -0.019728 0.028085 0.074826 0.116505 0.267176 0.218757 0.262745 0.298985 0.279711 0.253106 0.218487 0.182032 0.107882 0.032358 0.003201 0.015280 0.016224 0.065880 0.089630 0.180182 0.141480 0.180947 0.167129 0.198525 0.176503 0.134909 0.062744 0.041417 0.059342 0.066533 0.031061 0.035298 0.065152 0.076848 0.151626 0.157561 0.116024 0.098993 0.095448 0.103636 0.024408 0.005628 -0.008220 -0.049676 -0.021406 -0.028898 0.071218 0.075608 0.086838 0.101973 0.088189 0.080137 0.099486 0.045801 -0.002573 0.015761 0.021452 0.000065 0.061027 0.086465 0.054803 0.085193 0.030147 0.045633 0.053076 0.028778 0.055736 0.039182 0.004379 0.016335 0.049246 0.049510 0.050529 0.017811 -0.005493 0.009788 -0.006264 0.008004 0.011089 -0.003775 -0.004314 -0.004965 0.027163 -0.000246 0.002763 0.033962 0.012839 0.039923 -0.021057 0.001782 -0.004075 0.017380 -0.007029 0.019402 0.049194 0.038656 0.035757 -0.043282 0.043258 0.026705 0.019212 -0.000081 -0.034898 -0.020803 0.019576 0.008484 0.014463 0.009465 -0.023941 -0.005573 -0.038957 -0.010402 -0.006176 -0.000277 0.015878 -0.014796 0.059064 -0.058252 -0.042553 0.005529 0.021383 0.002658 -0.031534 -0.020337 -0.032766 0.029435 0.076967 0.018391 -0.023308 0.012804 0.017130 -0.030278 0.011613 0.018549 -0.009611 0.032591 -0.015883 0.029046 -0.003188 -0.036489 -0.012706 -0.001279 -0.034509 0.081408 0.042888 0.039953 0.047024 -0.009016 -0.018309 0.000575 0.001227 0.018869 -0.027029 0.009061 -0.009399 -0.007771 -0.037538 -0.047896 -0.011794 -0.015408 0.041818 0.044266 0.024219 0.025914 -0.019884 0.027308 -0.008535 -0.074987 -0.124700 -0.010572 -0.026318 0.018121 0.061266 -0.075434 0.024139 -0.089965 0.021449 0.012055 0.088049 -0.079705 -0.024838 -0.055411 0.024704 -0.018522 -0.068779 0.048787 0.081200 0.024851 -0.044812 0.074860 0.070535 0.140959 0.181607 0.321155 0.134428 0.120914 0.208161 -0.008982 -0.427469
0.072396 0.072979 0.074729 0.077645 0.081726 0.086970 0.093377 0.100944 0.109668 0.119544 0.130569 0.142735 0.156035 0.170459 0.185996 0.202633 0.220352 0.239135 0.258959 0.279797 0.301620 0.324392 0.348075 0.372623 0.397986 0.424109 0.450927 0.478372 0.506366 0.534825 0.563656 0.592759 0.622023 0.651331 0.680556 0.709561 0.738199 0.766318 0.793751 0.820328 0.845865 0.870174 0.893058 0.914313 0.933727 0.951087 0.966174 0.978765 0.988637 0.995570 0.999343 0.999740 0.996554 0.989586 0.978647 0.963565 0.944185 0.920370 0.892009 0.859016 0.821337 0.778948 0.731864 0.680137 0.623863 0.563183 0.498286 0.429409 0.356843 0.280932 0.202073 0.120718 0.037374 0.047400 0.132992 0.218744 0.303950 0.387865 0.469711 0.548677 0.623936 0.694645 0.759961 0.819048 0.871089 0.915300 0.950939 0.977324 0.993844 0.999972 0.995282 0.979459 0.952316 0.913800 0.864011 0.803201 0.731792 0.650373 0.559708 0.460734 0.354558 0.242451 0.125836 0.006281 0.114527 0.234795 0.352655 0.466186 0.573452 0.672529 0.761548 0.838729 0.902424 0.951153 0.983648 0.998888 0.996137 0.974974 0.935322 0.877471 0.802091 0.710244 0.603379 0.483325 0.352271 0.212736 0.067531 0.080293 0.227501 0.370745 0.506639 0.631838 0.743128 0.837511 0.912298 0.965193 0.994374 0.998568 0.977113 0.930010 0.857954 0.762350 0.645311 0.509630 0.358732 0.196605 0.027705 0.143153 0.310930 0.470506 0.616845 0.745151 0.851041 0.930706 0.981064 0.999899 0.985975 0.939123 0.860294 0.751582 0.616190 0.458375 0.283332 0.097044 0.093903 0.282549 0.461805 0.624723 0.764776 0.876133 0.953919 0.994458 0.995466 0.956210 0.877599 0.762214 0.614263 0.439469 0.244877 0.038599 0.170508 0.373211 0.560311 0.723060 0.853598 0.945347 0.993375 0.994703 0.948515 0.856285 0.721789 0.551001 0.351875 0.134011 0.091783 0.314008 0.521049 0.701797 0.846259 0.946141 0.995362 0.990470 0.930927 0.819242 0.660934 0.464321 0.240134 0.000968 0.239389 0.466746 0.667356 0.828747 0.940551 0.995202 0.988512 0.920039 0.793244 0.615397 0.397223 0.152323 0.103634 0.353893 0.581694 0.771412 0.909665 0.986298 0.995199 0.934852 0.808587 0.624491 0.394977 0.136014 0.133934 0.395198 0.628326 0.815552 0.942201 0.997886 0.977452 0.881522 0.716620 0.494831 0.233008 0.048453 0.327149 0.580437 0.787299 0.930120 0.996255 0.979246 0.879531 0.704611 0.468603 0.191187 0.103949 0.391092 0.644726 0.841838 0.964056 0.999441 0.943766 0.801110 0.583703 0.311003 0.008044 0.296792 0.574403 0.797771 0.944632 0.999794 0.956816 0.818879 0.598712 0.317564 0.003259 0.312490 0.597237 0.821172 0.960291 0.999076 0.932358 0.766126 0.517163 0.211499 0.118215 0.436099 0.706963 0.900231 0.993484 0.975188 0.846274 0.620334 0.322350 0.013913 0.349658 0.645493 0.866078 0.984431 0.985366 0.867607 0.644263 0.341560 0.004077 0.350306 0.654022 0.876743 0.989590 0.977171 0.839870 0.594146 0.270774 0.088864 0.437963 0.730359 0.926700 0.999849 0.938815 0.750606 0.459658 0.104881 0.265409 0.600004 0.851871 0.984895 0.979193 0.834316 0.569722 0.222399 0.158123 0.516725 0.800677 0.967460 0.991309 0.867396 0.613014 0.265401 0.123490 0.494615 0.790822 0.965688 0.990984 0.861462 0.596156 0.235857 0.162949 0.536788 0.825303 0.981092 0.977678 0.814279 0.516439 0.132333 0.274828 0.637085 0.893098 0.998650 0.934534 0.710327 0.363303 0.047491 0.451104 0.776860 0.966825
1.000000 1.000000 1.000000 1.000000 1.000000 1.000000 1.000000 1.000000 1.000000 1.000000 1.000000 1.000000 1.000000 1.000000 1.000000 1.000000 1.000000 1.000000 1.000000 1.000000 1.000000 1.000000 1.000000 1.000000 1.000000 1.000000 1.000000 1.000000 1.000000 1.000000 1.000000 1.000000 1.000000 1.000000 1.000000 1.000000 1.000000 1.000000 1.000000 1.000000 1.000000 1.000000 1.000000 1.000000 1.000000 1.000000 1.000000 1.000000 1.000000 1.000000 1.000000 1.000000 0.951251 0.951251 0.951251 0.951251 0.951251 0.951251 0.951251 0.951251 0.951251 0.951251 0.951251 0.951251 0.951251 0.951251 0.951251 0.951251 0.951251 0.951251 0.951251 0.951251 0.951251 0.951251 0.951251 0.951251 0.951251 0.951251 0.951251 0.951251 0.951251 0.951251 0.951251 0.951251 0.951251 0.951251 0.951251 0.951251 0.951251 0.951251 0.940987 0.942904 0.943446 0.943012 0.942123 0.943598 0.944150 0.943932 0.944448 0.945192 0.946712 0.949281 0.950305 0.958390 0.967524 0.967188 0.966069 0.966184 0.964956 0.962296 0.960578 0.962256 0.967010 0.967447 0.968069 0.968214 0.967587 0.968324 0.968132 0.967444 0.966562 0.969095 0.967853 0.967822 0.968134 0.969393 0.969755 0.970189 0.970533 0.970635 0.970478 0.969299 0.966097 0.967022 0.970009 0.969109 0.968460 0.968128 0.966754 0.966166 0.966805 0.967456 0.967854 0.967509 0.966209 0.964438 0.959355 0.950719 0.948295 0.949987 0.951103 0.952491 0.950364 0.950608 0.945098 0.943418 0.948520 0.943074 0.944854 0.942905 0.944838 0.945451 0.942006 0.919048 0.902386 0.901394 0.899686 0.902922 0.901876 0.899057 0.892337 0.893602 0.894651 0.899644 0.897038 0.897308 0.895464 0.895783 0.897828 0.900305 0.903691 0.903808 0.899883 0.892805 0.890521 0.890712 0.892658 0.893825 0.895469 0.892426 0.900501 0.899870 0.895332 0.889715 0.891167 0.890087 0.890907 0.885978 0.886540 0.854413 0.841965 0.836751 0.835921 0.833930 0.821916 0.802310 0.803962 0.799288 0.796291 0.795983 0.794225 0.759774 0.704341 0.693333 0.665198 0.657115 0.639840 0.660220 0.672387 0.661744 0.657103 0.616931 0.609460 0.616751 0.618584 0.606432 0.605846 0.599371 0.575921 0.559484 0.552611 0.562231 0.574581 0.581683 0.550586 0.511324 0.474739 0.428298 0.424873 0.407043 0.384755 0.359761 0.358814 0.371063 0.390208 0.386016 0.368895 0.341169 0.365052 0.363497 0.354197 0.329530 0.359456 0.362725 0.345573 0.365132 0.352357 0.360207 0.316428 0.299368 0.263298 0.232792 0.232367 0.233275 0.249511 0.245000 0.268691 0.300347 0.297033 0.323017 0.281163 0.272598 0.277193 0.287787 0.294039 0.274413 0.243238 0.236670 0.247401 0.242849 0.244335 0.235001 0.216768 0.233499 0.252261 0.246599 0.223055 0.225702 0.196304 0.199125 0.212345 0.229684 0.247527 0.267701 0.264479 0.272025 0.223610 0.226285 0.234542 0.190299 0.208641 0.203370 0.202521 0.141377 0.116656 0.125056 0.116356 0.040212 0.041359 0.055436 0.007937 0.031455 0.029769 0.031065 0.082233 0.095995 0.126369 0.133876 0.119698 0.121731 0.098756 0.065759 0.074733 0.059899 0.056432 0.068202 0.073016 0.063686 0.042777 0.054461 0.058480 0.049895 0.088075 0.076180 0.021885 0.024406 0.024406 0.024406 0.024406 0.024406 0.043203 0.043203 0.043203 0.043203 0.043203 0.043203 0.043203 0.043203 0.012586 0.012586 0.012586 0.012586 0.012586 0.012586 0.012586 0.012586 0.012586 0.012586 0.012586 0.012586 0.012586 0.012586 0.012586
0.000000 0.000000 0.000000 0.000000 0.000000 0.000000 0.000000 0.000000 0.000000 0.000000 0.000000 0.000000 0.000000 0.000000 0.000000 0.000000 0.000000 0.000000 0.000000 0.000000 0.000000 9401.000000 0.000000 0.000000 0.000000 0.000000 0.000000 0.000000 0.000000 0.000000 0.000000 0.000000 0.000000 0.000000 0.000000 0.000000 0.000000 0.000000 0.000000 0.000000 0.000000 0.000000 0.000000 0.000000 0.000000 0.000000 0.000000 0.000000 0.000000 0.000000 0.000000 0.000000 0.203069 0.203069 0.203069 0.203069 0.203069 0.203069 0.203069 0.203069 0.203069 0.203069 0.203069 0.203069 0.203069 0.203069 0.203069 0.203069 0.203069 0.203069 0.203069 0.203069 0.203069 0.203069 0.203069 0.203069 0.203069 0.203069 0.203069 0.203069 0.203069 0.203069 0.203069 0.203069 0.203069 0.203069 0.203069 0.203069 0.203069 0.203069 0.237356 0.237356 0.237356 0.237356 0.237356 0.237356 0.237356 0.237356 0.237356 0.237356 0.237356 0.237356 0.237356 0.237356 0.237356 0.237356 0.237356 0.237356 0.237356 0.237356 0.237356 0.237356 0.237356 0.237356 0.237356 0.237356 0.256074 0.256074 0.256074 0.256074 0.256074 0.256074 0.256074 0.256074 0.256074 0.256074 0.256074 0.256074 0.256074 0.256074 0.256074 0.256074 0.256074 0.256074 0.256074 0.256074 0.256074 0.256074 0.256074 0.256074 0.256074 0.256074 0.256074 0.256074 0.256074 0.256074 0.256074 0.256074 0.256074 0.256074 0.256074 0.256074 0.256074 0.256074 0.256074 0.256074 0.269680 0.269680 0.269680 0.269680 0.269680 0.269680 0.269680 0.269680 0.269680 0.269680 0.269680 0.269680 0.269680 0.269680 0.269680 0.269680 0.269680 0.269680 0.269680 0.269680 0.269680 0.269680 0.269680 0.269680 0.269680 0.269680 0.269680 0.269680 0.269680 0.269680 0.269680 0.269680 0.269680 0.269680 0.269680 0.269680 0.269680 0.269680 0.269680 0.269680 0.269680 0.269680 0.269680 0.269680 0.269680 0.274721 0.274721 0.274721 0.274721 0.274721 0.274721 0.274721 0.274721 0.274721 0.274721 0.274721 0.274721 0.274721 0.274721 0.274721 0.274721 0.274721 0.274721 0.274721 0.274721 0.274721 0.274721 0.274721 0.274721 0.274721 0.269680 0.269680 0.269680 0.269680 0.269680 0.269680 0.269680 0.269680 0.269680 0.269680 0.269680 0.269680 0.274721 0.274721 0.274721 0.274721 0.274721 0.274721 0.274721 0.274721 0.274721 0.274721 0.274721 0.280056 0.280056 0.280056 0.280056 0.280056 0.280056 0.280056 0.280056 0.280056 0.280056 0.264906 0.264906 0.264906 0.264906 0.264906 0.264906 0.264906 0.264906 0.264906 0.264906 0.264906 0.280056 0.280056 0.280056 0.280056 0.280056 0.280056 0.280056 0.280056 0.280056 0.264906 0.264906 0.264906 0.264906 0.264906 0.264906 0.264906 0.264906 0.264906 0.264906 0.269680 0.269680 0.269680 0.269680 0.269680 0.269680 0.269680 0.269680 0.269680 0.264906 0.264906 0.264906 0.264906 0.264906 0.264906 0.264906 0.264906 0.264906 0.260378 0.260378 0.260378 0.260378 0.260378 0.260378 0.260378 0.260378 0.260378 0.269680 0.269680 0.269680 0.269680 0.269680 0.269680 0.269680 0.269680 0.269680 0.269680 0.269680 0.269680 0.269680 0.269680 0.269680 0.269680 0.264906 0.264906 0.264906 0.264906 0.264906 0.264906 0.264906 0.264906 0.260378 0.260378 0.260378 0.260378 0.260378 0.260378 0.260378 0.260378 0.256074 0.256074 0.256074 0.256074 0.256074 0.256074 0.256074 0.256074 0.256074 0.256074 0.256074 0.256074 0.256074 0.256074 0.256074
