# Output from CTFFind version 4.1.9, run on 2019-11-03 18:51:53
# Input file: stack10_ub_averaged_1500.mrc ; Number of micrographs: 1
# Pixel size: 3.000 Angstroms ; acceleration voltage: 300.0 keV ; spherical aberration: 0.00 mm ; amplitude contrast: 0.07
# Box size: 512 pixels ; min. res.: 30.0 Angstroms ; max. res.: 5.0 Angstroms ; min. def.: 5000.0 um; max. def. 50000.0 um; num. frames averaged: 1
# 6 lines per micrograph: #1 - spatial frequency (1/Angstroms); #2 - 1D rotational average of spectrum (assuming no astigmatism); #3 - 1D rotational average of spectrum; #4 - CTF fit; #5 - cross-correlation between spectrum and CTF fit; #6 - 2sigma of expected cross correlation of noise
0.000000 0.000651 0.001302 0.001953 0.002604 0.003255 0.003906 0.004557 0.005208 0.005859 0.006510 0.007161 0.007812 0.008464 0.009115 0.009766 0.010417 0.011068 0.011719 0.012370 0.013021 0.013672 0.014323 0.014974 0.015625 0.016276 0.016927 0.017578 0.018229 0.018880 0.019531 0.020182 0.020833 0.021484 0.022135 0.022786 0.023438 0.024089 0.024740 0.025391 0.026042 0.026693 0.027344 0.027995 0.028646 0.029297 0.029948 0.030599 0.031250 0.031901 0.032552 0.033203 0.033854 0.034505 0.035156 0.035807 0.036458 0.037109 0.037760 0.038411 0.039062 0.039714 0.040365 0.041016 0.041667 0.042318 0.042969 0.043620 0.044271 0.044922 0.045573 0.046224 0.046875 0.047526 0.048177 0.048828 0.049479 0.050130 0.050781 0.051432 0.052083 0.052734 0.053385 0.054036 0.054688 0.055339 0.055990 0.056641 0.057292 0.057943 0.058594 0.059245 0.059896 0.060547 0.061198 0.061849 0.062500 0.063151 0.063802 0.064453 0.065104 0.065755 0.066406 0.067057 0.067708 0.068359 0.069010 0.069661 0.070312 0.070964 0.071615 0.072266 0.072917 0.073568 0.074219 0.074870 0.075521 0.076172 0.076823 0.077474 0.078125 0.078776 0.079427 0.080078 0.080729 0.081380 0.082031 0.082682 0.083333 0.083984 0.084635 0.085286 0.085938 0.086589 0.087240 0.087891 0.088542 0.089193 0.089844 0.090495 0.091146 0.091797 0.092448 0.093099 0.093750 0.094401 0.095052 0.095703 0.096354 0.097005 0.097656 0.098307 0.098958 0.099609 0.100260 0.100911 0.101562 0.102214 0.102865 0.103516 0.104167 0.104818 0.105469 0.106120 0.106771 0.107422 0.108073 0.108724 0.109375 0.110026 0.110677 0.111328 0.111979 0.112630 0.113281 0.113932 0.114583 0.115234 0.115885 0.116536 0.117188 0.117839 0.118490 0.119141 0.119792 0.120443 0.121094 0.121745 0.122396 0.123047 0.123698 0.124349 0.125000 0.125651 0.126302 0.126953 0.127604 0.128255 0.128906 0.129557 0.130208 0.130859 0.131510 0.132161 0.132812 0.133464 0.134115 0.134766 0.135417 0.136068 0.136719 0.137370 0.138021 0.138672 0.139323 0.139974 0.140625 0.141276 0.141927 0.142578 0.143229 0.143880 0.144531 0.145182 0.145833 0.146484 0.147135 0.147786 0.148438 0.149089 0.149740 0.150391 0.151042 0.151693 0.152344 0.152995 0.153646 0.154297 0.154948 0.155599 0.156250 0.156901 0.157552 0.158203 0.158854 0.159505 0.160156 0.160807 0.161458 0.162109 0.162760 0.163411 0.164062 0.164714 0.165365 0.166016 0.166667 0.167318 0.167969 0.168620 0.169271 0.169922 0.170573 0.171224 0.171875 0.172526 0.173177 0.173828 0.174479 0.175130 0.175781 0.176432 0.177083 0.177734 0.178385 0.179036 0.179688 0.180339 0.180990 0.181641 0.182292 0.182943 0.183594 0.184245 0.184896 0.185547 0.186198 0.186849 0.187500 0.188151 0.188802 0.189453 0.190104 0.190755 0.191406 0.192057 0.192708 0.193359 0.194010 0.194661 0.195312 0.195964 0.196615 0.197266 0.197917 0.198568 0.199219 0.199870 0.200521 0.201172 0.201823 0.202474 0.203125 0.203776 0.204427 0.205078 0.205729 0.206380 0.207031 0.207682 0.208333 0.208984 0.209635 0.210286 0.210938 0.211589 0.212240 0.212891 0.213542 0.214193 0.214844 0.215495 0.216146 0.216797 0.217448 0.218099 0.218750 0.219401 0.220052 0.220703 0.221354 0.222005 0.222656 0.223307 0.223958 0.224609 0.225260 0.225911 0.226562 0.227214 0.227865 0.228516 0.229167 0.229818 0.230469 0.231120 0.231771 0.232422 0.233073 0.233724 0.234375 0.235026 0.235677
       0.33947        0.33947        0.33947        0.33947        0.33947        0.33947        0.33947        0.33947        0.33947        0.33947        0.33947        0.33947        0.33947        0.33947        0.33947        0.33947        0.33947        0.33947        0.33947        0.33947        0.33947        0.33947        0.33947        0.33947        0.33947        0.33947        0.33947        0.33947        0.33947        0.33947        0.33947        0.33947        0.33947        0.33947        0.33947        0.33947        0.33947        0.33947        0.33947        0.33947        0.33947        0.33947        0.33947        0.33947        0.33947        0.33947        0.33947        0.33947        0.33947        0.33947        0.33947        0.60458        0.75264        0.12973       -0.35027       -0.56594       -0.62403       -0.71511       -0.79101       -0.78990       -0.77601       -0.75982       -0.75707       -0.91088       -1.05885       -1.07348       -1.05750       -1.05932       -1.06785       -0.88739       -0.83947       -0.74210       -0.61336       -0.57817       -0.32653       -0.31405       -0.11909       -0.01533        0.06571        0.18022        0.25344        0.39372        0.37408        0.63816        0.63333        0.68444        0.61748        0.58940        0.55273        0.52415        0.51804        0.39891        0.21983        0.19842        0.11525        0.02204       -0.06160       -0.07751       -0.02685       -0.01915        0.07372        0.12145        0.15164        0.20648        0.39183        0.45487        0.56057        0.53065        0.63649        0.74962        0.65074        0.65935        0.60516        0.50617        0.46850        0.30164        0.24485        0.11963        0.03427        0.00653       -0.04572       -0.02578        0.13128        0.17651        0.33018        0.38424        0.44404        0.66361        0.65606        0.67505        0.65260        0.65577        0.64193        0.60415        0.37731        0.24723        0.16217        0.13237        0.05804        0.07479        0.08429        0.23430        0.27287        0.35157        0.50304        0.57664        0.58477        0.59513        0.61102        0.56965        0.40848        0.36135        0.28704        0.19451        0.17083        0.15236        0.18971        0.21039        0.28762        0.41618        0.41424        0.52431        0.56359        0.53141        0.46605        0.43556        0.35111        0.25891        0.18979        0.15035        0.14652        0.21467        0.28819        0.35736        0.42199        0.42776        0.59481        0.57869        0.47688        0.41083        0.34059        0.28123        0.28066        0.23544        0.23804        0.25447        0.30450        0.29949        0.39242        0.48627        0.47186        0.45175        0.40514        0.37120        0.30284        0.27646        0.26908        0.27439        0.28653        0.35291        0.40989        0.42558        0.41418        0.44151        0.36508        0.34280        0.30545        0.25917        0.26478        0.29395        0.33621        0.34813        0.36965        0.41545        0.42463        0.39329        0.34078        0.30259        0.27660        0.29725        0.32020        0.33519        0.35224        0.40939        0.36894        0.37070        0.34532        0.33296        0.30328        0.25588        0.27715        0.28432        0.31323        0.37029        0.37363        0.38136        0.39015        0.36243        0.30238        0.32627        0.28706        0.28079        0.31179        0.34571        0.33411        0.33220        0.32840        0.34488        0.30604        0.30649        0.30156        0.29329        0.31502        0.31470        0.34667        0.31709        0.29870        0.29721        0.29656        0.30083        0.28642        0.30756        0.31377        0.31712        0.35028        0.33641        0.31165        0.30576        0.31654        0.29532        0.32717        0.33495        0.35792        0.39965        0.34193        0.32947        0.32729        0.30061        0.27461        0.28547        0.32939        0.32485        0.34851        0.34309        0.28950        0.30277        0.27586        0.28250        0.29720        0.30864        0.31731        0.34091        0.30114        0.30253        0.30968        0.27772        0.31846        0.30771        0.30844        0.34293        0.35095        0.32250        0.27874        0.22919        0.25620        0.31921        0.33422        0.34372        0.36229        0.33227        0.29905        0.28395        0.30393        0.31898        0.32280        0.30587        0.34741        0.30345        0.28962        0.28382        0.31866        0.29121        0.29991        0.25648        0.28982        0.33736        0.24513        0.27948        0.29838        0.31135        0.33710        0.27292        0.28450        0.29082        0.28266        0.34207        0.31953        0.28544        0.17682        0.20809        0.19665        0.26146        0.29241        0.26958        0.30381        0.42516        0.28443        0.18435        0.22575        0.34435        0.19692        0.20619        0.23379        0.25099        0.19079        0.12833        0.23698        0.23250        0.22941        0.14349        0.08434       -0.46066       -0.44781
2.895467 2.860182 2.825123 2.790288 2.755678 2.721293 2.687133 2.653198 2.619488 2.586003 2.552742 2.519707 2.486896 2.454311 2.421950 2.389814 2.357903 2.326217 2.294756 2.263520 2.232509 2.201722 2.171161 2.140824 2.110712 2.080826 2.051164 2.021727 1.992515 1.963527 1.934765 1.906228 1.877915 1.849828 1.821965 1.794327 1.766914 1.739726 1.712763 1.686025 1.659512 1.633224 1.607160 1.581322 1.555708 1.530319 1.505156 1.480217 1.455503 1.431014 1.406749 1.529222 1.835050 1.134655 0.802232 0.484761 0.433816 0.390280 0.240671 0.216690 0.187881 0.218494 0.177964 0.100426 -0.091118 -0.135202 -0.157654 -0.141113 -0.254050 -0.089304 -0.040250 0.010729 0.082950 0.078233 0.314118 0.312881 0.392939 0.570668 0.504996 0.704324 0.631053 0.837536 0.752116 0.964203 0.955494 0.983270 0.885912 0.942615 0.811511 0.798326 0.784564 0.696436 0.514497 0.457519 0.355901 0.317764 0.216293 0.144037 0.205923 0.165811 0.254840 0.240932 0.316731 0.281175 0.431226 0.523245 0.551366 0.568213 0.600391 0.720158 0.625279 0.647218 0.633379 0.430536 0.484447 0.278852 0.277135 0.099177 0.070465 0.009208 -0.051024 -0.092469 0.034480 0.069765 0.175702 0.278880 0.258598 0.428405 0.509028 0.487626 0.456520 0.512954 0.461886 0.490030 0.255487 0.165693 0.035907 0.006966 -0.034564 -0.090397 -0.035300 0.008258 0.089064 0.128270 0.236552 0.347230 0.340655 0.484282 0.441710 0.468011 0.340949 0.239752 0.175738 0.148789 0.058330 0.040852 0.088087 0.080695 0.109618 0.238172 0.244502 0.298521 0.378904 0.347985 0.284150 0.238402 0.227897 0.116080 0.053604 -0.012072 -0.036351 0.026716 0.059575 0.117298 0.213085 0.186719 0.307397 0.336555 0.302899 0.174779 0.182202 0.081810 0.051524 0.070332 0.016525 0.030980 0.051419 0.069271 0.077865 0.198232 0.240897 0.199719 0.134386 0.158532 0.051756 0.059052 0.014413 0.008993 0.033483 0.057004 0.112635 0.155552 0.114179 0.135143 0.150096 0.041723 0.065151 0.013355 -0.031576 -0.014546 0.061114 0.051852 0.062506 0.095976 0.117372 0.138718 0.061853 0.069817 0.016792 -0.011535 0.051624 0.057005 0.048481 0.079310 0.115361 0.088778 0.080333 0.044887 0.037366 0.027766 -0.042555 0.019559 0.007623 0.043340 0.069179 0.102667 0.071846 0.096682 0.034165 0.019542 0.018383 -0.005629 -0.002515 0.022092 0.051490 0.028012 0.023649 0.055785 0.040381 -0.000625 0.020674 -0.009981 0.013815 0.006980 0.021562 0.030374 0.000769 0.001588 -0.022561 -0.020566 -0.003212 -0.019284 -0.014120 -0.001397 0.003586 0.045380 0.007376 -0.005449 -0.003008 0.002327 -0.008264 0.016459 0.011840 0.057393 0.081688 -0.014885 0.015377 0.021253 -0.019127 -0.031651 -0.004172 0.012388 0.019607 0.048305 0.017334 -0.010070 0.019830 -0.035229 -0.023389 0.002705 0.009487 0.036997 0.032451 -0.000112 0.012890 0.004554 0.001722 0.012519 0.012473 0.054738 0.057495 0.046474 0.032117 -0.014840 -0.056567 -0.018372 0.035787 0.012514 0.059523 0.052873 0.025335 -0.005412 -0.020628 0.023146 0.006841 -0.004975 -0.015241 0.021137 -0.008567 -0.036689 -0.031444 0.003407 -0.022680 -0.016825 -0.090101 -0.004701 0.041349 -0.091030 -0.053253 -0.013918 0.046235 0.001278 -0.036744 -0.004721 -0.011793 -0.026936 0.054329 0.008968 -0.024331 -0.113747 -0.048677 -0.075778 -0.026658 0.027255 -0.080078 0.066886 0.154080 0.006057 -0.046286 -0.017811 0.039601 -0.065654 0.020066 0.006212 0.043257 -0.021985 -0.023607 0.064966 0.183190 0.245727 0.031103 0.080616 -0.384112
0.072396 0.073044 0.074989 0.078229 0.082764 0.088591 0.095710 0.104117 0.113808 0.124777 0.137020 0.150526 0.165287 0.181289 0.198517 0.216954 0.236576 0.257359 0.279271 0.302279 0.326340 0.351410 0.377433 0.404352 0.432097 0.460593 0.489755 0.519491 0.549696 0.580259 0.611054 0.641949 0.672797 0.703441 0.733715 0.763437 0.792418 0.820455 0.847337 0.872842 0.896737 0.918782 0.938730 0.956328 0.971318 0.983440 0.992433 0.998038 1.000000 0.998070 0.992013 0.981602 0.966631 0.946913 0.922285 0.892614 0.857797 0.817771 0.772511 0.722039 0.666425 0.605793 0.540324 0.470256 0.395893 0.317603 0.235818 0.151040 0.063837 0.025157 0.115242 0.205660 0.295594 0.384177 0.470499 0.553611 0.632544 0.706310 0.773921 0.834403 0.886805 0.930225 0.963815 0.986810 0.998539 0.998445 0.986102 0.961234 0.923730 0.873658 0.811277 0.737052 0.651652 0.555966 0.451093 0.338341 0.219223 0.095436 0.031148 0.158517 0.284537 0.406992 0.523619 0.632152 0.730369 0.816139 0.887472 0.942577 0.979908 0.998215 0.996593 0.974525 0.931916 0.869123 0.786977 0.686788 0.570347 0.439908 0.298160 0.148183 0.006600 0.162509 0.315671 0.462131 0.597939 0.719275 0.822555 0.904549 0.962495 0.994204 0.998163 0.973610 0.920602 0.840057 0.733773 0.604413 0.455469 0.291189 0.116476 0.063247 0.242186 0.414366 0.573830 0.714846 0.832127 0.921047 0.977841 0.999790 0.985373 0.934382 0.847996 0.728798 0.580740 0.409048 0.220068 0.021056 0.180081 0.375091 0.555715 0.714038 0.842859 0.936039 0.988820 0.998106 0.962674 0.883316 0.762886 0.606253 0.420154 0.212947 0.005734 0.225404 0.435220 0.624512 0.783346 0.903065 0.976802 0.999907 0.970300 0.888674 0.758573 0.586311 0.380721 0.152753 0.085067 0.319302 0.536356 0.723277 0.868544 0.962827 0.999630 0.975804 0.891864 0.752090 0.564400 0.339972 0.092632 0.161939 0.407190 0.626766 0.805616 0.931070 0.993786 0.988519 0.914633 0.776302 0.582386 0.345940 0.083426 0.186400 0.443783 0.669424 0.845954 0.959316 0.999962 0.963742 0.852406 0.673661 0.440751 0.171564 0.112660 0.388973 0.634555 0.828628 0.954258 0.999930 0.960695 0.838801 0.643729 0.391577 0.103844 0.194341 0.476352 0.716461 0.892216 0.986623 0.989883 0.900543 0.725875 0.481433 0.189816 0.121340 0.421910 0.682200 0.875891 0.982807 0.991114 0.898779 0.714046 0.454892 0.147397 0.176741 0.483446 0.739818 0.917724 0.996985 0.967805 0.832135 0.603779 0.307175 0.025085 0.355734 0.646973 0.864835 0.983218 0.987172 0.874955 0.658582 0.362756 0.022211 0.322243 0.628565 0.858643 0.983125 0.985324 0.863641 0.632162 0.319243 0.035768 0.387375 0.689712 0.902569 0.996866 0.958808 0.792117 0.517957 0.172489 0.197738 0.541951 0.812113 0.969718 0.991447 0.872848 0.629416 0.294849 0.083411 0.450757 0.753270 0.945695 0.998380 0.902076 0.669808 0.335416 0.051134 0.431054 0.745621 0.945318 0.997811 0.893425 0.647205 0.297054 0.101820 0.485469 0.791405 0.968865 0.987447 0.842592 0.556925 0.177036 0.233842 0.606241 0.876204 0.996392 0.944661 0.728451 0.384124 0.028840 0.437885 0.770064 0.965131 0.986672 0.829240 0.519995 0.114397 0.313479 0.684307 0.928279 0.998413 0.879940 0.593775 0.193220 0.245615 0.638121 0.907483 0.999916 0.895719 0.613860 0.208995 0.238821 0.639730 0.912128 0.999447 0.882263 0.583033 0.162233 0.293455 0.688875 0.940239 0.993136 0.834689 0.497112 0.051654 0.406139
1.000000 1.000000 1.000000 1.000000 1.000000 1.000000 1.000000 1.000000 1.000000 1.000000 1.000000 1.000000 1.000000 1.000000 1.000000 1.000000 1.000000 1.000000 1.000000 1.000000 1.000000 1.000000 1.000000 1.000000 1.000000 1.000000 1.000000 1.000000 1.000000 1.000000 1.000000 1.000000 1.000000 1.000000 1.000000 1.000000 1.000000 1.000000 1.000000 1.000000 1.000000 1.000000 1.000000 1.000000 1.000000 1.000000 1.000000 1.000000 1.000000 1.000000 1.000000 1.000000 0.961078 0.961078 0.961078 0.961078 0.961078 0.961078 0.961078 0.961078 0.961078 0.961078 0.961078 0.961078 0.961078 0.961078 0.961078 0.961078 0.961078 0.961078 0.961078 0.961078 0.961078 0.961078 0.961078 0.961078 0.961078 0.961078 0.961078 0.961078 0.961078 0.961078 0.961078 0.961078 0.961078 0.952313 0.953253 0.955229 0.955855 0.955714 0.955245 0.954820 0.955117 0.957111 0.959992 0.961913 0.963885 0.961720 0.964116 0.965910 0.965873 0.966166 0.964568 0.972655 0.971824 0.972037 0.972929 0.973344 0.973508 0.973592 0.973771 0.974214 0.973953 0.973364 0.972807 0.972317 0.972105 0.971843 0.974061 0.974027 0.974812 0.975022 0.975083 0.975063 0.975121 0.975473 0.976962 0.971551 0.971805 0.970205 0.972320 0.973575 0.974272 0.974611 0.975044 0.975241 0.973101 0.969702 0.968484 0.964429 0.961322 0.960851 0.963940 0.964925 0.964999 0.963453 0.963023 0.957329 0.957135 0.957082 0.951673 0.955158 0.956096 0.956342 0.942540 0.937401 0.928080 0.924313 0.924823 0.931031 0.929753 0.921598 0.905582 0.880653 0.875767 0.872725 0.871549 0.865408 0.866464 0.863074 0.865413 0.870684 0.873256 0.869983 0.860785 0.855872 0.855731 0.863608 0.858152 0.857803 0.860431 0.866784 0.868886 0.858923 0.873180 0.870617 0.877030 0.883539 0.886131 0.883144 0.881600 0.878223 0.875473 0.874065 0.870905 0.872800 0.846162 0.837723 0.837666 0.838449 0.841209 0.841093 0.840273 0.833977 0.837459 0.814572 0.819025 0.818969 0.826087 0.829143 0.827700 0.818582 0.809344 0.814008 0.829525 0.855944 0.859782 0.853468 0.851721 0.849629 0.850202 0.836391 0.826972 0.814708 0.812820 0.803496 0.807341 0.814453 0.809569 0.793627 0.792655 0.800090 0.780450 0.760383 0.731980 0.746261 0.730391 0.724924 0.722355 0.693621 0.694766 0.669982 0.658461 0.664710 0.664355 0.657998 0.650267 0.674011 0.688258 0.667239 0.665392 0.649826 0.647319 0.641668 0.632295 0.626042 0.621078 0.647945 0.657431 0.660617 0.657513 0.604693 0.609301 0.601530 0.602119 0.609850 0.613137 0.602804 0.583237 0.587377 0.592829 0.586023 0.587799 0.603055 0.599722 0.561340 0.550204 0.550920 0.565345 0.554917 0.546592 0.557087 0.547256 0.549873 0.546482 0.520382 0.546139 0.539972 0.543984 0.537571 0.553543 0.524876 0.495441 0.523584 0.528567 0.525310 0.514777 0.501491 0.485623 0.384951 0.399030 0.379826 0.350333 0.388759 0.387063 0.392903 0.371838 0.366853 0.362298 0.385738 0.390231 0.373456 0.367366 0.366285 0.401445 0.398677 0.337488 0.339290 0.329879 0.342683 0.339741 0.324893 0.347469 0.297306 0.318548 0.272408 0.255919 0.236420 0.202681 0.241879 0.220236 0.204318 0.184907 0.194862 0.211741 0.234698 0.232292 0.240452 0.240452 0.240452 0.240452 0.240452 0.240452 0.240452 0.240452 0.240452 0.240452 0.240452 0.240452 0.240452 0.240452 0.245149 0.245149 0.245149 0.245149 0.245149 0.245149 0.245149 0.245149 0.245149 0.245149 0.245149 0.245149
0.000000 0.000000 0.000000 0.000000 0.000000 0.000000 0.000000 0.000000 0.000000 0.000000 0.000000 0.000000 0.000000 0.000000 0.000000 0.000000 0.000000 0.000000 0.000000 0.000000 0.000000 0.000000 0.000000 0.000000 0.000000 0.000000 0.000000 0.000000 0.000000 0.000000 0.000000 0.000000 0.000000 0.000000 0.000000 0.000000 0.000000 0.000000 0.000000 0.000000 0.000000 0.000000 0.000000 0.000000 0.000000 0.000000 0.000000 0.000000 0.000000 0.000000 0.000000 0.000000 0.212000 0.212000 0.212000 0.212000 0.212000 0.212000 0.212000 0.212000 0.212000 0.212000 0.212000 0.212000 0.212000 0.212000 0.212000 0.212000 0.212000 0.212000 0.212000 0.212000 0.212000 0.212000 0.212000 0.212000 0.212000 0.212000 0.212000 0.212000 0.212000 0.212000 0.212000 0.212000 0.212000 0.244339 0.244339 0.244339 0.244339 0.244339 0.244339 0.244339 0.244339 0.244339 0.244339 0.244339 0.244339 0.244339 0.244339 0.244339 0.244339 0.244339 0.244339 0.244339 0.244339 0.244339 0.244339 0.244339 0.244339 0.244339 0.260378 0.260378 0.260378 0.260378 0.260378 0.260378 0.260378 0.260378 0.260378 0.260378 0.260378 0.260378 0.260378 0.260378 0.260378 0.260378 0.260378 0.260378 0.260378 0.260378 0.264906 0.264906 0.264906 0.264906 0.264906 0.264906 0.264906 0.264906 0.264906 0.264906 0.264906 0.264906 0.264906 0.264906 0.264906 0.264906 0.264906 0.264906 0.280056 0.280056 0.280056 0.280056 0.280056 0.280056 0.280056 0.280056 0.280056 0.280056 0.280056 0.280056 0.280056 0.280056 0.280056 0.280056 0.280056 0.280056 0.280056 0.280056 0.280056 0.280056 0.280056 0.280056 0.280056 0.280056 0.280056 0.280056 0.280056 0.269680 0.269680 0.269680 0.269680 0.269680 0.269680 0.269680 0.269680 0.269680 0.269680 0.269680 0.269680 0.269680 0.269680 0.285714 0.285714 0.285714 0.285714 0.285714 0.285714 0.285714 0.285714 0.285714 0.285714 0.285714 0.285714 0.274721 0.274721 0.274721 0.274721 0.274721 0.274721 0.274721 0.274721 0.274721 0.274721 0.274721 0.274721 0.280056 0.280056 0.280056 0.280056 0.280056 0.280056 0.280056 0.280056 0.280056 0.280056 0.280056 0.285714 0.285714 0.285714 0.285714 0.285714 0.285714 0.285714 0.285714 0.285714 0.285714 0.280056 0.280056 0.280056 0.280056 0.280056 0.280056 0.280056 0.280056 0.280056 0.280056 0.274721 0.274721 0.274721 0.274721 0.274721 0.274721 0.274721 0.274721 0.274721 0.274721 0.280056 0.280056 0.280056 0.280056 0.280056 0.280056 0.280056 0.280056 0.280056 0.274721 0.274721 0.274721 0.274721 0.274721 0.274721 0.274721 0.274721 0.274721 0.269680 0.269680 0.269680 0.269680 0.269680 0.269680 0.269680 0.269680 0.269680 0.280056 0.280056 0.280056 0.280056 0.280056 0.280056 0.280056 0.280056 0.274721 0.274721 0.274721 0.274721 0.274721 0.274721 0.274721 0.274721 0.269680 0.269680 0.269680 0.269680 0.269680 0.269680 0.269680 0.269680 0.269680 0.269680 0.269680 0.269680 0.269680 0.269680 0.269680 0.269680 0.264906 0.264906 0.264906 0.264906 0.264906 0.264906 0.264906 0.264906 0.274721 0.274721 0.274721 0.274721 0.274721 0.274721 0.274721 0.269680 0.269680 0.269680 0.269680 0.269680 0.269680 0.269680 0.264906 0.264906 0.264906 0.264906 0.264906 0.264906 0.264906 0.264906 0.264906 0.264906 0.264906 0.264906 0.264906 0.264906 0.260378 0.260378 0.260378 0.260378 0.260378 0.260378 0.260378 0.260378 0.260378 0.260378 0.260378 0.260378
