# Output from CTFFind version 4.1.9, run on 2019-11-03 18:51:08
# Input file: stack9_ub_averaged_50.mrc ; Number of micrographs: 1
# Pixel size: 3.000 Angstroms ; acceleration voltage: 300.0 keV ; spherical aberration: 0.00 mm ; amplitude contrast: 0.07
# Box size: 512 pixels ; min. res.: 30.0 Angstroms ; max. res.: 5.0 Angstroms ; min. def.: 5000.0 um; max. def. 50000.0 um; num. frames averaged: 1
# 6 lines per micrograph: #1 - spatial frequency (1/Angstroms); #2 - 1D rotational average of spectrum (assuming no astigmatism); #3 - 1D rotational average of spectrum; #4 - CTF fit; #5 - cross-correlation between spectrum and CTF fit; #6 - 2sigma of expected cross correlation of noise
0.000000 0.000651 0.001302 0.001953 0.002604 0.003255 0.003906 0.004557 0.005208 0.005859 0.006510 0.007161 0.007812 0.008464 0.009115 0.009766 0.010417 0.011068 0.011719 0.012370 0.013021 0.013672 0.014323 0.014974 0.015625 0.016276 0.016927 0.017578 0.018229 0.018880 0.019531 0.020182 0.020833 0.021484 0.022135 0.022786 0.023438 0.024089 0.024740 0.025391 0.026042 0.026693 0.027344 0.027995 0.028646 0.029297 0.029948 0.030599 0.031250 0.031901 0.032552 0.033203 0.033854 0.034505 0.035156 0.035807 0.036458 0.037109 0.037760 0.038411 0.039062 0.039714 0.040365 0.041016 0.041667 0.042318 0.042969 0.043620 0.044271 0.044922 0.045573 0.046224 0.046875 0.047526 0.048177 0.048828 0.049479 0.050130 0.050781 0.051432 0.052083 0.052734 0.053385 0.054036 0.054688 0.055339 0.055990 0.056641 0.057292 0.057943 0.058594 0.059245 0.059896 0.060547 0.061198 0.061849 0.062500 0.063151 0.063802 0.064453 0.065104 0.065755 0.066406 0.067057 0.067708 0.068359 0.069010 0.069661 0.070312 0.070964 0.071615 0.072266 0.072917 0.073568 0.074219 0.074870 0.075521 0.076172 0.076823 0.077474 0.078125 0.078776 0.079427 0.080078 0.080729 0.081380 0.082031 0.082682 0.083333 0.083984 0.084635 0.085286 0.085938 0.086589 0.087240 0.087891 0.088542 0.089193 0.089844 0.090495 0.091146 0.091797 0.092448 0.093099 0.093750 0.094401 0.095052 0.095703 0.096354 0.097005 0.097656 0.098307 0.098958 0.099609 0.100260 0.100911 0.101562 0.102214 0.102865 0.103516 0.104167 0.104818 0.105469 0.106120 0.106771 0.107422 0.108073 0.108724 0.109375 0.110026 0.110677 0.111328 0.111979 0.112630 0.113281 0.113932 0.114583 0.115234 0.115885 0.116536 0.117188 0.117839 0.118490 0.119141 0.119792 0.120443 0.121094 0.121745 0.122396 0.123047 0.123698 0.124349 0.125000 0.125651 0.126302 0.126953 0.127604 0.128255 0.128906 0.129557 0.130208 0.130859 0.131510 0.132161 0.132812 0.133464 0.134115 0.134766 0.135417 0.136068 0.136719 0.137370 0.138021 0.138672 0.139323 0.139974 0.140625 0.141276 0.141927 0.142578 0.143229 0.143880 0.144531 0.145182 0.145833 0.146484 0.147135 0.147786 0.148438 0.149089 0.149740 0.150391 0.151042 0.151693 0.152344 0.152995 0.153646 0.154297 0.154948 0.155599 0.156250 0.156901 0.157552 0.158203 0.158854 0.159505 0.160156 0.160807 0.161458 0.162109 0.162760 0.163411 0.164062 0.164714 0.165365 0.166016 0.166667 0.167318 0.167969 0.168620 0.169271 0.169922 0.170573 0.171224 0.171875 0.172526 0.173177 0.173828 0.174479 0.175130 0.175781 0.176432 0.177083 0.177734 0.178385 0.179036 0.179688 0.180339 0.180990 0.181641 0.182292 0.182943 0.183594 0.184245 0.184896 0.185547 0.186198 0.186849 0.187500 0.188151 0.188802 0.189453 0.190104 0.190755 0.191406 0.192057 0.192708 0.193359 0.194010 0.194661 0.195312 0.195964 0.196615 0.197266 0.197917 0.198568 0.199219 0.199870 0.200521 0.201172 0.201823 0.202474 0.203125 0.203776 0.204427 0.205078 0.205729 0.206380 0.207031 0.207682 0.208333 0.208984 0.209635 0.210286 0.210938 0.211589 0.212240 0.212891 0.213542 0.214193 0.214844 0.215495 0.216146 0.216797 0.217448 0.218099 0.218750 0.219401 0.220052 0.220703 0.221354 0.222005 0.222656 0.223307 0.223958 0.224609 0.225260 0.225911 0.226562 0.227214 0.227865 0.228516 0.229167 0.229818 0.230469 0.231120 0.231771 0.232422 0.233073 0.233724 0.234375 0.235026 0.235677
       0.32755        0.32755        0.32755        0.32755        0.32755        0.32755        0.32755        0.32755        0.32755        0.32755        0.32755        0.32755        0.32755        0.32755        0.32755        0.32755        0.32755        0.32755        0.32755        0.32755        0.32755        0.32755        0.32755        0.32755        0.32755        0.32755        0.32755        0.32755        0.32755        0.32755        0.32755        0.32755        0.32755        0.32755        0.32755        0.32755        0.32755        0.32755        0.32755        0.32755        0.32755        0.32755        0.32755        0.32755        0.32755        0.32755        0.32755        0.32755        0.32755        0.32755        0.32755        0.67433        0.97180        0.37195        0.08666       -0.21544       -0.23645       -0.41094       -0.56181       -0.49272       -0.51851       -0.42928       -0.50508       -0.44414       -0.49630       -0.61654       -0.70568       -0.79050       -0.83109       -0.78586       -0.77840       -0.72669       -0.81662       -0.69832       -0.70011       -0.59809       -0.47703       -0.43018       -0.43063       -0.19983       -0.07240       -0.04652        0.10520        0.20721        0.30645        0.45689        0.58052        0.57411        0.62136        0.63260        0.57373        0.62729        0.66555        0.59207        0.47043        0.47023        0.42435        0.39283        0.29775        0.13025        0.11422       -0.01086       -0.00539       -0.06425       -0.07787       -0.01691        0.04437        0.16050        0.14953        0.24460        0.35229        0.49768        0.53354        0.55878        0.72105        0.75565        0.77109        0.68483        0.61991        0.57393        0.44923        0.37043        0.34753        0.20651        0.16855        0.06785       -0.01535        0.00559        0.03390        0.07400        0.19370        0.24293        0.32435        0.39947        0.46774        0.59186        0.64953        0.63252        0.55397        0.63284        0.53675        0.42718        0.40613        0.33682        0.15764        0.16064        0.09644        0.08369        0.06896        0.13882        0.22805        0.34899        0.45626        0.50091        0.53201        0.55819        0.50050        0.56838        0.54985        0.44236        0.35978        0.25219        0.13994        0.16242        0.14520        0.13943        0.20065        0.26303        0.30531        0.37016        0.47314        0.52098        0.52311        0.47546        0.48088        0.42052        0.41058        0.31172        0.23645        0.20633        0.17735        0.18516        0.17606        0.33081        0.40588        0.40035        0.47514        0.45630        0.46072        0.34850        0.34673        0.31681        0.27668        0.27783        0.23726        0.25612        0.31062        0.27247        0.34795        0.42266        0.46269        0.50744        0.43852        0.36777        0.34166        0.27037        0.27911        0.26402        0.24667        0.26325        0.31883        0.34657        0.36075        0.42561        0.40576        0.37447        0.36477        0.33052        0.29387        0.27848        0.24915        0.27838        0.31235        0.32998        0.34190        0.36715        0.39155        0.41410        0.36342        0.32407        0.28403        0.25199        0.27626        0.26276        0.28178        0.28377        0.35016        0.37140        0.36797        0.36103        0.31502        0.31612        0.29594        0.27819        0.30048        0.27344        0.28877        0.32553        0.37115        0.35614        0.34106        0.31468        0.30178        0.27648        0.28275        0.29115        0.28193        0.29188        0.30355        0.32809        0.35401        0.30340        0.26814        0.28163        0.26448        0.27403        0.26324        0.31504        0.31305        0.32563        0.37243        0.33235        0.35907        0.31038        0.27381        0.25740        0.27879        0.29088        0.28726        0.27543        0.29599        0.32457        0.29830        0.30059        0.30152        0.28821        0.30990        0.32641        0.34706        0.34690        0.30740        0.31462        0.30715        0.26959        0.28081        0.31612        0.30539        0.34519        0.36651        0.30674        0.32489        0.28306        0.29089        0.22770        0.24731        0.27618        0.29413        0.29927        0.35094        0.33610        0.28132        0.25641        0.28912        0.27826        0.34673        0.28396        0.30123        0.32705        0.35153        0.29167        0.21841        0.28660        0.29725        0.30866        0.25187        0.26364        0.24411        0.26133        0.23394        0.23208        0.30498        0.22115        0.27777        0.30542        0.22881        0.23419        0.26756        0.29366        0.26487        0.31046        0.25521        0.28630        0.25310        0.26414        0.23928        0.26833        0.25889        0.15916        0.23321        0.21718        0.24348        0.23491        0.22040        0.30147        0.23913        0.28646        0.27510        0.24953        0.15623        0.11221       -0.06686       -0.45232       -0.41572
2.154797 2.132288 2.109903 2.087644 2.065509 2.043499 2.021614 1.999853 1.978218 1.956707 1.935321 1.914060 1.892924 1.871912 1.851025 1.830264 1.809627 1.789114 1.768727 1.748465 1.728327 1.708314 1.688426 1.668663 1.649024 1.629511 1.610122 1.590858 1.571719 1.552705 1.533815 1.515051 1.496411 1.477896 1.459506 1.441241 1.423100 1.405084 1.387194 1.369428 1.351786 1.334270 1.316878 1.299612 1.282470 1.265453 1.248560 1.231793 1.215150 1.198633 1.182240 1.517600 1.778764 1.208782 0.922912 0.643370 0.542153 0.490113 0.282560 0.298656 0.295733 0.349627 0.262815 0.280478 0.270608 0.150668 0.023138 -0.035061 -0.143731 -0.064785 -0.125530 -0.022757 -0.176376 -0.047910 -0.102139 0.000566 0.075654 0.126920 0.021737 0.298543 0.436472 0.351134 0.471597 0.634103 0.675061 0.700642 0.931655 0.839365 0.944582 0.878108 0.829728 0.919937 0.920603 0.805386 0.764544 0.678949 0.676264 0.589560 0.588566 0.330415 0.369647 0.202835 0.242644 0.124227 0.119600 0.162651 0.194312 0.322787 0.277937 0.302495 0.449187 0.509567 0.607946 0.586520 0.663026 0.743230 0.792739 0.726393 0.595471 0.603154 0.487733 0.385563 0.395074 0.240089 0.160038 0.121433 0.035288 -0.045915 0.085275 0.006753 0.139332 0.155967 0.245838 0.320620 0.321454 0.422292 0.551830 0.489389 0.458096 0.521377 0.431196 0.320446 0.270396 0.308563 0.083552 0.029731 0.049758 -0.042403 -0.021917 -0.011954 0.038093 0.156416 0.283776 0.261807 0.384698 0.348224 0.344387 0.374848 0.446827 0.312187 0.279763 0.128552 0.076761 0.011111 0.039193 0.003028 0.032830 0.094903 0.118515 0.186349 0.236201 0.313072 0.317185 0.280190 0.258706 0.234824 0.217138 0.160703 0.047804 0.051091 -0.032858 0.020765 -0.055954 0.031909 0.159730 0.199960 0.210941 0.199228 0.251065 0.141312 0.120667 0.120228 0.060705 0.031995 0.049582 0.015492 0.049300 0.053955 0.084427 0.125577 0.169802 0.233452 0.227271 0.128797 0.128122 0.060300 0.042047 0.033449 0.006766 0.019053 0.037958 0.101349 0.072669 0.126793 0.178540 0.120533 0.092323 0.100512 0.059976 0.034162 0.015742 -0.014918 0.046179 0.062216 0.063100 0.082579 0.115285 0.132374 0.132462 0.089093 0.061822 0.000130 0.021087 0.005676 0.030652 0.017749 0.033247 0.116647 0.096166 0.106585 0.079990 0.032039 0.064199 0.024742 -0.002817 0.053479 0.017810 0.023036 0.073747 0.099570 0.069713 0.074980 0.047594 0.014382 0.019131 0.004863 0.023506 0.025072 0.035826 0.018723 0.066336 0.072713 0.021510 -0.012492 0.005191 0.000278 -0.001081 0.000998 0.048873 0.032611 0.056480 0.054034 0.046349 0.086426 -0.027604 -0.006080 -0.017236 -0.012098 0.026653 -0.014526 -0.009163 0.037241 0.028491 0.012589 0.019111 0.019536 0.008085 0.039188 0.050309 0.064899 0.051289 0.009461 0.039564 0.014478 -0.009466 0.020392 -0.000247 0.030480 0.055216 0.105250 0.017966 0.053496 0.001729 0.026284 -0.053118 -0.004274 -0.000603 0.051994 0.001195 0.113143 0.075546 0.020084 0.010593 0.055747 0.043242 0.099105 0.070592 0.000403 0.094232 0.109743 0.047617 -0.025482 0.050953 0.049903 0.093449 0.013121 0.001710 -0.031654 0.019568 -0.034408 -0.037525 0.058855 -0.027359 0.015785 -0.016782 -0.056607 -0.041168 -0.030949 0.024151 -0.005046 0.020459 -0.007522 0.022747 -0.039485 0.037937 -0.053850 0.038852 0.025705 -0.066101 0.029780 0.006843 0.072564 0.025106 0.067140 0.144824 0.067026 0.162417 0.248417 0.225684 0.041128 0.109745 -0.052161 -0.365092
0.072396 0.072973 0.074702 0.077583 0.081616 0.086799 0.093130 0.100608 0.109230 0.118991 0.129886 0.141911 0.155056 0.169313 0.184671 0.201117 0.218634 0.237204 0.256805 0.277411 0.298994 0.321520 0.344951 0.369243 0.394347 0.420210 0.446770 0.473961 0.501707 0.529926 0.558530 0.587420 0.616491 0.645627 0.674707 0.703596 0.732154 0.760232 0.787669 0.814297 0.839942 0.864417 0.887531 0.909086 0.928876 0.946691 0.962317 0.975536 0.986130 0.993881 0.998571 0.999988 0.997925 0.992183 0.982574 0.968924 0.951073 0.928882 0.902232 0.871031 0.835214 0.794747 0.749630 0.699901 0.645639 0.586965 0.524045 0.457095 0.386380 0.312216 0.234972 0.155071 0.072988 0.010749 0.095562 0.180822 0.265856 0.349950 0.432352 0.512280 0.588928 0.661473 0.729087 0.790942 0.846228 0.894154 0.933971 0.964976 0.986533 0.998078 0.999141 0.989353 0.968461 0.936340 0.893006 0.838622 0.773510 0.698155 0.613210 0.519497 0.418007 0.309895 0.196472 0.079197 0.040344 0.160450 0.279327 0.395118 0.505926 0.609848 0.705012 0.789606 0.861922 0.920394 0.963633 0.990470 0.999989 0.991562 0.964877 0.919970 0.857234 0.777442 0.681746 0.571678 0.449135 0.316358 0.175903 0.030597 0.116509 0.262206 0.403186 0.536125 0.657759 0.764971 0.854874 0.924902 0.972887 0.997142 0.996531 0.970522 0.919237 0.843483 0.744761 0.625257 0.487819 0.335903 0.173498 0.005042 0.164699 0.330755 0.488098 0.631799 0.757183 0.859997 0.936563 0.983930 1.000000 0.983642 0.934773 0.854408 0.744673 0.608782 0.450966 0.276369 0.090900 0.098957 0.286354 0.464329 0.626060 0.765139 0.875844 0.953385 0.994141 0.995854 0.957773 0.880754 0.767282 0.621437 0.448784 0.256190 0.051573 0.156399 0.358666 0.546173 0.710280 0.843173 0.938265 0.990542 0.996874 0.956227 0.869792 0.741017 0.575512 0.380853 0.166278 0.057735 0.279952 0.488944 0.673673 0.824100 0.931754 0.990240 0.995670 0.946960 0.845987 0.697595 0.509409 0.291511 0.055928 0.183992 0.414330 0.621396 0.792559 0.917051 0.986682 0.996428 0.944855 0.834321 0.670954 0.464377 0.227210 0.025661 0.277984 0.513176 0.715419 0.870749 0.968060 0.999965 0.963408 0.860025 0.696163 0.482587 0.233831 0.032724 0.298032 0.542733 0.748570 0.899783 0.984376 0.995135 0.930318 0.793955 0.595702 0.350244 0.076297 0.204785 0.470640 0.699675 0.872857 0.975343 0.997832 0.937501 0.798423 0.591409 0.333286 0.045596 0.247134 0.519450 0.747207 0.909737 0.991795 0.985087 0.889208 0.711892 0.468518 0.180875 0.124687 0.419651 0.675956 0.868725 0.978721 0.994386 0.913157 0.741957 0.496746 0.201168 0.115638 0.421867 0.686208 0.881099 0.985662 0.988060 0.886964 0.691950 0.422760 0.107431 0.220542 0.525698 0.774455 0.938869 0.999858 0.949565 0.792502 0.545344 0.235320 0.102683 0.429946 0.708349 0.904852 0.995517 0.968549 0.826007 0.583866 0.270419 0.076911 0.415923 0.704760 0.907110 0.996882 0.961715 0.804865 0.545128 0.214793 0.144233 0.485654 0.764741 0.944255 0.999539 0.922083 0.721023 0.422289 0.065458 0.301357 0.627931 0.868825 0.989809 0.972895 0.819214 0.549264 0.200402 0.178143 0.532136 0.810087 0.970823 0.989745 0.862819 0.607587 0.260999 0.125723 0.494562 0.789354 0.964445 0.991912 0.866239 0.605645 0.249697 0.146464 0.520566 0.812942 0.976163 0.982898 0.830751 0.543122 0.165932 0.239552 0.606516 0.873619 0.995383 0.950142 0.744177 0.411190 0.007057 0.399340
1.000000 1.000000 1.000000 1.000000 1.000000 1.000000 1.000000 1.000000 1.000000 1.000000 1.000000 1.000000 1.000000 1.000000 1.000000 1.000000 1.000000 1.000000 1.000000 1.000000 1.000000 1.000000 1.000000 1.000000 1.000000 1.000000 1.000000 1.000000 1.000000 1.000000 1.000000 1.000000 1.000000 1.000000 1.000000 1.000000 1.000000 1.000000 1.000000 1.000000 1.000000 1.000000 1.000000 1.000000 1.000000 1.000000 1.000000 1.000000 1.000000 1.000000 1.000000 1.000000 0.939776 0.939776 0.939776 0.939776 0.939776 0.939776 0.939776 0.939776 0.939776 0.939776 0.939776 0.939776 0.939776 0.939776 0.939776 0.939776 0.939776 0.939776 0.939776 0.939776 0.939776 0.939776 0.939776 0.939776 0.939776 0.939776 0.939776 0.939776 0.939776 0.939776 0.939776 0.939776 0.939776 0.939776 0.939776 0.939776 0.939776 0.939776 0.925737 0.928393 0.925918 0.925792 0.924822 0.931455 0.935125 0.935850 0.936230 0.937524 0.939004 0.942065 0.943262 0.946359 0.948758 0.958154 0.956596 0.956023 0.958765 0.955036 0.968300 0.968827 0.968803 0.969532 0.970136 0.970817 0.969086 0.971348 0.971745 0.971228 0.970212 0.969712 0.966902 0.966384 0.966314 0.966791 0.966406 0.966843 0.968199 0.967965 0.968032 0.967550 0.966974 0.963218 0.961992 0.961002 0.959076 0.957432 0.964040 0.963334 0.962584 0.962265 0.962375 0.962337 0.962368 0.961286 0.959817 0.958928 0.958457 0.958022 0.957079 0.958379 0.960675 0.961396 0.952059 0.944664 0.940766 0.943285 0.940705 0.937890 0.939753 0.925208 0.911450 0.905452 0.895594 0.891469 0.892663 0.896132 0.896026 0.890761 0.883452 0.879552 0.881366 0.879807 0.884955 0.881479 0.868807 0.864798 0.856702 0.857472 0.866576 0.872199 0.875428 0.873108 0.869623 0.855521 0.850547 0.852543 0.852812 0.849414 0.849340 0.844225 0.845306 0.849875 0.861124 0.863746 0.868302 0.870890 0.871435 0.873289 0.873645 0.870552 0.866359 0.869156 0.871407 0.865089 0.869648 0.869382 0.872329 0.868799 0.861932 0.862389 0.865008 0.864306 0.863621 0.854809 0.854104 0.859442 0.865216 0.846185 0.845634 0.837693 0.833197 0.832891 0.832698 0.837060 0.835499 0.832088 0.836347 0.834063 0.829556 0.829595 0.805263 0.817039 0.821955 0.810820 0.782342 0.777065 0.776641 0.783548 0.786552 0.783246 0.774481 0.776993 0.775634 0.779907 0.780492 0.765513 0.752029 0.757956 0.766600 0.767338 0.741110 0.695016 0.687753 0.675767 0.663643 0.659841 0.649489 0.655294 0.643241 0.629069 0.629405 0.642934 0.648647 0.625914 0.614830 0.607338 0.625970 0.608170 0.609159 0.617298 0.613910 0.628234 0.627535 0.631771 0.615859 0.621623 0.617879 0.607228 0.611692 0.589540 0.595472 0.588504 0.584883 0.566512 0.566381 0.569067 0.595714 0.556382 0.551723 0.574020 0.563498 0.547670 0.559078 0.540739 0.542753 0.547563 0.526205 0.507825 0.481856 0.494108 0.513916 0.490386 0.464771 0.452636 0.448724 0.422039 0.442533 0.487819 0.491215 0.493479 0.419107 0.402586 0.411107 0.416084 0.419581 0.374048 0.354304 0.343550 0.297315 0.279805 0.292820 0.293150 0.250637 0.225808 0.249839 0.177328 0.178907 0.187934 0.172484 0.162273 0.113216 0.119566 0.191864 0.196564 0.196564 0.196564 0.196564 0.196564 0.196564 0.196564 0.219534 0.219534 0.219534 0.219534 0.219534 0.219534 0.219534 0.219534 0.225319 0.225319 0.225319 0.225319 0.225319 0.225319 0.225319 0.225319 0.225319 0.225319 0.225319 0.225319 0.225319
0.000000 0.000000 0.000000 0.000000 0.000000 0.000000 0.000000 0.000000 0.000000 0.000000 0.000000 0.000000 0.000000 0.000000 0.000000 0.000000 0.000000 0.000000 0.000000 0.000000 0.000000 0.000000 0.000000 0.000000 0.000000 0.000000 0.000000 0.000000 0.000000 0.000000 0.000000 0.000000 0.000000 0.000000 0.000000 0.000000 0.000000 0.000000 0.000000 0.000000 0.000000 0.000000 0.000000 0.000000 0.000000 0.000000 0.000000 0.000000 0.000000 0.000000 0.000000 0.000000 0.203069 0.203069 0.203069 0.203069 0.203069 0.203069 0.203069 0.203069 0.203069 0.203069 0.203069 0.203069 0.203069 0.203069 0.203069 0.203069 0.203069 0.203069 0.203069 0.203069 0.203069 0.203069 0.203069 0.203069 0.203069 0.203069 0.203069 0.203069 0.203069 0.203069 0.203069 0.203069 0.203069 0.203069 0.203069 0.203069 0.203069 0.203069 0.234082 0.234082 0.234082 0.234082 0.234082 0.234082 0.234082 0.234082 0.234082 0.234082 0.234082 0.234082 0.234082 0.234082 0.234082 0.234082 0.234082 0.234082 0.234082 0.234082 0.234082 0.234082 0.234082 0.234082 0.234082 0.234082 0.234082 0.256074 0.256074 0.256074 0.256074 0.256074 0.256074 0.256074 0.256074 0.256074 0.256074 0.256074 0.256074 0.256074 0.256074 0.256074 0.256074 0.256074 0.256074 0.256074 0.256074 0.256074 0.264906 0.264906 0.264906 0.264906 0.264906 0.264906 0.264906 0.264906 0.264906 0.264906 0.264906 0.264906 0.264906 0.264906 0.264906 0.264906 0.264906 0.264906 0.264906 0.264906 0.264906 0.264906 0.264906 0.264906 0.264906 0.264906 0.264906 0.264906 0.264906 0.264906 0.264906 0.264906 0.264906 0.264906 0.264906 0.269680 0.269680 0.269680 0.269680 0.269680 0.269680 0.269680 0.269680 0.269680 0.269680 0.269680 0.269680 0.269680 0.269680 0.269680 0.269680 0.269680 0.269680 0.269680 0.269680 0.269680 0.269680 0.269680 0.269680 0.269680 0.269680 0.269680 0.269680 0.269680 0.274721 0.274721 0.274721 0.274721 0.274721 0.274721 0.274721 0.274721 0.274721 0.274721 0.274721 0.274721 0.274721 0.274721 0.274721 0.274721 0.274721 0.274721 0.274721 0.274721 0.274721 0.274721 0.274721 0.274721 0.274721 0.269680 0.269680 0.269680 0.269680 0.269680 0.269680 0.269680 0.269680 0.269680 0.269680 0.269680 0.269680 0.274721 0.274721 0.274721 0.274721 0.274721 0.274721 0.274721 0.274721 0.274721 0.274721 0.274721 0.269680 0.269680 0.269680 0.269680 0.269680 0.269680 0.269680 0.269680 0.269680 0.269680 0.269680 0.274721 0.274721 0.274721 0.274721 0.274721 0.274721 0.274721 0.274721 0.274721 0.274721 0.269680 0.269680 0.269680 0.269680 0.269680 0.269680 0.269680 0.269680 0.269680 0.269680 0.264906 0.264906 0.264906 0.264906 0.264906 0.264906 0.264906 0.264906 0.264906 0.264906 0.269680 0.269680 0.269680 0.269680 0.269680 0.269680 0.269680 0.269680 0.269680 0.264906 0.264906 0.264906 0.264906 0.264906 0.264906 0.264906 0.264906 0.264906 0.274721 0.274721 0.274721 0.274721 0.274721 0.274721 0.274721 0.274721 0.256074 0.256074 0.256074 0.256074 0.256074 0.256074 0.256074 0.256074 0.256074 0.269680 0.269680 0.269680 0.269680 0.269680 0.269680 0.269680 0.269680 0.264906 0.264906 0.264906 0.264906 0.264906 0.264906 0.264906 0.264906 0.260378 0.260378 0.260378 0.260378 0.260378 0.260378 0.260378 0.260378 0.256074 0.256074 0.256074 0.256074 0.256074 0.256074 0.256074 0.256074 0.256074 0.256074 0.256074 0.256074 0.256074
