# Output from CTFFind version 4.1.9, run on 2019-11-03 18:52:30
# Input file: stack15_ub_averaged_750.mrc ; Number of micrographs: 1
# Pixel size: 3.000 Angstroms ; acceleration voltage: 300.0 keV ; spherical aberration: 0.00 mm ; amplitude contrast: 0.07
# Box size: 512 pixels ; min. res.: 30.0 Angstroms ; max. res.: 5.0 Angstroms ; min. def.: 5000.0 um; max. def. 50000.0 um; num. frames averaged: 1
# 6 lines per micrograph: #1 - spatial frequency (1/Angstroms); #2 - 1D rotational average of spectrum (assuming no astigmatism); #3 - 1D rotational average of spectrum; #4 - CTF fit; #5 - cross-correlation between spectrum and CTF fit; #6 - 2sigma of expected cross correlation of noise
0.000000 0.000651 0.001302 0.001953 0.002604 0.003255 0.003906 0.004557 0.005208 0.005859 0.006510 0.007161 0.007812 0.008464 0.009115 0.009766 0.010417 0.011068 0.011719 0.012370 0.013021 0.013672 0.014323 0.014974 0.015625 0.016276 0.016927 0.017578 0.018229 0.018880 0.019531 0.020182 0.020833 0.021484 0.022135 0.022786 0.023438 0.024089 0.024740 0.025391 0.026042 0.026693 0.027344 0.027995 0.028646 0.029297 0.029948 0.030599 0.031250 0.031901 0.032552 0.033203 0.033854 0.034505 0.035156 0.035807 0.036458 0.037109 0.037760 0.038411 0.039062 0.039714 0.040365 0.041016 0.041667 0.042318 0.042969 0.043620 0.044271 0.044922 0.045573 0.046224 0.046875 0.047526 0.048177 0.048828 0.049479 0.050130 0.050781 0.051432 0.052083 0.052734 0.053385 0.054036 0.054688 0.055339 0.055990 0.056641 0.057292 0.057943 0.058594 0.059245 0.059896 0.060547 0.061198 0.061849 0.062500 0.063151 0.063802 0.064453 0.065104 0.065755 0.066406 0.067057 0.067708 0.068359 0.069010 0.069661 0.070312 0.070964 0.071615 0.072266 0.072917 0.073568 0.074219 0.074870 0.075521 0.076172 0.076823 0.077474 0.078125 0.078776 0.079427 0.080078 0.080729 0.081380 0.082031 0.082682 0.083333 0.083984 0.084635 0.085286 0.085938 0.086589 0.087240 0.087891 0.088542 0.089193 0.089844 0.090495 0.091146 0.091797 0.092448 0.093099 0.093750 0.094401 0.095052 0.095703 0.096354 0.097005 0.097656 0.098307 0.098958 0.099609 0.100260 0.100911 0.101562 0.102214 0.102865 0.103516 0.104167 0.104818 0.105469 0.106120 0.106771 0.107422 0.108073 0.108724 0.109375 0.110026 0.110677 0.111328 0.111979 0.112630 0.113281 0.113932 0.114583 0.115234 0.115885 0.116536 0.117188 0.117839 0.118490 0.119141 0.119792 0.120443 0.121094 0.121745 0.122396 0.123047 0.123698 0.124349 0.125000 0.125651 0.126302 0.126953 0.127604 0.128255 0.128906 0.129557 0.130208 0.130859 0.131510 0.132161 0.132812 0.133464 0.134115 0.134766 0.135417 0.136068 0.136719 0.137370 0.138021 0.138672 0.139323 0.139974 0.140625 0.141276 0.141927 0.142578 0.143229 0.143880 0.144531 0.145182 0.145833 0.146484 0.147135 0.147786 0.148438 0.149089 0.149740 0.150391 0.151042 0.151693 0.152344 0.152995 0.153646 0.154297 0.154948 0.155599 0.156250 0.156901 0.157552 0.158203 0.158854 0.159505 0.160156 0.160807 0.161458 0.162109 0.162760 0.163411 0.164062 0.164714 0.165365 0.166016 0.166667 0.167318 0.167969 0.168620 0.169271 0.169922 0.170573 0.171224 0.171875 0.172526 0.173177 0.173828 0.174479 0.175130 0.175781 0.176432 0.177083 0.177734 0.178385 0.179036 0.179688 0.180339 0.180990 0.181641 0.182292 0.182943 0.183594 0.184245 0.184896 0.185547 0.186198 0.186849 0.187500 0.188151 0.188802 0.189453 0.190104 0.190755 0.191406 0.192057 0.192708 0.193359 0.194010 0.194661 0.195312 0.195964 0.196615 0.197266 0.197917 0.198568 0.199219 0.199870 0.200521 0.201172 0.201823 0.202474 0.203125 0.203776 0.204427 0.205078 0.205729 0.206380 0.207031 0.207682 0.208333 0.208984 0.209635 0.210286 0.210938 0.211589 0.212240 0.212891 0.213542 0.214193 0.214844 0.215495 0.216146 0.216797 0.217448 0.218099 0.218750 0.219401 0.220052 0.220703 0.221354 0.222005 0.222656 0.223307 0.223958 0.224609 0.225260 0.225911 0.226562 0.227214 0.227865 0.228516 0.229167 0.229818 0.230469 0.231120 0.231771 0.232422 0.233073 0.233724 0.234375 0.235026 0.235677
       0.41283        0.41283        0.41283        0.41283        0.41283        0.41283        0.41283        0.41283        0.41283        0.41283        0.41283        0.41283        0.41283        0.41283        0.41283        0.41283        0.41283        0.41283        0.41283        0.41283        0.41283        0.41283        0.41283        0.41283        0.41283        0.41283        0.41283        0.41283        0.41283        0.41283        0.41283        0.41283        0.41283        0.41283        0.41283        0.41283        0.41283        0.41283        0.41283        0.41283        0.41283        0.41283        0.41283        0.41283        0.41283        0.41283        0.41283        0.41283        0.41283        0.41283        0.41283        0.11525       -0.24297       -0.26790       -0.22417       -0.18669       -0.10202       -0.13467       -0.09315        0.06390       -0.00410        0.11919        0.17319        0.23160        0.15252        0.21559        0.20314        0.19610        0.29275        0.33975        0.34238        0.25831        0.35722        0.37146        0.42027        0.35409        0.32601        0.25359        0.35656        0.26218        0.30673        0.37140        0.37654        0.49103        0.33436        0.46287        0.45460        0.44016        0.41879        0.36159        0.41312        0.44029        0.31348        0.36342        0.40489        0.44965        0.41733        0.43042        0.32392        0.31261        0.41545        0.39938        0.47242        0.44601        0.45323        0.43304        0.48529        0.41914        0.42656        0.37236        0.38481        0.47957        0.42856        0.41295        0.39015        0.40882        0.38935        0.45483        0.45317        0.42518        0.41011        0.40765        0.44486        0.44888        0.36478        0.38457        0.45362        0.45942        0.37999        0.36915        0.35961        0.36678        0.46653        0.45136        0.40338        0.40663        0.38888        0.36130        0.42018        0.41579        0.41776        0.44062        0.42569        0.45384        0.35556        0.36677        0.39519        0.49005        0.43550        0.36522        0.41284        0.40523        0.50610        0.48899        0.42267        0.42510        0.44698        0.42677        0.49335        0.44964        0.43191        0.42408        0.45256        0.39558        0.40389        0.41944        0.45175        0.44987        0.42868        0.42214        0.43218        0.46280        0.43131        0.40251        0.43883        0.46267        0.41720        0.44828        0.49542        0.52718        0.44958        0.46513        0.43328        0.43286        0.43681        0.43207        0.41349        0.46543        0.47188        0.41751        0.42273        0.43562        0.44709        0.46857        0.41984        0.39634        0.38056        0.38627        0.45076        0.42034        0.38429        0.46286        0.45969        0.41315        0.47591        0.43974        0.40206        0.39986        0.43978        0.48664        0.44474        0.43539        0.42839        0.43634        0.47136        0.44188        0.43992        0.43797        0.48031        0.44293        0.42509        0.42842        0.44310        0.40240        0.38130        0.40955        0.39924        0.43723        0.38348        0.41871        0.40768        0.42358        0.44146        0.41140        0.39461        0.31967        0.38824        0.40875        0.37993        0.38915        0.35860        0.38284        0.41030        0.39547        0.39508        0.42337        0.41175        0.43114        0.41582        0.34279        0.38311        0.41525        0.37160        0.38803        0.46681        0.39447        0.41109        0.38474        0.34478        0.35546        0.40487        0.39707        0.36782        0.32628        0.40751        0.39576        0.34109        0.36429        0.41052        0.42070        0.41104        0.42000        0.35523        0.42976        0.39464        0.41983        0.37117        0.36380        0.39155        0.39956        0.38921        0.32643        0.37821        0.43728        0.42393        0.39879        0.36386        0.37970        0.39527        0.39963        0.42247        0.41882        0.39205        0.35164        0.34539        0.36599        0.41595        0.38204        0.40119        0.37013        0.38411        0.38216        0.36788        0.35993        0.36281        0.36358        0.34995        0.33558        0.40343        0.35755        0.32803        0.36780        0.38852        0.40993        0.40310        0.31606        0.28841        0.35808        0.38273        0.36517        0.35775        0.36147        0.39988        0.41974        0.35697        0.38701        0.35842        0.42575        0.38816        0.33575        0.33577        0.34993        0.38129        0.37987        0.41230        0.40506        0.31397        0.35995        0.33494        0.31020        0.28247        0.28220        0.30276        0.36167        0.27508        0.29105        0.35128        0.41405        0.32863        0.25711        0.27111        0.30613        0.28917        0.35240        0.35996        0.37931        0.22353        0.11776        0.11506        0.05391       -0.06899       -0.36879       -0.56042
12.073524 11.880790 11.689497 11.499644 11.311230 11.124257 10.938723 10.754630 10.571976 10.390762 10.210988 10.032655 9.855761 9.680307 9.506293 9.333718 9.162584 8.992890 8.824636 8.657822 8.492447 8.328513 8.166018 8.004963 7.845349 7.687174 7.530439 7.375144 7.221289 7.068874 6.917899 6.768364 6.620269 6.473614 6.328399 6.184623 6.042288 5.901392 5.761937 5.623921 5.487346 5.352210 5.218514 5.086258 4.955442 4.826066 4.698130 4.571634 4.446578 4.322962 4.200786 0.520392 -6.462646 -6.622191 -6.322815 -6.018118 -4.422417 -4.274149 -5.568890 -2.079402 -2.866010 -3.008969 -0.758472 0.281594 -1.299609 -1.040197 -0.911515 -1.615410 1.611960 0.694329 0.543619 -0.062168 0.555538 0.978448 1.813940 0.800919 1.132172 -1.129137 1.087003 -1.351348 -0.950922 0.655309 0.331892 1.942177 -0.474660 1.893992 1.248914 0.834701 1.517549 -0.928718 0.744521 0.951562 -0.817267 0.300237 -1.179482 1.106995 0.378508 0.313433 -1.172281 -1.523364 0.240265 -0.706962 0.775644 0.194601 0.397901 -0.167999 0.631065 0.022218 0.085470 -0.681251 -2.461295 1.275897 -0.743258 0.197837 -1.053976 -1.117465 -0.803322 0.554347 0.379020 0.029607 -0.321434 -0.053357 -0.759113 0.643233 -1.093173 -1.467837 0.020374 0.212318 -0.916800 -1.130292 -1.265213 -2.269281 0.535663 0.564448 -0.014158 0.165632 -0.067793 -1.604844 0.561130 0.560158 -0.565077 0.318397 0.896656 0.114518 -0.001000 -1.087097 -0.510764 0.916083 0.844666 -0.671173 -1.030829 -0.044101 0.223279 1.496220 0.201760 -0.098652 0.421907 -1.039591 0.933101 0.269381 -0.445423 -1.597342 1.004103 -1.272639 -1.341129 -1.382303 -0.569444 -0.192120 -0.664156 -1.470327 -0.459459 -0.209501 -1.759593 -0.448797 -1.897354 0.495571 -1.722882 -0.437257 -0.894573 0.320856 0.238243 -0.711924 -0.947438 -0.219559 -0.552965 -1.143912 -0.196051 -0.660876 0.642250 -1.163810 -0.403273 -0.406572 -1.054967 -0.025001 -0.450133 -1.112888 -0.950463 -2.356899 -0.005658 -0.900576 -0.893044 -0.781572 -0.051212 0.000707 -0.322562 -0.242336 -0.045491 -1.499267 -0.411205 -0.275381 1.413860 -0.845755 0.317125 -0.377798 0.211807 1.224382 0.245187 0.190737 0.576894 0.999148 0.556601 0.519039 0.337209 0.302693 0.090717 0.050002 0.286340 0.326015 0.589119 -0.139217 0.787247 0.205901 0.909035 0.639721 0.553301 -0.489741 -1.038784 0.671345 0.063468 0.127679 0.079702 -0.638685 0.532378 -0.019055 0.369499 0.448538 0.704851 0.343970 0.954766 -0.056641 -0.913085 0.284323 -0.209577 -0.170191 0.537410 0.690785 -0.124288 0.196199 0.000938 -1.304431 -0.425830 0.293054 0.163820 -0.472481 -0.796889 0.440424 0.166469 -0.804322 -0.051793 0.848369 0.130960 1.089713 0.812151 -0.392727 1.201844 0.544748 0.699271 -0.724458 0.686930 0.779415 0.197268 0.926660 -0.944827 1.167418 0.352358 1.345789 0.486151 -0.020908 0.615365 0.338598 0.587596 1.542116 0.701345 0.315406 -0.079608 -0.179823 -0.006183 1.061342 -0.253940 0.730859 -0.162096 0.277448 0.681302 -0.334108 -1.148105 0.957727 -0.881478 -0.501750 -0.210364 0.415543 -0.305658 -1.183091 0.091327 -0.065220 0.611035 -0.009190 -1.339443 -1.231432 -0.406112 0.201102 -0.535807 -0.181231 -0.132317 -0.066804 0.461093 -0.654805 0.454664 -0.909681 0.767787 -0.434456 0.061214 -0.444118 -0.329138 0.522578 0.845407 0.847202 0.586526 -0.582119 0.505814 0.009789 -0.271205 -1.859462 -1.273200 -1.079021 -0.015897 -0.985993 -1.153334 -0.021763 0.448940 0.311470 -1.612449 -0.581157 0.433191 -0.370638 0.836077 2.084706 2.096614 0.145621 2.155739 -0.058152 1.303006 -1.029668 -8.707392
0.072396 0.073192 0.075580 0.079559 0.085127 0.092282 0.101021 0.111339 0.123228 0.136682 0.151689 0.168234 0.186301 0.205868 0.226907 0.249388 0.273270 0.298510 0.325052 0.352835 0.381786 0.411822 0.442849 0.474760 0.507435 0.540739 0.574524 0.608624 0.642859 0.677031 0.710925 0.744310 0.776937 0.808540 0.838838 0.867532 0.894311 0.918849 0.940812 0.959853 0.975621 0.987761 0.995920 0.999746 0.998899 0.993051 0.981892 0.965139 0.942539 0.913874 0.878975 0.837719 0.790044 0.735953 0.675519 0.608896 0.536320 0.458119 0.374714 0.286626 0.194473 0.098979 0.000967 0.098644 0.198838 0.298515 0.396496 0.491536 0.582341 0.667581 0.745911 0.815992 0.876518 0.926241 0.963997 0.988738 0.999559 0.995732 0.976733 0.942270 0.892310 0.827102 0.747194 0.653449 0.547051 0.429506 0.302638 0.168567 0.029691 0.111349 0.251716 0.388425 0.518407 0.638577 0.745914 0.837537 0.910797 0.963359 0.993292 0.999145 0.980031 0.935681 0.866504 0.773618 0.658866 0.524810 0.374704 0.212437 0.042449 0.130369 0.300809 0.463496 0.613060 0.744320 0.852475 0.933295 0.983314 0.999995 0.981889 0.928749 0.841611 0.722838 0.576097 0.406294 0.219446 0.022500 0.176903 0.370712 0.550789 0.709254 0.838849 0.933297 0.987640 0.998536 0.964504 0.886095 0.765970 0.608879 0.421547 0.212426 0.008632 0.230817 0.442873 0.633662 0.792778 0.911133 0.981528 0.999145 0.961929 0.870846 0.729963 0.546365 0.329876 0.092599 0.151719 0.388445 0.602933 0.781459 0.912119 0.985694 0.996367 0.942261 0.825739 0.653429 0.435959 0.187391 0.075616 0.334882 0.571938 0.769367 0.912121 0.988743 0.992374 0.921469 0.780135 0.578035 0.329866 0.054381 0.226947 0.491569 0.717658 0.885966 0.981531 0.995119 0.924234 0.773598 0.555013 0.286585 0.008652 0.304642 0.574563 0.793277 0.939740 0.999134 0.964498 0.837694 0.629539 0.359078 0.051979 0.261785 0.550816 0.785439 0.940829 0.999748 0.954629 0.808711 0.576066 0.280452 0.046960 0.370747 0.655049 0.867561 0.983321 0.987806 0.878947 0.667790 0.377618 0.041606 0.300854 0.608674 0.844046 0.977185 0.990276 0.880085 0.658825 0.353098 0.000903 0.352897 0.662261 0.885978 0.993298 0.968386 0.812906 0.546331 0.203794 0.168307 0.518461 0.797164 0.964015 0.993774 0.880458 0.638778 0.302574 0.079635 0.451486 0.757016 0.949185 0.997312 0.892276 0.648545 0.302569 0.092365 0.474132 0.781492 0.964018 0.990603 0.855096 0.577998 0.203779 0.205954 0.582408 0.861154 0.993301 0.954379 0.749257 0.412052 0.000877 0.411907 0.752313 0.958069 0.990271 0.841138 0.536241 0.130602 0.300888 0.677102 0.925975 0.998531 0.878928 0.588360 0.181834 0.261834 0.655084 0.918891 0.998894 0.877015 0.576025 0.155867 0.297851 0.691085 0.940848 0.993038 0.834596 0.497283 0.051920 0.406098 0.777007 0.978533 0.964480 0.735876 0.341822 0.130470 0.574623 0.888946 0.999962 0.880056 0.554950 0.098860 0.381902 0.773486 0.981546 0.954369 0.696334 0.268102 0.227031 0.667674 0.944058 0.985724 0.780076 0.376810 0.123360 0.593421 0.912163 0.995720 0.820238 0.429386 0.075722 0.562161 0.900014 0.997307 0.825676 0.429385 0.085275 0.577908 0.912167 0.993766 0.797722 0.376799 0.151837 0.638683 0.944065 0.978549 0.729879 0.268073 0.273421 0.735828 0.981552 0.935629 0.609405 0.098821 0.442991 0.851295 0.999961 0.841102 0.421420 0.130519 0.642985 0.954354 0.964467 0.667710 0.156598 0.406153 0.838933
1.000000 1.000000 1.000000 1.000000 1.000000 1.000000 1.000000 1.000000 1.000000 1.000000 1.000000 1.000000 1.000000 1.000000 1.000000 1.000000 1.000000 1.000000 1.000000 1.000000 1.000000 1.000000 1.000000 1.000000 1.000000 1.000000 1.000000 1.000000 1.000000 1.000000 1.000000 1.000000 1.000000 1.000000 1.000000 1.000000 1.000000 1.000000 1.000000 1.000000 1.000000 1.000000 1.000000 1.000000 1.000000 1.000000 1.000000 1.000000 1.000000 1.000000 1.000000 1.000000 -0.002984 -0.002984 -0.002984 -0.002984 -0.002984 -0.002984 -0.002984 -0.002984 -0.002984 -0.002984 -0.002984 -0.002984 -0.002984 -0.002984 -0.002984 -0.002984 -0.002984 -0.002984 -0.002984 -0.002984 -0.002984 -0.002984 -0.002984 -0.002984 -0.002984 -0.112120 -0.112120 -0.112120 -0.112120 -0.106641 -0.097318 -0.081417 -0.064546 -0.066638 -0.083815 -0.095990 -0.082842 -0.060689 -0.051794 -0.063589 -0.054196 -0.063286 -0.122691 -0.101658 -0.029282 -0.067216 -0.078583 -0.051810 -0.089023 -0.127297 -0.149012 -0.155967 -0.130920 -0.166819 -0.101028 -0.065492 -0.070406 -0.063888 -0.074182 -0.073644 -0.071439 -0.080124 -0.006079 0.014134 -0.048362 -0.014975 -0.020291 -0.024840 -0.038892 -0.084463 -0.086705 -0.086754 -0.076524 -0.042641 -0.035438 -0.007850 -0.065846 -0.060529 -0.055834 -0.058295 -0.059292 -0.016872 0.010324 -0.024649 -0.020095 -0.049857 -0.040936 -0.038377 -0.007975 0.035607 0.015040 -0.017805 -0.040023 -0.059362 -0.065472 -0.047409 -0.064476 -0.171809 -0.128861 -0.109497 -0.110361 -0.078299 -0.090945 -0.069585 -0.123997 -0.145275 -0.151128 -0.175976 -0.162693 -0.173211 -0.166511 -0.125839 -0.156794 -0.190428 -0.131538 -0.131585 -0.135308 -0.149641 -0.079099 -0.074493 -0.079214 -0.066423 -0.067989 -0.035086 -0.037406 -0.043738 -0.049725 -0.042745 0.000844 -0.012214 -0.017611 0.023905 0.030020 0.035986 0.073931 0.034422 0.049876 -0.001612 -0.042558 -0.046741 -0.029944 -0.002120 0.006615 -0.006570 0.029436 0.019333 0.076992 0.095532 0.072528 0.087595 0.095131 0.107683 0.103901 0.117156 0.114435 0.087778 0.142479 0.151585 0.150748 0.223848 0.152239 0.185710 0.193036 0.202385 0.253148 0.227507 0.203268 0.162956 0.160405 0.121942 0.142866 0.212082 0.235091 0.235663 0.266120 0.231778 0.237609 0.240170 0.261846 0.196349 0.206191 0.236511 0.262269 0.258099 0.313762 0.371893 0.374440 0.393305 0.354247 0.300729 0.266741 0.230369 0.257793 0.233618 0.248965 0.240228 0.235887 0.283174 0.238282 0.237095 0.250535 0.210319 0.257699 0.246325 0.194444 0.184191 0.182230 0.161116 0.197737 0.176730 0.214015 0.158554 0.206104 0.221329 0.246653 0.235941 0.272325 0.264131 0.314068 0.319950 0.298055 0.303949 0.261700 0.240656 0.278447 0.273345 0.273840 0.250439 0.182372 0.197399 0.204055 0.230047 0.234815 0.193370 0.159805 0.151995 0.124523 0.098359 0.111997 0.047646 0.069692 0.078726 0.060041 0.056939 0.032628 0.049402 0.017271 0.015575 0.000771 0.044189 0.037369 -0.012263 0.054113 0.032772 0.075720 0.086076 0.097232 0.126639 0.139932 0.131541 0.148738 0.089440 0.089386 0.104202 0.076290 0.042805 0.045526 0.007396 -0.040109 -0.064800 -0.036825 -0.072380 -0.084983 -0.072716 -0.078444 -0.116776 -0.122544 -0.158772 -0.168012 -0.180788 -0.155497 -0.142936 -0.124952 -0.120635 -0.120635 -0.120635 -0.120635 -0.120635 -0.120635 -0.120635 -0.120635 -0.120635 -0.120635 -0.120635 -0.120635 -0.169929 -0.169929 -0.169929 -0.169929 -0.169929 -0.141940 -0.141940 -0.141940 -0.141940 -0.141940 -0.141940 -0.141940 -0.141940 -0.141940 -0.141940 -0.141940
0.000000 0.000000 0.000000 0.000000 0.000000 0.000000 0.000000 0.000000 0.000000 0.000000 0.000000 0.000000 0.000000 0.000000 0.000000 0.000000 0.000000 0.000000 0.000000 0.000000 0.000000 9401.000000 0.000000 0.000000 0.000000 0.000000 0.000000 0.000000 0.000000 0.000000 0.000000 0.000000 0.000000 0.000000 0.000000 0.000000 0.000000 0.000000 0.000000 0.000000 0.000000 0.000000 0.000000 0.000000 0.000000 0.000000 0.000000 0.000000 0.000000 0.000000 0.000000 0.000000 0.222222 0.222222 0.222222 0.222222 0.222222 0.222222 0.222222 0.222222 0.222222 0.222222 0.222222 0.222222 0.222222 0.222222 0.222222 0.222222 0.222222 0.222222 0.222222 0.222222 0.222222 0.222222 0.222222 0.222222 0.222222 0.260378 0.260378 0.260378 0.260378 0.260378 0.260378 0.260378 0.260378 0.260378 0.260378 0.260378 0.260378 0.260378 0.260378 0.260378 0.260378 0.260378 0.260378 0.260378 0.260378 0.260378 0.260378 0.274721 0.274721 0.274721 0.274721 0.274721 0.274721 0.274721 0.274721 0.274721 0.274721 0.274721 0.274721 0.274721 0.274721 0.274721 0.274721 0.274721 0.274721 0.280056 0.280056 0.280056 0.280056 0.280056 0.280056 0.280056 0.280056 0.280056 0.280056 0.280056 0.280056 0.280056 0.280056 0.280056 0.280056 0.285714 0.285714 0.285714 0.285714 0.285714 0.285714 0.285714 0.285714 0.285714 0.285714 0.285714 0.285714 0.285714 0.285714 0.291730 0.291730 0.291730 0.291730 0.291730 0.291730 0.291730 0.291730 0.291730 0.291730 0.291730 0.291730 0.291730 0.291730 0.291730 0.291730 0.291730 0.291730 0.291730 0.291730 0.291730 0.291730 0.291730 0.291730 0.291730 0.298142 0.298142 0.298142 0.298142 0.298142 0.298142 0.298142 0.298142 0.298142 0.298142 0.298142 0.285714 0.285714 0.285714 0.285714 0.285714 0.285714 0.285714 0.285714 0.285714 0.285714 0.285714 0.291730 0.291730 0.291730 0.291730 0.291730 0.291730 0.291730 0.291730 0.291730 0.291730 0.298142 0.298142 0.298142 0.298142 0.298142 0.298142 0.298142 0.298142 0.298142 0.291730 0.291730 0.291730 0.291730 0.291730 0.291730 0.291730 0.291730 0.291730 0.285714 0.285714 0.285714 0.285714 0.285714 0.285714 0.285714 0.285714 0.285714 0.298142 0.298142 0.298142 0.298142 0.298142 0.298142 0.298142 0.298142 0.291730 0.291730 0.291730 0.291730 0.291730 0.291730 0.291730 0.291730 0.285714 0.285714 0.285714 0.285714 0.285714 0.285714 0.285714 0.285714 0.280056 0.280056 0.280056 0.280056 0.280056 0.280056 0.280056 0.280056 0.291730 0.291730 0.291730 0.291730 0.291730 0.291730 0.291730 0.285714 0.285714 0.285714 0.285714 0.285714 0.285714 0.285714 0.285714 0.285714 0.285714 0.285714 0.285714 0.285714 0.285714 0.280056 0.280056 0.280056 0.280056 0.280056 0.280056 0.280056 0.274721 0.274721 0.274721 0.274721 0.274721 0.274721 0.274721 0.291730 0.291730 0.291730 0.291730 0.291730 0.291730 0.264906 0.264906 0.264906 0.264906 0.264906 0.264906 0.264906 0.280056 0.280056 0.280056 0.280056 0.280056 0.280056 0.280056 0.280056 0.280056 0.280056 0.280056 0.280056 0.274721 0.274721 0.274721 0.274721 0.274721 0.274721 0.269680 0.269680 0.269680 0.269680 0.269680 0.269680 0.264906 0.264906 0.264906 0.264906 0.264906 0.264906 0.264906 0.264906 0.264906 0.264906 0.264906 0.264906 0.280056 0.280056 0.280056 0.280056 0.280056 0.256074 0.256074 0.256074 0.256074 0.256074 0.256074 0.256074 0.256074 0.256074 0.256074 0.256074
