# Output from CTFFind version 4.1.9, run on 2019-11-03 18:51:08
# Input file: stack19_ub_averaged_50.mrc ; Number of micrographs: 1
# Pixel size: 3.000 Angstroms ; acceleration voltage: 300.0 keV ; spherical aberration: 0.00 mm ; amplitude contrast: 0.07
# Box size: 512 pixels ; min. res.: 30.0 Angstroms ; max. res.: 5.0 Angstroms ; min. def.: 5000.0 um; max. def. 50000.0 um; num. frames averaged: 1
# 6 lines per micrograph: #1 - spatial frequency (1/Angstroms); #2 - 1D rotational average of spectrum (assuming no astigmatism); #3 - 1D rotational average of spectrum; #4 - CTF fit; #5 - cross-correlation between spectrum and CTF fit; #6 - 2sigma of expected cross correlation of noise
0.000000 0.000651 0.001302 0.001953 0.002604 0.003255 0.003906 0.004557 0.005208 0.005859 0.006510 0.007161 0.007812 0.008464 0.009115 0.009766 0.010417 0.011068 0.011719 0.012370 0.013021 0.013672 0.014323 0.014974 0.015625 0.016276 0.016927 0.017578 0.018229 0.018880 0.019531 0.020182 0.020833 0.021484 0.022135 0.022786 0.023438 0.024089 0.024740 0.025391 0.026042 0.026693 0.027344 0.027995 0.028646 0.029297 0.029948 0.030599 0.031250 0.031901 0.032552 0.033203 0.033854 0.034505 0.035156 0.035807 0.036458 0.037109 0.037760 0.038411 0.039062 0.039714 0.040365 0.041016 0.041667 0.042318 0.042969 0.043620 0.044271 0.044922 0.045573 0.046224 0.046875 0.047526 0.048177 0.048828 0.049479 0.050130 0.050781 0.051432 0.052083 0.052734 0.053385 0.054036 0.054688 0.055339 0.055990 0.056641 0.057292 0.057943 0.058594 0.059245 0.059896 0.060547 0.061198 0.061849 0.062500 0.063151 0.063802 0.064453 0.065104 0.065755 0.066406 0.067057 0.067708 0.068359 0.069010 0.069661 0.070312 0.070964 0.071615 0.072266 0.072917 0.073568 0.074219 0.074870 0.075521 0.076172 0.076823 0.077474 0.078125 0.078776 0.079427 0.080078 0.080729 0.081380 0.082031 0.082682 0.083333 0.083984 0.084635 0.085286 0.085938 0.086589 0.087240 0.087891 0.088542 0.089193 0.089844 0.090495 0.091146 0.091797 0.092448 0.093099 0.093750 0.094401 0.095052 0.095703 0.096354 0.097005 0.097656 0.098307 0.098958 0.099609 0.100260 0.100911 0.101562 0.102214 0.102865 0.103516 0.104167 0.104818 0.105469 0.106120 0.106771 0.107422 0.108073 0.108724 0.109375 0.110026 0.110677 0.111328 0.111979 0.112630 0.113281 0.113932 0.114583 0.115234 0.115885 0.116536 0.117188 0.117839 0.118490 0.119141 0.119792 0.120443 0.121094 0.121745 0.122396 0.123047 0.123698 0.124349 0.125000 0.125651 0.126302 0.126953 0.127604 0.128255 0.128906 0.129557 0.130208 0.130859 0.131510 0.132161 0.132812 0.133464 0.134115 0.134766 0.135417 0.136068 0.136719 0.137370 0.138021 0.138672 0.139323 0.139974 0.140625 0.141276 0.141927 0.142578 0.143229 0.143880 0.144531 0.145182 0.145833 0.146484 0.147135 0.147786 0.148438 0.149089 0.149740 0.150391 0.151042 0.151693 0.152344 0.152995 0.153646 0.154297 0.154948 0.155599 0.156250 0.156901 0.157552 0.158203 0.158854 0.159505 0.160156 0.160807 0.161458 0.162109 0.162760 0.163411 0.164062 0.164714 0.165365 0.166016 0.166667 0.167318 0.167969 0.168620 0.169271 0.169922 0.170573 0.171224 0.171875 0.172526 0.173177 0.173828 0.174479 0.175130 0.175781 0.176432 0.177083 0.177734 0.178385 0.179036 0.179688 0.180339 0.180990 0.181641 0.182292 0.182943 0.183594 0.184245 0.184896 0.185547 0.186198 0.186849 0.187500 0.188151 0.188802 0.189453 0.190104 0.190755 0.191406 0.192057 0.192708 0.193359 0.194010 0.194661 0.195312 0.195964 0.196615 0.197266 0.197917 0.198568 0.199219 0.199870 0.200521 0.201172 0.201823 0.202474 0.203125 0.203776 0.204427 0.205078 0.205729 0.206380 0.207031 0.207682 0.208333 0.208984 0.209635 0.210286 0.210938 0.211589 0.212240 0.212891 0.213542 0.214193 0.214844 0.215495 0.216146 0.216797 0.217448 0.218099 0.218750 0.219401 0.220052 0.220703 0.221354 0.222005 0.222656 0.223307 0.223958 0.224609 0.225260 0.225911 0.226562 0.227214 0.227865 0.228516 0.229167 0.229818 0.230469 0.231120 0.231771 0.232422 0.233073 0.233724 0.234375 0.235026 0.235677
       0.32601        0.32601        0.32601        0.32602        0.32601        0.32601        0.32602        0.32602        0.32601        0.32601        0.32602        0.32602        0.32601        0.32602        0.32601        0.32601        0.32602        0.32601        0.32602        0.32602        0.32601        0.32601        0.32601        0.32602        0.32601        0.32602        0.32602        0.32601        0.32601        0.32602        0.32601        0.32602        0.32601        0.32601        0.32601        0.32601        0.32602        0.32602        0.32602        0.32601        0.32602        0.32602        0.32602        0.32602        0.32601        0.32601        0.32601        0.32602        0.32601        0.32602        0.32601        0.63544        0.80098        0.36522        0.18703       -0.10731       -0.27255       -0.28605       -0.03786       -0.13011        0.11363        0.01879       -0.03558       -0.06262       -0.13086       -0.24686       -0.37176       -0.44393       -0.45514       -0.45167       -0.45598       -0.50283       -0.51328       -0.50556       -0.53842       -0.53552       -0.62940       -0.53302       -0.56737       -0.50022       -0.47260       -0.32369       -0.27170       -0.11609       -0.06954        0.08934        0.17349        0.22330        0.27544        0.27598        0.48086        0.57536        0.55176        0.52914        0.64169        0.65694        0.74492        0.82541        0.79954        0.64777        0.53975        0.49656        0.36174        0.27451        0.18114        0.13111        0.11583        0.00293       -0.09074        0.02645       -0.01500       -0.07716       -0.04026        0.05368        0.09984        0.16324        0.24980        0.40187        0.53390        0.48162        0.64545        0.63102        0.68948        0.70716        0.67502        0.56513        0.58358        0.57037        0.51683        0.45440        0.30808        0.25897        0.13867        0.06544        0.06314        0.02933        0.14825        0.16180        0.13069        0.22081        0.31789        0.46705        0.50935        0.45866        0.63065        0.56535        0.59402        0.54755        0.59968        0.46893        0.39378        0.34562        0.25149        0.15902        0.12238        0.13775        0.11283        0.13374        0.24220        0.24574        0.30107        0.34523        0.35723        0.43843        0.49465        0.51123        0.49566        0.47810        0.36154        0.35854        0.29658        0.31920        0.22692        0.17866        0.18249        0.22156        0.28256        0.22453        0.25040        0.37032        0.42386        0.46976        0.54388        0.50231        0.43411        0.41860        0.34835        0.37292        0.34628        0.27563        0.22649        0.22642        0.26972        0.26893        0.34945        0.37641        0.39554        0.40285        0.41034        0.40565        0.42459        0.37974        0.31557        0.28338        0.24015        0.26247        0.21359        0.24257        0.26267        0.30519        0.35450        0.35097        0.39450        0.42583        0.42140        0.40335        0.39523        0.34645        0.33957        0.29968        0.26007        0.23514        0.23976        0.28858        0.35944        0.36925        0.39755        0.40774        0.38483        0.40394        0.31643        0.28640        0.26572        0.26268        0.27686        0.27937        0.31630        0.32650        0.34361        0.33946        0.34915        0.30130        0.31685        0.31350        0.25602        0.29610        0.24539        0.28060        0.27760        0.28244        0.29370        0.32845        0.32708        0.34209        0.31323        0.31439        0.28261        0.27020        0.28518        0.25801        0.27596        0.30066        0.32531        0.33965        0.33032        0.36160        0.35089        0.31504        0.31366        0.28020        0.29335        0.27533        0.30350        0.33715        0.33386        0.30906        0.33575        0.29652        0.30062        0.30247        0.28400        0.30021        0.32077        0.32284        0.30109        0.31616        0.30668        0.36204        0.33408        0.29958        0.27623        0.26019        0.28439        0.33343        0.26521        0.24449        0.29644        0.31820        0.28659        0.33186        0.31374        0.33736        0.31227        0.27768        0.23446        0.29557        0.33139        0.25612        0.30729        0.30541        0.32518        0.21438        0.28855        0.31670        0.32816        0.23077        0.29050        0.25677        0.27528        0.29169        0.28621        0.21575        0.22404        0.25578        0.26437        0.31598        0.26429        0.21803        0.24180        0.28277        0.24215        0.25975        0.19635        0.25684        0.21236        0.28870        0.28271        0.27432        0.26442        0.27022        0.25528        0.31192        0.25143        0.29777        0.24476        0.22847        0.26601        0.25922        0.28840        0.29586        0.15739        0.16141        0.13483        0.34032        0.24633        0.15911        0.14346        0.14728        0.00118        0.28879        0.40756       -0.29489       -0.43333
2.660387 2.632082 2.603936 2.575948 2.548119 2.520448 2.492936 2.465582 2.438387 2.411350 2.384471 2.357751 2.331190 2.304787 2.278542 2.252456 2.226529 2.200760 2.175149 2.149697 2.124403 2.099268 2.074291 2.049473 2.024813 2.000312 1.975969 1.951785 1.927759 1.903892 1.880183 1.856632 1.833240 1.810007 1.786932 1.764015 1.741257 1.718658 1.696216 1.673934 1.651810 1.629844 1.608037 1.586388 1.564898 1.543566 1.522392 1.501378 1.480521 1.459823 1.439284 1.543578 2.245878 1.383186 1.094787 0.783079 0.701172 0.490492 0.930567 0.700775 0.986684 0.932572 0.649856 0.749553 0.673969 0.522341 0.276125 0.247328 0.112801 0.194621 0.188194 0.045564 -0.025594 0.049903 -0.018376 -0.004955 -0.200871 -0.063948 -0.165867 -0.065577 -0.088116 0.104858 0.113420 0.275295 0.376436 0.465935 0.663467 0.625681 0.722713 0.628200 0.899820 1.028097 1.001094 0.944453 1.040136 1.057898 1.119777 1.294080 1.200621 1.084669 0.862329 0.849628 0.641220 0.586231 0.385898 0.297412 0.369604 0.166845 0.029607 0.127048 0.148430 -0.076628 0.050163 0.136475 0.163589 0.275103 0.238122 0.422601 0.691137 0.609786 0.700863 0.709138 0.801234 0.820224 0.800378 0.640886 0.677784 0.609676 0.581236 0.485406 0.387330 0.214650 0.141703 -0.034865 -0.032603 -0.036268 -0.063400 0.124256 0.035093 0.054082 0.158231 0.306975 0.526238 0.319156 0.504510 0.551162 0.515922 0.518613 0.548110 0.427317 0.287669 0.250507 0.153570 0.035488 -0.075876 -0.037021 -0.046710 -0.117590 0.081677 0.040112 0.105671 0.166809 0.204559 0.226459 0.319617 0.382530 0.450414 0.410452 0.332296 0.234556 0.160033 0.243359 0.117949 0.038819 -0.014018 0.039427 0.093436 0.133714 0.042645 0.173905 0.271419 0.281724 0.436106 0.390575 0.273514 0.319727 0.197404 0.200365 0.194657 0.128278 0.052499 0.002718 0.099985 0.042508 0.108516 0.190474 0.208893 0.245302 0.203319 0.251850 0.244722 0.206442 0.118244 0.124043 0.018761 0.058418 0.013330 0.008241 -0.007116 0.078921 0.111586 0.144303 0.150907 0.207969 0.215755 0.219208 0.196719 0.144184 0.100640 0.119437 0.037278 -0.006266 -0.004688 -0.020166 0.118507 0.122585 0.148128 0.194464 0.186109 0.170000 0.173870 0.038419 0.033865 0.034102 0.003732 0.050731 0.035126 0.103371 0.083041 0.114647 0.127151 0.096852 0.070083 0.100230 0.043879 0.027948 0.056438 -0.003076 0.049109 0.030192 0.047565 0.057985 0.095352 0.107903 0.062922 0.085678 0.055013 0.023190 0.028628 -0.013579 0.025958 0.048260 0.048453 0.083857 0.066387 0.137206 0.117198 0.109087 0.049439 0.053449 0.009661 0.048616 0.023364 0.024986 0.112916 0.063129 0.031353 0.099621 -0.039940 0.040246 0.011147 0.005030 0.017344 0.039516 0.020432 0.033094 0.034164 0.056759 0.072248 0.052472 0.015262 -0.016580 -0.025302 -0.011424 0.079522 -0.044266 -0.006273 0.029249 0.053094 0.005930 0.090327 0.074091 0.061508 0.042046 0.019681 -0.046799 0.033348 0.151401 0.021474 0.098332 0.096571 0.088161 -0.035299 0.086031 0.112261 0.098534 -0.010183 0.102429 0.051000 0.029108 0.094360 0.085352 -0.017466 -0.009762 0.050212 0.028987 0.094875 0.050709 -0.060766 0.043674 0.046327 -0.021392 0.035160 -0.085149 0.059480 -0.017589 0.054562 0.033146 -0.003556 -0.023243 0.043702 0.003636 0.034299 -0.014199 0.007826 -0.041524 -0.034011 -0.015499 -0.010142 0.045486 -0.006861 -0.118999 -0.155246 -0.293224 0.404857 0.278271 0.185586 0.174722 0.295791 -0.018770 0.309217 0.495437 -0.514176
0.072396 0.072910 0.074450 0.077017 0.080610 0.085228 0.090870 0.097534 0.105218 0.113918 0.123632 0.134355 0.146080 0.158802 0.172512 0.187201 0.202856 0.219464 0.237010 0.255474 0.274836 0.295071 0.316152 0.338047 0.360721 0.384135 0.408245 0.433002 0.458352 0.484235 0.510588 0.537337 0.564407 0.591714 0.619167 0.646669 0.674116 0.701397 0.728392 0.754977 0.781020 0.806379 0.830909 0.854458 0.876865 0.897967 0.917594 0.935570 0.951718 0.965857 0.977803 0.987372 0.994382 0.998649 0.999995 0.998246 0.993235 0.984802 0.972798 0.957085 0.937543 0.914065 0.886564 0.854975 0.819255 0.779388 0.735386 0.687293 0.635182 0.579164 0.519386 0.456032 0.389327 0.319537 0.246969 0.171972 0.094938 0.016301 0.063465 0.143846 0.224291 0.304215 0.383000 0.460005 0.534561 0.605987 0.673589 0.736669 0.794533 0.846500 0.891906 0.930120 0.960548 0.982645 0.995927 0.999975 0.994453 0.979112 0.953801 0.918476 0.873207 0.818186 0.753734 0.680299 0.598468 0.508958 0.412621 0.310441 0.203522 0.093086 0.019541 0.132940 0.245618 0.356023 0.462569 0.563654 0.657687 0.743116 0.818455 0.882310 0.933412 0.970645 0.993072 0.999965 0.990827 0.965416 0.923764 0.866189 0.793310 0.706045 0.605616 0.493536 0.371601 0.241862 0.106604 0.031696 0.170402 0.306778 0.438027 0.561361 0.674056 0.773517 0.857345 0.923395 0.969849 0.995262 0.998625 0.979402 0.937572 0.873651 0.788707 0.684354 0.562746 0.426537 0.278840 0.123169 0.036643 0.196527 0.352280 0.499681 0.634593 0.753102 0.851624 0.927032 0.976761 0.998914 0.992343 0.956718 0.892572 0.801319 0.685249 0.547494 0.391955 0.223219 0.046429 0.132859 0.308849 0.475684 0.627650 0.759373 0.866026 0.943512 0.988649 0.999311 0.974550 0.914677 0.821296 0.697299 0.546798 0.375020 0.188144 0.006905 0.202695 0.391578 0.565972 0.718683 0.843212 0.934049 0.986935 0.999093 0.969397 0.898477 0.788757 0.644408 0.471232 0.276445 0.068417 0.143684 0.350276 0.541801 0.709170 0.844211 0.940090 0.991682 0.995881 0.951819 0.860980 0.727205 0.556578 0.357184 0.138760 0.087748 0.310730 0.518495 0.699893 0.844932 0.945347 0.995114 0.990849 0.932075 0.821342 0.664177 0.468856 0.246016 0.008110 0.231265 0.458134 0.658964 0.821489 0.935484 0.993448 0.991151 0.927986 0.807112 0.635371 0.422954 0.182853 0.069898 0.319148 0.548639 0.743086 0.889218 0.976726 0.999039 0.953875 0.843520 0.674800 0.458715 0.209807 0.054796 0.316520 0.556626 0.757588 0.904383 0.985667 0.994714 0.930038 0.795647 0.600885 0.359850 0.090452 0.186879 0.450723 0.680318 0.857218 0.966832 0.999677 0.952281 0.827621 0.635036 0.389629 0.111139 0.177571 0.452382 0.689921 0.869585 0.975364 0.997365 0.932806 0.786442 0.570324 0.302910 0.007558 0.289452 0.561254 0.782815 0.933295 0.998080 0.970286 0.851595 0.652284 0.390470 0.090532 0.219065 0.508462 0.749280 0.917431 0.995624 0.975222 0.857315 0.652827 0.381629 0.070717 0.248407 0.542892 0.781925 0.940007 0.999753 0.953924 0.806414 0.572081 0.275388 0.052065 0.374814 0.657378 0.868171 0.983103 0.988450 0.882618 0.676584 0.392913 0.063407 0.274363 0.581308 0.821349 0.965729 0.996562 0.909188 0.713003 0.430628 0.095427 0.252318 0.570199 0.818879 0.967002 0.995284 0.899159 0.689659 0.392332 0.044268 0.310420 0.626128 0.861669 0.985713 0.981088 0.847334 0.601077 0.274172 0.090297 0.443595 0.737807 0.932423 0.999997
1.000000 1.000000 1.000000 1.000000 1.000000 1.000000 1.000000 1.000000 1.000000 1.000000 1.000000 1.000000 1.000000 1.000000 1.000000 1.000000 1.000000 1.000000 1.000000 1.000000 1.000000 1.000000 1.000000 1.000000 1.000000 1.000000 1.000000 1.000000 1.000000 1.000000 1.000000 1.000000 1.000000 1.000000 1.000000 1.000000 1.000000 1.000000 1.000000 1.000000 1.000000 1.000000 1.000000 1.000000 1.000000 1.000000 1.000000 1.000000 1.000000 1.000000 1.000000 1.000000 0.938557 0.938557 0.939611 0.939611 0.939611 0.939611 0.939611 0.939611 0.939611 0.939611 0.939611 0.939611 0.939611 0.939611 0.939611 0.939611 0.939611 0.939611 0.939611 0.939611 0.939611 0.939611 0.939611 0.939611 0.939611 0.939611 0.939611 0.939611 0.939611 0.939611 0.939611 0.939611 0.939611 0.939611 0.939611 0.939611 0.939611 0.939611 0.939611 0.939611 0.939611 0.939611 0.939611 0.943905 0.941648 0.944266 0.941839 0.942673 0.936747 0.935745 0.935052 0.934803 0.935376 0.935739 0.942959 0.944376 0.945584 0.947981 0.954949 0.955921 0.956124 0.957911 0.956543 0.956591 0.954717 0.950860 0.948872 0.949901 0.951323 0.950280 0.949229 0.951812 0.952995 0.951231 0.949070 0.948132 0.948371 0.948306 0.948185 0.948155 0.947975 0.948556 0.949158 0.949534 0.947849 0.945561 0.942867 0.944142 0.946925 0.949351 0.951544 0.945448 0.944934 0.938024 0.940398 0.937389 0.937369 0.937805 0.939090 0.939788 0.939338 0.929364 0.926567 0.914768 0.909280 0.908059 0.907731 0.910110 0.914958 0.916408 0.912889 0.908046 0.904227 0.898244 0.910164 0.906264 0.899873 0.894537 0.893839 0.897405 0.897890 0.896944 0.888841 0.886082 0.876719 0.877252 0.881236 0.885228 0.882030 0.881574 0.880114 0.878471 0.878434 0.879463 0.879096 0.885199 0.884710 0.885476 0.885952 0.876722 0.875727 0.878919 0.877248 0.861814 0.858896 0.856099 0.856765 0.861310 0.872895 0.874340 0.871400 0.853028 0.851020 0.866760 0.882863 0.883927 0.885505 0.885890 0.879059 0.873844 0.873079 0.875525 0.868637 0.873044 0.871800 0.873118 0.860180 0.862742 0.853851 0.853222 0.848495 0.844029 0.847873 0.853083 0.852444 0.851022 0.847491 0.845557 0.838118 0.847622 0.846684 0.849302 0.847646 0.844819 0.824871 0.827246 0.829411 0.829907 0.828225 0.824467 0.820295 0.826860 0.823127 0.821722 0.809323 0.822476 0.820225 0.804232 0.801350 0.769948 0.769158 0.763669 0.754432 0.745527 0.737013 0.726841 0.723016 0.730380 0.744145 0.743725 0.735910 0.722561 0.723838 0.722671 0.732918 0.707619 0.660337 0.633546 0.637078 0.641026 0.636922 0.617405 0.592444 0.515845 0.498384 0.468589 0.464696 0.484356 0.468633 0.461785 0.443737 0.432755 0.457716 0.443097 0.433510 0.424642 0.419209 0.407158 0.359912 0.322330 0.361060 0.373645 0.364637 0.367344 0.366662 0.366226 0.346402 0.321117 0.285439 0.274365 0.266572 0.268983 0.255755 0.259157 0.247073 0.231334 0.263262 0.260807 0.263375 0.204109 0.195816 0.191594 0.185649 0.198019 0.190819 0.175027 0.150471 0.151179 0.127757 0.036166 0.007634 0.014587 0.006224 -0.006588 0.017326 0.022544 0.018659 0.007946 0.022166 0.039573 0.054770 -0.000050 -0.006169 -0.006169 -0.039332 -0.039332 -0.039332 -0.039332 -0.039332 -0.039332 -0.039332 -0.039332 -0.039332 -0.040980 -0.040980 -0.040980 -0.040980 -0.040980 -0.040980 -0.040980 -0.040980 -0.040980 -0.000502 -0.000502 -0.000502 -0.000502 -0.000502 -0.000502 -0.000502 -0.000502 -0.000502
0.000000 0.000000 0.000000 0.000000 0.000000 0.000000 0.000000 0.000000 0.000000 0.000000 0.000000 0.000000 0.000000 0.000000 0.000000 0.000000 0.000000 0.000000 0.000000 0.000000 0.000000 0.000000 0.000000 0.000000 0.000000 0.000000 0.000000 0.000000 0.000000 0.000000 0.000000 0.000000 0.000000 0.000000 0.000000 0.000000 0.000000 0.000000 0.000000 0.000000 0.000000 0.000000 0.000000 0.000000 0.000000 0.000000 0.000000 0.000000 0.000000 0.000000 0.000000 0.000000 0.181818 0.181818 0.199007 0.199007 0.199007 0.199007 0.199007 0.199007 0.199007 0.199007 0.199007 0.199007 0.199007 0.199007 0.199007 0.199007 0.199007 0.199007 0.199007 0.199007 0.199007 0.199007 0.199007 0.199007 0.199007 0.199007 0.199007 0.199007 0.199007 0.199007 0.199007 0.199007 0.199007 0.199007 0.199007 0.199007 0.199007 0.199007 0.199007 0.199007 0.199007 0.199007 0.199007 0.230940 0.230940 0.230940 0.230940 0.230940 0.230940 0.230940 0.230940 0.230940 0.230940 0.230940 0.230940 0.230940 0.230940 0.230940 0.230940 0.230940 0.230940 0.230940 0.230940 0.230940 0.230940 0.230940 0.230940 0.230940 0.230940 0.230940 0.230940 0.244339 0.244339 0.244339 0.244339 0.244339 0.244339 0.244339 0.244339 0.244339 0.244339 0.244339 0.244339 0.244339 0.244339 0.244339 0.244339 0.244339 0.244339 0.244339 0.244339 0.244339 0.244339 0.244339 0.251976 0.251976 0.251976 0.251976 0.251976 0.251976 0.251976 0.251976 0.251976 0.251976 0.251976 0.251976 0.251976 0.251976 0.251976 0.251976 0.251976 0.251976 0.251976 0.251976 0.264906 0.264906 0.264906 0.264906 0.264906 0.264906 0.264906 0.264906 0.264906 0.264906 0.264906 0.264906 0.264906 0.264906 0.264906 0.264906 0.264906 0.264906 0.264906 0.264906 0.264906 0.264906 0.264906 0.264906 0.264906 0.264906 0.264906 0.264906 0.264906 0.264906 0.264906 0.264906 0.264906 0.264906 0.264906 0.264906 0.264906 0.264906 0.264906 0.264906 0.264906 0.264906 0.264906 0.264906 0.264906 0.264906 0.264906 0.264906 0.264906 0.264906 0.264906 0.264906 0.264906 0.264906 0.264906 0.264906 0.264906 0.264906 0.264906 0.264906 0.264906 0.264906 0.264906 0.264906 0.264906 0.264906 0.264906 0.264906 0.264906 0.264906 0.264906 0.264906 0.264906 0.264906 0.264906 0.269680 0.269680 0.269680 0.269680 0.269680 0.269680 0.269680 0.269680 0.269680 0.269680 0.269680 0.269680 0.264906 0.264906 0.264906 0.264906 0.264906 0.264906 0.264906 0.264906 0.264906 0.264906 0.264906 0.264906 0.269680 0.269680 0.269680 0.269680 0.269680 0.269680 0.269680 0.269680 0.269680 0.269680 0.269680 0.264906 0.264906 0.264906 0.264906 0.264906 0.264906 0.264906 0.264906 0.264906 0.264906 0.264906 0.256074 0.256074 0.256074 0.256074 0.256074 0.256074 0.256074 0.256074 0.256074 0.256074 0.256074 0.264906 0.264906 0.264906 0.264906 0.264906 0.264906 0.264906 0.264906 0.264906 0.264906 0.260378 0.260378 0.260378 0.260378 0.260378 0.260378 0.260378 0.260378 0.260378 0.260378 0.264906 0.264906 0.264906 0.264906 0.264906 0.264906 0.264906 0.264906 0.264906 0.260378 0.260378 0.260378 0.260378 0.260378 0.260378 0.260378 0.260378 0.260378 0.256074 0.256074 0.256074 0.256074 0.256074 0.256074 0.256074 0.256074 0.256074 0.251976 0.251976 0.251976 0.251976 0.251976 0.251976 0.251976 0.251976 0.251976 0.264906 0.264906 0.264906 0.264906 0.264906 0.264906 0.264906 0.264906 0.264906
