# Output from CTFFind version 4.1.9, run on 2019-11-03 18:51:09
# Input file: stack20_ub_averaged_50.mrc ; Number of micrographs: 1
# Pixel size: 3.000 Angstroms ; acceleration voltage: 300.0 keV ; spherical aberration: 0.00 mm ; amplitude contrast: 0.07
# Box size: 512 pixels ; min. res.: 30.0 Angstroms ; max. res.: 5.0 Angstroms ; min. def.: 5000.0 um; max. def. 50000.0 um; num. frames averaged: 1
# 6 lines per micrograph: #1 - spatial frequency (1/Angstroms); #2 - 1D rotational average of spectrum (assuming no astigmatism); #3 - 1D rotational average of spectrum; #4 - CTF fit; #5 - cross-correlation between spectrum and CTF fit; #6 - 2sigma of expected cross correlation of noise
0.000000 0.000651 0.001302 0.001953 0.002604 0.003255 0.003906 0.004557 0.005208 0.005859 0.006510 0.007161 0.007812 0.008464 0.009115 0.009766 0.010417 0.011068 0.011719 0.012370 0.013021 0.013672 0.014323 0.014974 0.015625 0.016276 0.016927 0.017578 0.018229 0.018880 0.019531 0.020182 0.020833 0.021484 0.022135 0.022786 0.023438 0.024089 0.024740 0.025391 0.026042 0.026693 0.027344 0.027995 0.028646 0.029297 0.029948 0.030599 0.031250 0.031901 0.032552 0.033203 0.033854 0.034505 0.035156 0.035807 0.036458 0.037109 0.037760 0.038411 0.039062 0.039714 0.040365 0.041016 0.041667 0.042318 0.042969 0.043620 0.044271 0.044922 0.045573 0.046224 0.046875 0.047526 0.048177 0.048828 0.049479 0.050130 0.050781 0.051432 0.052083 0.052734 0.053385 0.054036 0.054688 0.055339 0.055990 0.056641 0.057292 0.057943 0.058594 0.059245 0.059896 0.060547 0.061198 0.061849 0.062500 0.063151 0.063802 0.064453 0.065104 0.065755 0.066406 0.067057 0.067708 0.068359 0.069010 0.069661 0.070312 0.070964 0.071615 0.072266 0.072917 0.073568 0.074219 0.074870 0.075521 0.076172 0.076823 0.077474 0.078125 0.078776 0.079427 0.080078 0.080729 0.081380 0.082031 0.082682 0.083333 0.083984 0.084635 0.085286 0.085938 0.086589 0.087240 0.087891 0.088542 0.089193 0.089844 0.090495 0.091146 0.091797 0.092448 0.093099 0.093750 0.094401 0.095052 0.095703 0.096354 0.097005 0.097656 0.098307 0.098958 0.099609 0.100260 0.100911 0.101562 0.102214 0.102865 0.103516 0.104167 0.104818 0.105469 0.106120 0.106771 0.107422 0.108073 0.108724 0.109375 0.110026 0.110677 0.111328 0.111979 0.112630 0.113281 0.113932 0.114583 0.115234 0.115885 0.116536 0.117188 0.117839 0.118490 0.119141 0.119792 0.120443 0.121094 0.121745 0.122396 0.123047 0.123698 0.124349 0.125000 0.125651 0.126302 0.126953 0.127604 0.128255 0.128906 0.129557 0.130208 0.130859 0.131510 0.132161 0.132812 0.133464 0.134115 0.134766 0.135417 0.136068 0.136719 0.137370 0.138021 0.138672 0.139323 0.139974 0.140625 0.141276 0.141927 0.142578 0.143229 0.143880 0.144531 0.145182 0.145833 0.146484 0.147135 0.147786 0.148438 0.149089 0.149740 0.150391 0.151042 0.151693 0.152344 0.152995 0.153646 0.154297 0.154948 0.155599 0.156250 0.156901 0.157552 0.158203 0.158854 0.159505 0.160156 0.160807 0.161458 0.162109 0.162760 0.163411 0.164062 0.164714 0.165365 0.166016 0.166667 0.167318 0.167969 0.168620 0.169271 0.169922 0.170573 0.171224 0.171875 0.172526 0.173177 0.173828 0.174479 0.175130 0.175781 0.176432 0.177083 0.177734 0.178385 0.179036 0.179688 0.180339 0.180990 0.181641 0.182292 0.182943 0.183594 0.184245 0.184896 0.185547 0.186198 0.186849 0.187500 0.188151 0.188802 0.189453 0.190104 0.190755 0.191406 0.192057 0.192708 0.193359 0.194010 0.194661 0.195312 0.195964 0.196615 0.197266 0.197917 0.198568 0.199219 0.199870 0.200521 0.201172 0.201823 0.202474 0.203125 0.203776 0.204427 0.205078 0.205729 0.206380 0.207031 0.207682 0.208333 0.208984 0.209635 0.210286 0.210938 0.211589 0.212240 0.212891 0.213542 0.214193 0.214844 0.215495 0.216146 0.216797 0.217448 0.218099 0.218750 0.219401 0.220052 0.220703 0.221354 0.222005 0.222656 0.223307 0.223958 0.224609 0.225260 0.225911 0.226562 0.227214 0.227865 0.228516 0.229167 0.229818 0.230469 0.231120 0.231771 0.232422 0.233073 0.233724 0.234375 0.235026 0.235677
       0.32762        0.32762        0.32762        0.32762        0.32762        0.32761        0.32762        0.32762        0.32762        0.32762        0.32762        0.32762        0.32762        0.32762        0.32762        0.32762        0.32762        0.32762        0.32762        0.32762        0.32762        0.32761        0.32762        0.32762        0.32761        0.32762        0.32761        0.32762        0.32762        0.32762        0.32761        0.32762        0.32761        0.32762        0.32761        0.32762        0.32762        0.32761        0.32762        0.32761        0.32762        0.32762        0.32762        0.32762        0.32761        0.32762        0.32762        0.32762        0.32761        0.32762        0.32762        0.67835        0.99903        0.53315        0.23414        0.13706        0.10815        0.03734        0.15966        0.21841        0.15003        0.32582        0.45684        0.41454        0.21996        0.05402        0.00404        0.12629        0.11680        0.01689        0.12960        0.00372        0.04428        0.07951        0.17149        0.01687       -0.08039       -0.11587       -0.10880       -0.18914       -0.39070       -0.28915       -0.33163       -0.29825       -0.37354       -0.29439       -0.34852       -0.25901       -0.30195       -0.30178       -0.26609       -0.17765       -0.17603       -0.02312       -0.03025        0.06151        0.24269        0.32257        0.47064        0.41858        0.42974        0.56302        0.61237        0.69960        0.55285        0.63284        0.67404        0.76453        0.65878        0.69948        0.72881        0.72353        0.59099        0.55069        0.51899        0.49455        0.40268        0.30927        0.20926        0.20426        0.05289       -0.03182       -0.04253       -0.01876       -0.06569       -0.01264       -0.01130        0.05617        0.09029        0.18511        0.27334        0.41471        0.44395        0.51076        0.52127        0.56231        0.60502        0.63473        0.70519        0.63474        0.63902        0.58567        0.54761        0.49624        0.42306        0.39443        0.35915        0.31691        0.22625        0.18954        0.08712        0.06854        0.01956        0.07725        0.19759        0.22601        0.26811        0.27244        0.35436        0.40015        0.46881        0.52982        0.55727        0.53442        0.55795        0.54341        0.50635        0.47954        0.43971        0.40932        0.32722        0.30454        0.20682        0.22165        0.18382        0.15240        0.22559        0.21809        0.19419        0.26835        0.31562        0.27033        0.38714        0.38974        0.47444        0.45988        0.43969        0.46099        0.47250        0.42570        0.39937        0.31738        0.30650        0.28595        0.23783        0.25382        0.22937        0.25303        0.28977        0.25653        0.30268        0.35391        0.36122        0.36005        0.45884        0.40098        0.39449        0.38461        0.37058        0.41444        0.36005        0.33971        0.29424        0.25233        0.26351        0.26223        0.25669        0.29330        0.28288        0.33528        0.33334        0.36409        0.38583        0.38534        0.40481        0.38025        0.35280        0.31905        0.29100        0.30453        0.29743        0.29457        0.26703        0.24700        0.28979        0.29513        0.29896        0.35290        0.36337        0.33762        0.39286        0.36016        0.33804        0.31317        0.30055        0.28814        0.30962        0.28471        0.28195        0.26805        0.25090        0.30090        0.28187        0.31149        0.31161        0.32474        0.29858        0.33639        0.33197        0.29548        0.32863        0.32362        0.25379        0.26760        0.27099        0.26777        0.28033        0.27998        0.28601        0.30852        0.32268        0.33884        0.28843        0.32161        0.32632        0.26917        0.30072        0.25292        0.30979        0.28883        0.30722        0.34890        0.33667        0.33419        0.32261        0.31395        0.33735        0.31649        0.30185        0.32247        0.28769        0.28465        0.25184        0.33094        0.31409        0.33496        0.28097        0.29100        0.32342        0.30297        0.29960        0.33012        0.28745        0.31982        0.26669        0.26458        0.33387        0.30254        0.27427        0.35076        0.30463        0.30191        0.26290        0.32614        0.32842        0.27552        0.27780        0.24771        0.29420        0.30792        0.32149        0.29036        0.24329        0.23697        0.23429        0.29677        0.28186        0.26633        0.28282        0.29303        0.29001        0.22285        0.20020        0.27572        0.32427        0.24703        0.26066        0.24926        0.28753        0.23166        0.24690        0.22984        0.23886        0.25347        0.20495        0.21080        0.21229        0.16916        0.18979        0.22602        0.19756        0.15053        0.17530        0.17889        0.33356        0.15628        0.12396        0.29231        0.07074        0.07670        0.00132       -0.29131       -0.67875
1.487244 1.476883 1.466559 1.456272 1.446022 1.435810 1.425635 1.415497 1.405396 1.395333 1.385307 1.375318 1.365366 1.355452 1.345574 1.335734 1.325932 1.316166 1.306438 1.296747 1.287093 1.277476 1.267897 1.258355 1.248850 1.239382 1.229951 1.220558 1.211202 1.201883 1.192602 1.183358 1.174150 1.164981 1.155848 1.146753 1.137694 1.128674 1.119690 1.110743 1.101834 1.092962 1.084127 1.075330 1.066570 1.057847 1.049161 1.040512 1.031901 1.023327 1.014790 1.351510 1.899229 1.233108 0.865495 0.798388 0.626475 0.690992 0.681165 0.849402 0.688863 1.026491 1.022619 1.072332 0.813628 0.542134 0.439025 0.667091 0.749877 0.411651 0.557525 0.498639 0.529203 0.500707 0.590359 0.479468 0.358317 0.293247 0.238711 0.186878 -0.058678 0.044061 -0.071817 0.015883 -0.080064 -0.005788 -0.099587 -0.001311 -0.002296 0.024251 -0.089655 0.039300 0.123583 0.222340 0.191445 0.346776 0.473071 0.650144 0.805907 0.721958 0.760624 0.886717 0.901619 1.082366 0.925703 0.953157 0.905960 1.135363 1.000595 1.074176 1.000499 1.076555 0.870568 0.885035 0.789093 0.763721 0.612432 0.570192 0.369303 0.400758 0.234171 0.091865 0.061478 0.104673 0.023577 -0.004093 0.074473 0.108038 0.181445 0.253862 0.305261 0.564969 0.528032 0.638522 0.647369 0.675773 0.784172 0.717754 0.869111 0.732727 0.822917 0.684723 0.699455 0.642557 0.452862 0.469369 0.480956 0.299614 0.362593 0.156297 0.124817 0.063496 -0.049892 -0.034701 0.166074 0.165571 0.226610 0.267997 0.263162 0.455743 0.317312 0.604968 0.522415 0.573329 0.533582 0.522801 0.470791 0.451952 0.408992 0.348672 0.253216 0.259905 0.136063 0.089706 0.104745 0.010504 0.056474 0.082060 0.073815 0.071375 0.190489 0.128146 0.221459 0.247824 0.370863 0.336771 0.338529 0.299324 0.374224 0.322050 0.282517 0.217962 0.110155 0.161996 0.076465 0.032372 0.100212 0.001911 0.107664 0.076055 0.075203 0.179110 0.146954 0.193123 0.198569 0.309356 0.202381 0.173813 0.158483 0.215119 0.191667 0.127816 0.106351 0.053227 -0.018964 0.038281 -0.008956 0.022659 0.069220 0.065745 0.118171 0.076490 0.173873 0.116243 0.171239 0.218366 0.117800 0.139732 0.064372 0.066903 0.066693 0.077918 0.036291 -0.024101 0.051029 0.050435 0.059985 0.078035 0.133679 0.091679 0.107396 0.166633 0.121532 0.048192 0.089524 0.028176 0.013970 0.058698 0.007295 0.021851 -0.022194 0.033360 0.011508 0.009717 0.059370 0.058132 0.040324 0.024468 0.101051 0.034981 0.008595 0.075467 0.020891 -0.039803 -0.009274 -0.020426 -0.016753 0.005094 -0.014088 0.017143 0.028371 0.052470 0.045359 -0.035774 0.063478 0.029292 -0.031819 -0.012667 -0.010014 0.001897 -0.007970 0.047477 0.058680 0.091653 0.036509 0.019251 0.063915 0.077486 0.063457 0.016631 0.076703 0.005938 0.021476 -0.027496 0.101393 0.047770 0.087720 -0.026565 0.069515 0.025933 0.052529 0.041142 0.080697 0.055391 0.059026 -0.015659 0.027357 0.101039 0.040554 0.019157 0.132390 0.052777 0.049527 -0.023671 0.142675 0.076137 0.000961 0.054896 -0.035810 0.070400 0.072829 0.068784 0.101270 -0.008539 -0.062056 0.023387 0.042573 0.048713 0.022267 0.057957 0.029681 0.078125 -0.025598 -0.044681 0.062035 0.114782 0.010461 -0.001689 0.073684 0.025259 0.063465 0.026268 0.045789 0.002055 0.052597 -0.003511 -0.008205 0.309440 0.199766 0.246901 0.257008 0.245335 0.166534 0.191186 0.215761 0.540157 0.190514 0.056018 0.486339 0.101043 0.145549 0.002213 -0.813957
0.072396 0.072799 0.074006 0.076018 0.078834 0.082454 0.086877 0.092102 0.098127 0.104952 0.112573 0.120989 0.130197 0.140192 0.150972 0.162529 0.174859 0.187955 0.201807 0.216407 0.231745 0.247806 0.264579 0.282046 0.300190 0.318991 0.338427 0.358473 0.379102 0.400284 0.421986 0.444172 0.466803 0.489836 0.513225 0.536920 0.560866 0.585008 0.609281 0.633622 0.657959 0.682217 0.706318 0.730178 0.753711 0.776822 0.799418 0.821395 0.842651 0.863077 0.882560 0.900986 0.918235 0.934186 0.948716 0.961698 0.973008 0.982515 0.990094 0.995618 0.998959 0.999995 0.998605 0.994673 0.988086 0.978740 0.966536 0.951383 0.933201 0.911919 0.887479 0.859836 0.828959 0.794833 0.757459 0.716859 0.673072 0.626157 0.576197 0.523296 0.467582 0.409207 0.348350 0.285212 0.220023 0.153039 0.084538 0.014828 0.055760 0.126870 0.198125 0.269124 0.339447 0.408657 0.476300 0.541910 0.605013 0.665126 0.721767 0.774451 0.822702 0.866055 0.904059 0.936284 0.962325 0.981809 0.994399 0.999801 0.997768 0.988106 0.970678 0.945412 0.912301 0.871413 0.822887 0.766945 0.703884 0.634088 0.558022 0.476231 0.389345 0.298070 0.203188 0.105551 0.006077 0.094261 0.194440 0.293398 0.390044 0.483270 0.571965 0.655029 0.731384 0.799993 0.859876 0.910121 0.949905 0.978507 0.995325 0.999887 0.991866 0.971095 0.937570 0.891466 0.833138 0.763128 0.682160 0.591146 0.491175 0.383506 0.269559 0.150894 0.029200 0.093734 0.216039 0.335791 0.451051 0.559885 0.660405 0.750803 0.829383 0.894600 0.945091 0.979712 0.997563 0.998020 0.980754 0.945756 0.893344 0.824175 0.739245 0.639882 0.527737 0.404761 0.273176 0.135443 0.005777 0.147680 0.287365 0.421895 0.548359 0.663939 0.765974 0.852026 0.919944 0.967926 0.994571 0.998930 0.980542 0.939468 0.876305 0.792193 0.688807 0.568338 0.433451 0.287242 0.133169 0.025018 0.183370 0.337834 0.484351 0.618975 0.737972 0.837934 0.915891 0.969398 0.996625 0.996434 0.968430 0.913002 0.831334 0.725402 0.597938 0.452375 0.292769 0.123691 0.049893 0.222755 0.389580 0.545107 0.684317 0.802588 0.895869 0.960823 0.994958 0.996744 0.965689 0.902391 0.808549 0.686940 0.541357 0.376507 0.197876 0.011549 0.175977 0.358026 0.527975 0.679502 0.806826 0.904941 0.969830 0.998640 0.989830 0.943271 0.860286 0.743644 0.597494 0.427235 0.239341 0.041122 0.159543 0.354515 0.535728 0.695526 0.826994 0.924277 0.982852 0.999768 0.973810 0.905605 0.797640 0.654206 0.481257 0.286178 0.077498 0.135471 0.343051 0.535623 0.704084 0.840294 0.937484 0.990608 0.996644 0.954780 0.866520 0.735667 0.568191 0.371993 0.156550 0.067516 0.288960 0.496463 0.679224 0.827533 0.933302 0.990536 0.995704 0.947987 0.849386 0.704688 0.521272 0.308764 0.078556 0.156778 0.384163 0.590740 0.764628 0.895590 0.975691 0.999801 0.965958 0.875562 0.733375 0.547301 0.328008 0.088332 0.157450 0.394452 0.608081 0.784952 0.913742 0.985954 0.996508 0.944147 0.831600 0.665500 0.456039 0.216379 0.038128 0.290915 0.525274 0.725459 0.877761 0.971492 0.999764 0.960048 0.854444 0.689629 0.476498 0.229482 0.034370 0.296579 0.538493 0.742635 0.893980 0.981108 0.997107 0.940174 0.813857 0.626902 0.392709 0.128417 0.146308 0.410728 0.644583 0.829665 0.951276 0.999429 0.969736 0.863864 0.689519 0.459960 0.193050 0.090093 0.366746 0.614389 0.812555 0.944555 0.998940 0.970550 0.861068 0.679017 0.439167
1.000000 1.000000 1.000000 1.000000 1.000000 1.000000 1.000000 1.000000 1.000000 1.000000 1.000000 1.000000 1.000000 1.000000 1.000000 1.000000 1.000000 1.000000 1.000000 1.000000 1.000000 1.000000 1.000000 1.000000 1.000000 1.000000 1.000000 1.000000 1.000000 1.000000 1.000000 1.000000 1.000000 1.000000 1.000000 1.000000 1.000000 1.000000 1.000000 1.000000 1.000000 1.000000 1.000000 1.000000 1.000000 1.000000 1.000000 1.000000 1.000000 1.000000 1.000000 1.000000 0.802934 0.802934 0.802934 0.802934 0.802934 0.802934 0.802934 0.802934 0.802934 0.780420 0.780420 0.780420 0.780420 0.780420 0.780420 0.780420 0.780420 0.780420 0.780420 0.780420 0.780420 0.780420 0.780420 0.780420 0.780420 0.780420 0.780420 0.780420 0.780420 0.780420 0.780420 0.780420 0.780420 0.780420 0.780420 0.780420 0.780420 0.780420 0.780420 0.780420 0.780420 0.780420 0.780420 0.780420 0.780420 0.780420 0.780420 0.780420 0.780420 0.780420 0.780420 0.780420 0.780420 0.780420 0.780420 0.780420 0.940873 0.941116 0.942165 0.950619 0.951416 0.952284 0.952088 0.951755 0.951962 0.952064 0.951610 0.952192 0.952792 0.953695 0.966815 0.967303 0.972721 0.972761 0.972699 0.972350 0.971318 0.975562 0.974871 0.974827 0.973704 0.972865 0.972811 0.973707 0.968083 0.967772 0.967420 0.974835 0.968826 0.968217 0.967248 0.964961 0.964108 0.963388 0.963299 0.962899 0.962856 0.963086 0.963018 0.963382 0.963772 0.963931 0.963991 0.959105 0.959324 0.958347 0.957751 0.947141 0.948977 0.943676 0.939773 0.936365 0.933303 0.934510 0.934751 0.933156 0.932369 0.932306 0.932354 0.932520 0.931051 0.927552 0.923056 0.922012 0.921288 0.919591 0.918834 0.921232 0.918294 0.919221 0.923999 0.925628 0.925330 0.923381 0.920966 0.913263 0.904087 0.904254 0.899219 0.902411 0.904297 0.895458 0.892402 0.879140 0.872080 0.869377 0.867035 0.866785 0.871679 0.869165 0.868607 0.866947 0.865002 0.866403 0.859327 0.858975 0.847199 0.845187 0.852628 0.826613 0.821899 0.813373 0.806432 0.807600 0.812821 0.812438 0.816457 0.813950 0.805829 0.789052 0.781332 0.771310 0.762124 0.751672 0.760245 0.755642 0.742577 0.754621 0.740263 0.761141 0.758640 0.764349 0.774864 0.774990 0.765335 0.758756 0.751469 0.746754 0.743556 0.689369 0.742793 0.692189 0.693653 0.686728 0.678792 0.669882 0.670145 0.669390 0.674740 0.665404 0.660114 0.651941 0.647089 0.637373 0.636905 0.654251 0.623524 0.624454 0.608061 0.627230 0.580367 0.578300 0.579611 0.538332 0.520231 0.504654 0.500885 0.496450 0.496454 0.492157 0.487775 0.461819 0.475050 0.487197 0.459781 0.466708 0.458732 0.472300 0.460036 0.450942 0.398385 0.398640 0.394455 0.405282 0.408654 0.402685 0.439696 0.411154 0.408306 0.415480 0.425194 0.413320 0.353848 0.347826 0.334609 0.318992 0.310076 0.208762 0.209913 0.201213 0.215465 0.238757 0.219737 0.196284 0.234064 0.225100 0.220997 0.231951 0.224243 0.214862 0.183093 0.186768 0.166105 0.121422 0.120221 0.105496 0.086496 0.067046 0.060034 0.079323 0.102497 0.098911 0.088866 0.056690 0.015805 0.020246 0.009816 0.000253 0.055707 0.039245 0.039245 0.039245 0.039245 0.039245 0.044596 0.044596 0.044596 0.044596 0.044596 0.044596 0.044596 0.044596 0.044596 0.044596 0.044596 0.044596 0.039245 0.039245 0.039245 0.039245 0.039245 0.039245 0.039245 0.039245 0.039245 0.039245 0.039245 0.039245 0.039245 0.039245 0.039245
0.000000 0.000000 0.000000 0.000000 0.000000 0.000000 0.000000 0.000000 0.000000 0.000000 0.000000 0.000000 0.000000 0.000000 0.000000 0.000000 0.000000 0.000000 0.000000 0.000000 0.000000 0.000000 0.000000 0.000000 0.000000 0.000000 0.000000 0.000000 0.000000 0.000000 0.000000 0.000000 0.000000 0.000000 0.000000 0.000000 0.000000 0.000000 0.000000 0.000000 0.000000 0.000000 0.000000 0.000000 0.000000 0.000000 0.000000 0.000000 0.000000 0.000000 0.000000 0.000000 0.170872 0.170872 0.170872 0.170872 0.170872 0.170872 0.170872 0.170872 0.170872 0.186501 0.186501 0.186501 0.186501 0.186501 0.186501 0.186501 0.186501 0.186501 0.186501 0.186501 0.186501 0.186501 0.186501 0.186501 0.186501 0.186501 0.186501 0.186501 0.186501 0.186501 0.186501 0.186501 0.186501 0.186501 0.186501 0.186501 0.186501 0.186501 0.186501 0.186501 0.186501 0.186501 0.186501 0.186501 0.186501 0.186501 0.186501 0.186501 0.186501 0.186501 0.186501 0.186501 0.186501 0.186501 0.186501 0.186501 0.219529 0.219529 0.219529 0.219529 0.219529 0.219529 0.219529 0.219529 0.219529 0.219529 0.219529 0.219529 0.219529 0.219529 0.219529 0.219529 0.219529 0.219529 0.219529 0.219529 0.219529 0.219529 0.219529 0.219529 0.219529 0.219529 0.219529 0.219529 0.219529 0.219529 0.219529 0.230940 0.230940 0.230940 0.230940 0.230940 0.230940 0.230940 0.230940 0.230940 0.230940 0.230940 0.230940 0.230940 0.230940 0.230940 0.230940 0.230940 0.230940 0.230940 0.230940 0.230940 0.230940 0.230940 0.230940 0.230940 0.230940 0.240772 0.240772 0.240772 0.240772 0.240772 0.240772 0.240772 0.240772 0.240772 0.240772 0.240772 0.240772 0.240772 0.240772 0.240772 0.240772 0.240772 0.240772 0.240772 0.240772 0.240772 0.240772 0.244339 0.244339 0.244339 0.244339 0.244339 0.244339 0.244339 0.244339 0.244339 0.244339 0.244339 0.244339 0.244339 0.244339 0.244339 0.244339 0.244339 0.244339 0.244339 0.244339 0.248069 0.248069 0.248069 0.248069 0.248069 0.248069 0.248069 0.248069 0.248069 0.248069 0.248069 0.248069 0.248069 0.248069 0.248069 0.248069 0.248069 0.248069 0.248069 0.248069 0.248069 0.248069 0.248069 0.248069 0.248069 0.248069 0.248069 0.248069 0.248069 0.248069 0.248069 0.248069 0.248069 0.248069 0.248069 0.256074 0.256074 0.256074 0.256074 0.256074 0.256074 0.256074 0.256074 0.256074 0.256074 0.256074 0.256074 0.256074 0.256074 0.256074 0.248069 0.248069 0.248069 0.248069 0.248069 0.248069 0.248069 0.248069 0.248069 0.248069 0.248069 0.248069 0.248069 0.248069 0.248069 0.251976 0.251976 0.251976 0.251976 0.251976 0.251976 0.251976 0.251976 0.251976 0.251976 0.251976 0.251976 0.251976 0.251976 0.256074 0.256074 0.256074 0.256074 0.256074 0.256074 0.256074 0.256074 0.256074 0.256074 0.256074 0.256074 0.256074 0.248069 0.248069 0.248069 0.248069 0.248069 0.248069 0.248069 0.248069 0.248069 0.248069 0.248069 0.248069 0.248069 0.251976 0.251976 0.251976 0.251976 0.251976 0.251976 0.251976 0.251976 0.251976 0.251976 0.251976 0.251976 0.248069 0.248069 0.248069 0.248069 0.248069 0.248069 0.248069 0.248069 0.248069 0.248069 0.248069 0.248069 0.244339 0.244339 0.244339 0.244339 0.244339 0.244339 0.244339 0.244339 0.244339 0.244339 0.244339 0.244339 0.248069 0.248069 0.248069 0.248069 0.248069 0.248069 0.248069 0.248069 0.248069 0.248069 0.248069 0.248069 0.248069 0.248069 0.248069
