# Output from CTFFind version 4.1.9, run on 2019-11-02 12:26:56
# Input file: stack11_ub_averaged_3000.mrc ; Number of micrographs: 1
# Pixel size: 3.000 Angstroms ; acceleration voltage: 300.0 keV ; spherical aberration: 0.00 mm ; amplitude contrast: 0.07
# Box size: 512 pixels ; min. res.: 30.0 Angstroms ; max. res.: 5.0 Angstroms ; min. def.: 5000.0 um; max. def. 50000.0 um; num. frames averaged: 1
# 6 lines per micrograph: #1 - spatial frequency (1/Angstroms); #2 - 1D rotational average of spectrum (assuming no astigmatism); #3 - 1D rotational average of spectrum; #4 - CTF fit; #5 - cross-correlation between spectrum and CTF fit; #6 - 2sigma of expected cross correlation of noise
0.000000 0.000651 0.001302 0.001953 0.002604 0.003255 0.003906 0.004557 0.005208 0.005859 0.006510 0.007161 0.007812 0.008464 0.009115 0.009766 0.010417 0.011068 0.011719 0.012370 0.013021 0.013672 0.014323 0.014974 0.015625 0.016276 0.016927 0.017578 0.018229 0.018880 0.019531 0.020182 0.020833 0.021484 0.022135 0.022786 0.023438 0.024089 0.024740 0.025391 0.026042 0.026693 0.027344 0.027995 0.028646 0.029297 0.029948 0.030599 0.031250 0.031901 0.032552 0.033203 0.033854 0.034505 0.035156 0.035807 0.036458 0.037109 0.037760 0.038411 0.039062 0.039714 0.040365 0.041016 0.041667 0.042318 0.042969 0.043620 0.044271 0.044922 0.045573 0.046224 0.046875 0.047526 0.048177 0.048828 0.049479 0.050130 0.050781 0.051432 0.052083 0.052734 0.053385 0.054036 0.054688 0.055339 0.055990 0.056641 0.057292 0.057943 0.058594 0.059245 0.059896 0.060547 0.061198 0.061849 0.062500 0.063151 0.063802 0.064453 0.065104 0.065755 0.066406 0.067057 0.067708 0.068359 0.069010 0.069661 0.070312 0.070964 0.071615 0.072266 0.072917 0.073568 0.074219 0.074870 0.075521 0.076172 0.076823 0.077474 0.078125 0.078776 0.079427 0.080078 0.080729 0.081380 0.082031 0.082682 0.083333 0.083984 0.084635 0.085286 0.085938 0.086589 0.087240 0.087891 0.088542 0.089193 0.089844 0.090495 0.091146 0.091797 0.092448 0.093099 0.093750 0.094401 0.095052 0.095703 0.096354 0.097005 0.097656 0.098307 0.098958 0.099609 0.100260 0.100911 0.101562 0.102214 0.102865 0.103516 0.104167 0.104818 0.105469 0.106120 0.106771 0.107422 0.108073 0.108724 0.109375 0.110026 0.110677 0.111328 0.111979 0.112630 0.113281 0.113932 0.114583 0.115234 0.115885 0.116536 0.117188 0.117839 0.118490 0.119141 0.119792 0.120443 0.121094 0.121745 0.122396 0.123047 0.123698 0.124349 0.125000 0.125651 0.126302 0.126953 0.127604 0.128255 0.128906 0.129557 0.130208 0.130859 0.131510 0.132161 0.132812 0.133464 0.134115 0.134766 0.135417 0.136068 0.136719 0.137370 0.138021 0.138672 0.139323 0.139974 0.140625 0.141276 0.141927 0.142578 0.143229 0.143880 0.144531 0.145182 0.145833 0.146484 0.147135 0.147786 0.148438 0.149089 0.149740 0.150391 0.151042 0.151693 0.152344 0.152995 0.153646 0.154297 0.154948 0.155599 0.156250 0.156901 0.157552 0.158203 0.158854 0.159505 0.160156 0.160807 0.161458 0.162109 0.162760 0.163411 0.164062 0.164714 0.165365 0.166016 0.166667 0.167318 0.167969 0.168620 0.169271 0.169922 0.170573 0.171224 0.171875 0.172526 0.173177 0.173828 0.174479 0.175130 0.175781 0.176432 0.177083 0.177734 0.178385 0.179036 0.179688 0.180339 0.180990 0.181641 0.182292 0.182943 0.183594 0.184245 0.184896 0.185547 0.186198 0.186849 0.187500 0.188151 0.188802 0.189453 0.190104 0.190755 0.191406 0.192057 0.192708 0.193359 0.194010 0.194661 0.195312 0.195964 0.196615 0.197266 0.197917 0.198568 0.199219 0.199870 0.200521 0.201172 0.201823 0.202474 0.203125 0.203776 0.204427 0.205078 0.205729 0.206380 0.207031 0.207682 0.208333 0.208984 0.209635 0.210286 0.210938 0.211589 0.212240 0.212891 0.213542 0.214193 0.214844 0.215495 0.216146 0.216797 0.217448 0.218099 0.218750 0.219401 0.220052 0.220703 0.221354 0.222005 0.222656 0.223307 0.223958 0.224609 0.225260 0.225911 0.226562 0.227214 0.227865 0.228516 0.229167 0.229818 0.230469 0.231120 0.231771 0.232422 0.233073 0.233724 0.234375 0.235026 0.235677
       0.31547        0.31547        0.31547        0.31547        0.31547        0.31547        0.31547        0.31547        0.31547        0.31547        0.31547        0.31547        0.31547        0.31547        0.31547        0.31547        0.31547        0.31547        0.31547        0.31547        0.31547        0.31547        0.31547        0.31547        0.31547        0.31547        0.31547        0.31547        0.31547        0.31547        0.31547        0.31547        0.31547        0.31547        0.31547        0.31547        0.31547        0.31547        0.31547        0.31547        0.31547        0.31547        0.31547        0.31547        0.31547        0.31547        0.31547        0.31547        0.31547        0.31547        0.31547        0.68418        0.87262        0.52003        0.08351       -0.07137       -0.42966       -0.21039       -0.29941       -0.12027       -0.08134       -0.11946       -0.07242       -0.21349       -0.24151       -0.26373       -0.33325       -0.33935       -0.49732       -0.38703       -0.47002       -0.45506       -0.42358       -0.47324       -0.55367       -0.56801       -0.59115       -0.63182       -0.58324       -0.41996       -0.38126       -0.33209       -0.32007       -0.21625       -0.20123        0.01962        0.06354        0.09847        0.22027        0.37071        0.44100        0.51570        0.55770        0.55288        0.57234        0.69836        0.81534        0.74847        0.73442        0.67631        0.58243        0.48687        0.40480        0.49085        0.36794        0.19572        0.07530        0.04138        0.00224       -0.06196       -0.04434       -0.03130       -0.07670       -0.00702       -0.02474        0.20718        0.24628        0.29155        0.42947        0.46831        0.40285        0.52787        0.63146        0.70478        0.76956        0.69120        0.66419        0.70164        0.58938        0.50850        0.41745        0.28841        0.18320        0.15601        0.10779        0.03312        0.01078       -0.00288        0.07454        0.13059        0.19994        0.28401        0.40471        0.41424        0.50924        0.60006        0.63620        0.60985        0.63040        0.55225        0.44384        0.43924        0.34962        0.22914        0.18566        0.14894        0.10003        0.11642        0.06048        0.09717        0.21578        0.26168        0.33687        0.34201        0.45284        0.51081        0.53554        0.55163        0.46653        0.42481        0.39362        0.38001        0.30993        0.24919        0.19863        0.18073        0.15974        0.18926        0.17501        0.26712        0.33140        0.36125        0.41784        0.46170        0.47622        0.44561        0.39085        0.41013        0.37687        0.29183        0.27555        0.23034        0.21054        0.19134        0.20882        0.23000        0.32676        0.37028        0.36497        0.45469        0.43753        0.44039        0.43046        0.39425        0.34142        0.32925        0.27760        0.23086        0.23257        0.26439        0.26729        0.29712        0.29370        0.33889        0.32870        0.41035        0.41482        0.37241        0.34171        0.36126        0.27911        0.27704        0.26244        0.27529        0.25766        0.28083        0.29464        0.31747        0.35315        0.35654        0.35847        0.33078        0.35008        0.28659        0.32327        0.26508        0.24845        0.27903        0.27885        0.30485        0.31532        0.33155        0.32199        0.30993        0.31813        0.28676        0.28200        0.25867        0.28201        0.27027        0.31100        0.28239        0.25740        0.30640        0.31066        0.31469        0.29260        0.29645        0.29419        0.24076        0.23452        0.21719        0.27457        0.26818        0.30201        0.31775        0.31933        0.30928        0.29935        0.27528        0.28087        0.33195        0.27671        0.27058        0.29216        0.29672        0.34175        0.33961        0.36315        0.32992        0.31019        0.28010        0.26141        0.26201        0.22389        0.26327        0.29792        0.29739        0.27648        0.29458        0.27020        0.32097        0.33681        0.25071        0.21571        0.26405        0.33658        0.27969        0.31328        0.32667        0.32850        0.29652        0.31684        0.34646        0.29603        0.29541        0.26303        0.27198        0.34575        0.34804        0.25681        0.26891        0.25382        0.26968        0.22951        0.28992        0.22215        0.25234        0.32041        0.31291        0.33996        0.29801        0.23234        0.23616        0.24247        0.24507        0.17483        0.21345        0.25787        0.28441        0.28217        0.29907        0.28613        0.28059        0.28455        0.20923        0.18278        0.18011        0.23397        0.20152        0.22478        0.23195        0.20918        0.24820        0.32858        0.29098        0.30243        0.21706        0.27178        0.23560        0.27807        0.30248        0.15016        0.20958        0.22829        0.14433        0.24483        0.11328        0.17468        0.18973        0.13328       -0.12378       -0.66584
2.529116 2.502995 2.477016 2.451177 2.425479 2.399921 2.374504 2.349228 2.324093 2.299098 2.274243 2.249529 2.224957 2.200524 2.176232 2.152081 2.128071 2.104201 2.080472 2.056883 2.033435 2.010128 1.986962 1.963936 1.941050 1.918306 1.895702 1.873238 1.850916 1.828734 1.806692 1.784791 1.763031 1.741412 1.719933 1.698595 1.677397 1.656340 1.635424 1.614648 1.594013 1.573519 1.553165 1.532952 1.512880 1.492948 1.473157 1.453507 1.433997 1.414628 1.395399 1.618762 2.023354 1.595397 1.109428 0.968177 0.406447 0.796224 0.547388 0.821043 0.757279 0.774794 0.739127 0.697558 0.546920 0.499033 0.475373 0.438065 0.193001 0.370758 0.196834 0.294902 0.232083 0.174501 0.121849 -0.003975 0.039245 -0.020641 -0.059353 0.099666 0.202135 0.195296 0.149840 0.328351 0.195736 0.499768 0.567975 0.542209 0.586923 0.876987 0.805452 0.945728 0.888068 0.972400 0.939360 1.081767 1.142818 1.084051 1.126345 0.960445 0.945416 0.789192 0.653809 0.770824 0.703228 0.460736 0.310439 0.257697 0.211979 0.153865 0.093123 0.130063 0.070279 0.164821 0.054871 0.267007 0.382078 0.369040 0.483887 0.593968 0.479088 0.543788 0.706316 0.759592 0.786904 0.744092 0.745630 0.728908 0.636132 0.583776 0.440631 0.293576 0.216242 0.086183 0.143134 -0.033644 -0.018344 -0.072677 -0.025826 0.018323 0.149607 0.104387 0.316971 0.286966 0.376357 0.459703 0.535682 0.524990 0.533134 0.521386 0.349718 0.321162 0.292016 0.118645 0.065410 0.019152 -0.022015 -0.026128 -0.079817 -0.084490 -0.005232 0.069087 0.153610 0.146507 0.241367 0.349674 0.317797 0.434473 0.412170 0.298819 0.249979 0.272900 0.233334 0.118095 0.087829 0.034283 0.018528 0.022806 -0.002971 0.074842 0.163571 0.156766 0.237859 0.264688 0.319975 0.272328 0.230539 0.198350 0.219800 0.166454 0.056565 0.065551 0.001795 -0.001906 -0.021663 0.023803 0.027324 0.179941 0.129358 0.195375 0.240428 0.200536 0.192884 0.196933 0.129336 0.103157 0.063076 0.038685 -0.047401 0.001054 0.012563 0.046521 0.038597 0.069578 0.093573 0.109961 0.144048 0.181691 0.075630 0.095932 0.068389 -0.001282 0.003462 0.008869 -0.010628 0.015635 0.005548 0.034739 0.072927 0.091101 0.096244 0.052851 0.092395 0.055449 0.014346 0.061447 -0.037178 -0.015117 0.016380 0.000056 0.047108 0.057811 0.044858 0.055932 0.042527 0.046744 0.015558 -0.006357 0.000487 0.017341 -0.014481 0.066878 -0.017295 0.001857 0.050862 0.042520 0.033448 0.045134 0.037479 0.016583 -0.028937 -0.048865 -0.021125 0.013521 0.014367 0.053175 0.062801 0.049101 0.082737 0.058761 0.023861 0.061738 0.089375 0.026462 0.029543 0.056275 0.059100 0.104989 0.114436 0.119510 0.111147 0.063764 0.048081 0.033729 0.010383 -0.003714 0.048098 0.080255 0.051891 0.035610 0.034211 0.029034 0.083855 0.077665 -0.044530 -0.051618 0.031117 0.094738 0.017160 0.036918 0.069877 0.087321 0.020205 0.057559 0.092712 0.034320 0.043047 -0.022807 0.008419 0.106713 0.067408 -0.059752 -0.017959 -0.050387 -0.003331 -0.097092 0.031326 -0.113672 -0.035268 0.036655 0.018189 0.026035 -0.045927 -0.072406 -0.096593 -0.079538 -0.065427 -0.141353 -0.101215 -0.041298 -0.003508 -0.029758 0.027222 -0.028526 -0.043785 0.052224 -0.114329 -0.093620 -0.108167 -0.007862 -0.063293 -0.025393 -0.013522 0.008082 0.010650 0.162837 -0.012144 0.135240 -0.012144 0.278283 0.245903 0.317805 0.276415 0.118185 0.211767 0.274404 0.067089 0.268927 0.116787 0.162671 0.241491 0.135069 -0.684873
0.072396 0.072898 0.074405 0.076916 0.080431 0.084948 0.090467 0.096986 0.104502 0.113013 0.122516 0.133006 0.144478 0.156926 0.170341 0.184715 0.200036 0.216292 0.233468 0.251547 0.270508 0.290329 0.310983 0.332442 0.354672 0.377637 0.401294 0.425598 0.450498 0.475939 0.501860 0.528192 0.554865 0.581798 0.608907 0.636101 0.663281 0.690341 0.717171 0.743652 0.769657 0.795056 0.819709 0.843472 0.866193 0.887715 0.907876 0.926510 0.943446 0.958511 0.971527 0.982317 0.990704 0.996510 0.999559 0.999682 0.996712 0.990489 0.980863 0.967694 0.950854 0.930230 0.905727 0.877265 0.844789 0.808265 0.767685 0.723069 0.674466 0.621958 0.565660 0.505721 0.442331 0.375713 0.306134 0.233898 0.159351 0.082879 0.004908 0.074098 0.153636 0.233168 0.312126 0.389909 0.465892 0.539430 0.609861 0.676513 0.738711 0.795785 0.847075 0.891940 0.929770 0.959989 0.982070 0.995542 0.999999 0.995109 0.980628 0.956402 0.922379 0.878618 0.825292 0.762695 0.691248 0.611497 0.524119 0.429918 0.329824 0.224884 0.116261 0.005216 0.106894 0.218640 0.328532 0.435043 0.536623 0.631728 0.718845 0.796513 0.863353 0.918100 0.959619 0.986946 0.999302 0.996126 0.977088 0.942120 0.891419 0.825467 0.745031 0.651173 0.545234 0.428833 0.303844 0.172376 0.036743 0.100575 0.236974 0.369771 0.496256 0.613755 0.719680 0.811599 0.887288 0.944801 0.982521 0.999213 0.994076 0.966778 0.917487 0.846895 0.756216 0.647193 0.522069 0.383559 0.234798 0.079284 0.079201 0.236674 0.389056 0.532270 0.662356 0.775589 0.868586 0.938425 0.982744 0.999832 0.988712 0.949195 0.881925 0.788389 0.670908 0.532602 0.377323 0.209564 0.034340 0.142951 0.316692 0.481218 0.631010 0.760884 0.866176 0.942934 0.988070 0.999513 0.976315 0.918730 0.828253 0.707607 0.560691 0.392483 0.208881 0.016523 0.177446 0.365632 0.540675 0.695542 0.823820 0.919995 0.979713 1.000000 0.979433 0.918255 0.818425 0.683589 0.518989 0.331281 0.128289 0.081290 0.288262 0.483325 0.657499 0.802544 0.911372 0.978420 0.999960 0.974338 0.902127 0.786165 0.631491 0.445170 0.235997 0.014119 0.209452 0.423362 0.616509 0.778616 0.900805 0.976113 0.999926 0.970294 0.888126 0.757225 0.584163 0.377999 0.149847 0.087702 0.321250 0.537350 0.723280 0.867820 0.961953 0.999473 0.977440 0.896450 0.760706 0.577856 0.358620 0.116212 0.134441 0.377577 0.597609 0.780122 0.912851 0.986545 0.995665 0.938851 0.819133 0.643843 0.424234 0.174807 0.087586 0.344887 0.579035 0.773265 0.913341 0.988631 0.992984 0.925295 0.789717 0.595483 0.356373 0.089772 0.184540 0.445837 0.674010 0.851135 0.962932 0.999973 0.958544 0.841091 0.656175 0.417941 0.145092 0.140507 0.415561 0.657242 0.845101 0.962849 0.999835 0.952089 0.822824 0.622339 0.367281 0.079347 0.216498 0.494182 0.728801 0.898898 0.988491 0.988646 0.898463 0.725352 0.484533 0.197791 0.108414 0.405354 0.664715 0.861321 0.975642 0.995808 0.918954 0.751701 0.509708 0.216327 0.099590 0.406453 0.673098 0.871971 0.982052 0.991156 0.897406 0.709646 0.446752 0.135841 0.190445 0.497316 0.751540 0.925098 0.998342 0.962338 0.820083 0.586414 0.286611 0.046237 0.374822 0.661760 0.873881 0.986139 0.984677 0.868674 0.650715 0.355570 0.017511 0.323573 0.626867 0.855523 0.981203 0.987725 0.873280 0.650948 0.347373 0.000308 0.348894 0.654469 0.877957 0.990200 0.975897 0.835851 0.587165 0.261345 0.099555
1.000000 1.000000 1.000000 1.000000 1.000000 1.000000 1.000000 1.000000 1.000000 1.000000 1.000000 1.000000 1.000000 1.000000 1.000000 1.000000 1.000000 1.000000 1.000000 1.000000 1.000000 1.000000 1.000000 1.000000 1.000000 1.000000 1.000000 1.000000 1.000000 1.000000 1.000000 1.000000 1.000000 1.000000 1.000000 1.000000 1.000000 1.000000 1.000000 1.000000 1.000000 1.000000 1.000000 1.000000 1.000000 1.000000 1.000000 1.000000 1.000000 1.000000 1.000000 1.000000 0.933181 0.933181 0.933181 0.924134 0.924134 0.924134 0.924134 0.924134 0.924134 0.924134 0.924134 0.924134 0.924134 0.924134 0.924134 0.924134 0.924134 0.924134 0.924134 0.924134 0.924134 0.924134 0.924134 0.924134 0.924134 0.924134 0.924134 0.924134 0.924134 0.924134 0.924134 0.924134 0.924134 0.924134 0.924134 0.924134 0.924134 0.924134 0.924134 0.924134 0.924134 0.924134 0.924134 0.924134 0.949813 0.951042 0.958892 0.958714 0.958199 0.956056 0.955157 0.954007 0.953563 0.953832 0.954438 0.955273 0.967112 0.968126 0.969671 0.970536 0.971355 0.972169 0.972227 0.973326 0.972791 0.971995 0.968666 0.968366 0.969036 0.969870 0.970272 0.970737 0.969375 0.972682 0.972897 0.972713 0.972195 0.970883 0.968984 0.968618 0.968357 0.968371 0.968808 0.970080 0.973238 0.972625 0.972333 0.972490 0.972589 0.972751 0.973135 0.973895 0.969913 0.968453 0.966753 0.964518 0.968796 0.965844 0.965648 0.967013 0.967388 0.967786 0.966633 0.962458 0.956643 0.955853 0.953701 0.944502 0.943679 0.944314 0.946715 0.947204 0.945718 0.938880 0.939412 0.932316 0.934426 0.937737 0.931586 0.932020 0.933144 0.933042 0.932459 0.931980 0.929090 0.926844 0.925479 0.925144 0.928004 0.927694 0.929113 0.929650 0.925333 0.917784 0.916703 0.903979 0.901069 0.901621 0.888819 0.890373 0.889212 0.884050 0.887291 0.886884 0.887850 0.884476 0.869313 0.854083 0.848523 0.852854 0.857559 0.857369 0.854244 0.847489 0.858854 0.832050 0.843869 0.852653 0.848585 0.848741 0.846950 0.845443 0.840719 0.842423 0.843672 0.844750 0.841580 0.838469 0.838948 0.818006 0.819017 0.761055 0.743906 0.732165 0.736905 0.744537 0.746357 0.745115 0.753073 0.757573 0.750429 0.734991 0.728753 0.725667 0.729961 0.721851 0.723652 0.703228 0.671112 0.666683 0.638943 0.655640 0.665660 0.628867 0.652269 0.663076 0.663977 0.662779 0.656479 0.653672 0.648437 0.649991 0.654222 0.665439 0.682564 0.705249 0.698456 0.688611 0.682486 0.664888 0.658119 0.653035 0.674098 0.649469 0.646549 0.666447 0.665137 0.646652 0.620690 0.609476 0.605271 0.602078 0.612346 0.597245 0.591313 0.581579 0.559056 0.554476 0.587317 0.602220 0.626643 0.598418 0.588300 0.576966 0.560232 0.570356 0.504984 0.505757 0.527721 0.535913 0.515163 0.502836 0.513341 0.515067 0.511106 0.501644 0.497696 0.489166 0.506458 0.546396 0.532543 0.513950 0.514670 0.514404 0.506368 0.415208 0.410120 0.387210 0.353758 0.295482 0.278853 0.270493 0.254473 0.239789 0.202829 0.200051 0.209734 0.210742 0.225449 0.228124 0.210812 0.223699 0.221072 0.207333 0.144014 0.133323 0.125278 0.114203 0.111767 0.086090 0.114759 0.188630 0.190707 0.190707 0.190707 0.190707 0.190707 0.190707 0.195842 0.195842 0.195842 0.195842 0.195842 0.195842 0.195842 0.195842 0.195842 0.209108 0.209108 0.209108 0.209108 0.209108 0.209108 0.209108 0.209108 0.209108 0.209108 0.209108 0.209108 0.209108 0.209108
0.000000 0.000000 0.000000 0.000000 0.000000 0.000000 0.000000 0.000000 0.000000 0.000000 0.000000 0.000000 0.000000 0.000000 0.000000 0.000000 0.000000 0.000000 0.000000 0.000000 0.000000 0.000000 0.000000 0.000000 0.000000 0.000000 0.000000 0.000000 0.000000 0.000000 0.000000 0.000000 0.000000 0.000000 0.000000 0.000000 0.000000 0.000000 0.000000 0.000000 0.000000 0.000000 0.000000 0.000000 0.000000 0.000000 0.000000 0.000000 0.000000 0.000000 0.000000 0.000000 0.180334 0.180334 0.180334 0.199007 0.199007 0.199007 0.199007 0.199007 0.199007 0.199007 0.199007 0.199007 0.199007 0.199007 0.199007 0.199007 0.199007 0.199007 0.199007 0.199007 0.199007 0.199007 0.199007 0.199007 0.199007 0.199007 0.199007 0.199007 0.199007 0.199007 0.199007 0.199007 0.199007 0.199007 0.199007 0.199007 0.199007 0.199007 0.199007 0.199007 0.199007 0.199007 0.199007 0.199007 0.225018 0.225018 0.225018 0.225018 0.225018 0.225018 0.225018 0.225018 0.225018 0.225018 0.225018 0.225018 0.225018 0.225018 0.225018 0.225018 0.225018 0.225018 0.225018 0.225018 0.225018 0.225018 0.225018 0.225018 0.225018 0.225018 0.225018 0.225018 0.225018 0.244339 0.244339 0.244339 0.244339 0.244339 0.244339 0.244339 0.244339 0.244339 0.244339 0.244339 0.244339 0.244339 0.244339 0.244339 0.244339 0.244339 0.244339 0.244339 0.244339 0.244339 0.244339 0.244339 0.251976 0.251976 0.251976 0.251976 0.251976 0.251976 0.251976 0.251976 0.251976 0.251976 0.251976 0.251976 0.251976 0.251976 0.251976 0.251976 0.251976 0.251976 0.251976 0.251976 0.264906 0.264906 0.264906 0.264906 0.264906 0.264906 0.264906 0.264906 0.264906 0.264906 0.264906 0.264906 0.264906 0.264906 0.264906 0.264906 0.264906 0.264906 0.264906 0.264906 0.264906 0.264906 0.264906 0.264906 0.264906 0.264906 0.264906 0.264906 0.264906 0.264906 0.264906 0.264906 0.264906 0.264906 0.264906 0.264906 0.264906 0.264906 0.264906 0.264906 0.264906 0.264906 0.264906 0.264906 0.264906 0.264906 0.264906 0.264906 0.264906 0.264906 0.264906 0.264906 0.264906 0.264906 0.264906 0.264906 0.264906 0.264906 0.264906 0.264906 0.264906 0.264906 0.256074 0.256074 0.256074 0.256074 0.256074 0.256074 0.256074 0.256074 0.256074 0.256074 0.256074 0.256074 0.256074 0.256074 0.269680 0.269680 0.269680 0.269680 0.269680 0.269680 0.269680 0.269680 0.269680 0.269680 0.269680 0.269680 0.264906 0.264906 0.264906 0.264906 0.264906 0.264906 0.264906 0.264906 0.264906 0.264906 0.264906 0.264906 0.269680 0.269680 0.269680 0.269680 0.269680 0.269680 0.269680 0.269680 0.269680 0.269680 0.269680 0.264906 0.264906 0.264906 0.264906 0.264906 0.264906 0.264906 0.264906 0.264906 0.264906 0.264906 0.256074 0.256074 0.256074 0.256074 0.256074 0.256074 0.256074 0.256074 0.256074 0.256074 0.256074 0.264906 0.264906 0.264906 0.264906 0.264906 0.264906 0.264906 0.264906 0.264906 0.264906 0.260378 0.260378 0.260378 0.260378 0.260378 0.260378 0.260378 0.260378 0.260378 0.260378 0.256074 0.256074 0.256074 0.256074 0.256074 0.256074 0.256074 0.256074 0.256074 0.256074 0.260378 0.260378 0.260378 0.260378 0.260378 0.260378 0.260378 0.260378 0.260378 0.256074 0.256074 0.256074 0.256074 0.256074 0.256074 0.256074 0.256074 0.256074 0.251976 0.251976 0.251976 0.251976 0.251976 0.251976 0.251976 0.251976 0.251976 0.251976 0.251976 0.251976 0.251976 0.251976
