# Output from CTFFind version 4.1.9, run on 2019-11-03 18:52:15
# Input file: stack19_ub_averaged_3000.mrc ; Number of micrographs: 1
# Pixel size: 3.000 Angstroms ; acceleration voltage: 300.0 keV ; spherical aberration: 0.00 mm ; amplitude contrast: 0.07
# Box size: 512 pixels ; min. res.: 30.0 Angstroms ; max. res.: 5.0 Angstroms ; min. def.: 5000.0 um; max. def. 50000.0 um; num. frames averaged: 1
# 6 lines per micrograph: #1 - spatial frequency (1/Angstroms); #2 - 1D rotational average of spectrum (assuming no astigmatism); #3 - 1D rotational average of spectrum; #4 - CTF fit; #5 - cross-correlation between spectrum and CTF fit; #6 - 2sigma of expected cross correlation of noise
0.000000 0.000651 0.001302 0.001953 0.002604 0.003255 0.003906 0.004557 0.005208 0.005859 0.006510 0.007161 0.007812 0.008464 0.009115 0.009766 0.010417 0.011068 0.011719 0.012370 0.013021 0.013672 0.014323 0.014974 0.015625 0.016276 0.016927 0.017578 0.018229 0.018880 0.019531 0.020182 0.020833 0.021484 0.022135 0.022786 0.023438 0.024089 0.024740 0.025391 0.026042 0.026693 0.027344 0.027995 0.028646 0.029297 0.029948 0.030599 0.031250 0.031901 0.032552 0.033203 0.033854 0.034505 0.035156 0.035807 0.036458 0.037109 0.037760 0.038411 0.039062 0.039714 0.040365 0.041016 0.041667 0.042318 0.042969 0.043620 0.044271 0.044922 0.045573 0.046224 0.046875 0.047526 0.048177 0.048828 0.049479 0.050130 0.050781 0.051432 0.052083 0.052734 0.053385 0.054036 0.054688 0.055339 0.055990 0.056641 0.057292 0.057943 0.058594 0.059245 0.059896 0.060547 0.061198 0.061849 0.062500 0.063151 0.063802 0.064453 0.065104 0.065755 0.066406 0.067057 0.067708 0.068359 0.069010 0.069661 0.070312 0.070964 0.071615 0.072266 0.072917 0.073568 0.074219 0.074870 0.075521 0.076172 0.076823 0.077474 0.078125 0.078776 0.079427 0.080078 0.080729 0.081380 0.082031 0.082682 0.083333 0.083984 0.084635 0.085286 0.085938 0.086589 0.087240 0.087891 0.088542 0.089193 0.089844 0.090495 0.091146 0.091797 0.092448 0.093099 0.093750 0.094401 0.095052 0.095703 0.096354 0.097005 0.097656 0.098307 0.098958 0.099609 0.100260 0.100911 0.101562 0.102214 0.102865 0.103516 0.104167 0.104818 0.105469 0.106120 0.106771 0.107422 0.108073 0.108724 0.109375 0.110026 0.110677 0.111328 0.111979 0.112630 0.113281 0.113932 0.114583 0.115234 0.115885 0.116536 0.117188 0.117839 0.118490 0.119141 0.119792 0.120443 0.121094 0.121745 0.122396 0.123047 0.123698 0.124349 0.125000 0.125651 0.126302 0.126953 0.127604 0.128255 0.128906 0.129557 0.130208 0.130859 0.131510 0.132161 0.132812 0.133464 0.134115 0.134766 0.135417 0.136068 0.136719 0.137370 0.138021 0.138672 0.139323 0.139974 0.140625 0.141276 0.141927 0.142578 0.143229 0.143880 0.144531 0.145182 0.145833 0.146484 0.147135 0.147786 0.148438 0.149089 0.149740 0.150391 0.151042 0.151693 0.152344 0.152995 0.153646 0.154297 0.154948 0.155599 0.156250 0.156901 0.157552 0.158203 0.158854 0.159505 0.160156 0.160807 0.161458 0.162109 0.162760 0.163411 0.164062 0.164714 0.165365 0.166016 0.166667 0.167318 0.167969 0.168620 0.169271 0.169922 0.170573 0.171224 0.171875 0.172526 0.173177 0.173828 0.174479 0.175130 0.175781 0.176432 0.177083 0.177734 0.178385 0.179036 0.179688 0.180339 0.180990 0.181641 0.182292 0.182943 0.183594 0.184245 0.184896 0.185547 0.186198 0.186849 0.187500 0.188151 0.188802 0.189453 0.190104 0.190755 0.191406 0.192057 0.192708 0.193359 0.194010 0.194661 0.195312 0.195964 0.196615 0.197266 0.197917 0.198568 0.199219 0.199870 0.200521 0.201172 0.201823 0.202474 0.203125 0.203776 0.204427 0.205078 0.205729 0.206380 0.207031 0.207682 0.208333 0.208984 0.209635 0.210286 0.210938 0.211589 0.212240 0.212891 0.213542 0.214193 0.214844 0.215495 0.216146 0.216797 0.217448 0.218099 0.218750 0.219401 0.220052 0.220703 0.221354 0.222005 0.222656 0.223307 0.223958 0.224609 0.225260 0.225911 0.226562 0.227214 0.227865 0.228516 0.229167 0.229818 0.230469 0.231120 0.231771 0.232422 0.233073 0.233724 0.234375 0.235026 0.235677
       0.32527        0.32527        0.32527        0.32527        0.32527        0.32527        0.32527        0.32527        0.32527        0.32527        0.32527        0.32527        0.32527        0.32527        0.32527        0.32527        0.32527        0.32527        0.32527        0.32527        0.32527        0.32527        0.32527        0.32527        0.32527        0.32527        0.32527        0.32527        0.32527        0.32527        0.32527        0.32527        0.32527        0.32527        0.32527        0.32527        0.32527        0.32527        0.32527        0.32527        0.32527        0.32527        0.32527        0.32527        0.32527        0.32527        0.32527        0.32527        0.32527        0.32527        0.32527        0.63577        0.80164        0.36108        0.18281       -0.11521       -0.27399       -0.28779       -0.04062       -0.13178        0.10703        0.01899       -0.03652       -0.06136       -0.12536       -0.24686       -0.37159       -0.44632       -0.46188       -0.44929       -0.45326       -0.50016       -0.51504       -0.50609       -0.54006       -0.54134       -0.63360       -0.52974       -0.56625       -0.49800       -0.47377       -0.32588       -0.27751       -0.11413       -0.06632        0.08560        0.17139        0.21872        0.27821        0.27368        0.48100        0.57025        0.54343        0.52489        0.64247        0.64905        0.73911        0.82578        0.80003        0.64723        0.53976        0.49833        0.36409        0.26965        0.18318        0.13279        0.11000        0.00469       -0.08854        0.02707       -0.00658       -0.07477       -0.03891        0.05123        0.09493        0.15513        0.24230        0.39213        0.53428        0.48096        0.64697        0.63371        0.69827        0.70745        0.67494        0.55949        0.59231        0.57117        0.51541        0.44460        0.30405        0.26492        0.13801        0.06856        0.06333        0.02445        0.14903        0.16325        0.13504        0.22091        0.31901        0.46389        0.51325        0.46050        0.62229        0.56503        0.60021        0.54940        0.58876        0.46259        0.39404        0.34828        0.25657        0.15505        0.11856        0.14007        0.11532        0.13781        0.23682        0.23782        0.30427        0.34423        0.36045        0.43663        0.49685        0.51419        0.49487        0.47391        0.35647        0.35263        0.28754        0.31641        0.23144        0.17286        0.18063        0.22009        0.27500        0.22962        0.25244        0.37252        0.42224        0.47326        0.53923        0.49848        0.42746        0.41878        0.34888        0.37363        0.35194        0.27620        0.23412        0.23280        0.27874        0.26225        0.35078        0.37242        0.39180        0.41155        0.41541        0.39681        0.42350        0.38528        0.31851        0.28094        0.24262        0.25207        0.21497        0.24882        0.26871        0.30523        0.35204        0.34124        0.38743        0.42338        0.42515        0.40097        0.38300        0.34640        0.33431        0.29423        0.25932        0.23418        0.24123        0.29080        0.36693        0.36657        0.38926        0.39862        0.37572        0.39859        0.32024        0.28226        0.26596        0.26711        0.28892        0.29602        0.31686        0.32380        0.34317        0.34230        0.35152        0.30131        0.30651        0.30883        0.25699        0.29607        0.24230        0.28057        0.27909        0.27946        0.29271        0.32708        0.33195        0.34683        0.31648        0.31376        0.28209        0.26684        0.27823        0.25651        0.27001        0.28491        0.31607        0.33761        0.32737        0.35985        0.34998        0.31289        0.31621        0.26782        0.28204        0.27018        0.29246        0.33087        0.34262        0.32015        0.34210        0.29370        0.30937        0.31120        0.29272        0.30287        0.32204        0.31483        0.29688        0.31903        0.30574        0.36595        0.33825        0.29682        0.26640        0.26177        0.28876        0.32128        0.26504        0.25072        0.30037        0.32470        0.28999        0.32960        0.30581        0.33795        0.30834        0.27638        0.24212        0.29519        0.32708        0.25205        0.32274        0.31937        0.32130        0.21802        0.28077        0.33130        0.33617        0.22369        0.29526        0.26668        0.28493        0.28858        0.27837        0.20463        0.20927        0.23091        0.25599        0.30790        0.25731        0.22711        0.25269        0.28459        0.24563        0.28431        0.20296        0.24030        0.21589        0.30800        0.27648        0.26176        0.25566        0.26833        0.24017        0.30754        0.25639        0.30053        0.24176        0.21811        0.24898        0.24167        0.27857        0.29396        0.16214        0.17575        0.15087        0.36496        0.24938        0.13563        0.16092        0.12825        0.04133        0.27388        0.36696       -0.22978       -0.41047
2.518860 2.492266 2.465819 2.439520 2.413368 2.387362 2.361504 2.335794 2.310230 2.284813 2.259544 2.234422 2.209446 2.184618 2.159938 2.135404 2.111017 2.086778 2.062686 2.038741 2.014943 1.991292 1.967788 1.944432 1.921222 1.898160 1.875245 1.852477 1.829856 1.807382 1.785056 1.762877 1.740844 1.718959 1.697221 1.675631 1.654187 1.632890 1.611741 1.590739 1.569884 1.549176 1.528615 1.508202 1.487935 1.467816 1.447844 1.428019 1.408341 1.388810 1.369426 1.469655 2.145614 1.377870 1.258601 0.820729 0.665777 0.459019 0.881173 0.665629 0.931280 0.887369 0.618323 0.713250 0.645787 0.497235 0.262825 0.230299 0.096837 0.184994 0.179628 0.045837 -0.028381 0.044438 -0.023516 -0.009375 -0.203026 -0.061652 -0.154790 -0.062781 -0.089744 0.100413 0.103238 0.261848 0.363338 0.442998 0.630004 0.597456 0.689644 0.601048 0.867663 0.979338 0.942502 0.899547 0.962708 1.008665 1.044586 1.237672 1.151704 1.039230 0.824995 0.812969 0.619281 0.556232 0.372786 0.286144 0.350255 0.159692 0.032357 0.125129 0.147823 -0.062191 0.046079 0.134678 0.149871 0.256693 0.222194 0.390112 0.661718 0.585191 0.667323 0.685018 0.789102 0.762057 0.771721 0.600133 0.652552 0.595293 0.551466 0.455002 0.361090 0.214138 0.132342 -0.025604 -0.028290 -0.047841 -0.060584 0.123140 0.034088 0.056952 0.147674 0.292337 0.502660 0.303645 0.491640 0.503300 0.501663 0.481092 0.525662 0.384462 0.271636 0.233936 0.150059 0.023520 -0.091039 -0.027997 -0.062143 -0.113356 0.067382 0.022438 0.092726 0.146669 0.195191 0.198035 0.297592 0.356085 0.373787 0.380909 0.301381 0.204130 0.135101 0.205717 0.106930 0.025310 -0.039430 0.029613 0.073615 0.103978 0.037991 0.151917 0.253123 0.252943 0.410175 0.325678 0.307407 0.287294 0.172582 0.175108 0.175071 0.107215 0.040463 -0.007134 0.091310 0.026894 0.078194 0.178014 0.165828 0.236429 0.175027 0.227866 0.201753 0.192635 0.102716 0.111502 0.010674 0.030793 -0.000247 -0.001823 -0.003307 0.069231 0.091797 0.138553 0.114291 0.197074 0.197667 0.213886 0.190232 0.127493 0.109065 0.109026 0.040585 -0.006499 0.008247 -0.003301 0.119709 0.137936 0.137956 0.179268 0.193580 0.149032 0.173475 0.052989 0.031901 0.046193 0.018307 0.076396 0.052243 0.101142 0.082053 0.128211 0.133119 0.054649 0.064675 0.095369 0.040527 0.033315 0.056134 -0.010701 0.055399 0.025558 0.034440 0.060180 0.093015 0.084948 0.086442 0.080034 0.040360 0.018806 0.015461 -0.027307 0.018419 0.024574 0.021204 0.063851 0.102760 0.037406 0.104091 0.074178 0.022710 0.045071 -0.033088 0.026242 -0.008006 -0.000196 0.087662 0.057902 0.049999 0.075166 -0.052870 0.051989 0.013723 0.001555 0.013398 0.032930 -0.006202 0.016386 0.028983 -0.002238 0.072862 0.010757 -0.000828 -0.061725 -0.030833 -0.023635 0.031057 -0.060239 -0.029610 0.003155 0.046537 0.025001 0.061601 0.054130 0.056249 0.012375 0.033531 -0.053262 0.021897 0.052625 -0.018958 0.075173 0.059289 0.044283 -0.066260 0.021454 0.105037 0.073717 -0.068040 0.047023 0.007384 0.010808 0.048257 0.036578 -0.057929 -0.059335 -0.010739 -0.006945 0.101841 -0.041212 -0.036376 0.005930 0.038412 -0.040333 0.047820 -0.101046 0.018499 -0.024786 0.064264 0.030320 0.003256 -0.008695 0.072829 -0.020621 0.083857 0.022173 0.073187 0.010869 -0.015321 0.023779 0.013073 0.090278 0.058391 -0.058067 -0.059288 -0.196042 0.464507 0.321060 0.154214 0.213320 0.197783 0.036068 0.297493 0.425591 -0.466240
0.072396 0.072908 0.074443 0.077001 0.080582 0.085184 0.090807 0.097448 0.105105 0.113776 0.123456 0.134142 0.145828 0.158507 0.172170 0.186809 0.202412 0.218965 0.236452 0.254856 0.274154 0.294324 0.315338 0.337165 0.359769 0.383113 0.407152 0.431837 0.457117 0.482931 0.509216 0.535901 0.562909 0.590158 0.617558 0.645013 0.672419 0.699666 0.726637 0.753208 0.779246 0.804614 0.829167 0.852752 0.875212 0.896383 0.916097 0.934181 0.950457 0.964746 0.976865 0.986632 0.993863 0.998378 0.999998 0.998549 0.993865 0.985785 0.974161 0.958854 0.939743 0.916718 0.889693 0.858600 0.823394 0.784055 0.740593 0.693047 0.641487 0.586018 0.526783 0.463960 0.397769 0.328467 0.256356 0.181778 0.105118 0.026801 0.052706 0.132897 0.213229 0.293123 0.371971 0.449136 0.523957 0.595757 0.663849 0.727536 0.786129 0.838946 0.885326 0.924633 0.956270 0.979688 0.994394 0.999960 0.996038 0.982365 0.958774 0.925203 0.881702 0.828441 0.765716 0.693952 0.613706 0.525670 0.430668 0.329653 0.223705 0.114017 0.001891 0.111279 0.224020 0.334798 0.442039 0.544151 0.639547 0.726674 0.804036 0.870227 0.923958 0.964082 0.989630 0.999830 0.994140 0.972261 0.934167 0.880111 0.810642 0.726610 0.629162 0.519742 0.400073 0.272141 0.138169 0.000582 0.138033 0.274971 0.407458 0.532715 0.648009 0.750723 0.838417 0.908889 0.960245 0.990952 0.999892 0.986411 0.950357 0.892105 0.812575 0.713237 0.596095 0.463663 0.318925 0.165276 0.006456 0.153542 0.310565 0.460403 0.598907 0.722112 0.826347 0.908364 0.965446 0.995507 0.997188 0.969922 0.913990 0.830546 0.721618 0.590082 0.439605 0.274558 0.099908 0.078924 0.256224 0.426163 0.582992 0.721242 0.835919 0.922707 0.978138 0.999754 0.986233 0.937484 0.854693 0.740331 0.598111 0.432887 0.250520 0.057684 0.138366 0.330058 0.509795 0.670255 0.804709 0.907311 0.973377 0.999620 0.984344 0.927568 0.831088 0.698461 0.534911 0.347152 0.143144 0.068229 0.277538 0.475211 0.651989 0.799361 0.910000 0.978149 0.999953 0.973711 0.900029 0.781865 0.624461 0.435149 0.223050 0.001347 0.226674 0.441261 0.633735 0.793638 0.912021 0.981973 0.999062 0.961659 0.871113 0.731769 0.550810 0.337943 0.104907 0.135141 0.368355 0.580992 0.760241 0.895006 0.976642 0.999543 0.961581 0.864341 0.713125 0.516731 0.286990 0.038102 0.214213 0.453698 0.664602 0.832739 0.946477 0.997584 0.981885 0.899658 0.755737 0.559303 0.323367 0.063953 0.200938 0.452577 0.672825 0.845452 0.957392 0.999768 0.968677 0.865602 0.697446 0.476158 0.217940 0.057863 0.330209 0.577922 0.781370 0.924059 0.994011 0.984855 0.896476 0.735184 0.513363 0.248600 0.037647 0.321746 0.579824 0.789799 0.933293 0.997315 0.975514 0.868896 0.685921 0.441924 0.157926 0.141116 0.428465 0.677993 0.866569 0.976283 0.996211 0.923603 0.764338 0.532563 0.249543 0.058199 0.361337 0.630497 0.839149 0.966252 0.998486 0.931733 0.771715 0.533624 0.240814 0.077423 0.388711 0.660879 0.865311 0.980024 0.992120 0.899365 0.710653 0.445301 0.131191 0.198078 0.506732 0.760712 0.931478 0.999306 0.955682 0.804507 0.561912 0.254682 0.082593 0.411333 0.693381 0.895455 0.993159 0.974053 0.839378 0.604190 0.295842 0.049084 0.389020 0.682413 0.892825 0.993546 0.971125 0.827310 0.579146 0.257109 0.098487 0.442466 0.730515 0.924921 0.999631 0.943875 0.763905 0.482479 0.136168 0.229255 0.564852 0.825009 0.973760
1.000000 1.000000 1.000000 1.000000 1.000000 1.000000 1.000000 1.000000 1.000000 1.000000 1.000000 1.000000 1.000000 1.000000 1.000000 1.000000 1.000000 1.000000 1.000000 1.000000 1.000000 1.000000 1.000000 1.000000 1.000000 1.000000 1.000000 1.000000 1.000000 1.000000 1.000000 1.000000 1.000000 1.000000 1.000000 1.000000 1.000000 1.000000 1.000000 1.000000 1.000000 1.000000 1.000000 1.000000 1.000000 1.000000 1.000000 1.000000 1.000000 1.000000 1.000000 1.000000 0.928414 0.928414 0.928414 0.927324 0.927324 0.927324 0.927324 0.927324 0.927324 0.927324 0.927324 0.927324 0.927324 0.927324 0.927324 0.927324 0.927324 0.927324 0.927324 0.927324 0.927324 0.927324 0.927324 0.927324 0.927324 0.927324 0.927324 0.927324 0.927324 0.927324 0.927324 0.927324 0.927324 0.927324 0.927324 0.927324 0.927324 0.927324 0.927324 0.927324 0.927324 0.927324 0.927324 0.927324 0.947263 0.947682 0.949685 0.950543 0.943539 0.943170 0.942755 0.942268 0.942465 0.942698 0.949755 0.951068 0.952159 0.955104 0.962063 0.963157 0.963578 0.965428 0.964535 0.964554 0.962721 0.956531 0.955287 0.955575 0.956840 0.954747 0.954213 0.954231 0.955731 0.956588 0.953619 0.951929 0.951471 0.950627 0.949815 0.949538 0.949852 0.950534 0.951080 0.951975 0.952548 0.951582 0.951120 0.947723 0.948138 0.950362 0.949929 0.952782 0.950303 0.947891 0.946784 0.935932 0.936352 0.936671 0.937600 0.938492 0.938945 0.938843 0.938233 0.929072 0.924916 0.924635 0.923768 0.924657 0.928238 0.926778 0.925437 0.922665 0.922065 0.917839 0.912036 0.908922 0.909472 0.910531 0.911230 0.912677 0.903545 0.902586 0.888342 0.887942 0.890811 0.893986 0.892439 0.890580 0.887429 0.886538 0.880114 0.883058 0.881423 0.883491 0.883482 0.891977 0.892161 0.892954 0.894074 0.891428 0.892537 0.896131 0.896851 0.888319 0.885500 0.883953 0.882478 0.885517 0.894714 0.895141 0.889985 0.898954 0.889537 0.888867 0.894891 0.900234 0.890605 0.890720 0.888079 0.880747 0.878049 0.878076 0.853918 0.857072 0.852951 0.854387 0.845762 0.848856 0.829606 0.837011 0.831654 0.829746 0.832967 0.835738 0.836568 0.840461 0.835895 0.831959 0.828754 0.839688 0.834269 0.842091 0.838254 0.833046 0.826697 0.811711 0.813189 0.815062 0.812576 0.814851 0.799189 0.797893 0.790051 0.781523 0.780999 0.782953 0.788078 0.747768 0.741013 0.724277 0.707020 0.678304 0.677407 0.654403 0.644685 0.633503 0.631329 0.607632 0.632538 0.638536 0.630379 0.608359 0.616952 0.616449 0.621319 0.606806 0.570405 0.561578 0.575927 0.584117 0.594063 0.588990 0.571557 0.489927 0.473553 0.443968 0.440042 0.448781 0.429045 0.431752 0.425733 0.412357 0.427747 0.419263 0.389637 0.381067 0.330900 0.289367 0.297582 0.281565 0.255823 0.264523 0.239943 0.271200 0.304167 0.308836 0.319534 0.282215 0.275305 0.263771 0.249590 0.250255 0.186669 0.194227 0.171624 0.202063 0.221385 0.205861 0.205350 0.172982 0.225342 0.211988 0.209180 0.219076 0.223935 0.242147 0.244777 0.191034 0.158886 0.162175 0.148016 0.092245 0.059144 0.048281 0.042956 0.066907 0.038889 0.063185 0.084978 0.093776 0.118012 0.067104 0.059702 0.059702 0.059702 0.025615 0.025615 0.025615 0.025615 0.025615 0.025615 0.025615 0.025615 0.025615 0.042731 0.042731 0.042731 0.042731 0.042731 0.042731 0.042731 0.042731 0.042731 0.042731 0.042731 0.042731 0.042731 0.042731 0.042731 0.042731 0.042731
0.000000 0.000000 0.000000 0.000000 0.000000 0.000000 0.000000 0.000000 0.000000 0.000000 0.000000 0.000000 0.000000 0.000000 0.000000 0.000000 0.000000 0.000000 0.000000 0.000000 0.000000 0.000000 0.000000 0.000000 0.000000 0.000000 0.000000 0.000000 0.000000 0.000000 0.000000 0.000000 0.000000 0.000000 0.000000 0.000000 0.000000 0.000000 0.000000 0.000000 0.000000 0.000000 0.000000 0.000000 0.000000 0.000000 0.000000 0.000000 0.000000 0.000000 0.000000 0.000000 0.180334 0.180334 0.180334 0.199007 0.199007 0.199007 0.199007 0.199007 0.199007 0.199007 0.199007 0.199007 0.199007 0.199007 0.199007 0.199007 0.199007 0.199007 0.199007 0.199007 0.199007 0.199007 0.199007 0.199007 0.199007 0.199007 0.199007 0.199007 0.199007 0.199007 0.199007 0.199007 0.199007 0.199007 0.199007 0.199007 0.199007 0.199007 0.199007 0.199007 0.199007 0.199007 0.199007 0.199007 0.230940 0.230940 0.230940 0.230940 0.230940 0.230940 0.230940 0.230940 0.230940 0.230940 0.230940 0.230940 0.230940 0.230940 0.230940 0.230940 0.230940 0.230940 0.230940 0.230940 0.230940 0.230940 0.230940 0.230940 0.230940 0.230940 0.230940 0.230940 0.248069 0.248069 0.248069 0.248069 0.248069 0.248069 0.248069 0.248069 0.248069 0.248069 0.248069 0.248069 0.248069 0.248069 0.248069 0.248069 0.248069 0.248069 0.248069 0.248069 0.248069 0.248069 0.251976 0.251976 0.251976 0.251976 0.251976 0.251976 0.251976 0.251976 0.251976 0.251976 0.251976 0.251976 0.251976 0.251976 0.251976 0.251976 0.251976 0.251976 0.251976 0.251976 0.256074 0.256074 0.256074 0.256074 0.256074 0.256074 0.256074 0.256074 0.256074 0.256074 0.256074 0.256074 0.256074 0.256074 0.256074 0.256074 0.256074 0.256074 0.264906 0.264906 0.264906 0.264906 0.264906 0.264906 0.264906 0.264906 0.264906 0.264906 0.264906 0.264906 0.264906 0.264906 0.264906 0.264906 0.269680 0.269680 0.269680 0.269680 0.269680 0.269680 0.269680 0.269680 0.269680 0.269680 0.269680 0.269680 0.269680 0.269680 0.264906 0.264906 0.264906 0.264906 0.264906 0.264906 0.264906 0.264906 0.264906 0.264906 0.264906 0.264906 0.264906 0.264906 0.264906 0.264906 0.264906 0.264906 0.264906 0.264906 0.264906 0.264906 0.264906 0.264906 0.264906 0.264906 0.264906 0.260378 0.260378 0.260378 0.260378 0.260378 0.260378 0.260378 0.260378 0.260378 0.260378 0.260378 0.260378 0.260378 0.264906 0.264906 0.264906 0.264906 0.264906 0.264906 0.264906 0.264906 0.264906 0.264906 0.264906 0.264906 0.269680 0.269680 0.269680 0.269680 0.269680 0.269680 0.269680 0.269680 0.269680 0.269680 0.269680 0.264906 0.264906 0.264906 0.264906 0.264906 0.264906 0.264906 0.264906 0.264906 0.264906 0.264906 0.269680 0.269680 0.269680 0.269680 0.269680 0.269680 0.269680 0.269680 0.269680 0.269680 0.264906 0.264906 0.264906 0.264906 0.264906 0.264906 0.264906 0.264906 0.264906 0.264906 0.260378 0.260378 0.260378 0.260378 0.260378 0.260378 0.260378 0.260378 0.260378 0.260378 0.256074 0.256074 0.256074 0.256074 0.256074 0.256074 0.256074 0.256074 0.256074 0.256074 0.260378 0.260378 0.260378 0.260378 0.260378 0.260378 0.260378 0.260378 0.260378 0.256074 0.256074 0.256074 0.256074 0.256074 0.256074 0.256074 0.256074 0.256074 0.251976 0.251976 0.251976 0.251976 0.251976 0.251976 0.251976 0.251976 0.251976 0.251976 0.251976 0.251976 0.251976 0.251976 0.251976 0.251976 0.251976
