# Output from CTFFind version 4.1.9, run on 2019-11-03 18:51:54
# Input file: stack19_ub_averaged_1500.mrc ; Number of micrographs: 1
# Pixel size: 3.000 Angstroms ; acceleration voltage: 300.0 keV ; spherical aberration: 0.00 mm ; amplitude contrast: 0.07
# Box size: 512 pixels ; min. res.: 30.0 Angstroms ; max. res.: 5.0 Angstroms ; min. def.: 5000.0 um; max. def. 50000.0 um; num. frames averaged: 1
# 6 lines per micrograph: #1 - spatial frequency (1/Angstroms); #2 - 1D rotational average of spectrum (assuming no astigmatism); #3 - 1D rotational average of spectrum; #4 - CTF fit; #5 - cross-correlation between spectrum and CTF fit; #6 - 2sigma of expected cross correlation of noise
0.000000 0.000651 0.001302 0.001953 0.002604 0.003255 0.003906 0.004557 0.005208 0.005859 0.006510 0.007161 0.007812 0.008464 0.009115 0.009766 0.010417 0.011068 0.011719 0.012370 0.013021 0.013672 0.014323 0.014974 0.015625 0.016276 0.016927 0.017578 0.018229 0.018880 0.019531 0.020182 0.020833 0.021484 0.022135 0.022786 0.023438 0.024089 0.024740 0.025391 0.026042 0.026693 0.027344 0.027995 0.028646 0.029297 0.029948 0.030599 0.031250 0.031901 0.032552 0.033203 0.033854 0.034505 0.035156 0.035807 0.036458 0.037109 0.037760 0.038411 0.039062 0.039714 0.040365 0.041016 0.041667 0.042318 0.042969 0.043620 0.044271 0.044922 0.045573 0.046224 0.046875 0.047526 0.048177 0.048828 0.049479 0.050130 0.050781 0.051432 0.052083 0.052734 0.053385 0.054036 0.054688 0.055339 0.055990 0.056641 0.057292 0.057943 0.058594 0.059245 0.059896 0.060547 0.061198 0.061849 0.062500 0.063151 0.063802 0.064453 0.065104 0.065755 0.066406 0.067057 0.067708 0.068359 0.069010 0.069661 0.070312 0.070964 0.071615 0.072266 0.072917 0.073568 0.074219 0.074870 0.075521 0.076172 0.076823 0.077474 0.078125 0.078776 0.079427 0.080078 0.080729 0.081380 0.082031 0.082682 0.083333 0.083984 0.084635 0.085286 0.085938 0.086589 0.087240 0.087891 0.088542 0.089193 0.089844 0.090495 0.091146 0.091797 0.092448 0.093099 0.093750 0.094401 0.095052 0.095703 0.096354 0.097005 0.097656 0.098307 0.098958 0.099609 0.100260 0.100911 0.101562 0.102214 0.102865 0.103516 0.104167 0.104818 0.105469 0.106120 0.106771 0.107422 0.108073 0.108724 0.109375 0.110026 0.110677 0.111328 0.111979 0.112630 0.113281 0.113932 0.114583 0.115234 0.115885 0.116536 0.117188 0.117839 0.118490 0.119141 0.119792 0.120443 0.121094 0.121745 0.122396 0.123047 0.123698 0.124349 0.125000 0.125651 0.126302 0.126953 0.127604 0.128255 0.128906 0.129557 0.130208 0.130859 0.131510 0.132161 0.132812 0.133464 0.134115 0.134766 0.135417 0.136068 0.136719 0.137370 0.138021 0.138672 0.139323 0.139974 0.140625 0.141276 0.141927 0.142578 0.143229 0.143880 0.144531 0.145182 0.145833 0.146484 0.147135 0.147786 0.148438 0.149089 0.149740 0.150391 0.151042 0.151693 0.152344 0.152995 0.153646 0.154297 0.154948 0.155599 0.156250 0.156901 0.157552 0.158203 0.158854 0.159505 0.160156 0.160807 0.161458 0.162109 0.162760 0.163411 0.164062 0.164714 0.165365 0.166016 0.166667 0.167318 0.167969 0.168620 0.169271 0.169922 0.170573 0.171224 0.171875 0.172526 0.173177 0.173828 0.174479 0.175130 0.175781 0.176432 0.177083 0.177734 0.178385 0.179036 0.179688 0.180339 0.180990 0.181641 0.182292 0.182943 0.183594 0.184245 0.184896 0.185547 0.186198 0.186849 0.187500 0.188151 0.188802 0.189453 0.190104 0.190755 0.191406 0.192057 0.192708 0.193359 0.194010 0.194661 0.195312 0.195964 0.196615 0.197266 0.197917 0.198568 0.199219 0.199870 0.200521 0.201172 0.201823 0.202474 0.203125 0.203776 0.204427 0.205078 0.205729 0.206380 0.207031 0.207682 0.208333 0.208984 0.209635 0.210286 0.210938 0.211589 0.212240 0.212891 0.213542 0.214193 0.214844 0.215495 0.216146 0.216797 0.217448 0.218099 0.218750 0.219401 0.220052 0.220703 0.221354 0.222005 0.222656 0.223307 0.223958 0.224609 0.225260 0.225911 0.226562 0.227214 0.227865 0.228516 0.229167 0.229818 0.230469 0.231120 0.231771 0.232422 0.233073 0.233724 0.234375 0.235026 0.235677
       0.32301        0.32301        0.32301        0.32301        0.32301        0.32301        0.32301        0.32301        0.32301        0.32301        0.32301        0.32301        0.32301        0.32301        0.32301        0.32301        0.32301        0.32301        0.32301        0.32301        0.32301        0.32301        0.32301        0.32301        0.32301        0.32301        0.32301        0.32301        0.32301        0.32301        0.32301        0.32301        0.32301        0.32302        0.32301        0.32301        0.32301        0.32301        0.32301        0.32301        0.32301        0.32301        0.32301        0.32301        0.32301        0.32301        0.32301        0.32301        0.32301        0.32301        0.32301        0.63288        0.80060        0.36147        0.18096       -0.11788       -0.27438       -0.28868       -0.04160       -0.13221        0.10734        0.01701       -0.03922       -0.06357       -0.12719       -0.24898       -0.37477       -0.44565       -0.46051       -0.45118       -0.45609       -0.50484       -0.51855       -0.50965       -0.54156       -0.54206       -0.63491       -0.53161       -0.56755       -0.49930       -0.47444       -0.32544       -0.27727       -0.11520       -0.06807        0.08380        0.16954        0.21840        0.27449        0.27090        0.47828        0.56989        0.54476        0.52355        0.63873        0.64904        0.73905        0.82419        0.79787        0.64618        0.53850        0.49484        0.36147        0.26823        0.17934        0.12981        0.10969        0.00245       -0.09122        0.02555       -0.01095       -0.08031       -0.04214        0.04861        0.09364        0.15562        0.24083        0.39412        0.53159        0.47854        0.64261        0.62741        0.69298        0.70694        0.67345        0.55809        0.58980        0.56906        0.51394        0.44197        0.30104        0.26121        0.13629        0.06371        0.05933        0.02311        0.14451        0.15718        0.13228        0.21557        0.31704        0.46343        0.50964        0.45836        0.62015        0.56212        0.59833        0.54594        0.58880        0.46340        0.39538        0.34798        0.25171        0.15280        0.11583        0.13752        0.10945        0.13334        0.23598        0.23484        0.30179        0.33925        0.35925        0.43502        0.49443        0.51300        0.48991        0.47120        0.35475        0.35059        0.28624        0.31380        0.23028        0.17372        0.17659        0.21910        0.27513        0.22554        0.24919        0.36744        0.42305        0.46929        0.53701        0.50033        0.42789        0.41405        0.34716        0.37187        0.34748        0.27542        0.22965        0.22690        0.27304        0.26030        0.34918        0.37277        0.39167        0.40683        0.41445        0.39626        0.42175        0.38126        0.31522        0.27914        0.23939        0.25032        0.21235        0.24295        0.26557        0.30504        0.34984        0.34101        0.38572        0.42156        0.42322        0.39980        0.38182        0.34311        0.33465        0.29292        0.25515        0.23363        0.23922        0.28985        0.36070        0.36285        0.38918        0.39914        0.37381        0.39651        0.31669        0.27862        0.26105        0.26570        0.28492        0.28945        0.31504        0.32591        0.34197        0.33938        0.34710        0.30016        0.30422        0.30747        0.25467        0.29495        0.24047        0.27838        0.27632        0.27586        0.29038        0.32661        0.32782        0.34206        0.31393        0.31150        0.27833        0.26734        0.27991        0.25459        0.27082        0.28565        0.31353        0.33661        0.32527        0.35942        0.34752        0.31220        0.30819        0.26809        0.28450        0.26818        0.29217        0.33033        0.33828        0.31357        0.33697        0.29199        0.30134        0.30509        0.28808        0.30005        0.31796        0.31543        0.29800        0.31481        0.30599        0.35834        0.33389        0.29821        0.26493        0.26194        0.28547        0.32346        0.26366        0.24597        0.29537        0.32107        0.28797        0.32477        0.30659        0.33710        0.30240        0.27332        0.23619        0.29583        0.32465        0.24942        0.31712        0.31422        0.32514        0.22131        0.27940        0.32543        0.33049        0.22196        0.29107        0.25910        0.27961        0.29133        0.28044        0.20234        0.21206        0.23970        0.25462        0.30643        0.25065        0.22583        0.24963        0.27901        0.23716        0.27099        0.20123        0.25034        0.21358        0.30282        0.27807        0.26164        0.25721        0.26539        0.23989        0.30875        0.25656        0.30164        0.23748        0.21460        0.24073        0.23972        0.27753        0.29099        0.15690        0.16543        0.14024        0.35892        0.24515        0.13271        0.15764        0.13173        0.02942        0.28461        0.37768       -0.24913       -0.42262
2.634834 2.607069 2.579458 2.552002 2.524700 2.497552 2.470558 2.443719 2.417034 2.390503 2.364126 2.337904 2.311836 2.285922 2.260163 2.234557 2.209107 2.183810 2.158667 2.133679 2.108845 2.084166 2.059640 2.035269 2.011052 1.986990 1.963081 1.939327 1.915728 1.892282 1.868991 1.845854 1.822871 1.800043 1.777368 1.754849 1.732483 1.710272 1.688214 1.666311 1.644563 1.622969 1.601529 1.580243 1.559111 1.538134 1.517311 1.496642 1.476128 1.455768 1.435562 1.540638 2.257830 1.358728 1.134676 0.764249 0.699087 0.478202 0.923922 0.695945 0.978660 0.930271 0.644426 0.744706 0.678041 0.517734 0.267938 0.240290 0.100614 0.190428 0.184413 0.039971 -0.037272 0.039285 -0.027113 -0.015116 -0.215903 -0.067673 -0.168844 -0.067101 -0.096108 0.106025 0.108050 0.276628 0.381860 0.465867 0.663347 0.631024 0.727774 0.631110 0.907035 1.039125 1.002319 0.951475 1.085430 1.014170 1.117971 1.309820 1.216907 1.099098 0.873764 0.860786 0.653740 0.590324 0.392957 0.304713 0.372251 0.173838 0.037592 0.132609 0.157498 -0.067243 0.050532 0.143712 0.162956 0.278538 0.239554 0.422297 0.705103 0.621499 0.708949 0.740175 0.822488 0.803110 0.831424 0.644620 0.696443 0.632156 0.591459 0.486995 0.388570 0.229521 0.148943 -0.023079 -0.026461 -0.039437 -0.057187 0.130568 0.045152 0.063686 0.165062 0.318487 0.540324 0.333840 0.505199 0.580500 0.516996 0.540676 0.558260 0.424281 0.304322 0.266188 0.167846 0.039599 -0.079629 -0.025521 -0.046955 -0.107636 0.086994 0.037090 0.113970 0.178459 0.216347 0.225362 0.337356 0.425028 0.452444 0.410697 0.345385 0.240600 0.169438 0.242527 0.136953 0.054600 -0.016919 0.052843 0.104554 0.138962 0.052923 0.185694 0.278196 0.292734 0.442643 0.411428 0.269513 0.322848 0.195913 0.206627 0.198677 0.132551 0.057555 0.006842 0.106400 0.040868 0.099108 0.201558 0.193754 0.253003 0.208120 0.234529 0.228840 0.229437 0.123398 0.115609 0.019003 0.044037 0.002342 0.001514 -0.008346 0.081719 0.096921 0.136435 0.119769 0.162780 0.218947 0.214412 0.169187 0.117426 0.085398 0.094805 0.012854 -0.035409 -0.021220 -0.034644 0.093074 0.108128 0.111528 0.140809 0.163744 0.117511 0.138361 0.005160 -0.010669 0.002367 -0.023697 0.030802 0.006103 0.067949 0.047845 0.085285 0.068201 0.085698 0.029202 0.046789 0.002432 -0.007803 0.019145 -0.051322 0.016076 -0.010586 -0.006175 0.035136 0.049595 0.082772 0.055789 0.054750 0.024587 -0.005357 0.004932 -0.049007 0.003769 0.014609 0.006521 0.050779 0.100008 0.060078 0.105208 0.088123 0.029458 0.031259 -0.023994 0.018418 -0.003397 0.003912 0.097128 0.062825 0.021278 0.102370 -0.047305 0.051677 0.009526 0.010976 0.024219 0.035684 0.012500 0.044755 0.038946 0.051907 0.078993 0.071802 0.020577 -0.016797 -0.009037 0.002927 0.068347 -0.024353 -0.023859 0.032735 0.061953 -0.006296 0.055590 0.048228 0.043906 0.000124 -0.000009 -0.075072 0.068236 0.015077 -0.026037 0.083789 0.061449 0.068709 -0.064354 0.033906 0.086602 0.097939 -0.030333 0.040902 -0.002978 0.020982 0.050091 0.056783 -0.064622 -0.054412 -0.015126 -0.008891 0.112664 -0.020313 -0.081842 0.021172 0.011873 -0.055042 0.036068 -0.100643 0.011090 -0.059150 0.042250 0.021160 -0.017381 -0.013109 0.023260 -0.022540 0.047927 0.017992 0.018113 -0.019532 -0.033841 -0.016006 -0.006600 0.069323 0.031650 -0.125627 -0.128936 0.465225 0.395407 0.278228 0.159283 0.216794 0.223375 0.023185 0.330975 0.463042 -0.507008
0.072396 0.072911 0.074456 0.077030 0.080632 0.085263 0.090920 0.097601 0.105305 0.114029 0.123768 0.134519 0.146276 0.159031 0.172777 0.187504 0.203200 0.219851 0.237442 0.255953 0.275364 0.295649 0.316782 0.338730 0.361458 0.384927 0.409092 0.433904 0.459308 0.485245 0.511649 0.538449 0.565567 0.592919 0.620412 0.647951 0.675429 0.702735 0.729749 0.756345 0.782389 0.807741 0.832254 0.855773 0.878140 0.899187 0.918744 0.936636 0.952684 0.966705 0.978516 0.987932 0.994768 0.998842 0.999975 0.997992 0.992726 0.984017 0.971718 0.955690 0.935813 0.911982 0.884111 0.852137 0.816018 0.775742 0.731322 0.682804 0.630267 0.573825 0.513627 0.449863 0.382763 0.312597 0.239678 0.164361 0.087043 0.008164 0.071796 0.152317 0.232843 0.312781 0.391509 0.468380 0.542721 0.613846 0.681057 0.743654 0.800942 0.852237 0.896878 0.934234 0.963714 0.984778 0.996947 0.999812 0.993044 0.976405 0.949758 0.913073 0.866436 0.810056 0.744273 0.669555 0.586509 0.495874 0.398525 0.295465 0.187822 0.076837 0.036142 0.149681 0.262271 0.372346 0.478309 0.578554 0.671486 0.755557 0.829285 0.891291 0.940321 0.975282 0.995265 0.999576 0.987754 0.959603 0.915200 0.854915 0.779419 0.689687 0.586996 0.472915 0.349294 0.218235 0.082069 0.056685 0.195360 0.331192 0.461372 0.583107 0.693681 0.790522 0.871260 0.933804 0.976391 0.997653 0.996663 0.972983 0.926693 0.858422 0.769348 0.661204 0.536253 0.397261 0.247438 0.090384 0.069996 0.229580 0.384135 0.529431 0.661352 0.776027 0.869949 0.940087 0.984006 0.999957 0.986963 0.944881 0.874439 0.777258 0.655829 0.513477 0.354286 0.183000 0.004892 0.174391 0.348994 0.513056 0.660900 0.787244 0.887397 0.957452 0.994456 0.996550 0.963085 0.894687 0.793291 0.662106 0.505554 0.329138 0.139269 0.056946 0.251962 0.438089 0.607785 0.753978 0.870373 0.951739 0.994172 0.995305 0.954465 0.872764 0.753111 0.600150 0.420111 0.220584 0.010224 0.201603 0.405245 0.591188 0.750521 0.875370 0.959319 0.997770 0.988219 0.930461 0.826665 0.681354 0.501240 0.294968 0.072714 0.154278 0.374266 0.575606 0.747386 0.880029 0.965865 0.999603 0.978706 0.903609 0.777797 0.607693 0.402384 0.173176 0.066995 0.304273 0.524680 0.714938 0.863297 0.960286 0.999371 0.977433 0.895070 0.756665 0.570220 0.346950 0.100658 0.153089 0.397919 0.617715 0.797688 0.925405 0.991690 0.991339 0.923589 0.792292 0.605778 0.376389 0.119727 0.146367 0.403043 0.631757 0.815637 0.940762 0.997274 0.980214 0.890025 0.732664 0.519294 0.265562 0.009483 0.284787 0.538893 0.751602 0.905641 0.988092 0.991563 0.914920 0.763540 0.549042 0.288462 0.002993 0.283717 0.547490 0.765673 0.919122 0.993938 0.982814 0.885829 0.710629 0.471924 0.190349 0.109251 0.399972 0.655268 0.851386 0.969636 0.998255 0.933669 0.781029 0.553921 0.273266 0.034516 0.339953 0.613310 0.827508 0.960862 0.999360 0.938243 0.782691 0.547526 0.255924 0.062792 0.376025 0.651232 0.859321 0.977803 0.993313 0.903238 0.716234 0.451544 0.137129 0.193178 0.503282 0.758767 0.930757 0.999270 0.955661 0.803849 0.560134 0.251593 0.086820 0.416157 0.697955 0.898741 0.994117 0.971836 0.833522 0.594762 0.283513 0.063051 0.402892 0.694187 0.900507 0.995473 0.966254 0.815462 0.561133 0.234733 0.122588 0.465121 0.748419 0.935126 0.999998 0.933483 0.743287 0.453686 0.102621 0.263193 0.594386 0.845607 0.981841 0.983412
1.000000 1.000000 1.000000 1.000000 1.000000 1.000000 1.000000 1.000000 1.000000 1.000000 1.000000 1.000000 1.000000 1.000000 1.000000 1.000000 1.000000 1.000000 1.000000 1.000000 1.000000 1.000000 1.000000 1.000000 1.000000 1.000000 1.000000 1.000000 1.000000 1.000000 1.000000 1.000000 1.000000 1.000000 1.000000 1.000000 1.000000 1.000000 1.000000 1.000000 1.000000 1.000000 1.000000 1.000000 1.000000 1.000000 1.000000 1.000000 1.000000 1.000000 1.000000 1.000000 0.943819 0.943819 0.945104 0.945104 0.945104 0.945104 0.945104 0.945104 0.945104 0.945104 0.945104 0.945104 0.945104 0.945104 0.945104 0.945104 0.945104 0.945104 0.945104 0.945104 0.945104 0.945104 0.945104 0.945104 0.945104 0.945104 0.945104 0.945104 0.945104 0.945104 0.945104 0.945104 0.945104 0.945104 0.945104 0.945104 0.945104 0.945104 0.945104 0.945104 0.945104 0.945104 0.945104 0.947209 0.947510 0.947177 0.948789 0.949428 0.944439 0.943040 0.942117 0.941973 0.942569 0.943019 0.949887 0.951103 0.952204 0.954388 0.961048 0.961989 0.962183 0.964385 0.963234 0.963913 0.962412 0.959686 0.956989 0.958040 0.958945 0.958349 0.956435 0.959577 0.960290 0.959119 0.956228 0.955432 0.955161 0.955933 0.955882 0.955896 0.956126 0.956701 0.957127 0.957433 0.956206 0.954602 0.950415 0.951635 0.954797 0.956994 0.958956 0.954315 0.954769 0.946902 0.951148 0.946271 0.946644 0.947110 0.948237 0.948863 0.948942 0.938573 0.936242 0.925539 0.921625 0.922113 0.922286 0.924708 0.928298 0.929490 0.923083 0.915182 0.911243 0.900247 0.911839 0.908103 0.898669 0.893481 0.894613 0.897534 0.897676 0.894951 0.889994 0.887898 0.881831 0.883104 0.887768 0.890532 0.884584 0.884248 0.881871 0.879248 0.877457 0.874563 0.873918 0.878453 0.878759 0.879141 0.879017 0.869872 0.868870 0.871670 0.867566 0.849182 0.845198 0.841979 0.839065 0.843102 0.856962 0.858178 0.853595 0.838426 0.837356 0.850883 0.865946 0.867088 0.865965 0.865012 0.855020 0.849718 0.849726 0.854329 0.851113 0.854133 0.854330 0.854993 0.829328 0.832264 0.819617 0.817092 0.809316 0.812602 0.815253 0.823157 0.826335 0.822548 0.817407 0.814695 0.802528 0.810787 0.810106 0.810761 0.802573 0.796577 0.793931 0.793020 0.792166 0.788978 0.788875 0.789755 0.779160 0.788469 0.786815 0.782461 0.770021 0.782984 0.781229 0.758195 0.756079 0.735222 0.730005 0.717989 0.713437 0.713126 0.699030 0.688571 0.685636 0.691219 0.701638 0.692704 0.682085 0.675331 0.683234 0.686188 0.700572 0.694718 0.638725 0.603935 0.612943 0.620191 0.618584 0.595842 0.570393 0.485059 0.481849 0.446516 0.460911 0.461788 0.436745 0.433547 0.410234 0.374031 0.403835 0.398818 0.390606 0.355976 0.361678 0.342443 0.360774 0.349225 0.333991 0.315079 0.250969 0.278793 0.280580 0.269283 0.285576 0.227270 0.199647 0.193713 0.202171 0.214255 0.206502 0.202424 0.179885 0.161521 0.185290 0.187488 0.181159 0.140245 0.142188 0.143656 0.152599 0.164982 0.161860 0.159455 0.145471 0.089288 0.078486 0.061485 0.013822 0.001773 0.000201 0.000098 0.030046 0.033583 0.025501 0.035237 0.041029 0.066832 0.089948 0.028704 0.029255 0.029255 -0.021728 -0.021728 -0.021728 -0.021728 -0.021728 -0.021728 -0.021728 -0.021728 -0.021728 0.024912 0.024912 0.024912 0.024912 0.024912 0.024912 0.024912 0.024912 0.005828 0.005828 0.005828 0.005828 0.005828 0.005828 0.005828 0.005828 0.005828 0.005828
0.000000 0.000000 0.000000 0.000000 0.000000 0.000000 0.000000 0.000000 0.000000 0.000000 0.000000 0.000000 0.000000 0.000000 0.000000 0.000000 0.000000 0.000000 0.000000 0.000000 0.000000 0.000000 0.000000 0.000000 0.000000 0.000000 0.000000 0.000000 0.000000 0.000000 0.000000 0.000000 0.000000 0.000000 0.000000 0.000000 0.000000 0.000000 0.000000 0.000000 0.000000 0.000000 0.000000 0.000000 0.000000 0.000000 0.000000 0.000000 0.000000 0.000000 0.000000 0.000000 0.181818 0.181818 0.199007 0.199007 0.199007 0.199007 0.199007 0.199007 0.199007 0.199007 0.199007 0.199007 0.199007 0.199007 0.199007 0.199007 0.199007 0.199007 0.199007 0.199007 0.199007 0.199007 0.199007 0.199007 0.199007 0.199007 0.199007 0.199007 0.199007 0.199007 0.199007 0.199007 0.199007 0.199007 0.199007 0.199007 0.199007 0.199007 0.199007 0.199007 0.199007 0.199007 0.199007 0.230940 0.230940 0.230940 0.230940 0.230940 0.230940 0.230940 0.230940 0.230940 0.230940 0.230940 0.230940 0.230940 0.230940 0.230940 0.230940 0.230940 0.230940 0.230940 0.230940 0.230940 0.230940 0.230940 0.230940 0.230940 0.230940 0.230940 0.230940 0.244339 0.244339 0.244339 0.244339 0.244339 0.244339 0.244339 0.244339 0.244339 0.244339 0.244339 0.244339 0.244339 0.244339 0.244339 0.244339 0.244339 0.244339 0.244339 0.244339 0.244339 0.244339 0.244339 0.251976 0.251976 0.251976 0.251976 0.251976 0.251976 0.251976 0.251976 0.251976 0.251976 0.251976 0.251976 0.251976 0.251976 0.251976 0.251976 0.251976 0.251976 0.251976 0.251976 0.264906 0.264906 0.264906 0.264906 0.264906 0.264906 0.264906 0.264906 0.264906 0.264906 0.264906 0.264906 0.264906 0.264906 0.264906 0.264906 0.264906 0.264906 0.264906 0.264906 0.264906 0.264906 0.264906 0.264906 0.264906 0.264906 0.264906 0.264906 0.264906 0.264906 0.264906 0.264906 0.264906 0.264906 0.264906 0.264906 0.264906 0.264906 0.264906 0.264906 0.264906 0.264906 0.264906 0.264906 0.264906 0.264906 0.264906 0.264906 0.264906 0.264906 0.264906 0.264906 0.264906 0.264906 0.264906 0.264906 0.264906 0.264906 0.264906 0.264906 0.264906 0.264906 0.264906 0.264906 0.264906 0.264906 0.264906 0.264906 0.264906 0.264906 0.264906 0.264906 0.264906 0.264906 0.264906 0.269680 0.269680 0.269680 0.269680 0.269680 0.269680 0.269680 0.269680 0.269680 0.269680 0.269680 0.269680 0.264906 0.264906 0.264906 0.264906 0.264906 0.264906 0.264906 0.264906 0.264906 0.264906 0.264906 0.264906 0.269680 0.269680 0.269680 0.269680 0.269680 0.269680 0.269680 0.269680 0.269680 0.269680 0.269680 0.264906 0.264906 0.264906 0.264906 0.264906 0.264906 0.264906 0.264906 0.264906 0.264906 0.264906 0.269680 0.269680 0.269680 0.269680 0.269680 0.269680 0.269680 0.269680 0.269680 0.269680 0.264906 0.264906 0.264906 0.264906 0.264906 0.264906 0.264906 0.264906 0.264906 0.264906 0.260378 0.260378 0.260378 0.260378 0.260378 0.260378 0.260378 0.260378 0.260378 0.260378 0.256074 0.256074 0.256074 0.256074 0.256074 0.256074 0.256074 0.256074 0.256074 0.256074 0.260378 0.260378 0.260378 0.260378 0.260378 0.260378 0.260378 0.260378 0.260378 0.256074 0.256074 0.256074 0.256074 0.256074 0.256074 0.256074 0.256074 0.256074 0.269680 0.269680 0.269680 0.269680 0.269680 0.269680 0.269680 0.269680 0.248069 0.248069 0.248069 0.248069 0.248069 0.248069 0.248069 0.248069 0.248069 0.248069
