# Output from CTFFind version 4.1.9, run on 2019-11-03 18:52:03
# Input file: stack20_ub_averaged_2000.mrc ; Number of micrographs: 1
# Pixel size: 3.000 Angstroms ; acceleration voltage: 300.0 keV ; spherical aberration: 0.00 mm ; amplitude contrast: 0.07
# Box size: 512 pixels ; min. res.: 30.0 Angstroms ; max. res.: 5.0 Angstroms ; min. def.: 5000.0 um; max. def. 50000.0 um; num. frames averaged: 1
# 6 lines per micrograph: #1 - spatial frequency (1/Angstroms); #2 - 1D rotational average of spectrum (assuming no astigmatism); #3 - 1D rotational average of spectrum; #4 - CTF fit; #5 - cross-correlation between spectrum and CTF fit; #6 - 2sigma of expected cross correlation of noise
0.000000 0.000651 0.001302 0.001953 0.002604 0.003255 0.003906 0.004557 0.005208 0.005859 0.006510 0.007161 0.007812 0.008464 0.009115 0.009766 0.010417 0.011068 0.011719 0.012370 0.013021 0.013672 0.014323 0.014974 0.015625 0.016276 0.016927 0.017578 0.018229 0.018880 0.019531 0.020182 0.020833 0.021484 0.022135 0.022786 0.023438 0.024089 0.024740 0.025391 0.026042 0.026693 0.027344 0.027995 0.028646 0.029297 0.029948 0.030599 0.031250 0.031901 0.032552 0.033203 0.033854 0.034505 0.035156 0.035807 0.036458 0.037109 0.037760 0.038411 0.039062 0.039714 0.040365 0.041016 0.041667 0.042318 0.042969 0.043620 0.044271 0.044922 0.045573 0.046224 0.046875 0.047526 0.048177 0.048828 0.049479 0.050130 0.050781 0.051432 0.052083 0.052734 0.053385 0.054036 0.054688 0.055339 0.055990 0.056641 0.057292 0.057943 0.058594 0.059245 0.059896 0.060547 0.061198 0.061849 0.062500 0.063151 0.063802 0.064453 0.065104 0.065755 0.066406 0.067057 0.067708 0.068359 0.069010 0.069661 0.070312 0.070964 0.071615 0.072266 0.072917 0.073568 0.074219 0.074870 0.075521 0.076172 0.076823 0.077474 0.078125 0.078776 0.079427 0.080078 0.080729 0.081380 0.082031 0.082682 0.083333 0.083984 0.084635 0.085286 0.085938 0.086589 0.087240 0.087891 0.088542 0.089193 0.089844 0.090495 0.091146 0.091797 0.092448 0.093099 0.093750 0.094401 0.095052 0.095703 0.096354 0.097005 0.097656 0.098307 0.098958 0.099609 0.100260 0.100911 0.101562 0.102214 0.102865 0.103516 0.104167 0.104818 0.105469 0.106120 0.106771 0.107422 0.108073 0.108724 0.109375 0.110026 0.110677 0.111328 0.111979 0.112630 0.113281 0.113932 0.114583 0.115234 0.115885 0.116536 0.117188 0.117839 0.118490 0.119141 0.119792 0.120443 0.121094 0.121745 0.122396 0.123047 0.123698 0.124349 0.125000 0.125651 0.126302 0.126953 0.127604 0.128255 0.128906 0.129557 0.130208 0.130859 0.131510 0.132161 0.132812 0.133464 0.134115 0.134766 0.135417 0.136068 0.136719 0.137370 0.138021 0.138672 0.139323 0.139974 0.140625 0.141276 0.141927 0.142578 0.143229 0.143880 0.144531 0.145182 0.145833 0.146484 0.147135 0.147786 0.148438 0.149089 0.149740 0.150391 0.151042 0.151693 0.152344 0.152995 0.153646 0.154297 0.154948 0.155599 0.156250 0.156901 0.157552 0.158203 0.158854 0.159505 0.160156 0.160807 0.161458 0.162109 0.162760 0.163411 0.164062 0.164714 0.165365 0.166016 0.166667 0.167318 0.167969 0.168620 0.169271 0.169922 0.170573 0.171224 0.171875 0.172526 0.173177 0.173828 0.174479 0.175130 0.175781 0.176432 0.177083 0.177734 0.178385 0.179036 0.179688 0.180339 0.180990 0.181641 0.182292 0.182943 0.183594 0.184245 0.184896 0.185547 0.186198 0.186849 0.187500 0.188151 0.188802 0.189453 0.190104 0.190755 0.191406 0.192057 0.192708 0.193359 0.194010 0.194661 0.195312 0.195964 0.196615 0.197266 0.197917 0.198568 0.199219 0.199870 0.200521 0.201172 0.201823 0.202474 0.203125 0.203776 0.204427 0.205078 0.205729 0.206380 0.207031 0.207682 0.208333 0.208984 0.209635 0.210286 0.210938 0.211589 0.212240 0.212891 0.213542 0.214193 0.214844 0.215495 0.216146 0.216797 0.217448 0.218099 0.218750 0.219401 0.220052 0.220703 0.221354 0.222005 0.222656 0.223307 0.223958 0.224609 0.225260 0.225911 0.226562 0.227214 0.227865 0.228516 0.229167 0.229818 0.230469 0.231120 0.231771 0.232422 0.233073 0.233724 0.234375 0.235026 0.235677
       0.32512        0.32512        0.32512        0.32512        0.32512        0.32512        0.32512        0.32512        0.32512        0.32512        0.32512        0.32512        0.32512        0.32512        0.32512        0.32512        0.32512        0.32512        0.32512        0.32512        0.32512        0.32512        0.32512        0.32512        0.32512        0.32512        0.32512        0.32512        0.32512        0.32512        0.32512        0.32512        0.32512        0.32512        0.32512        0.32512        0.32512        0.32512        0.32512        0.32512        0.32512        0.32512        0.32512        0.32512        0.32512        0.32512        0.32512        0.32512        0.32512        0.32512        0.32512        0.67750        0.99676        0.52605        0.23098        0.13465        0.10275        0.03409        0.15987        0.21652        0.14719        0.32255        0.45655        0.41012        0.21575        0.05097        0.00108        0.12255        0.11431        0.01219        0.12627        0.00428        0.04355        0.07663        0.16512        0.01384       -0.08217       -0.11951       -0.10927       -0.19239       -0.39486       -0.29426       -0.33308       -0.29924       -0.37634       -0.30173       -0.35730       -0.26220       -0.30280       -0.30264       -0.27054       -0.18086       -0.17899       -0.02502       -0.03637        0.06066        0.24180        0.32062        0.46624        0.41389        0.42953        0.55719        0.60841        0.69668        0.55076        0.63336        0.66948        0.76413        0.65857        0.69725        0.72494        0.72231        0.59494        0.55488        0.51787        0.49071        0.39609        0.30747        0.20379        0.19694        0.05097       -0.03091       -0.04787       -0.02403       -0.07288       -0.01406       -0.01117        0.05064        0.08728        0.18083        0.27247        0.40902        0.44222        0.50729        0.52023        0.55724        0.59874        0.63270        0.70009        0.63250        0.63283        0.58970        0.54877        0.49361        0.42269        0.39384        0.35580        0.31170        0.22142        0.18091        0.08509        0.06655        0.01789        0.08117        0.19665        0.22168        0.25885        0.27283        0.35459        0.40240        0.46369        0.53060        0.55728        0.53276        0.55675        0.54211        0.49619        0.47525        0.43303        0.40624        0.32212        0.30698        0.19675        0.21698        0.18836        0.14894        0.22079        0.21049        0.18818        0.26228        0.30916        0.27456        0.39090        0.38628        0.47299        0.45497        0.44248        0.46136        0.47459        0.42147        0.39849        0.30703        0.30669        0.28463        0.23455        0.25668        0.22727        0.25671        0.29294        0.25587        0.30398        0.35215        0.36123        0.36090        0.45338        0.39852        0.39109        0.37408        0.36334        0.40806        0.35501        0.33437        0.28673        0.25550        0.26267        0.26169        0.25038        0.29151        0.27633        0.33216        0.33046        0.35707        0.38463        0.38511        0.39793        0.37353        0.34572        0.31366        0.29044        0.30537        0.29332        0.29265        0.26537        0.24654        0.28685        0.29591        0.29557        0.34770        0.36644        0.33239        0.39840        0.36189        0.33607        0.30920        0.29391        0.28128        0.30545        0.27787        0.28180        0.26506        0.25047        0.30293        0.27983        0.30378        0.30625        0.31788        0.29316        0.33359        0.33519        0.30132        0.32341        0.31886        0.25136        0.25790        0.26913        0.26495        0.27629        0.27703        0.29123        0.31641        0.32115        0.33834        0.28427        0.32453        0.33235        0.27280        0.30269        0.25735        0.30346        0.28392        0.30286        0.34933        0.33196        0.34035        0.32242        0.31423        0.33316        0.31707        0.29503        0.32059        0.28850        0.28791        0.24358        0.32239        0.30885        0.32962        0.27993        0.28524        0.31777        0.29930        0.28970        0.32321        0.29675        0.31809        0.25078        0.25091        0.33168        0.29745        0.26665        0.35007        0.30511        0.29756        0.26603        0.32668        0.32155        0.26267        0.27212        0.24158        0.28538        0.29867        0.32207        0.28729        0.23341        0.22395        0.22629        0.29330        0.27359        0.26925        0.28301        0.28947        0.28010        0.22968        0.20221        0.27069        0.32781        0.26421        0.27097        0.25639        0.30204        0.23140        0.25004        0.24218        0.25502        0.23111        0.18101        0.20805        0.20587        0.16472        0.17769        0.21317        0.17705        0.16827        0.18322        0.19557        0.30900        0.15319        0.11883        0.31762        0.08449        0.07306       -0.05939       -0.27708       -0.61487
1.476283 1.466092 1.455936 1.445817 1.435733 1.425686 1.415674 1.405697 1.395757 1.385852 1.375984 1.366151 1.356354 1.346592 1.336867 1.327177 1.317523 1.307905 1.298323 1.288777 1.279266 1.269792 1.260353 1.250949 1.241582 1.232251 1.222955 1.213695 1.204471 1.195283 1.186131 1.177014 1.167933 1.158888 1.149879 1.140906 1.131968 1.123067 1.114201 1.105371 1.096576 1.087818 1.079095 1.070409 1.061758 1.053143 1.044563 1.036020 1.027512 1.019040 1.010604 1.348365 1.893337 1.221358 0.860673 0.795043 0.622614 0.685084 0.684001 0.847451 0.684550 1.023126 1.024105 1.065461 0.809884 0.538485 0.441463 0.661383 0.746020 0.408411 0.554872 0.502058 0.530943 0.502474 0.581966 0.476300 0.361532 0.290696 0.237720 0.192927 -0.061332 0.041794 -0.071163 0.023345 -0.079732 -0.009592 -0.106723 0.000843 0.001381 0.029616 -0.092705 0.041006 0.121702 0.226598 0.186478 0.350032 0.472571 0.650379 0.801806 0.720977 0.761058 0.881414 0.895616 1.080142 0.924540 0.950220 0.906859 1.131729 1.000353 1.072851 0.993804 1.076431 0.876546 0.890859 0.788290 0.764073 0.609138 0.564850 0.370258 0.391287 0.232479 0.097928 0.064975 0.100803 0.018393 -0.004457 0.081546 0.105797 0.177916 0.254809 0.305361 0.561433 0.524767 0.641397 0.643575 0.674950 0.772895 0.717530 0.864271 0.733547 0.809873 0.690369 0.699401 0.646422 0.446743 0.480456 0.475827 0.293958 0.360815 0.149314 0.122592 0.061710 -0.048014 -0.028250 0.164543 0.171902 0.214518 0.268499 0.264061 0.457479 0.319505 0.594687 0.534241 0.567113 0.527297 0.528086 0.453747 0.450077 0.400440 0.341568 0.249315 0.264132 0.127433 0.079279 0.103961 0.019043 0.050831 0.078107 0.062648 0.064974 0.184612 0.122859 0.228385 0.245482 0.367389 0.333515 0.329629 0.306808 0.370789 0.318213 0.270608 0.205311 0.103206 0.160684 0.067086 0.030293 0.091634 0.008309 0.100621 0.078465 0.070425 0.175098 0.137897 0.191339 0.195311 0.296925 0.198062 0.163898 0.133043 0.199383 0.181018 0.115919 0.091865 0.044192 -0.019992 0.030118 -0.007625 0.000749 0.072086 0.046610 0.110050 0.067655 0.164655 0.112813 0.160749 0.204295 0.107554 0.119671 0.059295 0.064508 0.057074 0.071508 0.027195 -0.027752 0.046322 0.042390 0.056535 0.068370 0.126562 0.088212 0.100317 0.182075 0.122645 0.045410 0.085289 0.022930 0.012138 0.060611 -0.000994 0.026196 -0.022122 0.036825 0.016725 0.012117 0.052061 0.056132 0.035771 0.024053 0.105708 0.042646 0.012387 0.071860 0.016468 -0.040680 -0.013628 -0.016990 -0.021215 0.009408 -0.012762 0.029754 0.044236 0.055091 0.048649 -0.032566 0.073053 0.046342 -0.026369 0.003588 0.002609 -0.002761 -0.005167 0.045932 0.072063 0.093534 0.063203 0.019226 0.079456 0.077795 0.075204 0.021223 0.083501 0.018133 0.037804 -0.026851 0.103754 0.053808 0.091442 -0.012571 0.073584 0.036602 0.055113 0.036283 0.089359 0.080755 0.065636 -0.029495 0.021279 0.109763 0.044405 0.022348 0.145758 0.055438 0.068564 -0.013729 0.149728 0.073863 0.001908 0.055028 -0.037352 0.070628 0.070756 0.078327 0.102271 -0.016167 -0.064998 0.009958 0.053308 0.040188 0.025942 0.066375 0.032850 0.056167 -0.016385 -0.038012 0.051908 0.120088 0.032062 0.017939 0.064218 0.046973 0.054780 0.027484 0.059691 0.021611 0.009864 -0.034429 -0.013116 0.308939 0.191501 0.231008 0.240790 0.207809 0.209200 0.199769 0.233485 0.481661 0.187817 0.035609 0.515515 0.122401 0.166045 -0.071154 -0.734293
0.072396 0.072799 0.074006 0.076017 0.078833 0.082452 0.086874 0.092098 0.098123 0.104946 0.112566 0.120981 0.130187 0.140180 0.150958 0.162513 0.174841 0.187934 0.201784 0.216382 0.231716 0.247776 0.264545 0.282009 0.300150 0.318948 0.338381 0.358424 0.379049 0.400228 0.421927 0.444110 0.466737 0.489767 0.513153 0.536845 0.560789 0.584927 0.609199 0.633537 0.657871 0.682128 0.706227 0.730087 0.753618 0.776730 0.799325 0.821304 0.842562 0.862989 0.882475 0.900904 0.918157 0.934113 0.948649 0.961638 0.972955 0.982472 0.990060 0.995594 0.998947 0.999996 0.998620 0.994702 0.988132 0.978803 0.966617 0.951483 0.933321 0.912060 0.887642 0.860022 0.829168 0.795067 0.757718 0.717143 0.673381 0.626492 0.576557 0.523681 0.467991 0.409641 0.348806 0.285690 0.220522 0.153556 0.085072 0.015376 0.055200 0.126301 0.197550 0.268546 0.338870 0.408085 0.475737 0.541361 0.604481 0.664617 0.721285 0.774001 0.822290 0.865686 0.903737 0.936014 0.962112 0.981657 0.994313 0.999784 0.997824 0.988238 0.970888 0.945702 0.912673 0.871866 0.823422 0.767559 0.704576 0.634855 0.558858 0.477133 0.390306 0.299082 0.204244 0.106641 0.007191 0.093134 0.193312 0.292281 0.388951 0.482214 0.570961 0.654089 0.730522 0.799224 0.859211 0.909573 0.949485 0.978226 0.995191 0.999907 0.992046 0.971438 0.938077 0.892137 0.833968 0.764111 0.683288 0.592407 0.492556 0.384991 0.271128 0.152527 0.030873 0.092046 0.214360 0.334152 0.449477 0.558405 0.659046 0.749592 0.828345 0.893759 0.944468 0.979325 0.997426 0.998142 0.981142 0.946411 0.894261 0.825345 0.740653 0.641508 0.529556 0.406742 0.275285 0.137642 0.003533 0.145435 0.285166 0.419790 0.546395 0.662163 0.764429 0.850753 0.918980 0.967300 0.994307 0.999044 0.981042 0.940352 0.877562 0.793803 0.690740 0.570555 0.435906 0.289879 0.135927 0.022207 0.180578 0.335133 0.481815 0.616673 0.735973 0.836301 0.914678 0.968646 0.996368 0.996691 0.969207 0.914288 0.833106 0.727619 0.600545 0.455304 0.295938 0.127012 0.046517 0.219429 0.386407 0.542192 0.681756 0.800473 0.894278 0.959818 0.994587 0.997033 0.966644 0.903993 0.810758 0.689696 0.544575 0.380086 0.201696 0.015482 0.172070 0.354289 0.524545 0.676511 0.804394 0.903173 0.968804 0.998411 0.990425 0.944682 0.862477 0.746544 0.601003 0.431226 0.243665 0.045609 0.155071 0.350243 0.531837 0.692187 0.824358 0.922468 0.981965 0.999859 0.974895 0.907655 0.800583 0.657930 0.485610 0.290975 0.082530 0.130430 0.338232 0.531254 0.700379 0.837441 0.935633 0.989867 0.997068 0.956371 0.869222 0.739367 0.572725 0.377147 0.162078 0.061890 0.283517 0.491489 0.674986 0.824261 0.931187 0.989711 0.996235 0.949869 0.852542 0.708968 0.526461 0.314593 0.084712 0.150634 0.378373 0.585644 0.760521 0.892729 0.974261 0.999909 0.967624 0.878714 0.737848 0.552857 0.334325 0.095041 0.150748 0.388169 0.602612 0.780648 0.910893 0.984760 0.997072 0.946461 0.835546 0.670850 0.462464 0.223479 0.030804 0.283856 0.518949 0.720300 0.874138 0.969672 0.999900 0.962162 0.858418 0.695218 0.483332 0.237109 0.026485 0.288992 0.531749 0.737231 0.890329 0.979503 0.997696 0.942945 0.818639 0.633368 0.400396 0.136765 0.137922 0.402943 0.638006 0.824822 0.948565 0.999096 0.971841 0.868275 0.695918 0.467867 0.201849 0.081100 0.358288 0.607161 0.807169 0.941483 0.998470 0.972757 0.865804 0.685918 0.447677
1.000000 1.000000 1.000000 1.000000 1.000000 1.000000 1.000000 1.000000 1.000000 1.000000 1.000000 1.000000 1.000000 1.000000 1.000000 1.000000 1.000000 1.000000 1.000000 1.000000 1.000000 1.000000 1.000000 1.000000 1.000000 1.000000 1.000000 1.000000 1.000000 1.000000 1.000000 1.000000 1.000000 1.000000 1.000000 1.000000 1.000000 1.000000 1.000000 1.000000 1.000000 1.000000 1.000000 1.000000 1.000000 1.000000 1.000000 1.000000 1.000000 1.000000 1.000000 1.000000 0.803390 0.803390 0.803390 0.803390 0.803390 0.803390 0.803390 0.803390 0.803390 0.781241 0.781241 0.781241 0.781241 0.781241 0.781241 0.781241 0.781241 0.781241 0.781241 0.781241 0.781241 0.781241 0.781241 0.781241 0.781241 0.781241 0.781241 0.781241 0.781241 0.781241 0.781241 0.781241 0.781241 0.781241 0.781241 0.781241 0.781241 0.781241 0.781241 0.781241 0.781241 0.781241 0.781241 0.781241 0.781241 0.781241 0.781241 0.781241 0.781241 0.781241 0.781241 0.781241 0.781241 0.781241 0.781241 0.781241 0.942847 0.943069 0.944075 0.952450 0.953205 0.954050 0.953847 0.953513 0.954883 0.955053 0.954563 0.955133 0.955681 0.956551 0.966698 0.967428 0.970990 0.970776 0.970744 0.970381 0.969768 0.976356 0.975718 0.975697 0.974540 0.973735 0.973613 0.974446 0.968716 0.968436 0.968113 0.975610 0.969498 0.968930 0.967999 0.965681 0.964858 0.964140 0.964048 0.963640 0.963597 0.963673 0.963607 0.963967 0.964271 0.964424 0.964478 0.959522 0.959781 0.958742 0.958091 0.947635 0.949502 0.944084 0.941749 0.933414 0.930231 0.936478 0.931671 0.930024 0.929256 0.929182 0.929227 0.929394 0.928669 0.925544 0.918371 0.917338 0.916437 0.914527 0.913490 0.915595 0.912792 0.914272 0.919054 0.920778 0.919823 0.916883 0.914301 0.906104 0.896815 0.896947 0.893368 0.894824 0.897149 0.888326 0.883825 0.871368 0.865185 0.862259 0.859662 0.859623 0.864835 0.861800 0.861242 0.859810 0.857711 0.859199 0.853177 0.852741 0.841036 0.839160 0.844809 0.815424 0.807945 0.797110 0.789709 0.791366 0.797301 0.796460 0.800904 0.798050 0.790484 0.773830 0.762691 0.749719 0.737462 0.727228 0.736768 0.734101 0.722321 0.736974 0.722959 0.745027 0.748338 0.753275 0.764477 0.764794 0.756058 0.752231 0.748535 0.744818 0.742205 0.691072 0.743081 0.693718 0.693595 0.686040 0.678588 0.668443 0.658979 0.667141 0.671863 0.664916 0.655474 0.647995 0.647802 0.637976 0.638435 0.655982 0.624285 0.622447 0.597197 0.616962 0.572984 0.570478 0.571916 0.538628 0.519927 0.510211 0.505548 0.499743 0.499971 0.491867 0.488112 0.461841 0.477827 0.494461 0.471688 0.481577 0.477630 0.488872 0.472776 0.465809 0.415314 0.414523 0.410983 0.422409 0.433708 0.436102 0.475864 0.451345 0.449158 0.456865 0.463418 0.442513 0.378031 0.362452 0.350648 0.334132 0.323613 0.220791 0.221450 0.215467 0.226719 0.246089 0.236981 0.222625 0.262817 0.253158 0.249425 0.257669 0.243200 0.232738 0.188163 0.188446 0.163383 0.123481 0.117937 0.105734 0.082222 0.064423 0.056559 0.066877 0.086020 0.081021 0.071924 0.043281 -0.005220 -0.003304 -0.014844 -0.024790 0.029334 0.015378 0.015378 0.015378 0.015378 0.015378 0.020615 0.020615 0.020615 0.020615 0.020615 0.020615 0.020615 0.020615 0.020615 0.020615 0.020615 0.020615 0.015378 0.015378 0.015378 0.015378 0.015378 0.015378 0.015378 0.015378 0.015378 0.015378 0.015378 0.015378 0.015378 0.015378 0.015378
0.000000 0.000000 0.000000 0.000000 0.000000 0.000000 0.000000 0.000000 0.000000 0.000000 0.000000 0.000000 0.000000 0.000000 0.000000 0.000000 0.000000 0.000000 0.000000 0.000000 0.000000 0.000000 0.000000 0.000000 0.000000 0.000000 0.000000 0.000000 0.000000 0.000000 0.000000 0.000000 0.000000 0.000000 0.000000 0.000000 0.000000 0.000000 0.000000 0.000000 0.000000 0.000000 0.000000 0.000000 0.000000 0.000000 0.000000 0.000000 0.000000 0.000000 0.000000 0.000000 0.170872 0.170872 0.170872 0.170872 0.170872 0.170872 0.170872 0.170872 0.170872 0.186501 0.186501 0.186501 0.186501 0.186501 0.186501 0.186501 0.186501 0.186501 0.186501 0.186501 0.186501 0.186501 0.186501 0.186501 0.186501 0.186501 0.186501 0.186501 0.186501 0.186501 0.186501 0.186501 0.186501 0.186501 0.186501 0.186501 0.186501 0.186501 0.186501 0.186501 0.186501 0.186501 0.186501 0.186501 0.186501 0.186501 0.186501 0.186501 0.186501 0.186501 0.186501 0.186501 0.186501 0.186501 0.186501 0.186501 0.219529 0.219529 0.219529 0.219529 0.219529 0.219529 0.219529 0.219529 0.219529 0.219529 0.219529 0.219529 0.219529 0.219529 0.219529 0.219529 0.219529 0.219529 0.219529 0.219529 0.219529 0.219529 0.219529 0.219529 0.219529 0.219529 0.219529 0.219529 0.219529 0.219529 0.219529 0.230940 0.230940 0.230940 0.230940 0.230940 0.230940 0.230940 0.230940 0.230940 0.230940 0.230940 0.230940 0.230940 0.230940 0.230940 0.230940 0.230940 0.230940 0.230940 0.230940 0.230940 0.230940 0.230940 0.230940 0.230940 0.230940 0.240772 0.240772 0.240772 0.240772 0.240772 0.240772 0.240772 0.240772 0.240772 0.240772 0.240772 0.240772 0.240772 0.240772 0.240772 0.240772 0.240772 0.240772 0.240772 0.240772 0.240772 0.240772 0.244339 0.244339 0.244339 0.244339 0.244339 0.244339 0.244339 0.244339 0.244339 0.244339 0.244339 0.244339 0.244339 0.244339 0.244339 0.244339 0.244339 0.244339 0.244339 0.244339 0.248069 0.248069 0.248069 0.248069 0.248069 0.248069 0.248069 0.248069 0.248069 0.248069 0.248069 0.248069 0.248069 0.248069 0.248069 0.248069 0.248069 0.248069 0.248069 0.248069 0.248069 0.248069 0.248069 0.248069 0.248069 0.248069 0.248069 0.248069 0.248069 0.248069 0.248069 0.248069 0.248069 0.248069 0.248069 0.256074 0.256074 0.256074 0.256074 0.256074 0.256074 0.256074 0.256074 0.256074 0.256074 0.256074 0.256074 0.256074 0.256074 0.256074 0.248069 0.248069 0.248069 0.248069 0.248069 0.248069 0.248069 0.248069 0.248069 0.248069 0.248069 0.248069 0.248069 0.248069 0.248069 0.251976 0.251976 0.251976 0.251976 0.251976 0.251976 0.251976 0.251976 0.251976 0.251976 0.251976 0.251976 0.251976 0.251976 0.256074 0.256074 0.256074 0.256074 0.256074 0.256074 0.256074 0.256074 0.256074 0.256074 0.256074 0.256074 0.256074 0.248069 0.248069 0.248069 0.248069 0.248069 0.248069 0.248069 0.248069 0.248069 0.248069 0.248069 0.248069 0.248069 0.251976 0.251976 0.251976 0.251976 0.251976 0.251976 0.251976 0.251976 0.251976 0.251976 0.251976 0.251976 0.248069 0.248069 0.248069 0.248069 0.248069 0.248069 0.248069 0.248069 0.248069 0.248069 0.248069 0.248069 0.244339 0.244339 0.244339 0.244339 0.244339 0.244339 0.244339 0.244339 0.244339 0.244339 0.244339 0.244339 0.248069 0.248069 0.248069 0.248069 0.248069 0.248069 0.248069 0.248069 0.248069 0.248069 0.248069 0.248069 0.248069 0.248069 0.248069
