# Output from CTFFind version 4.1.9, run on 2019-11-03 18:52:19
# Input file: stack15_ub_averaged_250.mrc ; Number of micrographs: 1
# Pixel size: 3.000 Angstroms ; acceleration voltage: 300.0 keV ; spherical aberration: 0.00 mm ; amplitude contrast: 0.07
# Box size: 512 pixels ; min. res.: 30.0 Angstroms ; max. res.: 5.0 Angstroms ; min. def.: 5000.0 um; max. def. 50000.0 um; num. frames averaged: 1
# 6 lines per micrograph: #1 - spatial frequency (1/Angstroms); #2 - 1D rotational average of spectrum (assuming no astigmatism); #3 - 1D rotational average of spectrum; #4 - CTF fit; #5 - cross-correlation between spectrum and CTF fit; #6 - 2sigma of expected cross correlation of noise
0.000000 0.000651 0.001302 0.001953 0.002604 0.003255 0.003906 0.004557 0.005208 0.005859 0.006510 0.007161 0.007812 0.008464 0.009115 0.009766 0.010417 0.011068 0.011719 0.012370 0.013021 0.013672 0.014323 0.014974 0.015625 0.016276 0.016927 0.017578 0.018229 0.018880 0.019531 0.020182 0.020833 0.021484 0.022135 0.022786 0.023438 0.024089 0.024740 0.025391 0.026042 0.026693 0.027344 0.027995 0.028646 0.029297 0.029948 0.030599 0.031250 0.031901 0.032552 0.033203 0.033854 0.034505 0.035156 0.035807 0.036458 0.037109 0.037760 0.038411 0.039062 0.039714 0.040365 0.041016 0.041667 0.042318 0.042969 0.043620 0.044271 0.044922 0.045573 0.046224 0.046875 0.047526 0.048177 0.048828 0.049479 0.050130 0.050781 0.051432 0.052083 0.052734 0.053385 0.054036 0.054688 0.055339 0.055990 0.056641 0.057292 0.057943 0.058594 0.059245 0.059896 0.060547 0.061198 0.061849 0.062500 0.063151 0.063802 0.064453 0.065104 0.065755 0.066406 0.067057 0.067708 0.068359 0.069010 0.069661 0.070312 0.070964 0.071615 0.072266 0.072917 0.073568 0.074219 0.074870 0.075521 0.076172 0.076823 0.077474 0.078125 0.078776 0.079427 0.080078 0.080729 0.081380 0.082031 0.082682 0.083333 0.083984 0.084635 0.085286 0.085938 0.086589 0.087240 0.087891 0.088542 0.089193 0.089844 0.090495 0.091146 0.091797 0.092448 0.093099 0.093750 0.094401 0.095052 0.095703 0.096354 0.097005 0.097656 0.098307 0.098958 0.099609 0.100260 0.100911 0.101562 0.102214 0.102865 0.103516 0.104167 0.104818 0.105469 0.106120 0.106771 0.107422 0.108073 0.108724 0.109375 0.110026 0.110677 0.111328 0.111979 0.112630 0.113281 0.113932 0.114583 0.115234 0.115885 0.116536 0.117188 0.117839 0.118490 0.119141 0.119792 0.120443 0.121094 0.121745 0.122396 0.123047 0.123698 0.124349 0.125000 0.125651 0.126302 0.126953 0.127604 0.128255 0.128906 0.129557 0.130208 0.130859 0.131510 0.132161 0.132812 0.133464 0.134115 0.134766 0.135417 0.136068 0.136719 0.137370 0.138021 0.138672 0.139323 0.139974 0.140625 0.141276 0.141927 0.142578 0.143229 0.143880 0.144531 0.145182 0.145833 0.146484 0.147135 0.147786 0.148438 0.149089 0.149740 0.150391 0.151042 0.151693 0.152344 0.152995 0.153646 0.154297 0.154948 0.155599 0.156250 0.156901 0.157552 0.158203 0.158854 0.159505 0.160156 0.160807 0.161458 0.162109 0.162760 0.163411 0.164062 0.164714 0.165365 0.166016 0.166667 0.167318 0.167969 0.168620 0.169271 0.169922 0.170573 0.171224 0.171875 0.172526 0.173177 0.173828 0.174479 0.175130 0.175781 0.176432 0.177083 0.177734 0.178385 0.179036 0.179688 0.180339 0.180990 0.181641 0.182292 0.182943 0.183594 0.184245 0.184896 0.185547 0.186198 0.186849 0.187500 0.188151 0.188802 0.189453 0.190104 0.190755 0.191406 0.192057 0.192708 0.193359 0.194010 0.194661 0.195312 0.195964 0.196615 0.197266 0.197917 0.198568 0.199219 0.199870 0.200521 0.201172 0.201823 0.202474 0.203125 0.203776 0.204427 0.205078 0.205729 0.206380 0.207031 0.207682 0.208333 0.208984 0.209635 0.210286 0.210938 0.211589 0.212240 0.212891 0.213542 0.214193 0.214844 0.215495 0.216146 0.216797 0.217448 0.218099 0.218750 0.219401 0.220052 0.220703 0.221354 0.222005 0.222656 0.223307 0.223958 0.224609 0.225260 0.225911 0.226562 0.227214 0.227865 0.228516 0.229167 0.229818 0.230469 0.231120 0.231771 0.232422 0.233073 0.233724 0.234375 0.235026 0.235677
       0.40072        0.40072        0.40072        0.40072        0.40072        0.40072        0.40072        0.40072        0.40072        0.40072        0.40072        0.40072        0.40072        0.40072        0.40072        0.40072        0.40072        0.40072        0.40072        0.40072        0.40072        0.40072        0.40072        0.40072        0.40072        0.40072        0.40072        0.40072        0.40072        0.40072        0.40072        0.40072        0.40072        0.40072        0.40072        0.40072        0.40072        0.40072        0.40072        0.40072        0.40072        0.40072        0.40072        0.40072        0.40072        0.40072        0.40072        0.40072        0.40072        0.40072        0.40072        0.06671       -0.39238       -0.28153       -0.21238       -0.27246       -0.18374       -0.15160       -0.10735        0.01479       -0.04511        0.11545        0.18693        0.23309        0.08496        0.18336        0.22041        0.16078        0.28948        0.32666        0.32773        0.23420        0.26910        0.30728        0.26176        0.34752        0.30343        0.28204        0.32881        0.26738        0.25782        0.36603        0.39965        0.39280        0.29622        0.41198        0.45766        0.45884        0.45749        0.39565        0.45155        0.51310        0.43464        0.37027        0.37230        0.35112        0.43232        0.47647        0.38805        0.32481        0.38299        0.41009        0.37937        0.39060        0.37473        0.38181        0.46123        0.50977        0.40895        0.38718        0.40096        0.39189        0.42002        0.32976        0.40560        0.40915        0.41296        0.49105        0.44911        0.42280        0.42520        0.40443        0.46750        0.45529        0.41629        0.36051        0.44495        0.37954        0.37285        0.36580        0.34854        0.41211        0.37448        0.41057        0.36679        0.37623        0.45919        0.36659        0.33466        0.36739        0.37576        0.40894        0.39024        0.41597        0.38949        0.43136        0.47047        0.46960        0.43370        0.40760        0.39807        0.37728        0.44978        0.47212        0.38654        0.40852        0.47500        0.44301        0.49907        0.46024        0.45451        0.41132        0.42627        0.41968        0.37676        0.37075        0.44955        0.48766        0.46678        0.44607        0.41857        0.43152        0.41160        0.42951        0.44759        0.43985        0.41493        0.38910        0.48970        0.49332        0.42334        0.43930        0.42902        0.37632        0.38525        0.43486        0.39927        0.40180        0.41481        0.41462        0.42264        0.42705        0.43643        0.42712        0.39664        0.41963        0.40806        0.42487        0.41017        0.41452        0.38829        0.38816        0.43950        0.38795        0.43307        0.38952        0.38454        0.39690        0.40717        0.46069        0.45795        0.39212        0.38024        0.44512        0.39960        0.44086        0.41086        0.42595        0.48864        0.43520        0.41899        0.46399        0.44011        0.44502        0.43057        0.37701        0.39276        0.44370        0.41640        0.44433        0.37766        0.39929        0.37732        0.38727        0.38930        0.38256        0.36822        0.33224        0.34618        0.36033        0.35393        0.40305        0.39993        0.37960        0.40716        0.43027        0.42923        0.40654        0.38038        0.39406        0.36544        0.38682        0.35694        0.37005        0.42813        0.37359        0.38361        0.37864        0.34013        0.38518        0.41683        0.38557        0.34504        0.35120        0.36329        0.38114        0.34542        0.36161        0.38003        0.38510        0.41984        0.36544        0.33581        0.36389        0.37374        0.39732        0.38058        0.39528        0.35583        0.36250        0.32432        0.37499        0.37363        0.36794        0.35659        0.34515        0.38704        0.36888        0.33291        0.43611        0.38911        0.38381        0.33467        0.37774        0.38083        0.34542        0.36745        0.37590        0.43384        0.41303        0.38309        0.36746        0.34307        0.33284        0.35093        0.34635        0.41152        0.39193        0.43057        0.36700        0.35776        0.35336        0.38339        0.41936        0.42257        0.32122        0.25609        0.31988        0.28407        0.29565        0.34572        0.39318        0.36211        0.35826        0.24935        0.31873        0.29190        0.33454        0.35017        0.35748        0.35486        0.32017        0.35845        0.32386        0.37719        0.38727        0.30551        0.29748        0.36517        0.30774        0.37806        0.34252        0.33860        0.33097        0.29806        0.31982        0.32049        0.36572        0.28646        0.24934        0.20195        0.30463        0.33909        0.37753        0.30812        0.40286        0.23515        0.09289        0.11207        0.12332       -0.10940       -0.25983       -0.35222
0.400722 0.400722 0.400722 0.400722 0.400722 0.400722 0.400722 0.400722 0.400722 0.400722 0.400722 0.400722 0.400722 0.400722 0.400722 0.400722 0.400722 0.400722 0.400722 0.400722 0.400722 0.400722 0.400722 0.400722 0.400722 0.400722 0.400722 0.400722 0.400722 0.400722 0.400722 0.400722 0.400722 0.400722 0.400722 0.400722 0.400722 0.400722 0.400722 0.400722 0.400722 0.400722 0.400722 0.400722 0.400722 0.400722 0.400722 0.400722 0.400722 0.400722 0.400722 0.266788 -0.389571 -0.312673 -0.213444 -0.257568 -0.205496 -0.094190 -0.170414 0.019013 -0.024977 0.024560 0.209223 0.263452 0.074740 0.171635 0.176118 0.180334 0.302156 0.336746 0.305097 0.232223 0.281295 0.332987 0.200304 0.356241 0.330477 0.301880 0.290638 0.326815 0.193116 0.356921 0.385117 0.440399 0.281835 0.410043 0.413899 0.466474 0.465635 0.391834 0.447680 0.475478 0.548301 0.380904 0.333308 0.375789 0.402435 0.491325 0.416802 0.293293 0.413036 0.415548 0.358326 0.384504 0.371119 0.396546 0.390249 0.542828 0.413283 0.414038 0.330062 0.443961 0.393114 0.383429 0.362319 0.427830 0.395903 0.453445 0.485987 0.463939 0.430854 0.386464 0.451768 0.448868 0.460214 0.315131 0.448620 0.407345 0.344921 0.404975 0.322513 0.373865 0.404550 0.425105 0.354009 0.361259 0.450985 0.416629 0.318165 0.383644 0.339643 0.404330 0.406166 0.387237 0.423853 0.425183 0.421065 0.480171 0.481841 0.384528 0.386737 0.387843 0.443540 0.427376 0.459790 0.389612 0.465850 0.433086 0.460828 0.505624 0.471399 0.400746 0.415990 0.475931 0.384974 0.329316 0.390744 0.510803 0.477125 0.464178 0.399492 0.471623 0.389076 0.438822 0.415993 0.482054 0.407021 0.390080 0.433678 0.526126 0.447146 0.444188 0.401171 0.421161 0.376258 0.411577 0.447341 0.374248 0.415000 0.392620 0.448786 0.411070 0.401170 0.480445 0.397058 0.411577 0.450010 0.374069 0.450787 0.412714 0.383614 0.393955 0.414687 0.417253 0.413776 0.412618 0.372050 0.392310 0.413572 0.409231 0.491883 0.421148 0.392350 0.382180 0.415485 0.437870 0.427012 0.426017 0.431744 0.494290 0.413578 0.449007 0.485950 0.403470 0.476881 0.383382 0.380347 0.402426 0.457050 0.422653 0.432331 0.370567 0.414581 0.365440 0.387996 0.394091 0.363634 0.358549 0.333147 0.369915 0.356926 0.343695 0.425600 0.380675 0.389162 0.416868 0.416888 0.461808 0.364879 0.389744 0.394651 0.346673 0.397937 0.344970 0.384428 0.443943 0.369085 0.372982 0.359656 0.360603 0.381581 0.436228 0.359886 0.345197 0.360620 0.359940 0.369064 0.350249 0.410999 0.375387 0.371080 0.435705 0.359903 0.288794 0.396513 0.394509 0.373631 0.387512 0.378383 0.394381 0.318566 0.358801 0.349124 0.403724 0.346898 0.363193 0.330420 0.400420 0.364733 0.347904 0.455180 0.359981 0.393336 0.329251 0.395656 0.372169 0.336821 0.370122 0.362060 0.474094 0.384548 0.366326 0.391168 0.324723 0.314404 0.370565 0.342121 0.405740 0.437777 0.405640 0.334522 0.363973 0.372095 0.416605 0.426187 0.378202 0.332285 0.259551 0.296739 0.269979 0.291886 0.370288 0.398077 0.351284 0.387015 0.221509 0.346806 0.270935 0.375717 0.329146 0.390173 0.355099 0.285404 0.385587 0.297622 0.468936 0.371809 0.292838 0.294462 0.409364 0.272818 0.405156 0.329785 0.334315 0.331397 0.284992 0.310114 0.357240 0.353124 0.309722 0.205084 0.263363 0.213693 0.326016 0.381853 0.253157 0.399652 0.226816 0.037070 0.120474 0.091560 -0.194090 -0.352219
0.072396 0.072941 0.074574 0.077296 0.081105 0.086001 0.091982 0.099047 0.107192 0.116414 0.126710 0.138073 0.150498 0.163976 0.178497 0.194052 0.210625 0.228201 0.246761 0.266284 0.286744 0.308113 0.330358 0.353443 0.377326 0.401961 0.427295 0.453272 0.479828 0.506892 0.534389 0.562235 0.590338 0.618602 0.646921 0.675179 0.703256 0.731023 0.758340 0.785064 0.811039 0.836106 0.860095 0.882833 0.904136 0.923820 0.941690 0.957553 0.971208 0.982456 0.991096 0.996928 0.999754 0.999383 0.995627 0.988309 0.977262 0.962331 0.943378 0.920281 0.892940 0.861277 0.825241 0.784810 0.739992 0.690829 0.637401 0.579825 0.518260 0.452908 0.384016 0.311877 0.236830 0.159262 0.079609 0.001648 0.083982 0.166823 0.249558 0.331537 0.412078 0.490467 0.565971 0.637837 0.705306 0.767617 0.824018 0.873774 0.916181 0.950572 0.976331 0.992905 0.999814 0.996664 0.983158 0.959107 0.924438 0.879207 0.823608 0.757971 0.682779 0.598662 0.506404 0.406935 0.301334 0.190818 0.076731 0.039463 0.156203 0.271845 0.384684 0.492981 0.594989 0.688982 0.773286 0.846311 0.906588 0.952799 0.983812 0.998710 0.996827 0.977771 0.941447 0.888078 0.818218 0.732762 0.632941 0.520324 0.396794 0.264534 0.125992 0.016156 0.159054 0.299721 0.435110 0.562173 0.677939 0.779577 0.864482 0.930339 0.975205 0.997569 0.996411 0.971258 0.922220 0.850016 0.755982 0.642073 0.510833 0.365357 0.209230 0.046450 0.118666 0.281590 0.437707 0.582447 0.711419 0.820558 0.906260 0.965513 0.996021 0.996305 0.965789 0.904858 0.814885 0.698231 0.558209 0.399008 0.225595 0.043566 0.141014 0.321812 0.492442 0.646688 0.778749 0.883458 0.956515 0.994672 0.995906 0.959545 0.886348 0.778531 0.639736 0.474940 0.290304 0.092965 0.109216 0.307972 0.494953 0.662080 0.801914 0.908001 0.975189 0.999915 0.980418 0.916887 0.811525 0.668515 0.493904 0.295372 0.081932 0.136461 0.349365 0.546341 0.717479 0.853912 0.948298 0.995250 0.991684 0.937055 0.833470 0.685674 0.500872 0.288433 0.059449 0.173826 0.398613 0.602305 0.773192 0.901154 0.978298 0.999487 0.962730 0.869400 0.724262 0.535286 0.313273 0.071276 0.176132 0.413722 0.626547 0.800891 0.925192 0.990847 0.992864 0.930297 0.806433 0.628697 0.408278 0.159481 0.101156 0.355936 0.587197 0.778556 0.916092 0.989416 0.992515 0.924314 0.788893 0.595337 0.357201 0.091639 0.181813 0.442620 0.670807 0.848512 0.961424 0.999999 0.960351 0.844708 0.661405 0.424371 0.152158 0.133455 0.409176 0.652093 0.841593 0.961166 0.999922 0.953660 0.825407 0.625351 0.370130 0.081535 0.215290 0.494012 0.729437 0.899835 0.989006 0.987911 0.895688 0.719940 0.476233 0.186817 0.121312 0.418904 0.677204 0.870771 0.980041 0.993410 0.908568 0.732962 0.483281 0.183982 0.135005 0.441224 0.702994 0.892712 0.989843 0.983254 0.872613 0.668680 0.392403 0.072901 0.255539 0.557085 0.798274 0.951806 0.999712 0.935599 0.765636 0.508131 0.191716 0.147745 0.471135 0.740598 0.924009 0.998905 0.955379 0.797528 0.543288 0.222536 0.126272 0.460648 0.739234 0.926963 0.999575 0.946910 0.774490 0.503150 0.166701 0.192166 0.527207 0.794600 0.958722 0.997045 0.903382 0.689059 0.381758 0.022109 0.341551 0.659637 0.888100 0.994634 0.963397 0.797572 0.519300 0.166928 0.210119 0.558192 0.827026 0.977124 0.985674 0.850249 0.589545 0.241044 0.144207 0.508936 0.798185 0.967640 0.990573 0.862289 0.601258
1.000000 1.000000 1.000000 1.000000 1.000000 1.000000 1.000000 1.000000 1.000000 1.000000 1.000000 1.000000 1.000000 1.000000 1.000000 1.000000 1.000000 1.000000 1.000000 1.000000 1.000000 1.000000 1.000000 1.000000 1.000000 1.000000 1.000000 1.000000 1.000000 1.000000 1.000000 1.000000 1.000000 1.000000 1.000000 1.000000 1.000000 1.000000 1.000000 1.000000 1.000000 1.000000 1.000000 1.000000 1.000000 1.000000 1.000000 1.000000 1.000000 1.000000 1.000000 1.000000 0.008304 0.007993 0.007993 0.007993 0.007993 0.007993 0.007993 0.007993 0.007993 0.007993 0.007993 0.007993 0.007993 0.007993 0.007993 0.007993 0.007993 0.007993 0.007993 0.007993 0.007993 0.007993 0.007993 0.007993 0.007993 0.007993 0.007993 0.007993 0.007993 0.007993 0.007993 0.007993 0.007993 0.007993 0.007993 0.007993 0.007993 0.007993 0.007993 0.007993 0.007993 0.056470 0.111845 0.153831 0.151553 0.149372 0.159297 0.154233 0.151338 0.158221 0.132217 0.132189 0.109529 0.107594 0.117028 0.108721 0.129133 0.155500 0.185078 0.201727 0.234770 0.250070 0.260055 0.252514 0.240531 0.239952 0.234667 0.235903 0.221169 0.224348 0.216457 0.203730 0.189198 0.165705 0.184778 0.239066 0.265681 0.247638 0.234752 0.237816 0.240825 0.224162 0.228478 0.206773 0.179227 0.149462 0.174234 0.165120 0.211533 0.221458 0.228899 0.227375 0.231633 0.253436 0.240819 0.204594 0.174363 0.173463 0.148235 0.135659 0.141803 0.132530 0.148256 0.161223 0.182206 0.203094 0.208656 0.193452 0.195670 0.182402 0.208866 0.188518 0.164407 0.188478 0.163534 0.170392 0.167769 0.178107 0.170053 0.168606 0.215920 0.220108 0.209450 0.203671 0.201542 0.209186 0.158615 0.109454 0.097478 0.105253 0.111390 0.125452 0.131635 0.158047 0.166984 0.142697 0.115109 0.087748 0.083545 0.097883 0.068214 0.095278 0.102424 0.163326 0.209804 0.264782 0.273255 0.338560 0.336713 0.298748 0.289829 0.271474 0.244611 0.269311 0.266142 0.248701 0.242368 0.258525 0.254013 0.232121 0.237627 0.249831 0.235099 0.245594 0.230478 0.230736 0.251763 0.284491 0.263919 0.304781 0.273847 0.322551 0.318232 0.317302 0.326372 0.350666 0.337810 0.304537 0.270498 0.260686 0.261437 0.221958 0.255798 0.304275 0.347821 0.370284 0.354285 0.346251 0.340182 0.342566 0.345630 0.364409 0.348151 0.341850 0.326680 0.367053 0.318443 0.279990 0.292646 0.300499 0.313871 0.320813 0.278921 0.322681 0.327532 0.257693 0.253038 0.268804 0.290098 0.285348 0.251810 0.262807 0.262724 0.260948 0.276651 0.264018 0.257283 0.237683 0.210114 0.249454 0.246901 0.240652 0.229395 0.250637 0.249987 0.260889 0.250068 0.220433 0.240946 0.256923 0.267330 0.244154 0.260537 0.273342 0.254463 0.253017 0.252649 0.199742 0.224314 0.198976 0.163092 0.113952 0.057833 0.057516 0.069928 0.019973 0.023954 0.022051 -0.004231 -0.044570 -0.023913 -0.063462 -0.082359 -0.084486 -0.084534 -0.133083 -0.036555 -0.071116 -0.074669 -0.054149 -0.061386 -0.040399 0.016507 0.006310 0.003422 -0.035695 -0.043525 -0.056013 -0.083728 -0.094538 -0.085292 -0.125395 -0.114643 -0.124655 -0.126240 -0.136483 -0.136932 -0.169463 -0.172061 -0.238310 -0.302888 -0.325236 -0.331727 -0.189816 -0.189816 -0.189816 -0.189816 -0.189816 -0.189816 -0.189816 -0.189816 -0.189816 -0.307315 -0.307315 -0.307315 -0.307315 -0.307315 -0.307315 -0.307315 -0.307315 -0.220888 -0.220888 -0.220888 -0.220888 -0.220888 -0.220888 -0.220888 -0.220888 -0.220888 -0.220888 -0.220888
0.000000 0.000000 0.000000 0.000000 0.000000 0.000000 0.000000 0.000000 0.000000 0.000000 0.000000 0.000000 0.000000 0.000000 0.000000 0.000000 0.000000 0.000000 0.000000 0.000000 0.000000 9401.000000 0.000000 0.000000 0.000000 0.000000 0.000000 0.000000 0.000000 0.000000 0.000000 0.000000 0.000000 0.000000 0.000000 0.000000 0.000000 0.000000 0.000000 0.000000 0.000000 0.000000 0.000000 0.000000 0.000000 0.000000 0.000000 0.000000 0.000000 0.000000 0.000000 0.000000 0.183340 0.201008 0.201008 0.201008 0.201008 0.201008 0.201008 0.201008 0.201008 0.201008 0.201008 0.201008 0.201008 0.201008 0.201008 0.201008 0.201008 0.201008 0.201008 0.201008 0.201008 0.201008 0.201008 0.201008 0.201008 0.201008 0.201008 0.201008 0.201008 0.201008 0.201008 0.201008 0.201008 0.201008 0.201008 0.201008 0.201008 0.201008 0.201008 0.201008 0.201008 0.234082 0.234082 0.234082 0.234082 0.234082 0.234082 0.234082 0.234082 0.234082 0.234082 0.234082 0.234082 0.234082 0.234082 0.234082 0.234082 0.234082 0.234082 0.234082 0.234082 0.234082 0.234082 0.234082 0.234082 0.234082 0.234082 0.234082 0.248069 0.248069 0.248069 0.248069 0.248069 0.248069 0.248069 0.248069 0.248069 0.248069 0.248069 0.248069 0.248069 0.248069 0.248069 0.248069 0.248069 0.248069 0.248069 0.248069 0.248069 0.248069 0.256074 0.256074 0.256074 0.256074 0.256074 0.256074 0.256074 0.256074 0.256074 0.256074 0.256074 0.256074 0.256074 0.256074 0.256074 0.256074 0.256074 0.256074 0.256074 0.264906 0.264906 0.264906 0.264906 0.264906 0.264906 0.264906 0.264906 0.264906 0.264906 0.264906 0.264906 0.264906 0.264906 0.264906 0.264906 0.264906 0.264906 0.264906 0.264906 0.264906 0.264906 0.264906 0.264906 0.264906 0.264906 0.264906 0.264906 0.264906 0.264906 0.264906 0.264906 0.264906 0.269680 0.269680 0.269680 0.269680 0.269680 0.269680 0.269680 0.269680 0.269680 0.269680 0.269680 0.269680 0.269680 0.269680 0.274721 0.274721 0.274721 0.274721 0.274721 0.274721 0.274721 0.274721 0.274721 0.274721 0.274721 0.274721 0.274721 0.264906 0.264906 0.264906 0.264906 0.264906 0.264906 0.264906 0.264906 0.264906 0.264906 0.264906 0.264906 0.264906 0.269680 0.269680 0.269680 0.269680 0.269680 0.269680 0.269680 0.269680 0.269680 0.269680 0.269680 0.269680 0.274721 0.274721 0.274721 0.274721 0.274721 0.274721 0.274721 0.274721 0.274721 0.274721 0.274721 0.269680 0.269680 0.269680 0.269680 0.269680 0.269680 0.269680 0.269680 0.269680 0.269680 0.269680 0.264906 0.264906 0.264906 0.264906 0.264906 0.264906 0.264906 0.264906 0.264906 0.264906 0.264906 0.269680 0.269680 0.269680 0.269680 0.269680 0.269680 0.269680 0.269680 0.269680 0.269680 0.264906 0.264906 0.264906 0.264906 0.264906 0.264906 0.264906 0.264906 0.264906 0.264906 0.269680 0.269680 0.269680 0.269680 0.269680 0.269680 0.269680 0.269680 0.269680 0.256074 0.256074 0.256074 0.256074 0.256074 0.256074 0.256074 0.256074 0.256074 0.256074 0.260378 0.260378 0.260378 0.260378 0.260378 0.260378 0.260378 0.260378 0.260378 0.269680 0.269680 0.269680 0.269680 0.269680 0.269680 0.269680 0.269680 0.251976 0.251976 0.251976 0.251976 0.251976 0.251976 0.251976 0.251976 0.251976 0.264906 0.264906 0.264906 0.264906 0.264906 0.264906 0.264906 0.264906 0.260378 0.260378 0.260378 0.260378 0.260378 0.260378 0.260378 0.260378 0.260378 0.260378 0.260378
