# Output from CTFFind version 4.1.9, run on 2019-11-03 18:51:10
# Input file: stack12_ub_averaged_50.mrc ; Number of micrographs: 1
# Pixel size: 3.000 Angstroms ; acceleration voltage: 300.0 keV ; spherical aberration: 0.00 mm ; amplitude contrast: 0.07
# Box size: 512 pixels ; min. res.: 30.0 Angstroms ; max. res.: 5.0 Angstroms ; min. def.: 5000.0 um; max. def. 50000.0 um; num. frames averaged: 1
# 6 lines per micrograph: #1 - spatial frequency (1/Angstroms); #2 - 1D rotational average of spectrum (assuming no astigmatism); #3 - 1D rotational average of spectrum; #4 - CTF fit; #5 - cross-correlation between spectrum and CTF fit; #6 - 2sigma of expected cross correlation of noise
0.000000 0.000651 0.001302 0.001953 0.002604 0.003255 0.003906 0.004557 0.005208 0.005859 0.006510 0.007161 0.007812 0.008464 0.009115 0.009766 0.010417 0.011068 0.011719 0.012370 0.013021 0.013672 0.014323 0.014974 0.015625 0.016276 0.016927 0.017578 0.018229 0.018880 0.019531 0.020182 0.020833 0.021484 0.022135 0.022786 0.023438 0.024089 0.024740 0.025391 0.026042 0.026693 0.027344 0.027995 0.028646 0.029297 0.029948 0.030599 0.031250 0.031901 0.032552 0.033203 0.033854 0.034505 0.035156 0.035807 0.036458 0.037109 0.037760 0.038411 0.039062 0.039714 0.040365 0.041016 0.041667 0.042318 0.042969 0.043620 0.044271 0.044922 0.045573 0.046224 0.046875 0.047526 0.048177 0.048828 0.049479 0.050130 0.050781 0.051432 0.052083 0.052734 0.053385 0.054036 0.054688 0.055339 0.055990 0.056641 0.057292 0.057943 0.058594 0.059245 0.059896 0.060547 0.061198 0.061849 0.062500 0.063151 0.063802 0.064453 0.065104 0.065755 0.066406 0.067057 0.067708 0.068359 0.069010 0.069661 0.070312 0.070964 0.071615 0.072266 0.072917 0.073568 0.074219 0.074870 0.075521 0.076172 0.076823 0.077474 0.078125 0.078776 0.079427 0.080078 0.080729 0.081380 0.082031 0.082682 0.083333 0.083984 0.084635 0.085286 0.085938 0.086589 0.087240 0.087891 0.088542 0.089193 0.089844 0.090495 0.091146 0.091797 0.092448 0.093099 0.093750 0.094401 0.095052 0.095703 0.096354 0.097005 0.097656 0.098307 0.098958 0.099609 0.100260 0.100911 0.101562 0.102214 0.102865 0.103516 0.104167 0.104818 0.105469 0.106120 0.106771 0.107422 0.108073 0.108724 0.109375 0.110026 0.110677 0.111328 0.111979 0.112630 0.113281 0.113932 0.114583 0.115234 0.115885 0.116536 0.117188 0.117839 0.118490 0.119141 0.119792 0.120443 0.121094 0.121745 0.122396 0.123047 0.123698 0.124349 0.125000 0.125651 0.126302 0.126953 0.127604 0.128255 0.128906 0.129557 0.130208 0.130859 0.131510 0.132161 0.132812 0.133464 0.134115 0.134766 0.135417 0.136068 0.136719 0.137370 0.138021 0.138672 0.139323 0.139974 0.140625 0.141276 0.141927 0.142578 0.143229 0.143880 0.144531 0.145182 0.145833 0.146484 0.147135 0.147786 0.148438 0.149089 0.149740 0.150391 0.151042 0.151693 0.152344 0.152995 0.153646 0.154297 0.154948 0.155599 0.156250 0.156901 0.157552 0.158203 0.158854 0.159505 0.160156 0.160807 0.161458 0.162109 0.162760 0.163411 0.164062 0.164714 0.165365 0.166016 0.166667 0.167318 0.167969 0.168620 0.169271 0.169922 0.170573 0.171224 0.171875 0.172526 0.173177 0.173828 0.174479 0.175130 0.175781 0.176432 0.177083 0.177734 0.178385 0.179036 0.179688 0.180339 0.180990 0.181641 0.182292 0.182943 0.183594 0.184245 0.184896 0.185547 0.186198 0.186849 0.187500 0.188151 0.188802 0.189453 0.190104 0.190755 0.191406 0.192057 0.192708 0.193359 0.194010 0.194661 0.195312 0.195964 0.196615 0.197266 0.197917 0.198568 0.199219 0.199870 0.200521 0.201172 0.201823 0.202474 0.203125 0.203776 0.204427 0.205078 0.205729 0.206380 0.207031 0.207682 0.208333 0.208984 0.209635 0.210286 0.210938 0.211589 0.212240 0.212891 0.213542 0.214193 0.214844 0.215495 0.216146 0.216797 0.217448 0.218099 0.218750 0.219401 0.220052 0.220703 0.221354 0.222005 0.222656 0.223307 0.223958 0.224609 0.225260 0.225911 0.226562 0.227214 0.227865 0.228516 0.229167 0.229818 0.230469 0.231120 0.231771 0.232422 0.233073 0.233724 0.234375 0.235026 0.235677
       0.33608        0.33608        0.33608        0.33608        0.33608        0.33608        0.33608        0.33608        0.33608        0.33608        0.33608        0.33608        0.33608        0.33608        0.33608        0.33608        0.33608        0.33608        0.33608        0.33608        0.33608        0.33608        0.33608        0.33608        0.33608        0.33608        0.33608        0.33608        0.33608        0.33608        0.33608        0.33608        0.33608        0.33608        0.33608        0.33608        0.33608        0.33608        0.33608        0.33608        0.33608        0.33608        0.33608        0.33608        0.33608        0.33608        0.33608        0.33608        0.33608        0.33608        0.33608        0.63523        0.67005        0.30032        0.20698       -0.02253       -0.24473       -0.30831       -0.27012       -0.09849       -0.30663       -0.14907       -0.17330       -0.23401       -0.25840       -0.42390       -0.52292       -0.61448       -0.62941       -0.56303       -0.53114       -0.49519       -0.52845       -0.55008       -0.62346       -0.60012       -0.50596       -0.48215       -0.37185       -0.32739       -0.29820       -0.13635       -0.10201       -0.02005        0.09066        0.19678        0.19490        0.46894        0.53953        0.49793        0.58587        0.60005        0.64478        0.75679        0.72274        0.71474        0.70812        0.65740        0.61485        0.49919        0.42806        0.29008        0.11838        0.03086        0.07954        0.09711       -0.05090        0.02087       -0.02423       -0.02001        0.06983        0.03783        0.17110        0.29194        0.36846        0.41599        0.44511        0.65916        0.65930        0.65151        0.67985        0.67211        0.66468        0.57821        0.63463        0.54242        0.44778        0.36579        0.27126        0.18570        0.02540        0.09060        0.03784        0.07545        0.08998        0.15605        0.29273        0.27706        0.43187        0.49832        0.53557        0.58355        0.57326        0.63392        0.61708        0.53593        0.48189        0.49653        0.33188        0.25265        0.15903        0.11298        0.11076        0.09352        0.13244        0.16427        0.20548        0.29173        0.39283        0.46671        0.53909        0.51399        0.49575        0.52387        0.45505        0.43304        0.41170        0.35598        0.26870        0.20854        0.19925        0.17660        0.17556        0.28332        0.32275        0.38839        0.39248        0.42603        0.50138        0.51399        0.50476        0.53271        0.40914        0.37472        0.37162        0.32164        0.25542        0.21047        0.21746        0.27047        0.34541        0.39408        0.38691        0.47470        0.42281        0.46471        0.44367        0.40214        0.33766        0.28306        0.31006        0.27539        0.27405        0.23263        0.24713        0.34330        0.39901        0.38244        0.38280        0.40111        0.35973        0.38648        0.41043        0.33953        0.33626        0.26874        0.24216        0.25965        0.29778        0.30153        0.34226        0.38356        0.38683        0.36357        0.37644        0.35274        0.33316        0.28435        0.27415        0.25426        0.29587        0.31880        0.33844        0.31708        0.36808        0.41130        0.39502        0.35804        0.32016        0.31796        0.31387        0.28760        0.27309        0.28093        0.31080        0.33321        0.36549        0.34877        0.35850        0.35683        0.33450        0.30771        0.27668        0.26639        0.26240        0.29821        0.26608        0.33666        0.36291        0.35328        0.36797        0.33440        0.33078        0.29205        0.30225        0.31064        0.27705        0.30129        0.29705        0.33411        0.35834        0.31961        0.30374        0.29126        0.31512        0.26255        0.26820        0.30699        0.31343        0.29213        0.31917        0.32826        0.30351        0.31503        0.30713        0.30659        0.27323        0.27504        0.30274        0.34925        0.35322        0.34476        0.35974        0.36538        0.30861        0.25206        0.23351        0.27730        0.26745        0.33272        0.35891        0.30919        0.31332        0.31354        0.31182        0.30929        0.27968        0.27736        0.30634        0.31102        0.35310        0.30867        0.32204        0.26963        0.25968        0.25533        0.29795        0.34414        0.32568        0.28284        0.32345        0.28485        0.30459        0.30567        0.21829        0.28734        0.29428        0.31656        0.37233        0.24536        0.29680        0.24964        0.22013        0.28133        0.23602        0.28509        0.22797        0.19939        0.27652        0.24891        0.26964        0.31795        0.22054        0.27786        0.26309        0.25109        0.26581        0.28056        0.22976        0.24824        0.25538        0.19876        0.21486        0.21231        0.17439        0.21274        0.30425        0.22191        0.23801        0.16339        0.15790       -0.04267       -0.37722
2.405626 2.380331 2.355177 2.330163 2.305290 2.280557 2.255965 2.231514 2.207202 2.183032 2.159002 2.135112 2.111363 2.087754 2.064286 2.040958 2.017771 1.994724 1.971818 1.949053 1.926427 1.903943 1.881599 1.859395 1.837332 1.815409 1.793627 1.771985 1.750484 1.729123 1.707903 1.686824 1.665884 1.645086 1.624428 1.603910 1.583533 1.563296 1.543200 1.523245 1.503429 1.483755 1.464221 1.444827 1.425574 1.406461 1.387489 1.368658 1.349966 1.331416 1.313006 1.452605 1.859511 1.326582 1.140852 0.869960 0.545022 0.510724 0.448940 0.812796 0.371269 0.632485 0.545801 0.388897 0.515250 0.249918 0.152302 0.025421 -0.097141 0.046850 0.022414 0.083916 -0.022146 -0.011853 -0.122281 -0.071107 -0.051331 -0.030861 0.083793 0.139193 0.090678 0.243697 0.365960 0.388224 0.440846 0.565923 0.606310 0.836953 0.922974 0.848422 0.980885 0.954254 0.977124 0.991201 1.131640 0.940169 1.084280 0.976927 0.926050 0.743575 0.730564 0.545187 0.357039 0.194785 0.263700 0.244745 0.139389 0.133115 0.125121 0.080356 0.165118 0.164505 0.136551 0.412074 0.396858 0.545842 0.475199 0.675580 0.740232 0.742946 0.742369 0.704317 0.758703 0.637196 0.613228 0.588819 0.504377 0.316319 0.307628 0.185495 -0.012359 0.001092 -0.044412 0.021273 0.001048 0.003842 0.160411 0.192496 0.310053 0.348294 0.456030 0.481558 0.441852 0.532374 0.540433 0.449905 0.355318 0.409307 0.293687 0.091522 0.055623 -0.024584 -0.102601 -0.022632 -0.143830 0.029561 -0.038499 0.091914 0.157222 0.304293 0.291981 0.400163 0.383965 0.370383 0.346873 0.331548 0.258280 0.229455 0.153757 0.067741 0.034733 0.001255 0.010040 0.037937 0.147499 0.175372 0.256449 0.189749 0.313511 0.321132 0.361436 0.326811 0.311443 0.162657 0.170171 0.158599 0.085531 0.009944 -0.015539 0.007344 0.094147 0.176321 0.136296 0.237066 0.253818 0.224099 0.273034 0.194450 0.168735 0.075405 0.079502 0.073779 0.040246 0.022913 0.020432 0.027019 0.179831 0.173499 0.134792 0.182380 0.102270 0.140064 0.165569 0.136536 0.090816 0.063918 -0.010122 -0.016489 0.021539 0.049381 0.078751 0.079239 0.152807 0.111629 0.135410 0.093807 0.091209 0.058786 0.012707 -0.010286 -0.010331 0.033910 0.083881 0.074172 0.031459 0.140892 0.160045 0.127360 0.046620 0.065955 0.041368 0.020040 0.028773 -0.012673 0.033219 0.041517 0.075845 0.109823 0.073483 0.068391 0.101897 0.051512 0.009383 0.014662 -0.018619 -0.029094 0.025109 -0.012213 0.102586 0.071741 0.141250 0.084772 0.063690 0.040585 0.030786 0.058234 0.006176 0.013441 0.037811 0.049032 0.087993 0.111911 0.085922 0.012809 0.065677 0.081058 0.002134 0.027898 0.066694 0.056340 0.066706 0.084676 0.093840 0.041756 0.112585 0.042001 0.095258 0.001778 0.031329 0.105872 0.110831 0.109920 0.102718 0.116013 0.124684 0.075980 0.000439 -0.027142 0.070925 0.010283 0.112638 0.094351 0.123987 0.083998 0.075377 0.093886 0.065455 0.024769 0.059960 0.082319 0.068109 0.142638 0.053941 0.062903 0.027266 0.019447 0.013010 0.055979 0.103383 0.102669 0.074199 0.054104 0.077429 0.063081 0.104011 -0.038620 0.086440 0.029029 0.090465 0.134322 -0.024299 0.133229 -0.016874 0.012947 0.040333 0.009788 0.073538 0.001538 -0.013484 0.067984 0.000910 0.065915 0.141181 -0.048300 0.054335 0.072657 0.031120 0.090814 0.102133 0.042762 -0.019354 0.071741 0.019132 0.009615 0.032196 -0.047343 0.222496 0.441119 0.226293 0.265943 0.155817 0.169288 -0.405941
0.072396 0.072928 0.074524 0.077183 0.080905 0.085689 0.091533 0.098436 0.106395 0.115407 0.125467 0.136572 0.148714 0.161887 0.176082 0.191287 0.207490 0.224676 0.242827 0.261923 0.281941 0.302854 0.324631 0.347238 0.370636 0.394782 0.419626 0.445115 0.471190 0.497785 0.524828 0.552241 0.579939 0.607830 0.635813 0.663783 0.691625 0.719217 0.746429 0.773123 0.799155 0.824373 0.848617 0.871721 0.893513 0.913815 0.932444 0.949213 0.963931 0.976405 0.986442 0.993848 0.998430 1.000000 0.998374 0.993374 0.984834 0.972594 0.956512 0.936458 0.912322 0.884013 0.851464 0.814633 0.773507 0.728101 0.678467 0.624688 0.566889 0.505231 0.439918 0.371198 0.299362 0.224746 0.147731 0.068743 0.011744 0.093218 0.175122 0.256861 0.337803 0.417287 0.494623 0.569100 0.639992 0.706564 0.768082 0.823820 0.873069 0.915147 0.949409 0.975260 0.992161 0.999646 0.997327 0.984910 0.962202 0.929122 0.885709 0.832132 0.768694 0.695837 0.614148 0.524357 0.427339 0.324108 0.215811 0.103723 0.010769 0.126179 0.240935 0.353405 0.461917 0.564782 0.660323 0.746905 0.822964 0.887038 0.937800 0.974088 0.994938 0.999611 0.987623 0.958763 0.913118 0.851088 0.773391 0.681071 0.575495 0.458340 0.331580 0.197456 0.058446 0.082775 0.223385 0.360466 0.491070 0.612274 0.721258 0.815369 0.892196 0.949634 0.985958 0.999876 0.990586 0.957822 0.901882 0.823653 0.724613 0.606821 0.472892 0.325952 0.169577 0.007716 0.155403 0.315378 0.467747 0.608121 0.732312 0.836463 0.917181 0.971663 0.997800 0.994280 0.960659 0.897417 0.805979 0.688710 0.548878 0.390585 0.218667 0.038551 0.143892 0.322542 0.491230 0.643955 0.775102 0.879668 0.953463 0.993296 0.997141 0.964253 0.895248 0.792135 0.658289 0.498374 0.318203 0.124554 0.075073 0.272734 0.460350 0.630046 0.774485 0.887208 0.962935 0.997847 0.989803 0.938494 0.845527 0.714419 0.550506 0.360758 0.153514 0.061861 0.275386 0.476922 0.656655 0.805587 0.916012 0.981939 0.999451 0.966978 0.885453 0.758349 0.591581 0.393277 0.173419 0.056628 0.284692 0.498421 0.685970 0.836664 0.941635 0.994389 0.991242 0.931624 0.818213 0.656877 0.456428 0.228187 0.014612 0.257571 0.485965 0.685649 0.843942 0.950472 0.997900 0.982477 0.904393 0.767882 0.581063 0.355520 0.105646 0.152258 0.401007 0.623682 0.804802 0.931423 0.994123 0.987758 0.911945 0.771229 0.574893 0.336418 0.072615 0.197510 0.454117 0.677981 0.851956 0.962338 0.999999 0.961219 0.848121 0.668652 0.436134 0.168327 0.113850 0.387944 0.631714 0.824996 0.951383 0.999699 0.965068 0.849482 0.661813 0.417237 0.136080 0.157802 0.439009 0.682806 0.867306 0.975503 0.996920 0.928714 0.776125 0.552196 0.276766 0.025204 0.325848 0.596934 0.812547 0.951603 0.999999 0.952145 0.811713 0.591492 0.312356 0.001373 0.310765 0.592722 0.815697 0.956426 0.999679 0.940041 0.782693 0.543117 0.245698 0.078648 0.395642 0.671231 0.875291 0.984983 0.987420 0.881317 0.677386 0.397417 0.072067 0.262401 0.568114 0.809901 0.959388 0.998436 0.921488 0.736481 0.464216 0.136153 0.209105 0.530311 0.788484 0.951716 0.999220 0.924124 0.734612 0.453233 0.114368 0.239862 0.564749 0.818677 0.968502 0.994016 0.890830 0.671276 0.363127 0.006246 0.352456 0.665155 0.889513 0.994505 0.964875 0.803525 0.531485 0.185365 0.187419 0.535060 0.808551 0.968680 0.991780 0.873420 0.629418 0.293958 0.085046 0.452640 0.754812
1.000000 1.000000 1.000000 1.000000 1.000000 1.000000 1.000000 1.000000 1.000000 1.000000 1.000000 1.000000 1.000000 1.000000 1.000000 1.000000 1.000000 1.000000 1.000000 1.000000 1.000000 1.000000 1.000000 1.000000 1.000000 1.000000 1.000000 1.000000 1.000000 1.000000 1.000000 1.000000 1.000000 1.000000 1.000000 1.000000 1.000000 1.000000 1.000000 1.000000 1.000000 1.000000 1.000000 1.000000 1.000000 1.000000 1.000000 1.000000 1.000000 1.000000 1.000000 1.000000 0.918867 0.918867 0.907506 0.907506 0.907506 0.907506 0.907506 0.907506 0.907506 0.907506 0.907506 0.907506 0.907506 0.907506 0.907506 0.907506 0.907506 0.907506 0.907506 0.907506 0.907506 0.907506 0.907506 0.907506 0.907506 0.907506 0.907506 0.907506 0.907506 0.907506 0.907506 0.907506 0.907506 0.907506 0.907506 0.907506 0.907506 0.907506 0.907506 0.907506 0.907506 0.907506 0.887443 0.891008 0.894600 0.890171 0.891164 0.890825 0.889848 0.890469 0.890650 0.892211 0.909240 0.932784 0.934336 0.936333 0.941360 0.941502 0.943731 0.942316 0.940938 0.957995 0.956067 0.953539 0.954341 0.948048 0.949549 0.947462 0.946865 0.949424 0.947075 0.945880 0.944965 0.944024 0.942630 0.942150 0.942005 0.943590 0.943701 0.943799 0.943694 0.943508 0.943266 0.943208 0.943672 0.948086 0.950888 0.952120 0.953902 0.951865 0.952508 0.949236 0.957709 0.957546 0.957001 0.957006 0.957320 0.955683 0.955800 0.955333 0.954939 0.945324 0.942465 0.942064 0.942844 0.945402 0.948260 0.947484 0.946651 0.947615 0.939146 0.952645 0.943200 0.942142 0.940795 0.940408 0.941520 0.937399 0.932308 0.912175 0.904616 0.903636 0.905840 0.909790 0.909641 0.900696 0.900398 0.900592 0.890406 0.888777 0.891349 0.890364 0.896889 0.894873 0.895830 0.895679 0.901731 0.905224 0.904991 0.902856 0.900083 0.895068 0.895297 0.894609 0.895089 0.897501 0.893717 0.888162 0.886949 0.889121 0.897414 0.904037 0.907496 0.900182 0.899299 0.881968 0.880150 0.880264 0.868204 0.865015 0.866601 0.868445 0.865510 0.870065 0.867331 0.860162 0.855267 0.856091 0.859213 0.863154 0.860394 0.858638 0.854875 0.850924 0.853398 0.858515 0.868702 0.857777 0.853256 0.842435 0.839325 0.831467 0.829161 0.827128 0.828196 0.829953 0.823712 0.827814 0.828069 0.824719 0.814770 0.816292 0.814070 0.808959 0.780662 0.779570 0.760062 0.756386 0.762641 0.755784 0.745501 0.743192 0.743223 0.748071 0.746304 0.720207 0.710629 0.720845 0.669654 0.667202 0.680604 0.687702 0.705299 0.697668 0.685718 0.685609 0.713144 0.701345 0.699331 0.697420 0.680805 0.680053 0.679505 0.678146 0.684870 0.676544 0.674183 0.669505 0.664610 0.668319 0.667763 0.661433 0.649592 0.641681 0.644940 0.644858 0.649602 0.649045 0.661077 0.651627 0.658638 0.640594 0.642074 0.646451 0.666435 0.673214 0.633535 0.648841 0.641162 0.641731 0.570144 0.575312 0.578654 0.586688 0.578365 0.567954 0.545161 0.520401 0.522549 0.502388 0.507151 0.505564 0.472578 0.525365 0.497050 0.489941 0.488089 0.496231 0.497491 0.494655 0.460981 0.457055 0.451612 0.445578 0.407741 0.351856 0.359459 0.357680 0.384673 0.384367 0.338752 0.348805 0.348805 0.348805 0.348805 0.348805 0.348805 0.355382 0.355382 0.355382 0.355382 0.355382 0.355382 0.355382 0.355382 0.355382 0.311523 0.311523 0.311523 0.311523 0.311523 0.311523 0.311523 0.311523 0.311523 0.311523 0.311523 0.311523 0.311523 0.311523 0.311523
0.000000 0.000000 0.000000 0.000000 0.000000 0.000000 0.000000 0.000000 0.000000 0.000000 0.000000 0.000000 0.000000 0.000000 0.000000 0.000000 0.000000 0.000000 0.000000 0.000000 0.000000 0.000000 0.000000 0.000000 0.000000 0.000000 0.000000 0.000000 0.000000 0.000000 0.000000 0.000000 0.000000 0.000000 0.000000 0.000000 0.000000 0.000000 0.000000 0.000000 0.000000 0.000000 0.000000 0.000000 0.000000 0.000000 0.000000 0.000000 0.000000 0.000000 0.000000 0.000000 0.181818 0.181818 0.201008 0.201008 0.201008 0.201008 0.201008 0.201008 0.201008 0.201008 0.201008 0.201008 0.201008 0.201008 0.201008 0.201008 0.201008 0.201008 0.201008 0.201008 0.201008 0.201008 0.201008 0.201008 0.201008 0.201008 0.201008 0.201008 0.201008 0.201008 0.201008 0.201008 0.201008 0.201008 0.201008 0.201008 0.201008 0.201008 0.201008 0.201008 0.201008 0.201008 0.234082 0.234082 0.234082 0.234082 0.234082 0.234082 0.234082 0.234082 0.234082 0.234082 0.234082 0.234082 0.234082 0.234082 0.234082 0.234082 0.234082 0.234082 0.234082 0.234082 0.234082 0.234082 0.234082 0.234082 0.234082 0.234082 0.234082 0.244339 0.244339 0.244339 0.244339 0.244339 0.244339 0.244339 0.244339 0.244339 0.244339 0.244339 0.244339 0.244339 0.244339 0.244339 0.244339 0.244339 0.244339 0.244339 0.244339 0.244339 0.244339 0.244339 0.256074 0.256074 0.256074 0.256074 0.256074 0.256074 0.256074 0.256074 0.256074 0.256074 0.256074 0.256074 0.256074 0.256074 0.256074 0.256074 0.256074 0.256074 0.256074 0.264906 0.264906 0.264906 0.264906 0.264906 0.264906 0.264906 0.264906 0.264906 0.264906 0.264906 0.264906 0.264906 0.264906 0.264906 0.264906 0.264906 0.264906 0.264906 0.264906 0.264906 0.264906 0.264906 0.264906 0.264906 0.264906 0.264906 0.264906 0.264906 0.264906 0.264906 0.264906 0.264906 0.269680 0.269680 0.269680 0.269680 0.269680 0.269680 0.269680 0.269680 0.269680 0.269680 0.269680 0.269680 0.269680 0.269680 0.264906 0.264906 0.264906 0.264906 0.264906 0.264906 0.264906 0.264906 0.264906 0.264906 0.264906 0.264906 0.264906 0.264906 0.264906 0.264906 0.264906 0.264906 0.264906 0.264906 0.264906 0.264906 0.264906 0.264906 0.264906 0.264906 0.264906 0.269680 0.269680 0.269680 0.269680 0.269680 0.269680 0.269680 0.269680 0.269680 0.269680 0.269680 0.269680 0.274721 0.274721 0.274721 0.274721 0.274721 0.274721 0.274721 0.274721 0.274721 0.274721 0.274721 0.260378 0.260378 0.260378 0.260378 0.260378 0.260378 0.260378 0.260378 0.260378 0.260378 0.260378 0.260378 0.274721 0.274721 0.274721 0.274721 0.274721 0.274721 0.274721 0.274721 0.274721 0.274721 0.256074 0.256074 0.256074 0.256074 0.256074 0.256074 0.256074 0.256074 0.256074 0.256074 0.256074 0.274721 0.274721 0.274721 0.274721 0.274721 0.274721 0.274721 0.274721 0.274721 0.260378 0.260378 0.260378 0.260378 0.260378 0.260378 0.260378 0.260378 0.260378 0.260378 0.264906 0.264906 0.264906 0.264906 0.264906 0.264906 0.264906 0.264906 0.264906 0.260378 0.260378 0.260378 0.260378 0.260378 0.260378 0.260378 0.260378 0.260378 0.256074 0.256074 0.256074 0.256074 0.256074 0.256074 0.256074 0.256074 0.256074 0.251976 0.251976 0.251976 0.251976 0.251976 0.251976 0.251976 0.251976 0.251976 0.264906 0.264906 0.264906 0.264906 0.264906 0.264906 0.264906 0.264906 0.264906 0.264906 0.264906 0.264906 0.264906 0.264906 0.264906
