# Output from CTFFind version 4.1.9, run on 2019-11-03 18:52:13
# Input file: stack20_ub_averaged_3000.mrc ; Number of micrographs: 1
# Pixel size: 3.000 Angstroms ; acceleration voltage: 300.0 keV ; spherical aberration: 0.00 mm ; amplitude contrast: 0.07
# Box size: 512 pixels ; min. res.: 30.0 Angstroms ; max. res.: 5.0 Angstroms ; min. def.: 5000.0 um; max. def. 50000.0 um; num. frames averaged: 1
# 6 lines per micrograph: #1 - spatial frequency (1/Angstroms); #2 - 1D rotational average of spectrum (assuming no astigmatism); #3 - 1D rotational average of spectrum; #4 - CTF fit; #5 - cross-correlation between spectrum and CTF fit; #6 - 2sigma of expected cross correlation of noise
0.000000 0.000651 0.001302 0.001953 0.002604 0.003255 0.003906 0.004557 0.005208 0.005859 0.006510 0.007161 0.007812 0.008464 0.009115 0.009766 0.010417 0.011068 0.011719 0.012370 0.013021 0.013672 0.014323 0.014974 0.015625 0.016276 0.016927 0.017578 0.018229 0.018880 0.019531 0.020182 0.020833 0.021484 0.022135 0.022786 0.023438 0.024089 0.024740 0.025391 0.026042 0.026693 0.027344 0.027995 0.028646 0.029297 0.029948 0.030599 0.031250 0.031901 0.032552 0.033203 0.033854 0.034505 0.035156 0.035807 0.036458 0.037109 0.037760 0.038411 0.039062 0.039714 0.040365 0.041016 0.041667 0.042318 0.042969 0.043620 0.044271 0.044922 0.045573 0.046224 0.046875 0.047526 0.048177 0.048828 0.049479 0.050130 0.050781 0.051432 0.052083 0.052734 0.053385 0.054036 0.054688 0.055339 0.055990 0.056641 0.057292 0.057943 0.058594 0.059245 0.059896 0.060547 0.061198 0.061849 0.062500 0.063151 0.063802 0.064453 0.065104 0.065755 0.066406 0.067057 0.067708 0.068359 0.069010 0.069661 0.070312 0.070964 0.071615 0.072266 0.072917 0.073568 0.074219 0.074870 0.075521 0.076172 0.076823 0.077474 0.078125 0.078776 0.079427 0.080078 0.080729 0.081380 0.082031 0.082682 0.083333 0.083984 0.084635 0.085286 0.085938 0.086589 0.087240 0.087891 0.088542 0.089193 0.089844 0.090495 0.091146 0.091797 0.092448 0.093099 0.093750 0.094401 0.095052 0.095703 0.096354 0.097005 0.097656 0.098307 0.098958 0.099609 0.100260 0.100911 0.101562 0.102214 0.102865 0.103516 0.104167 0.104818 0.105469 0.106120 0.106771 0.107422 0.108073 0.108724 0.109375 0.110026 0.110677 0.111328 0.111979 0.112630 0.113281 0.113932 0.114583 0.115234 0.115885 0.116536 0.117188 0.117839 0.118490 0.119141 0.119792 0.120443 0.121094 0.121745 0.122396 0.123047 0.123698 0.124349 0.125000 0.125651 0.126302 0.126953 0.127604 0.128255 0.128906 0.129557 0.130208 0.130859 0.131510 0.132161 0.132812 0.133464 0.134115 0.134766 0.135417 0.136068 0.136719 0.137370 0.138021 0.138672 0.139323 0.139974 0.140625 0.141276 0.141927 0.142578 0.143229 0.143880 0.144531 0.145182 0.145833 0.146484 0.147135 0.147786 0.148438 0.149089 0.149740 0.150391 0.151042 0.151693 0.152344 0.152995 0.153646 0.154297 0.154948 0.155599 0.156250 0.156901 0.157552 0.158203 0.158854 0.159505 0.160156 0.160807 0.161458 0.162109 0.162760 0.163411 0.164062 0.164714 0.165365 0.166016 0.166667 0.167318 0.167969 0.168620 0.169271 0.169922 0.170573 0.171224 0.171875 0.172526 0.173177 0.173828 0.174479 0.175130 0.175781 0.176432 0.177083 0.177734 0.178385 0.179036 0.179688 0.180339 0.180990 0.181641 0.182292 0.182943 0.183594 0.184245 0.184896 0.185547 0.186198 0.186849 0.187500 0.188151 0.188802 0.189453 0.190104 0.190755 0.191406 0.192057 0.192708 0.193359 0.194010 0.194661 0.195312 0.195964 0.196615 0.197266 0.197917 0.198568 0.199219 0.199870 0.200521 0.201172 0.201823 0.202474 0.203125 0.203776 0.204427 0.205078 0.205729 0.206380 0.207031 0.207682 0.208333 0.208984 0.209635 0.210286 0.210938 0.211589 0.212240 0.212891 0.213542 0.214193 0.214844 0.215495 0.216146 0.216797 0.217448 0.218099 0.218750 0.219401 0.220052 0.220703 0.221354 0.222005 0.222656 0.223307 0.223958 0.224609 0.225260 0.225911 0.226562 0.227214 0.227865 0.228516 0.229167 0.229818 0.230469 0.231120 0.231771 0.232422 0.233073 0.233724 0.234375 0.235026 0.235677
       0.32440        0.32440        0.32440        0.32440        0.32440        0.32440        0.32440        0.32440        0.32440        0.32440        0.32440        0.32440        0.32440        0.32440        0.32440        0.32440        0.32440        0.32440        0.32440        0.32440        0.32440        0.32440        0.32440        0.32440        0.32440        0.32440        0.32440        0.32440        0.32440        0.32440        0.32440        0.32440        0.32440        0.32440        0.32440        0.32440        0.32440        0.32440        0.32440        0.32440        0.32440        0.32440        0.32440        0.32440        0.32440        0.32440        0.32440        0.32440        0.32440        0.32440        0.32440        0.67729        0.99682        0.52338        0.23111        0.13441        0.10273        0.03323        0.15907        0.21668        0.14592        0.32172        0.45545        0.40848        0.21461        0.05011        0.00043        0.12163        0.11353        0.01034        0.12439        0.00393        0.04374        0.07603        0.16335        0.01321       -0.08278       -0.11983       -0.10910       -0.19230       -0.39585       -0.29535       -0.33391       -0.29982       -0.37772       -0.30320       -0.35980       -0.26359       -0.30300       -0.30342       -0.27168       -0.18106       -0.17863       -0.02408       -0.03695        0.05998        0.24091        0.31988        0.46408        0.41273        0.42874        0.55517        0.60657        0.69509        0.55035        0.63362        0.66836        0.76444        0.65846        0.69696        0.72396        0.72059        0.59525        0.55531        0.51637        0.48844        0.39523        0.30733        0.20371        0.19548        0.04945       -0.03217       -0.04856       -0.02471       -0.07444       -0.01424       -0.01232        0.04846        0.08663        0.18086        0.27090        0.40848        0.44200        0.50744        0.51965        0.55535        0.59754        0.63257        0.69912        0.63260        0.63202        0.58917        0.54788        0.49280        0.42114        0.39206        0.35599        0.31119        0.22063        0.17782        0.08468        0.06574        0.01770        0.08197        0.19632        0.21950        0.25735        0.27104        0.35474        0.40292        0.46264        0.53041        0.55713        0.53317        0.55733        0.54100        0.49390        0.47369        0.43205        0.40597        0.32059        0.30665        0.19399        0.21590        0.18931        0.14756        0.21929        0.20968        0.18794        0.26155        0.30813        0.27505        0.39203        0.38591        0.47301        0.45419        0.44198        0.46012        0.47414        0.42018        0.39797        0.30504        0.30750        0.28414        0.23363        0.25581        0.22766        0.25719        0.29167        0.25596        0.30415        0.35258        0.36050        0.36013        0.45332        0.39840        0.39095        0.37191        0.36129        0.40437        0.35377        0.33226        0.28703        0.25564        0.26347        0.26256        0.24940        0.29085        0.27408        0.33196        0.32982        0.35627        0.38345        0.38511        0.39631        0.37174        0.34366        0.31108        0.28975        0.30597        0.29091        0.29235        0.26528        0.24662        0.28529        0.29512        0.29500        0.34737        0.36587        0.33247        0.39982        0.36198        0.33438        0.30796        0.29317        0.27873        0.30371        0.27580        0.28164        0.26394        0.25026        0.30409        0.28013        0.30297        0.30498        0.31651        0.29105        0.33289        0.33489        0.30197        0.32277        0.31823        0.25133        0.25652        0.26980        0.26529        0.27611        0.27619        0.29317        0.31681        0.31995        0.33765        0.28278        0.32449        0.33180        0.27327        0.30102        0.25706        0.30382        0.28140        0.30181        0.34993        0.32981        0.34133        0.32453        0.31541        0.33130        0.31631        0.29497        0.31778        0.28829        0.28899        0.24207        0.31980        0.30703        0.32595        0.27747        0.28316        0.31775        0.29830        0.28659        0.32031        0.29922        0.31878        0.24634        0.24896        0.33347        0.29797        0.26298        0.34947        0.30410        0.29634        0.26554        0.32436        0.32095        0.25830        0.27032        0.24355        0.28460        0.29436        0.31971        0.28627        0.23389        0.22318        0.22906        0.29049        0.27299        0.27031        0.28293        0.28582        0.28003        0.23051        0.19936        0.27202        0.33025        0.26872        0.27109        0.25479        0.30616        0.22960        0.24899        0.24307        0.25754        0.22316        0.17391        0.20562        0.20538        0.16101        0.17107        0.20995        0.17500        0.17245        0.18350        0.20189        0.31698        0.15825        0.11999        0.31678        0.08574        0.06761       -0.06478       -0.25868       -0.58696
1.478225 1.468015 1.457841 1.447703 1.437600 1.427534 1.417503 1.407509 1.397550 1.387627 1.377739 1.367888 1.358072 1.348293 1.338549 1.328841 1.319169 1.309532 1.299932 1.290367 1.280838 1.271345 1.261888 1.252467 1.243082 1.233732 1.224419 1.215141 1.205899 1.196692 1.187522 1.178388 1.169289 1.160226 1.151199 1.142208 1.133253 1.124333 1.115450 1.106602 1.097790 1.089014 1.080274 1.071569 1.062901 1.054268 1.045671 1.037110 1.028585 1.020096 1.011643 1.349894 1.894959 1.219289 0.862658 0.796295 0.624894 0.686510 0.684745 0.849817 0.684590 1.024687 1.024472 1.064795 0.810399 0.538795 0.443289 0.661230 0.746995 0.408039 0.554341 0.503422 0.532854 0.503515 0.581301 0.476887 0.363469 0.291009 0.238981 0.196714 -0.061450 0.042389 -0.070746 0.024940 -0.079531 -0.009752 -0.107907 0.000829 0.002756 0.030748 -0.093468 0.042963 0.123007 0.229742 0.187182 0.350761 0.472858 0.650579 0.799691 0.721663 0.761032 0.879619 0.894655 1.078847 0.923788 0.951662 0.907004 1.131704 1.000892 1.073675 0.993227 1.075414 0.876565 0.892506 0.787368 0.762445 0.608296 0.565153 0.371738 0.390016 0.231182 0.098088 0.065786 0.100056 0.018211 -0.004801 0.081492 0.105203 0.175764 0.256433 0.304248 0.560562 0.524657 0.644252 0.641968 0.673815 0.770785 0.717942 0.863873 0.733350 0.808644 0.690059 0.698988 0.646789 0.443696 0.480508 0.475213 0.293365 0.361143 0.146439 0.121282 0.061208 -0.047473 -0.027607 0.165000 0.170863 0.211848 0.266604 0.264466 0.458497 0.319410 0.592233 0.535677 0.566321 0.528649 0.527070 0.451033 0.450213 0.395908 0.343060 0.248359 0.264521 0.123368 0.078292 0.103558 0.021455 0.047761 0.076930 0.062746 0.064175 0.183950 0.122748 0.228398 0.247424 0.366195 0.333950 0.328345 0.305608 0.369113 0.317754 0.268735 0.203012 0.103159 0.159886 0.065469 0.029966 0.089981 0.010280 0.098619 0.077498 0.071391 0.174733 0.137162 0.190157 0.195320 0.295816 0.197845 0.161726 0.131330 0.193693 0.177756 0.113972 0.089582 0.045332 -0.020831 0.030952 -0.006384 -0.003076 0.071338 0.043031 0.110829 0.065399 0.164025 0.111298 0.156474 0.203936 0.104731 0.115690 0.056227 0.063182 0.055662 0.067966 0.026681 -0.029049 0.045212 0.038855 0.055185 0.066523 0.126062 0.088156 0.097510 0.185073 0.121724 0.042737 0.084332 0.021432 0.009393 0.059906 -0.003313 0.025827 -0.022394 0.037177 0.019301 0.012347 0.051233 0.054459 0.034082 0.020938 0.106225 0.042159 0.011482 0.072275 0.014585 -0.042005 -0.013632 -0.016241 -0.021640 0.009090 -0.012311 0.031498 0.045713 0.054499 0.047194 -0.030392 0.073892 0.047781 -0.025288 0.003878 0.005616 -0.001622 -0.008004 0.046420 0.074706 0.091972 0.066927 0.023713 0.078044 0.077353 0.076796 0.020831 0.080244 0.020526 0.038876 -0.027714 0.100539 0.052611 0.088623 -0.013769 0.073066 0.037322 0.055310 0.033613 0.087869 0.085839 0.068111 -0.035171 0.021795 0.112378 0.047798 0.017981 0.147703 0.054801 0.071544 -0.013092 0.148859 0.072149 -0.000798 0.052236 -0.030711 0.069304 0.067785 0.077035 0.102731 -0.015702 -0.057529 0.012474 0.053446 0.040078 0.030125 0.069699 0.030518 0.057877 -0.013063 -0.039025 0.055059 0.124667 0.039269 0.023368 0.059889 0.054741 0.053485 0.028817 0.063396 0.027533 0.002525 -0.041830 -0.013200 0.306482 0.189228 0.223253 0.238061 0.204190 0.216685 0.197713 0.240612 0.493971 0.194149 0.030419 0.511602 0.124846 0.160478 -0.077907 -0.700551
0.072396 0.072799 0.074006 0.076017 0.078833 0.082453 0.086875 0.092099 0.098124 0.104947 0.112568 0.120983 0.130189 0.140183 0.150961 0.162517 0.174845 0.187939 0.201789 0.216388 0.231723 0.247783 0.264553 0.282018 0.300159 0.318958 0.338391 0.358435 0.379061 0.400241 0.421941 0.444124 0.466753 0.489783 0.513170 0.536862 0.560807 0.584946 0.609218 0.633556 0.657891 0.682148 0.706248 0.730108 0.753640 0.776751 0.799347 0.821325 0.842582 0.863009 0.882495 0.900923 0.918175 0.934130 0.948664 0.961652 0.972967 0.982482 0.990068 0.995599 0.998950 0.999996 0.998616 0.994696 0.988122 0.978789 0.966598 0.951460 0.933293 0.912028 0.887605 0.859979 0.829120 0.795013 0.757659 0.717078 0.673310 0.626415 0.576474 0.523593 0.467897 0.409541 0.348701 0.285581 0.220408 0.153437 0.084949 0.015250 0.055328 0.126432 0.197682 0.268679 0.339003 0.408216 0.475866 0.541487 0.604604 0.664734 0.721395 0.774104 0.822385 0.865770 0.903811 0.936076 0.962161 0.981692 0.994333 0.999788 0.997811 0.988208 0.970840 0.945636 0.912588 0.871762 0.823299 0.767418 0.704418 0.634679 0.558666 0.476926 0.390085 0.298850 0.204002 0.106391 0.006935 0.093393 0.193571 0.292538 0.389202 0.482457 0.571191 0.654305 0.730720 0.799400 0.859363 0.909698 0.949582 0.978291 0.995222 0.999902 0.992005 0.971359 0.937961 0.891983 0.833778 0.763885 0.683030 0.592118 0.492240 0.384650 0.270768 0.152153 0.030489 0.092433 0.214746 0.334528 0.449838 0.558744 0.659358 0.749870 0.828584 0.893952 0.944612 0.979414 0.997458 0.998114 0.981054 0.946261 0.894051 0.825076 0.740330 0.641135 0.529139 0.406288 0.274801 0.137137 0.004048 0.145950 0.285671 0.420273 0.546846 0.662571 0.764785 0.851046 0.919202 0.967444 0.994368 0.999018 0.980928 0.940149 0.877274 0.793434 0.690297 0.570047 0.435343 0.289274 0.135295 0.022852 0.181219 0.335753 0.482398 0.617203 0.736432 0.836677 0.914956 0.968820 0.996428 0.996633 0.969029 0.913994 0.832700 0.727111 0.599948 0.454633 0.295211 0.126251 0.047290 0.220192 0.387135 0.542860 0.682345 0.800959 0.894644 0.960050 0.994673 0.996968 0.966426 0.903627 0.810252 0.689064 0.543837 0.379266 0.200820 0.014580 0.172969 0.355147 0.525332 0.677199 0.804954 0.903581 0.969041 0.998465 0.990290 0.944360 0.861975 0.745880 0.600199 0.430312 0.242673 0.044578 0.156098 0.351224 0.532732 0.692954 0.824964 0.922885 0.982171 0.999840 0.974648 0.907186 0.799910 0.657078 0.484613 0.289875 0.081377 0.131587 0.339339 0.532257 0.701231 0.838098 0.936059 0.990039 0.996973 0.956008 0.868604 0.738520 0.571686 0.375965 0.160810 0.063180 0.284768 0.492632 0.675959 0.825014 0.931676 0.989904 0.996116 0.949440 0.851821 0.707988 0.525274 0.313256 0.083298 0.152044 0.379703 0.586815 0.761467 0.893388 0.974593 0.999888 0.967245 0.877994 0.736825 0.551585 0.332876 0.093502 0.152287 0.389613 0.603869 0.781639 0.911550 0.985038 0.996947 0.945935 0.834644 0.669624 0.460992 0.221854 0.032485 0.285476 0.520403 0.721487 0.874974 0.970095 0.999874 0.961682 0.857511 0.693940 0.481768 0.235359 0.028296 0.290733 0.533298 0.738475 0.891172 0.979877 0.997567 0.942315 0.817547 0.631888 0.398637 0.134853 0.139849 0.404733 0.639518 0.825937 0.949194 0.999179 0.971365 0.867268 0.694454 0.466056 0.199831 0.083165 0.360232 0.608824 0.808410 0.942195 0.998586 0.972258 0.864725 0.684340 0.445728
1.000000 1.000000 1.000000 1.000000 1.000000 1.000000 1.000000 1.000000 1.000000 1.000000 1.000000 1.000000 1.000000 1.000000 1.000000 1.000000 1.000000 1.000000 1.000000 1.000000 1.000000 1.000000 1.000000 1.000000 1.000000 1.000000 1.000000 1.000000 1.000000 1.000000 1.000000 1.000000 1.000000 1.000000 1.000000 1.000000 1.000000 1.000000 1.000000 1.000000 1.000000 1.000000 1.000000 1.000000 1.000000 1.000000 1.000000 1.000000 1.000000 1.000000 1.000000 1.000000 0.803751 0.803751 0.803751 0.803751 0.803751 0.803751 0.803751 0.803751 0.803751 0.781651 0.781651 0.781651 0.781651 0.781651 0.781651 0.781651 0.781651 0.781651 0.781651 0.781651 0.781651 0.781651 0.781651 0.781651 0.781651 0.781651 0.781651 0.781651 0.781651 0.781651 0.781651 0.781651 0.781651 0.781651 0.781651 0.781651 0.781651 0.781651 0.781651 0.781651 0.781651 0.781651 0.781651 0.781651 0.781651 0.781651 0.781651 0.781651 0.781651 0.781651 0.781651 0.781651 0.781651 0.781651 0.781651 0.781651 0.943707 0.943926 0.944920 0.953264 0.954004 0.954843 0.954644 0.954316 0.955698 0.955874 0.955383 0.955945 0.956483 0.957341 0.967483 0.968203 0.971762 0.971549 0.971523 0.971175 0.970595 0.977220 0.976613 0.976621 0.975498 0.974690 0.974540 0.975341 0.969619 0.969307 0.968966 0.976519 0.970419 0.969830 0.968895 0.966602 0.965790 0.965089 0.965008 0.964605 0.964562 0.964639 0.964566 0.964916 0.965207 0.965356 0.965409 0.963971 0.964279 0.963155 0.962410 0.957885 0.959548 0.954278 0.952371 0.944255 0.941355 0.948154 0.943110 0.941473 0.940746 0.940696 0.940742 0.940903 0.940531 0.937846 0.931299 0.930320 0.929369 0.927775 0.926909 0.929261 0.925776 0.925899 0.930105 0.931450 0.930379 0.927430 0.925143 0.917977 0.909009 0.908921 0.905672 0.906526 0.908600 0.899043 0.893909 0.880848 0.874665 0.871821 0.869606 0.869502 0.874374 0.871424 0.870977 0.869565 0.867324 0.868741 0.862718 0.862466 0.850507 0.848861 0.853864 0.823109 0.815165 0.803687 0.795622 0.797379 0.803232 0.802353 0.806615 0.803862 0.796726 0.780216 0.768703 0.754850 0.741720 0.728763 0.738318 0.735715 0.724168 0.728072 0.713918 0.736221 0.739251 0.743711 0.754878 0.755166 0.746679 0.742884 0.739062 0.735464 0.732323 0.681411 0.732508 0.683995 0.683935 0.675826 0.669472 0.660283 0.648935 0.658080 0.664024 0.657524 0.646491 0.639777 0.639717 0.632264 0.632593 0.650486 0.619238 0.616166 0.588970 0.609190 0.566863 0.564306 0.565598 0.532633 0.513995 0.505385 0.500699 0.494817 0.495173 0.485962 0.482834 0.455373 0.472315 0.488859 0.466876 0.477201 0.473200 0.484207 0.466008 0.458110 0.405343 0.404542 0.401130 0.413283 0.426060 0.432307 0.473353 0.450822 0.449687 0.457173 0.463288 0.438510 0.374672 0.358296 0.347094 0.331274 0.321058 0.227802 0.228580 0.219940 0.230375 0.249106 0.242520 0.231231 0.270272 0.260406 0.256627 0.263013 0.246520 0.235855 0.190143 0.190254 0.165351 0.127760 0.119399 0.103835 0.078711 0.059697 0.050764 0.059746 0.079442 0.075711 0.067408 0.041655 -0.006457 -0.004157 -0.015533 -0.025469 0.028105 0.014099 0.014099 0.014099 0.014099 0.014099 0.019405 0.019405 0.019405 0.019405 0.019405 0.019405 0.019405 0.019405 0.019405 0.019405 0.019405 0.019405 0.014099 0.014099 0.014099 0.014099 0.014099 0.014099 0.014099 0.014099 0.014099 0.014099 0.014099 0.014099 0.014099 0.014099 0.014099
0.000000 0.000000 0.000000 0.000000 0.000000 0.000000 0.000000 0.000000 0.000000 0.000000 0.000000 0.000000 0.000000 0.000000 0.000000 0.000000 0.000000 0.000000 0.000000 0.000000 0.000000 0.000000 0.000000 0.000000 0.000000 0.000000 0.000000 0.000000 0.000000 0.000000 0.000000 0.000000 0.000000 0.000000 0.000000 0.000000 0.000000 0.000000 0.000000 0.000000 0.000000 0.000000 0.000000 0.000000 0.000000 0.000000 0.000000 0.000000 0.000000 0.000000 0.000000 0.000000 0.170872 0.170872 0.170872 0.170872 0.170872 0.170872 0.170872 0.170872 0.170872 0.186501 0.186501 0.186501 0.186501 0.186501 0.186501 0.186501 0.186501 0.186501 0.186501 0.186501 0.186501 0.186501 0.186501 0.186501 0.186501 0.186501 0.186501 0.186501 0.186501 0.186501 0.186501 0.186501 0.186501 0.186501 0.186501 0.186501 0.186501 0.186501 0.186501 0.186501 0.186501 0.186501 0.186501 0.186501 0.186501 0.186501 0.186501 0.186501 0.186501 0.186501 0.186501 0.186501 0.186501 0.186501 0.186501 0.186501 0.219529 0.219529 0.219529 0.219529 0.219529 0.219529 0.219529 0.219529 0.219529 0.219529 0.219529 0.219529 0.219529 0.219529 0.219529 0.219529 0.219529 0.219529 0.219529 0.219529 0.219529 0.219529 0.219529 0.219529 0.219529 0.219529 0.219529 0.219529 0.219529 0.219529 0.219529 0.230940 0.230940 0.230940 0.230940 0.230940 0.230940 0.230940 0.230940 0.230940 0.230940 0.230940 0.230940 0.230940 0.230940 0.230940 0.230940 0.230940 0.230940 0.230940 0.230940 0.230940 0.230940 0.230940 0.230940 0.230940 0.230940 0.240772 0.240772 0.240772 0.240772 0.240772 0.240772 0.240772 0.240772 0.240772 0.240772 0.240772 0.240772 0.240772 0.240772 0.240772 0.240772 0.240772 0.240772 0.240772 0.240772 0.240772 0.240772 0.244339 0.244339 0.244339 0.244339 0.244339 0.244339 0.244339 0.244339 0.244339 0.244339 0.244339 0.244339 0.244339 0.244339 0.244339 0.244339 0.244339 0.244339 0.244339 0.244339 0.248069 0.248069 0.248069 0.248069 0.248069 0.248069 0.248069 0.248069 0.248069 0.248069 0.248069 0.248069 0.248069 0.248069 0.248069 0.248069 0.248069 0.248069 0.248069 0.248069 0.248069 0.248069 0.248069 0.248069 0.248069 0.248069 0.248069 0.248069 0.248069 0.248069 0.248069 0.248069 0.248069 0.248069 0.248069 0.256074 0.256074 0.256074 0.256074 0.256074 0.256074 0.256074 0.256074 0.256074 0.256074 0.256074 0.256074 0.256074 0.256074 0.256074 0.248069 0.248069 0.248069 0.248069 0.248069 0.248069 0.248069 0.248069 0.248069 0.248069 0.248069 0.248069 0.248069 0.248069 0.248069 0.251976 0.251976 0.251976 0.251976 0.251976 0.251976 0.251976 0.251976 0.251976 0.251976 0.251976 0.251976 0.251976 0.251976 0.256074 0.256074 0.256074 0.256074 0.256074 0.256074 0.256074 0.256074 0.256074 0.256074 0.256074 0.256074 0.256074 0.248069 0.248069 0.248069 0.248069 0.248069 0.248069 0.248069 0.248069 0.248069 0.248069 0.248069 0.248069 0.248069 0.251976 0.251976 0.251976 0.251976 0.251976 0.251976 0.251976 0.251976 0.251976 0.251976 0.251976 0.251976 0.248069 0.248069 0.248069 0.248069 0.248069 0.248069 0.248069 0.248069 0.248069 0.248069 0.248069 0.248069 0.244339 0.244339 0.244339 0.244339 0.244339 0.244339 0.244339 0.244339 0.244339 0.244339 0.244339 0.244339 0.248069 0.248069 0.248069 0.248069 0.248069 0.248069 0.248069 0.248069 0.248069 0.248069 0.248069 0.248069 0.248069 0.248069 0.248069
