# Output from CTFFind version 4.1.9, run on 2019-11-03 18:51:19
# Input file: stack7_ub_averaged_250.mrc ; Number of micrographs: 1
# Pixel size: 3.000 Angstroms ; acceleration voltage: 300.0 keV ; spherical aberration: 0.00 mm ; amplitude contrast: 0.07
# Box size: 512 pixels ; min. res.: 30.0 Angstroms ; max. res.: 5.0 Angstroms ; min. def.: 5000.0 um; max. def. 50000.0 um; num. frames averaged: 1
# 6 lines per micrograph: #1 - spatial frequency (1/Angstroms); #2 - 1D rotational average of spectrum (assuming no astigmatism); #3 - 1D rotational average of spectrum; #4 - CTF fit; #5 - cross-correlation between spectrum and CTF fit; #6 - 2sigma of expected cross correlation of noise
0.000000 0.000651 0.001302 0.001953 0.002604 0.003255 0.003906 0.004557 0.005208 0.005859 0.006510 0.007161 0.007812 0.008464 0.009115 0.009766 0.010417 0.011068 0.011719 0.012370 0.013021 0.013672 0.014323 0.014974 0.015625 0.016276 0.016927 0.017578 0.018229 0.018880 0.019531 0.020182 0.020833 0.021484 0.022135 0.022786 0.023438 0.024089 0.024740 0.025391 0.026042 0.026693 0.027344 0.027995 0.028646 0.029297 0.029948 0.030599 0.031250 0.031901 0.032552 0.033203 0.033854 0.034505 0.035156 0.035807 0.036458 0.037109 0.037760 0.038411 0.039062 0.039714 0.040365 0.041016 0.041667 0.042318 0.042969 0.043620 0.044271 0.044922 0.045573 0.046224 0.046875 0.047526 0.048177 0.048828 0.049479 0.050130 0.050781 0.051432 0.052083 0.052734 0.053385 0.054036 0.054688 0.055339 0.055990 0.056641 0.057292 0.057943 0.058594 0.059245 0.059896 0.060547 0.061198 0.061849 0.062500 0.063151 0.063802 0.064453 0.065104 0.065755 0.066406 0.067057 0.067708 0.068359 0.069010 0.069661 0.070312 0.070964 0.071615 0.072266 0.072917 0.073568 0.074219 0.074870 0.075521 0.076172 0.076823 0.077474 0.078125 0.078776 0.079427 0.080078 0.080729 0.081380 0.082031 0.082682 0.083333 0.083984 0.084635 0.085286 0.085938 0.086589 0.087240 0.087891 0.088542 0.089193 0.089844 0.090495 0.091146 0.091797 0.092448 0.093099 0.093750 0.094401 0.095052 0.095703 0.096354 0.097005 0.097656 0.098307 0.098958 0.099609 0.100260 0.100911 0.101562 0.102214 0.102865 0.103516 0.104167 0.104818 0.105469 0.106120 0.106771 0.107422 0.108073 0.108724 0.109375 0.110026 0.110677 0.111328 0.111979 0.112630 0.113281 0.113932 0.114583 0.115234 0.115885 0.116536 0.117188 0.117839 0.118490 0.119141 0.119792 0.120443 0.121094 0.121745 0.122396 0.123047 0.123698 0.124349 0.125000 0.125651 0.126302 0.126953 0.127604 0.128255 0.128906 0.129557 0.130208 0.130859 0.131510 0.132161 0.132812 0.133464 0.134115 0.134766 0.135417 0.136068 0.136719 0.137370 0.138021 0.138672 0.139323 0.139974 0.140625 0.141276 0.141927 0.142578 0.143229 0.143880 0.144531 0.145182 0.145833 0.146484 0.147135 0.147786 0.148438 0.149089 0.149740 0.150391 0.151042 0.151693 0.152344 0.152995 0.153646 0.154297 0.154948 0.155599 0.156250 0.156901 0.157552 0.158203 0.158854 0.159505 0.160156 0.160807 0.161458 0.162109 0.162760 0.163411 0.164062 0.164714 0.165365 0.166016 0.166667 0.167318 0.167969 0.168620 0.169271 0.169922 0.170573 0.171224 0.171875 0.172526 0.173177 0.173828 0.174479 0.175130 0.175781 0.176432 0.177083 0.177734 0.178385 0.179036 0.179688 0.180339 0.180990 0.181641 0.182292 0.182943 0.183594 0.184245 0.184896 0.185547 0.186198 0.186849 0.187500 0.188151 0.188802 0.189453 0.190104 0.190755 0.191406 0.192057 0.192708 0.193359 0.194010 0.194661 0.195312 0.195964 0.196615 0.197266 0.197917 0.198568 0.199219 0.199870 0.200521 0.201172 0.201823 0.202474 0.203125 0.203776 0.204427 0.205078 0.205729 0.206380 0.207031 0.207682 0.208333 0.208984 0.209635 0.210286 0.210938 0.211589 0.212240 0.212891 0.213542 0.214193 0.214844 0.215495 0.216146 0.216797 0.217448 0.218099 0.218750 0.219401 0.220052 0.220703 0.221354 0.222005 0.222656 0.223307 0.223958 0.224609 0.225260 0.225911 0.226562 0.227214 0.227865 0.228516 0.229167 0.229818 0.230469 0.231120 0.231771 0.232422 0.233073 0.233724 0.234375 0.235026 0.235677
       0.35025        0.35025        0.35025        0.35025        0.35025        0.35025        0.35025        0.35025        0.35025        0.35025        0.35025        0.35025        0.35025        0.35025        0.35025        0.35025        0.35025        0.35025        0.35025        0.35025        0.35025        0.35025        0.35025        0.35025        0.35025        0.35025        0.35025        0.35025        0.35025        0.35025        0.35025        0.35025        0.35025        0.35025        0.35025        0.35025        0.35025        0.35025        0.35025        0.35025        0.35025        0.35025        0.35025        0.35025        0.35025        0.35025        0.35025        0.35025        0.35025        0.35025        0.35025        0.53907        0.92914        0.45620        0.23824        0.27876       -0.01098        0.08118       -0.07018        0.03097        0.19531        0.15807        0.35717        0.24117        0.06224       -0.03792       -0.03499       -0.04086       -0.20574       -0.25243       -0.17269       -0.18945       -0.14525       -0.12635       -0.30913       -0.30099       -0.33026       -0.39881       -0.47063       -0.39881       -0.28645       -0.31674       -0.33693       -0.41473       -0.23418       -0.17777       -0.19367       -0.18226       -0.02895        0.03484        0.15583        0.28749        0.33186        0.42947        0.51562        0.59948        0.59685        0.62868        0.60064        0.57400        0.66713        0.67190        0.72945        0.79944        0.64857        0.53852        0.53421        0.49709        0.42959        0.30175        0.28612        0.21440        0.12472        0.03509        0.05119        0.06755        0.06828        0.02179        0.05195        0.06152        0.15151        0.16650        0.30582        0.38876        0.34950        0.52538        0.59675        0.58238        0.63676        0.72234        0.69290        0.67477        0.66929        0.54515        0.52280        0.40937        0.42011        0.29817        0.26321        0.22820        0.15321        0.09057        0.02800        0.06046        0.16104        0.18877        0.20764        0.24429        0.37416        0.43084        0.46875        0.56828        0.57766        0.58406        0.58860        0.57356        0.53089        0.46880        0.47182        0.37935        0.26756        0.24023        0.33890        0.22243        0.11320        0.19716        0.21943        0.23775        0.33220        0.34686        0.41630        0.46241        0.49063        0.53004        0.50137        0.52045        0.48432        0.50687        0.41535        0.44728        0.37471        0.29410        0.27214        0.22528        0.19865        0.26135        0.26339        0.31215        0.32162        0.39258        0.38593        0.48844        0.47654        0.46249        0.44527        0.46678        0.43664        0.31757        0.33779        0.30518        0.30862        0.27920        0.26084        0.26669        0.33039        0.35660        0.36490        0.36888        0.39916        0.45481        0.46043        0.39275        0.41526        0.35949        0.28940        0.30317        0.32816        0.31838        0.29509        0.27716        0.32486        0.36835        0.37666        0.34242        0.39570        0.40307        0.40884        0.35765        0.35391        0.34997        0.30775        0.30264        0.30702        0.29053        0.28755        0.32241        0.35776        0.39853        0.34664        0.39457        0.37055        0.37497        0.34892        0.32383        0.33891        0.32782        0.32446        0.30203        0.30945        0.30127        0.32164        0.31670        0.35507        0.34801        0.33476        0.31867        0.28929        0.30767        0.33156        0.29904        0.27819        0.27600        0.29101        0.29513        0.35490        0.35988        0.34488        0.36925        0.38004        0.30225        0.30958        0.37685        0.30926        0.29489        0.35834        0.36661        0.33871        0.30404        0.34627        0.37434        0.34298        0.37390        0.32163        0.36454        0.30094        0.31517        0.29486        0.34514        0.33189        0.30658        0.31894        0.35882        0.35350        0.34545        0.34668        0.34005        0.28320        0.26744        0.28944        0.31628        0.32280        0.31631        0.32701        0.26923        0.31085        0.34643        0.30859        0.29386        0.32994        0.30239        0.29698        0.30609        0.34513        0.34654        0.31033        0.29408        0.27969        0.28908        0.32234        0.31969        0.27634        0.26257        0.30028        0.32690        0.31402        0.27766        0.28895        0.25332        0.24698        0.23491        0.26933        0.32320        0.35492        0.26147        0.24385        0.30912        0.32867        0.30199        0.31489        0.29691        0.27985        0.24008        0.35240        0.26248        0.23397        0.24065        0.26607        0.18099        0.16961        0.29212        0.23735        0.24992        0.24700        0.31181        0.25874        0.23167        0.28770        0.14684        0.05755        0.09160        0.01187       -0.50269       -0.82305
2.013502 1.995946 1.978471 1.961078 1.943766 1.926536 1.909386 1.892319 1.875332 1.858427 1.841603 1.824860 1.808199 1.791619 1.775121 1.758704 1.742368 1.726113 1.709940 1.693848 1.677838 1.661908 1.646060 1.630294 1.614609 1.599005 1.583482 1.568041 1.552681 1.537403 1.522205 1.507089 1.492055 1.477102 1.462230 1.447439 1.432730 1.418102 1.403555 1.389090 1.374706 1.360403 1.346182 1.332042 1.317984 1.304006 1.290110 1.276296 1.262563 1.248911 1.235340 1.289619 2.069080 1.468853 0.961855 1.206515 0.670334 0.778353 0.665235 0.648302 0.904450 0.847742 1.068445 0.969448 0.673171 0.591469 0.453541 0.519593 0.339302 0.095433 0.377219 0.274600 0.324396 0.287987 0.113353 0.046936 0.053049 -0.030150 -0.254432 -0.130732 0.012892 0.051779 -0.072980 -0.214695 0.037319 0.080582 0.089188 0.086951 0.269535 0.310820 0.451340 0.620239 0.710831 0.815854 0.888009 1.057099 0.990822 1.023114 1.079790 0.932095 1.050895 1.041526 1.157810 1.229179 1.084542 0.917893 0.812300 0.743678 0.758454 0.567908 0.453854 0.488166 0.223359 0.213586 0.069715 0.156815 0.188216 0.092567 0.090608 0.086333 0.203391 0.195609 0.354990 0.541816 0.441159 0.565642 0.834303 0.679454 0.803555 0.821076 0.951984 0.830077 0.834069 0.693003 0.669610 0.349822 0.586949 0.326502 0.259533 0.207862 0.138057 0.007434 -0.030200 -0.090842 0.024133 0.059595 0.154709 0.090158 0.248467 0.400053 0.422988 0.496299 0.560933 0.641396 0.552722 0.551171 0.606664 0.426900 0.454809 0.299278 0.208385 0.066642 0.226199 0.130590 -0.048962 -0.016619 0.090147 0.002431 0.155860 0.210888 0.220343 0.337783 0.367277 0.396530 0.411674 0.467477 0.393718 0.489034 0.332738 0.372023 0.307941 0.135752 0.202333 0.039686 -0.009094 0.106215 0.071548 0.102534 0.132009 0.280713 0.216716 0.249857 0.413216 0.256017 0.302220 0.212016 0.348104 0.117013 0.091793 0.107277 0.013644 0.075098 -0.014442 -0.031057 0.034963 0.096153 0.125842 0.110689 0.100136 0.208002 0.204314 0.213812 0.169805 0.149037 0.033042 0.004844 0.026160 0.031275 0.058974 -0.048471 -0.017155 0.074270 0.117378 0.080778 0.056679 0.140064 0.099022 0.129358 0.030068 0.073571 -0.000174 0.023182 -0.021314 -0.019718 -0.029558 -0.056232 0.017104 0.110987 0.066770 0.030936 0.099976 0.076712 0.043219 0.067983 -0.012677 0.021491 0.012524 0.034716 -0.026177 -0.010935 -0.008512 -0.016958 0.036288 0.050035 0.032178 0.049118 -0.004439 -0.021047 0.028297 0.061509 -0.086130 0.009253 -0.025781 -0.008635 0.013371 0.079342 0.059688 0.085039 0.071001 0.108577 -0.029996 0.013106 0.167512 -0.059495 0.021381 0.081279 0.090210 0.038570 -0.001455 0.088286 0.079729 0.065856 0.074940 0.008870 0.091084 0.027339 -0.014480 0.003364 0.048158 0.026340 0.023067 0.027349 0.066756 -0.004129 0.094837 0.051302 -0.009401 -0.065313 -0.038689 -0.012335 -0.011597 -0.008592 0.051338 0.010169 -0.059534 -0.044046 0.056775 -0.016812 -0.021410 0.042183 -0.026015 -0.008994 -0.026308 0.064594 0.050206 -0.044675 0.022094 -0.035706 -0.025716 0.051138 0.039310 -0.064544 -0.065289 0.002121 0.063243 -0.006153 -0.050746 -0.051471 -0.068735 -0.103724 -0.079660 -0.067610 0.057906 0.096418 -0.100067 -0.053408 0.062166 -0.004634 0.054346 0.041920 0.044314 -0.015518 -0.047584 0.185020 -0.020267 -0.016090 0.013837 0.036092 -0.098350 -0.048128 0.105637 0.076556 0.020006 0.008656 0.165610 0.330407 0.306506 0.450405 0.158225 0.029802 0.126528 0.022220 -1.080420
0.072396 0.072855 0.074230 0.076522 0.079730 0.083854 0.088892 0.094843 0.101706 0.109477 0.118155 0.127736 0.138215 0.149589 0.161850 0.174991 0.189004 0.203879 0.219605 0.236166 0.253550 0.271736 0.290706 0.310436 0.330902 0.352073 0.373919 0.396404 0.419488 0.443128 0.467277 0.491883 0.516890 0.542236 0.567855 0.593675 0.619620 0.645607 0.671549 0.697351 0.722916 0.748137 0.772906 0.797104 0.820611 0.843300 0.865040 0.885692 0.905118 0.923171 0.939704 0.954564 0.967600 0.978656 0.987577 0.994208 0.998396 0.999989 0.998840 0.994807 0.987754 0.977552 0.964082 0.947236 0.926918 0.903047 0.875557 0.844401 0.809549 0.770994 0.728754 0.682866 0.633400 0.580449 0.524136 0.464617 0.402077 0.336735 0.268841 0.198683 0.126578 0.052878 0.022030 0.097729 0.173772 0.249682 0.324955 0.399064 0.471461 0.541582 0.608848 0.672674 0.732472 0.787656 0.837648 0.881887 0.919834 0.950978 0.974846 0.991008 0.999088 0.998766 0.989792 0.971988 0.945257 0.909592 0.865075 0.811888 0.750315 0.680745 0.603673 0.519702 0.429541 0.334003 0.234001 0.130541 0.024717 0.082303 0.189282 0.294932 0.397928 0.496924 0.590568 0.677527 0.756501 0.826249 0.885610 0.933523 0.969048 0.991392 0.999925 0.994200 0.973971 0.939207 0.890101 0.827085 0.750830 0.662247 0.562487 0.452928 0.335170 0.211006 0.082409 0.048499 0.179480 0.308216 0.432349 0.549524 0.657437 0.753881 0.836796 0.904319 0.954827 0.986987 0.999793 0.992606 0.965182 0.917698 0.850762 0.765426 0.663174 0.545915 0.415953 0.275954 0.128893 0.021993 0.173284 0.321440 0.462894 0.594130 0.711779 0.812713 0.894127 0.953632 0.989333 0.999898 0.984620 0.943455 0.877057 0.786784 0.674687 0.543483 0.396501 0.237610 0.071126 0.098291 0.265774 0.426375 0.575224 0.707668 0.819436 0.906779 0.966610 0.996628 0.995418 0.962535 0.898549 0.805063 0.684699 0.541047 0.378571 0.202495 0.018636 0.166766 0.347268 0.516435 0.668081 0.796504 0.896708 0.964615 0.997249 0.992886 0.951164 0.873139 0.761291 0.619481 0.452835 0.267582 0.070845 0.129627 0.325756 0.509453 0.672961 0.809195 0.912059 0.976740 0.999962 0.980169 0.917656 0.814605 0.675053 0.504761 0.311009 0.102304 0.111971 0.321975 0.517858 0.690219 0.830586 0.931838 0.988599 0.997552 0.957662 0.870296 0.739226 0.570502 0.372214 0.154134 0.072747 0.296755 0.506131 0.689655 0.837260 0.940607 0.993588 0.992726 0.937434 0.830135 0.676200 0.483735 0.263185 0.026803 0.212005 0.439445 0.642113 0.807821 0.926332 0.990047 0.994520 0.938818 0.825671 0.661400 0.455607 0.220677 0.028956 0.277651 0.509544 0.709563 0.864434 0.963582 0.999906 0.970335 0.876140 0.722943 0.520460 0.281933 0.023306 0.237812 0.483328 0.695928 0.860318 0.964354 1.000000 0.963998 0.858221 0.689660 0.470027 0.215016 0.056795 0.325255 0.570121 0.772611 0.916866 0.991234 0.989282 0.910414 0.760052 0.549350 0.294427 0.015210 0.266113 0.526813 0.745477 0.903804 0.988170 0.990876 0.910926 0.754255 0.533383 0.266493 0.024008 0.313324 0.576380 0.790000 0.934996 0.997941 0.972493 0.860120 0.670134 0.419008 0.129036 0.173594 0.461134 0.706818 0.887376 0.985309 0.990651 0.902074 0.727205 0.482066 0.189701 0.121906 0.422500 0.682450 0.875727 0.982546 0.991489 0.900818 0.718850 0.463304 0.159691 0.161182 0.466273 0.723720 0.906195 0.993884 0.976718 0.855651 0.642769 0.360204 0.037938 0.289316 0.585819
1.000000 1.000000 1.000000 1.000000 1.000000 1.000000 1.000000 1.000000 1.000000 1.000000 1.000000 1.000000 1.000000 1.000000 1.000000 1.000000 1.000000 1.000000 1.000000 1.000000 1.000000 1.000000 1.000000 1.000000 1.000000 1.000000 1.000000 1.000000 1.000000 1.000000 1.000000 1.000000 1.000000 1.000000 1.000000 1.000000 1.000000 1.000000 1.000000 1.000000 1.000000 1.000000 1.000000 1.000000 1.000000 1.000000 1.000000 1.000000 1.000000 1.000000 1.000000 1.000000 0.853242 0.853242 0.853242 0.853242 0.853242 0.853242 0.842066 0.842066 0.842066 0.842066 0.842066 0.842066 0.842066 0.842066 0.842066 0.842066 0.842066 0.842066 0.842066 0.842066 0.842066 0.842066 0.842066 0.842066 0.842066 0.842066 0.842066 0.842066 0.842066 0.842066 0.842066 0.842066 0.842066 0.842066 0.842066 0.842066 0.842066 0.842066 0.842066 0.842066 0.842066 0.842066 0.842066 0.842066 0.842066 0.842066 0.842066 0.842066 0.842066 0.928018 0.929389 0.931380 0.932070 0.931880 0.930290 0.928997 0.928408 0.930341 0.948311 0.948911 0.950403 0.951837 0.953199 0.954113 0.956038 0.955827 0.958070 0.961978 0.961283 0.960951 0.971714 0.971467 0.970573 0.969888 0.968002 0.966821 0.966639 0.966425 0.966303 0.967714 0.966629 0.966153 0.965382 0.965163 0.965025 0.964841 0.964705 0.964546 0.964722 0.964255 0.964496 0.963242 0.963305 0.962917 0.960474 0.960491 0.960983 0.962147 0.961299 0.960210 0.960450 0.958500 0.953681 0.958075 0.957930 0.957323 0.953297 0.952736 0.952336 0.952225 0.944970 0.943097 0.932465 0.931430 0.915428 0.904708 0.903311 0.900780 0.901988 0.906558 0.908372 0.907387 0.904014 0.894069 0.873093 0.866659 0.867150 0.871601 0.872397 0.872911 0.861084 0.852482 0.852115 0.851081 0.836824 0.840158 0.838537 0.834695 0.831809 0.828258 0.817647 0.820263 0.829890 0.824690 0.822838 0.828734 0.813224 0.814958 0.811484 0.813836 0.818649 0.820184 0.822241 0.819713 0.815073 0.799632 0.797757 0.790154 0.795352 0.797965 0.791479 0.795027 0.770712 0.758855 0.768174 0.749701 0.765633 0.774640 0.782631 0.766483 0.760667 0.755240 0.757426 0.757320 0.753935 0.765687 0.762310 0.754790 0.751940 0.708416 0.705021 0.659532 0.656279 0.654708 0.657500 0.664315 0.666992 0.657620 0.644312 0.633572 0.587172 0.593902 0.582525 0.574634 0.574560 0.570852 0.551402 0.564079 0.554003 0.549721 0.555718 0.548448 0.522767 0.520807 0.512215 0.524895 0.541906 0.533755 0.536698 0.528250 0.515022 0.513553 0.484268 0.474322 0.471935 0.482629 0.520269 0.520994 0.524056 0.503244 0.500194 0.503183 0.450225 0.438731 0.438228 0.434122 0.445373 0.357566 0.352949 0.411384 0.337453 0.332930 0.336513 0.331488 0.347846 0.385909 0.334943 0.363781 0.351252 0.354112 0.267176 0.301145 0.299224 0.289379 0.283780 0.275914 0.274105 0.285185 0.294799 0.271724 0.289314 0.263221 0.260776 0.231001 0.250716 0.248832 0.249924 0.258209 0.246830 0.246028 0.243345 0.230812 0.215537 0.222972 0.246772 0.236636 0.207378 0.149359 0.130243 0.131945 0.132403 0.151223 0.118465 0.109341 0.100829 0.058060 0.026115 0.019615 0.039305 0.074989 0.085299 0.077037 0.085591 0.085591 0.095461 0.095461 0.095461 0.095461 0.095461 0.095461 0.095461 0.095461 0.095461 0.095461 0.099088 0.099088 0.099088 0.099088 0.099088 0.099088 0.099088 0.099088 0.099088 0.099088 0.099088 0.099088 0.099088 0.099088 0.099088 0.099088 0.099088
0.000000 0.000000 0.000000 0.000000 0.000000 0.000000 0.000000 0.000000 0.000000 0.000000 0.000000 0.000000 0.000000 0.000000 0.000000 0.000000 0.000000 0.000000 0.000000 0.000000 0.000000 0.000000 0.000000 0.000000 0.000000 0.000000 0.000000 0.000000 0.000000 0.000000 0.000000 0.000000 0.000000 0.000000 0.000000 0.000000 0.000000 0.000000 0.000000 0.000000 0.000000 0.000000 0.000000 0.000000 0.000000 0.000000 0.000000 0.000000 0.000000 0.000000 0.000000 0.000000 0.176090 0.176090 0.176090 0.176090 0.176090 0.176090 0.195180 0.195180 0.195180 0.195180 0.195180 0.195180 0.195180 0.195180 0.195180 0.195180 0.195180 0.195180 0.195180 0.195180 0.195180 0.195180 0.195180 0.195180 0.195180 0.195180 0.195180 0.195180 0.195180 0.195180 0.195180 0.195180 0.195180 0.195180 0.195180 0.195180 0.195180 0.195180 0.195180 0.195180 0.195180 0.195180 0.195180 0.195180 0.195180 0.195180 0.195180 0.195180 0.195180 0.222222 0.222222 0.222222 0.222222 0.222222 0.222222 0.222222 0.222222 0.222222 0.222222 0.222222 0.222222 0.222222 0.222222 0.222222 0.222222 0.222222 0.222222 0.222222 0.222222 0.222222 0.222222 0.222222 0.222222 0.222222 0.222222 0.222222 0.222222 0.222222 0.222222 0.237356 0.237356 0.237356 0.237356 0.237356 0.237356 0.237356 0.237356 0.237356 0.237356 0.237356 0.237356 0.237356 0.237356 0.237356 0.237356 0.237356 0.237356 0.237356 0.237356 0.237356 0.237356 0.237356 0.237356 0.251976 0.251976 0.251976 0.251976 0.251976 0.251976 0.251976 0.251976 0.251976 0.251976 0.251976 0.251976 0.251976 0.251976 0.251976 0.251976 0.251976 0.251976 0.251976 0.251976 0.248069 0.248069 0.248069 0.248069 0.248069 0.248069 0.248069 0.248069 0.248069 0.248069 0.248069 0.248069 0.248069 0.248069 0.248069 0.248069 0.248069 0.248069 0.248069 0.256074 0.256074 0.256074 0.256074 0.256074 0.256074 0.256074 0.256074 0.256074 0.256074 0.256074 0.256074 0.256074 0.256074 0.256074 0.256074 0.256074 0.256074 0.256074 0.256074 0.256074 0.256074 0.256074 0.256074 0.256074 0.256074 0.256074 0.256074 0.256074 0.256074 0.256074 0.256074 0.256074 0.264906 0.264906 0.264906 0.264906 0.264906 0.264906 0.264906 0.264906 0.264906 0.264906 0.264906 0.264906 0.264906 0.264906 0.256074 0.256074 0.256074 0.256074 0.256074 0.256074 0.256074 0.256074 0.256074 0.256074 0.256074 0.256074 0.256074 0.256074 0.260378 0.260378 0.260378 0.260378 0.260378 0.260378 0.260378 0.260378 0.260378 0.260378 0.260378 0.260378 0.260378 0.256074 0.256074 0.256074 0.256074 0.256074 0.256074 0.256074 0.256074 0.256074 0.256074 0.256074 0.256074 0.256074 0.269680 0.269680 0.269680 0.269680 0.269680 0.269680 0.269680 0.269680 0.269680 0.269680 0.269680 0.251976 0.251976 0.251976 0.251976 0.251976 0.251976 0.251976 0.251976 0.251976 0.251976 0.251976 0.251976 0.256074 0.256074 0.256074 0.256074 0.256074 0.256074 0.256074 0.256074 0.256074 0.256074 0.256074 0.251976 0.251976 0.251976 0.251976 0.251976 0.251976 0.251976 0.251976 0.251976 0.251976 0.251976 0.260378 0.260378 0.260378 0.260378 0.260378 0.260378 0.260378 0.260378 0.260378 0.260378 0.256074 0.256074 0.256074 0.256074 0.256074 0.256074 0.256074 0.256074 0.256074 0.256074 0.251976 0.251976 0.251976 0.251976 0.251976 0.251976 0.251976 0.251976 0.251976 0.251976 0.251976 0.251976 0.251976 0.251976 0.251976 0.251976 0.251976
