# Output from CTFFind version 4.1.9, run on 2019-11-03 18:51:31
# Input file: stack3_ub_averaged_750.mrc ; Number of micrographs: 1
# Pixel size: 3.000 Angstroms ; acceleration voltage: 300.0 keV ; spherical aberration: 0.00 mm ; amplitude contrast: 0.07
# Box size: 512 pixels ; min. res.: 30.0 Angstroms ; max. res.: 5.0 Angstroms ; min. def.: 5000.0 um; max. def. 50000.0 um; num. frames averaged: 1
# 6 lines per micrograph: #1 - spatial frequency (1/Angstroms); #2 - 1D rotational average of spectrum (assuming no astigmatism); #3 - 1D rotational average of spectrum; #4 - CTF fit; #5 - cross-correlation between spectrum and CTF fit; #6 - 2sigma of expected cross correlation of noise
0.000000 0.000651 0.001302 0.001953 0.002604 0.003255 0.003906 0.004557 0.005208 0.005859 0.006510 0.007161 0.007812 0.008464 0.009115 0.009766 0.010417 0.011068 0.011719 0.012370 0.013021 0.013672 0.014323 0.014974 0.015625 0.016276 0.016927 0.017578 0.018229 0.018880 0.019531 0.020182 0.020833 0.021484 0.022135 0.022786 0.023438 0.024089 0.024740 0.025391 0.026042 0.026693 0.027344 0.027995 0.028646 0.029297 0.029948 0.030599 0.031250 0.031901 0.032552 0.033203 0.033854 0.034505 0.035156 0.035807 0.036458 0.037109 0.037760 0.038411 0.039062 0.039714 0.040365 0.041016 0.041667 0.042318 0.042969 0.043620 0.044271 0.044922 0.045573 0.046224 0.046875 0.047526 0.048177 0.048828 0.049479 0.050130 0.050781 0.051432 0.052083 0.052734 0.053385 0.054036 0.054688 0.055339 0.055990 0.056641 0.057292 0.057943 0.058594 0.059245 0.059896 0.060547 0.061198 0.061849 0.062500 0.063151 0.063802 0.064453 0.065104 0.065755 0.066406 0.067057 0.067708 0.068359 0.069010 0.069661 0.070312 0.070964 0.071615 0.072266 0.072917 0.073568 0.074219 0.074870 0.075521 0.076172 0.076823 0.077474 0.078125 0.078776 0.079427 0.080078 0.080729 0.081380 0.082031 0.082682 0.083333 0.083984 0.084635 0.085286 0.085938 0.086589 0.087240 0.087891 0.088542 0.089193 0.089844 0.090495 0.091146 0.091797 0.092448 0.093099 0.093750 0.094401 0.095052 0.095703 0.096354 0.097005 0.097656 0.098307 0.098958 0.099609 0.100260 0.100911 0.101562 0.102214 0.102865 0.103516 0.104167 0.104818 0.105469 0.106120 0.106771 0.107422 0.108073 0.108724 0.109375 0.110026 0.110677 0.111328 0.111979 0.112630 0.113281 0.113932 0.114583 0.115234 0.115885 0.116536 0.117188 0.117839 0.118490 0.119141 0.119792 0.120443 0.121094 0.121745 0.122396 0.123047 0.123698 0.124349 0.125000 0.125651 0.126302 0.126953 0.127604 0.128255 0.128906 0.129557 0.130208 0.130859 0.131510 0.132161 0.132812 0.133464 0.134115 0.134766 0.135417 0.136068 0.136719 0.137370 0.138021 0.138672 0.139323 0.139974 0.140625 0.141276 0.141927 0.142578 0.143229 0.143880 0.144531 0.145182 0.145833 0.146484 0.147135 0.147786 0.148438 0.149089 0.149740 0.150391 0.151042 0.151693 0.152344 0.152995 0.153646 0.154297 0.154948 0.155599 0.156250 0.156901 0.157552 0.158203 0.158854 0.159505 0.160156 0.160807 0.161458 0.162109 0.162760 0.163411 0.164062 0.164714 0.165365 0.166016 0.166667 0.167318 0.167969 0.168620 0.169271 0.169922 0.170573 0.171224 0.171875 0.172526 0.173177 0.173828 0.174479 0.175130 0.175781 0.176432 0.177083 0.177734 0.178385 0.179036 0.179688 0.180339 0.180990 0.181641 0.182292 0.182943 0.183594 0.184245 0.184896 0.185547 0.186198 0.186849 0.187500 0.188151 0.188802 0.189453 0.190104 0.190755 0.191406 0.192057 0.192708 0.193359 0.194010 0.194661 0.195312 0.195964 0.196615 0.197266 0.197917 0.198568 0.199219 0.199870 0.200521 0.201172 0.201823 0.202474 0.203125 0.203776 0.204427 0.205078 0.205729 0.206380 0.207031 0.207682 0.208333 0.208984 0.209635 0.210286 0.210938 0.211589 0.212240 0.212891 0.213542 0.214193 0.214844 0.215495 0.216146 0.216797 0.217448 0.218099 0.218750 0.219401 0.220052 0.220703 0.221354 0.222005 0.222656 0.223307 0.223958 0.224609 0.225260 0.225911 0.226562 0.227214 0.227865 0.228516 0.229167 0.229818 0.230469 0.231120 0.231771 0.232422 0.233073 0.233724 0.234375 0.235026 0.235677
       0.33455        0.33455        0.33455        0.33455        0.33455        0.33455        0.33455        0.33455        0.33455        0.33455        0.33455        0.33455        0.33455        0.33455        0.33455        0.33455        0.33455        0.33455        0.33455        0.33455        0.33455        0.33455        0.33455        0.33455        0.33455        0.33455        0.33455        0.33455        0.33455        0.33455        0.33455        0.33455        0.33455        0.33455        0.33455        0.33455        0.33455        0.33455        0.33455        0.33455        0.33455        0.33455        0.33455        0.33455        0.33455        0.33455        0.33455        0.33455        0.33455        0.33455        0.33455        0.45024        0.75839        0.36322        0.09270       -0.16522       -0.20709       -0.37073       -0.43637       -0.44798       -0.37814       -0.43007       -0.40186       -0.41394       -0.58762       -0.59642       -0.62360       -0.75513       -0.74856       -0.64383       -0.67386       -0.67422       -0.69075       -0.61675       -0.60510       -0.54517       -0.34462       -0.34588       -0.30139       -0.12448        0.01951        0.04812        0.20418        0.21472        0.39207        0.49971        0.59010        0.53937        0.60336        0.58071        0.50494        0.62108        0.60653        0.57206        0.54728        0.47931        0.38559        0.30321        0.17826        0.07022        0.00579       -0.05317       -0.03969       -0.02556        0.00478        0.00910        0.11524        0.16178        0.27243        0.33573        0.42045        0.54186        0.57213        0.64437        0.77440        0.76337        0.79183        0.75786        0.57337        0.49889        0.34739        0.35114        0.21803        0.13572        0.13462        0.08440        0.01572        0.03831        0.08194        0.18314        0.31243        0.33893        0.48535        0.55048        0.61996        0.54792        0.57190        0.57377        0.51846        0.49417        0.48659        0.36418        0.22378        0.16009        0.15246        0.17073        0.10647        0.12975        0.14814        0.21780        0.33346        0.36433        0.41124        0.50148        0.62388        0.51656        0.53247        0.46896        0.40400        0.30427        0.26809        0.23253        0.22758        0.15886        0.18878        0.20763        0.27089        0.39092        0.44707        0.45046        0.50019        0.50558        0.50212        0.46750        0.42298        0.38967        0.27582        0.23461        0.22634        0.22231        0.25934        0.31258        0.37301        0.40840        0.41282        0.42603        0.43409        0.44739        0.41120        0.36429        0.27735        0.31361        0.30102        0.31822        0.26592        0.31080        0.31439        0.40822        0.43430        0.39639        0.40046        0.36158        0.36299        0.35088        0.29205        0.23764        0.25844        0.23832        0.23804        0.31687        0.37159        0.37231        0.38558        0.37434        0.40017        0.38204        0.34745        0.27978        0.29724        0.31698        0.29444        0.32959        0.36801        0.35016        0.38514        0.34833        0.34378        0.32673        0.34330        0.33410        0.35056        0.30962        0.28908        0.32649        0.36027        0.34423        0.32847        0.31314        0.32149        0.30851        0.31818        0.32217        0.32533        0.31389        0.30443        0.33892        0.31534        0.32535        0.31777        0.34140        0.31936        0.29807        0.29213        0.29930        0.30601        0.28864        0.30925        0.36145        0.34368        0.33205        0.28541        0.31798        0.33672        0.32974        0.29427        0.27744        0.27254        0.32176        0.31297        0.31190        0.30869        0.30389        0.28748        0.28444        0.28237        0.29203        0.30637        0.33351        0.31488        0.34676        0.28565        0.26933        0.32018        0.33744        0.32144        0.30489        0.27413        0.29758        0.35607        0.37539        0.35215        0.29535        0.30626        0.34959        0.28831        0.32615        0.32191        0.30950        0.32490        0.31162        0.33150        0.32213        0.27330        0.29185        0.29918        0.29475        0.36188        0.34527        0.31870        0.30774        0.29004        0.26043        0.27639        0.29522        0.30482        0.25714        0.29164        0.27875        0.29115        0.25996        0.23468        0.25212        0.28669        0.33713        0.35180        0.33380        0.34338        0.28256        0.29827        0.28251        0.20839        0.18864        0.26402        0.28013        0.30918        0.35904        0.24929        0.27739        0.20369        0.25690        0.27015        0.32916        0.24804        0.18487        0.20799        0.26582        0.21541        0.19761        0.27144        0.27752        0.23068        0.19244        0.27552        0.23768        0.17337        0.20182        0.29893        0.12943        0.15448        0.22879       -0.02138       -0.37917       -0.46226
2.474136 2.445940 2.417911 2.390049 2.362354 2.334827 2.307466 2.280273 2.253248 2.226389 2.199698 2.173174 2.146817 2.120627 2.094605 2.068750 2.043062 2.017542 1.992188 1.967002 1.941983 1.917132 1.892447 1.867930 1.843580 1.819398 1.795382 1.771534 1.747853 1.724339 1.700993 1.677814 1.654802 1.631957 1.609279 1.586769 1.564426 1.542250 1.520242 1.498400 1.476726 1.455219 1.433880 1.412708 1.391702 1.370864 1.350194 1.329690 1.309354 1.289185 1.269184 1.426641 1.584466 1.267619 0.921900 0.783053 0.683981 0.507938 0.473569 0.357365 0.412592 0.403353 0.397243 0.345781 0.183283 0.162488 0.145716 -0.016300 -0.071138 0.053817 -0.003361 0.014788 -0.067413 0.004268 -0.018521 0.024625 0.210573 0.171159 0.148323 0.307193 0.494974 0.389272 0.648873 0.533358 0.749845 0.743072 0.940107 0.801954 0.804654 0.964461 0.736090 0.899506 0.795135 0.754789 0.798016 0.692550 0.594465 0.542372 0.372433 0.265318 0.207325 0.114295 0.085626 0.161433 0.137672 0.148178 0.165960 0.250907 0.299541 0.363003 0.449441 0.514063 0.559324 0.600300 0.691808 0.707747 0.723102 0.710341 0.552688 0.495071 0.292734 0.330985 0.161640 0.101423 0.057378 0.068113 -0.049621 -0.049861 -0.011154 0.047236 0.183408 0.155470 0.308619 0.322489 0.494777 0.371565 0.398319 0.420138 0.327798 0.342374 0.311621 0.267630 0.061362 0.047691 -0.019846 -0.010107 -0.044229 -0.043354 -0.023870 -0.020521 0.086935 0.156938 0.149575 0.234478 0.314623 0.453050 0.314538 0.340204 0.254192 0.160523 0.107027 0.078942 0.092839 0.020318 -0.020248 0.027688 0.075454 0.116943 0.267082 0.217772 0.262873 0.298258 0.281919 0.253432 0.217965 0.182776 0.107495 0.031602 0.003441 0.016391 0.016321 0.066176 0.089631 0.180621 0.141985 0.180840 0.167127 0.199587 0.177084 0.135143 0.061654 0.040930 0.058612 0.066518 0.030835 0.035745 0.064987 0.076962 0.152670 0.157404 0.111400 0.103900 0.096162 0.104370 0.023601 0.004588 -0.007918 -0.050363 -0.021692 -0.029871 0.072295 0.075052 0.087801 0.102437 0.087497 0.080332 0.099452 0.046879 -0.002395 0.015696 0.022052 0.000919 0.060574 0.087629 0.055322 0.083173 0.034371 0.045713 0.053212 0.030630 0.056671 0.038615 0.004386 0.017382 0.048707 0.049683 0.051705 0.019842 -0.005789 0.008328 -0.006346 0.007290 0.011104 -0.004218 -0.004653 -0.005792 0.027465 -0.000001 0.001925 0.034334 0.013359 0.040138 -0.020268 0.001932 -0.003844 0.017318 -0.006362 0.019159 0.047629 0.041958 0.038304 -0.041412 0.043651 0.026409 0.019596 -0.000038 -0.035596 -0.020596 0.019774 0.007573 0.014686 0.009388 -0.024963 -0.005591 -0.039814 -0.012408 -0.005641 -0.002834 0.014680 -0.012285 0.058861 -0.058970 -0.042071 0.005960 0.021726 0.002223 -0.030500 -0.020455 -0.027350 0.024943 0.082631 0.014571 -0.023595 0.013944 0.014010 -0.031236 0.010854 0.021055 -0.013355 0.030689 -0.018017 0.027206 -0.005203 -0.038856 -0.012756 -0.000623 -0.036809 0.085624 0.047403 0.039861 0.047702 -0.007500 -0.017685 0.000912 0.002192 0.022691 -0.025083 0.009992 -0.007410 -0.007384 -0.035455 -0.045536 -0.012493 -0.009792 0.042126 0.048054 0.025538 0.028579 -0.021183 0.029482 -0.006834 -0.087912 -0.099759 -0.001819 -0.015926 0.025205 0.066776 -0.069248 0.027154 -0.085459 0.023943 0.012626 0.086602 -0.082670 -0.029981 -0.061320 0.013235 -0.032455 -0.051997 0.025501 0.064704 0.008985 -0.068348 0.046403 0.039607 0.143609 0.182771 0.317380 0.095167 0.179702 0.210604 -0.014587 -0.413963
0.072396 0.072979 0.074729 0.077643 0.081723 0.086967 0.093372 0.100937 0.109658 0.119533 0.130554 0.142718 0.156014 0.170435 0.185969 0.202602 0.220317 0.239095 0.258914 0.279747 0.301565 0.324332 0.348010 0.372553 0.397911 0.424028 0.450841 0.478280 0.506269 0.534723 0.563550 0.592648 0.621908 0.651213 0.680435 0.709437 0.738074 0.766192 0.793626 0.820203 0.845743 0.870056 0.892945 0.914206 0.933628 0.950998 0.966096 0.978700 0.988588 0.995538 0.999329 0.999748 0.996586 0.989643 0.978733 0.963681 0.944332 0.920551 0.892226 0.859271 0.821630 0.779281 0.732238 0.680552 0.624320 0.563682 0.498825 0.429988 0.357460 0.281585 0.202758 0.121433 0.038114 0.046639 0.132217 0.217959 0.303164 0.387084 0.468943 0.547931 0.623221 0.693970 0.759336 0.818483 0.870594 0.914884 0.950612 0.977095 0.993721 0.999963 0.995393 0.979697 0.952684 0.914302 0.864646 0.803968 0.732689 0.651393 0.560845 0.461977 0.355894 0.243865 0.127311 0.007797 0.112991 0.233263 0.351152 0.464738 0.572085 0.671272 0.760426 0.837769 0.901650 0.950588 0.983312 0.998797 0.996304 0.975407 0.936024 0.878439 0.803319 0.711716 0.605074 0.485217 0.354326 0.214917 0.069794 0.077995 0.225220 0.368536 0.504555 0.629935 0.741459 0.836127 0.911244 0.964508 0.994090 0.998708 0.977688 0.931021 0.859389 0.764186 0.647510 0.512142 0.361496 0.199549 0.030749 0.140096 0.307953 0.467705 0.614312 0.742975 0.849303 0.929477 0.980402 0.999844 0.986549 0.940327 0.862107 0.753959 0.619067 0.461664 0.286926 0.100822 0.090076 0.278815 0.458308 0.621605 0.762172 0.874159 0.952672 0.994010 0.995859 0.957453 0.879665 0.765039 0.617748 0.443484 0.249263 0.043173 0.165944 0.368864 0.556383 0.719747 0.851068 0.943741 0.992795 0.995204 0.950102 0.858910 0.725349 0.555344 0.356802 0.139282 0.086428 0.308846 0.516356 0.697837 0.843261 0.944294 0.994796 0.991249 0.933040 0.822604 0.665384 0.469630 0.246015 0.007091 0.233382 0.461218 0.662649 0.825170 0.938350 0.994547 0.989480 0.922607 0.797287 0.620685 0.403446 0.159092 0.096755 0.347358 0.575952 0.766872 0.906664 0.985079 0.995887 0.937441 0.812934 0.630326 0.401910 0.143565 0.126309 0.388061 0.622220 0.810960 0.939503 0.997332 0.979129 0.885345 0.722334 0.502024 0.241135 0.040027 0.319099 0.573433 0.781938 0.926882 0.995457 0.981003 0.883745 0.710971 0.476598 0.200154 0.094779 0.382522 0.637539 0.836707 0.961485 0.999716 0.946916 0.806897 0.591638 0.320382 0.017999 0.287193 0.566099 0.791588 0.941215 0.999532 0.959792 0.824855 0.607145 0.327645 0.013985 0.302206 0.588473 0.814866 0.957151 0.999492 0.936350 0.773329 0.526856 0.222666 0.106764 0.425624 0.698651 0.895045 0.992064 0.977761 0.852614 0.629776 0.333860 0.001646 0.338063 0.635949 0.859752 0.982138 0.987450 0.873887 0.654044 0.353696 0.008954 0.337989 0.643975 0.870274 0.987576 0.979944 0.847151 0.605066 0.283967 0.075090 0.425417 0.720725 0.921315 0.999501 0.943634 0.760016 0.472443 0.119331 0.251277 0.588160 0.844020 0.982204 0.982126 0.842542 0.582137 0.237268 0.142925 0.503420 0.791258 0.963382 0.993258 0.875172 0.625528 0.280820 0.107462 0.480446 0.780729 0.961294 0.993062 0.869781 0.609493 0.252156 0.146246 0.522363 0.815524 0.977618 0.981167 0.824257 0.531347 0.149765 0.257760 0.623265 0.884900 0.997553 0.940826 0.723027 0.380308 0.029087 0.434496 0.765000 0.961873
1.000000 1.000000 1.000000 1.000000 1.000000 1.000000 1.000000 1.000000 1.000000 1.000000 1.000000 1.000000 1.000000 1.000000 1.000000 1.000000 1.000000 1.000000 1.000000 1.000000 1.000000 1.000000 1.000000 1.000000 1.000000 1.000000 1.000000 1.000000 1.000000 1.000000 1.000000 1.000000 1.000000 1.000000 1.000000 1.000000 1.000000 1.000000 1.000000 1.000000 1.000000 1.000000 1.000000 1.000000 1.000000 1.000000 1.000000 1.000000 1.000000 1.000000 1.000000 1.000000 0.950809 0.950809 0.950809 0.950809 0.950809 0.950809 0.950809 0.950809 0.950809 0.950809 0.950809 0.950809 0.950809 0.950809 0.950809 0.950809 0.950809 0.950809 0.950809 0.950809 0.950809 0.950809 0.950809 0.950809 0.950809 0.950809 0.950809 0.950809 0.950809 0.950809 0.950809 0.950809 0.950809 0.950809 0.950809 0.950809 0.950809 0.950809 0.940716 0.942619 0.943142 0.942681 0.941762 0.943178 0.943743 0.943507 0.944010 0.944751 0.946286 0.948875 0.949910 0.958016 0.967182 0.966831 0.965689 0.965756 0.964472 0.961719 0.960023 0.961707 0.966502 0.966938 0.967530 0.967671 0.967079 0.967815 0.967605 0.966893 0.965983 0.968467 0.967238 0.967204 0.967521 0.968771 0.969129 0.969590 0.969947 0.970063 0.969919 0.968679 0.965608 0.966580 0.969621 0.968760 0.968127 0.967798 0.966370 0.965822 0.966469 0.967131 0.967584 0.967267 0.965918 0.964163 0.958893 0.949846 0.947285 0.948986 0.950204 0.951706 0.949681 0.949939 0.944644 0.943079 0.947887 0.942716 0.944639 0.942469 0.944440 0.945032 0.941413 0.917572 0.900486 0.899339 0.897777 0.901076 0.900346 0.897656 0.891109 0.892341 0.893380 0.898295 0.895953 0.896307 0.894065 0.894407 0.896450 0.898728 0.902267 0.902217 0.898496 0.890444 0.887979 0.887974 0.889895 0.890561 0.891914 0.889446 0.897149 0.896100 0.891857 0.885885 0.887735 0.886811 0.887471 0.882523 0.883086 0.856115 0.844104 0.838989 0.838342 0.836988 0.824224 0.805251 0.807055 0.802508 0.799323 0.799278 0.798579 0.769328 0.712860 0.699838 0.671362 0.664141 0.648191 0.669761 0.682767 0.671852 0.666720 0.627400 0.618657 0.625608 0.627135 0.615917 0.615423 0.609784 0.587373 0.570510 0.563104 0.572439 0.585655 0.593261 0.561471 0.522722 0.487198 0.440520 0.438173 0.420460 0.398904 0.374940 0.374490 0.385079 0.403763 0.400480 0.382990 0.356137 0.378796 0.377610 0.370718 0.346620 0.369962 0.372099 0.356303 0.375538 0.363100 0.370657 0.326708 0.308738 0.277186 0.242769 0.243002 0.244208 0.259147 0.253219 0.274409 0.306871 0.304891 0.333779 0.289444 0.279859 0.288011 0.295849 0.303546 0.283736 0.253681 0.246228 0.258620 0.253608 0.255287 0.247271 0.230827 0.246848 0.266205 0.260465 0.237357 0.240116 0.207912 0.209739 0.223181 0.241558 0.265294 0.286540 0.283804 0.289309 0.247808 0.249517 0.258558 0.213967 0.233406 0.227601 0.228393 0.157090 0.130767 0.139114 0.132079 0.053975 0.057055 0.068135 0.021457 0.046366 0.046180 0.049513 0.100813 0.114472 0.140203 0.150245 0.136315 0.138139 0.115349 0.097300 0.103211 0.088441 0.082043 0.091133 0.096253 0.085526 0.064682 0.076242 0.081801 0.073543 0.104741 0.092940 0.036940 0.040932 0.040932 0.040932 0.040932 0.040932 0.060384 0.060384 0.060384 0.060384 0.060384 0.060384 0.060384 0.060384 0.028425 0.028425 0.028425 0.028425 0.028425 0.028425 0.028425 0.028425 0.028425 0.028425 0.028425 0.028425 0.028425 0.028425 0.028425
0.000000 0.000000 0.000000 0.000000 0.000000 0.000000 0.000000 0.000000 0.000000 0.000000 0.000000 0.000000 0.000000 0.000000 0.000000 0.000000 0.000000 0.000000 0.000000 0.000000 0.000000 0.000000 0.000000 0.000000 0.000000 0.000000 0.000000 0.000000 0.000000 0.000000 0.000000 0.000000 0.000000 0.000000 0.000000 0.000000 0.000000 0.000000 0.000000 0.000000 0.000000 0.000000 0.000000 0.000000 0.000000 0.000000 0.000000 0.000000 0.000000 0.000000 0.000000 0.000000 0.203069 0.203069 0.203069 0.203069 0.203069 0.203069 0.203069 0.203069 0.203069 0.203069 0.203069 0.203069 0.203069 0.203069 0.203069 0.203069 0.203069 0.203069 0.203069 0.203069 0.203069 0.203069 0.203069 0.203069 0.203069 0.203069 0.203069 0.203069 0.203069 0.203069 0.203069 0.203069 0.203069 0.203069 0.203069 0.203069 0.203069 0.203069 0.237356 0.237356 0.237356 0.237356 0.237356 0.237356 0.237356 0.237356 0.237356 0.237356 0.237356 0.237356 0.237356 0.237356 0.237356 0.237356 0.237356 0.237356 0.237356 0.237356 0.237356 0.237356 0.237356 0.237356 0.237356 0.237356 0.256074 0.256074 0.256074 0.256074 0.256074 0.256074 0.256074 0.256074 0.256074 0.256074 0.256074 0.256074 0.256074 0.256074 0.256074 0.256074 0.256074 0.256074 0.256074 0.256074 0.256074 0.256074 0.256074 0.256074 0.256074 0.256074 0.256074 0.256074 0.256074 0.256074 0.256074 0.256074 0.256074 0.256074 0.256074 0.256074 0.256074 0.256074 0.256074 0.256074 0.269680 0.269680 0.269680 0.269680 0.269680 0.269680 0.269680 0.269680 0.269680 0.269680 0.269680 0.269680 0.269680 0.269680 0.269680 0.269680 0.269680 0.269680 0.269680 0.269680 0.269680 0.269680 0.269680 0.269680 0.269680 0.269680 0.269680 0.269680 0.269680 0.269680 0.269680 0.269680 0.269680 0.269680 0.269680 0.269680 0.269680 0.269680 0.269680 0.269680 0.269680 0.269680 0.269680 0.269680 0.269680 0.274721 0.274721 0.274721 0.274721 0.274721 0.274721 0.274721 0.274721 0.274721 0.274721 0.274721 0.274721 0.274721 0.274721 0.274721 0.274721 0.274721 0.274721 0.274721 0.274721 0.274721 0.274721 0.274721 0.274721 0.274721 0.269680 0.269680 0.269680 0.269680 0.269680 0.269680 0.269680 0.269680 0.269680 0.269680 0.269680 0.269680 0.274721 0.274721 0.274721 0.274721 0.274721 0.274721 0.274721 0.274721 0.274721 0.274721 0.274721 0.280056 0.280056 0.280056 0.280056 0.280056 0.280056 0.280056 0.280056 0.280056 0.280056 0.264906 0.264906 0.264906 0.264906 0.264906 0.264906 0.264906 0.264906 0.264906 0.264906 0.264906 0.280056 0.280056 0.280056 0.280056 0.280056 0.280056 0.280056 0.280056 0.280056 0.264906 0.264906 0.264906 0.264906 0.264906 0.264906 0.264906 0.264906 0.264906 0.264906 0.269680 0.269680 0.269680 0.269680 0.269680 0.269680 0.269680 0.269680 0.269680 0.264906 0.264906 0.264906 0.264906 0.264906 0.264906 0.264906 0.264906 0.264906 0.260378 0.260378 0.260378 0.260378 0.260378 0.260378 0.260378 0.260378 0.260378 0.269680 0.269680 0.269680 0.269680 0.269680 0.269680 0.269680 0.269680 0.269680 0.269680 0.269680 0.269680 0.269680 0.269680 0.269680 0.269680 0.264906 0.264906 0.264906 0.264906 0.264906 0.264906 0.264906 0.264906 0.260378 0.260378 0.260378 0.260378 0.260378 0.260378 0.260378 0.260378 0.256074 0.256074 0.256074 0.256074 0.256074 0.256074 0.256074 0.256074 0.256074 0.256074 0.256074 0.256074 0.256074 0.256074 0.256074
