# Output from CTFFind version 4.1.9, run on 2019-11-02 12:26:21
# Input file: stack11_ub_averaged_50.mrc ; Number of micrographs: 1
# Pixel size: 3.000 Angstroms ; acceleration voltage: 300.0 keV ; spherical aberration: 0.00 mm ; amplitude contrast: 0.07
# Box size: 512 pixels ; min. res.: 30.0 Angstroms ; max. res.: 5.0 Angstroms ; min. def.: 5000.0 um; max. def. 50000.0 um; num. frames averaged: 1
# 6 lines per micrograph: #1 - spatial frequency (1/Angstroms); #2 - 1D rotational average of spectrum (assuming no astigmatism); #3 - 1D rotational average of spectrum; #4 - CTF fit; #5 - cross-correlation between spectrum and CTF fit; #6 - 2sigma of expected cross correlation of noise
0.000000 0.000651 0.001302 0.001953 0.002604 0.003255 0.003906 0.004557 0.005208 0.005859 0.006510 0.007161 0.007812 0.008464 0.009115 0.009766 0.010417 0.011068 0.011719 0.012370 0.013021 0.013672 0.014323 0.014974 0.015625 0.016276 0.016927 0.017578 0.018229 0.018880 0.019531 0.020182 0.020833 0.021484 0.022135 0.022786 0.023438 0.024089 0.024740 0.025391 0.026042 0.026693 0.027344 0.027995 0.028646 0.029297 0.029948 0.030599 0.031250 0.031901 0.032552 0.033203 0.033854 0.034505 0.035156 0.035807 0.036458 0.037109 0.037760 0.038411 0.039062 0.039714 0.040365 0.041016 0.041667 0.042318 0.042969 0.043620 0.044271 0.044922 0.045573 0.046224 0.046875 0.047526 0.048177 0.048828 0.049479 0.050130 0.050781 0.051432 0.052083 0.052734 0.053385 0.054036 0.054688 0.055339 0.055990 0.056641 0.057292 0.057943 0.058594 0.059245 0.059896 0.060547 0.061198 0.061849 0.062500 0.063151 0.063802 0.064453 0.065104 0.065755 0.066406 0.067057 0.067708 0.068359 0.069010 0.069661 0.070312 0.070964 0.071615 0.072266 0.072917 0.073568 0.074219 0.074870 0.075521 0.076172 0.076823 0.077474 0.078125 0.078776 0.079427 0.080078 0.080729 0.081380 0.082031 0.082682 0.083333 0.083984 0.084635 0.085286 0.085938 0.086589 0.087240 0.087891 0.088542 0.089193 0.089844 0.090495 0.091146 0.091797 0.092448 0.093099 0.093750 0.094401 0.095052 0.095703 0.096354 0.097005 0.097656 0.098307 0.098958 0.099609 0.100260 0.100911 0.101562 0.102214 0.102865 0.103516 0.104167 0.104818 0.105469 0.106120 0.106771 0.107422 0.108073 0.108724 0.109375 0.110026 0.110677 0.111328 0.111979 0.112630 0.113281 0.113932 0.114583 0.115234 0.115885 0.116536 0.117188 0.117839 0.118490 0.119141 0.119792 0.120443 0.121094 0.121745 0.122396 0.123047 0.123698 0.124349 0.125000 0.125651 0.126302 0.126953 0.127604 0.128255 0.128906 0.129557 0.130208 0.130859 0.131510 0.132161 0.132812 0.133464 0.134115 0.134766 0.135417 0.136068 0.136719 0.137370 0.138021 0.138672 0.139323 0.139974 0.140625 0.141276 0.141927 0.142578 0.143229 0.143880 0.144531 0.145182 0.145833 0.146484 0.147135 0.147786 0.148438 0.149089 0.149740 0.150391 0.151042 0.151693 0.152344 0.152995 0.153646 0.154297 0.154948 0.155599 0.156250 0.156901 0.157552 0.158203 0.158854 0.159505 0.160156 0.160807 0.161458 0.162109 0.162760 0.163411 0.164062 0.164714 0.165365 0.166016 0.166667 0.167318 0.167969 0.168620 0.169271 0.169922 0.170573 0.171224 0.171875 0.172526 0.173177 0.173828 0.174479 0.175130 0.175781 0.176432 0.177083 0.177734 0.178385 0.179036 0.179688 0.180339 0.180990 0.181641 0.182292 0.182943 0.183594 0.184245 0.184896 0.185547 0.186198 0.186849 0.187500 0.188151 0.188802 0.189453 0.190104 0.190755 0.191406 0.192057 0.192708 0.193359 0.194010 0.194661 0.195312 0.195964 0.196615 0.197266 0.197917 0.198568 0.199219 0.199870 0.200521 0.201172 0.201823 0.202474 0.203125 0.203776 0.204427 0.205078 0.205729 0.206380 0.207031 0.207682 0.208333 0.208984 0.209635 0.210286 0.210938 0.211589 0.212240 0.212891 0.213542 0.214193 0.214844 0.215495 0.216146 0.216797 0.217448 0.218099 0.218750 0.219401 0.220052 0.220703 0.221354 0.222005 0.222656 0.223307 0.223958 0.224609 0.225260 0.225911 0.226562 0.227214 0.227865 0.228516 0.229167 0.229818 0.230469 0.231120 0.231771 0.232422 0.233073 0.233724 0.234375 0.235026 0.235677
       0.31877        0.31877        0.31877        0.31877        0.31877        0.31877        0.31877        0.31877        0.31877        0.31877        0.31877        0.31877        0.31877        0.31877        0.31877        0.31877        0.31877        0.31877        0.31877        0.31877        0.31877        0.31877        0.31877        0.31877        0.31877        0.31877        0.31877        0.31877        0.31877        0.31877        0.31877        0.31877        0.31877        0.31877        0.31877        0.31877        0.31877        0.31877        0.31877        0.31877        0.31877        0.31877        0.31877        0.31877        0.31877        0.31877        0.31877        0.31877        0.31877        0.31877        0.31877        0.68608        0.87041        0.52403        0.09134       -0.05966       -0.42100       -0.20581       -0.29397       -0.11447       -0.07329       -0.11625       -0.06487       -0.20606       -0.23069       -0.25549       -0.32499       -0.33543       -0.48432       -0.37916       -0.46524       -0.44793       -0.41841       -0.46647       -0.54016       -0.55759       -0.58454       -0.62245       -0.57500       -0.41516       -0.37770       -0.32460       -0.31039       -0.21421       -0.19977        0.01932        0.07691        0.11095        0.22856        0.37345        0.44203        0.51349        0.55953        0.55654        0.56768        0.69982        0.81415        0.73788        0.73411        0.66810        0.58257        0.48503        0.41068        0.49543        0.37946        0.21116        0.07779        0.05462        0.01681       -0.05981       -0.03465       -0.01980       -0.06965       -0.00942       -0.01403        0.21362        0.25026        0.28785        0.42968        0.46249        0.40750        0.54236        0.63138        0.70274        0.76247        0.69016        0.65037        0.69792        0.58730        0.50504        0.42104        0.28674        0.18565        0.15649        0.10427        0.04354        0.01566        0.00134        0.07726        0.13145        0.20796        0.28624        0.39943        0.42200        0.51516        0.60789        0.63276        0.62345        0.63205        0.55872        0.44922        0.45098        0.35388        0.23248        0.17687        0.15022        0.11704        0.12077        0.06974        0.10135        0.23266        0.26390        0.34595        0.35602        0.45236        0.51435        0.54027        0.55198        0.47172        0.43655        0.39559        0.36799        0.30670        0.25255        0.20152        0.18947        0.16241        0.18813        0.18059        0.27297        0.33304        0.37164        0.43095        0.46211        0.48061        0.44318        0.39389        0.42126        0.37192        0.28980        0.26972        0.22427        0.21610        0.19587        0.21842        0.23196        0.32977        0.37601        0.36841        0.46026        0.44155        0.43804        0.43342        0.39757        0.34605        0.32722        0.27537        0.24386        0.23963        0.27378        0.27228        0.30313        0.30740        0.34116        0.32955        0.40995        0.42240        0.37644        0.34641        0.37275        0.28280        0.28213        0.26137        0.28454        0.26375        0.27705        0.28723        0.31019        0.35263        0.36555        0.36292        0.33912        0.35507        0.28332        0.31705        0.26695        0.24785        0.29097        0.28081        0.31022        0.31107        0.33283        0.33472        0.31604        0.31482        0.28625        0.29495        0.26846        0.27942        0.25776        0.30856        0.28548        0.27115        0.30765        0.31554        0.32661        0.28782        0.30472        0.29033        0.25237        0.24504        0.22467        0.28268        0.27508        0.32153        0.31634        0.31867        0.31852        0.31222        0.27845        0.28999        0.33004        0.27243        0.26302        0.29848        0.29341        0.33441        0.33185        0.35615        0.33219        0.31070        0.28095        0.26904        0.25938        0.22924        0.27755        0.30407        0.29536        0.28339        0.29575        0.27864        0.32582        0.31665        0.24925        0.21847        0.27975        0.32990        0.27669        0.31228        0.32546        0.32633        0.31120        0.32387        0.34235        0.30739        0.29915        0.26435        0.28661        0.35936        0.35429        0.26221        0.26660        0.25633        0.29231        0.22359        0.29082        0.22410        0.25090        0.32831        0.32307        0.34382        0.29684        0.24770        0.24426        0.24638        0.23970        0.19795        0.23145        0.26222        0.30852        0.26640        0.30919        0.31206        0.28136        0.27044        0.21290        0.17076        0.19228        0.23571        0.21175        0.21010        0.23156        0.19896        0.23541        0.33738        0.30740        0.32049        0.24028        0.23434        0.22591        0.29448        0.30619        0.13385        0.20263        0.22446        0.11971        0.20847        0.11304        0.14764        0.16904        0.07678       -0.10883       -0.53714
2.604124 2.576838 2.549700 2.522710 2.495868 2.469175 2.442631 2.416234 2.389986 2.363886 2.337935 2.312132 2.286477 2.260971 2.235613 2.210403 2.185342 2.160429 2.135664 2.111048 2.086580 2.062261 2.038089 2.014067 1.990192 1.966466 1.942888 1.919459 1.896178 1.873045 1.850060 1.827224 1.804537 1.781997 1.759606 1.737364 1.715269 1.693323 1.671526 1.649876 1.628376 1.607023 1.585819 1.564763 1.543855 1.523096 1.502485 1.482023 1.461709 1.441543 1.421526 1.642270 2.049512 1.622034 1.137175 0.992967 0.428612 0.813182 0.567472 0.837115 0.778912 0.791896 0.756225 0.710150 0.568521 0.518564 0.490114 0.445608 0.210120 0.384835 0.202276 0.304928 0.241601 0.182077 0.131835 0.010021 0.043198 -0.015040 -0.056025 0.103936 0.206730 0.196987 0.159085 0.325913 0.195352 0.493106 0.580487 0.553150 0.596181 0.875334 0.808290 0.940745 0.886573 0.972149 0.941676 1.076515 1.140710 1.067080 1.124003 0.945363 0.944039 0.779652 0.651930 0.769408 0.706044 0.467280 0.306432 0.251325 0.219081 0.146267 0.087611 0.127234 0.069456 0.140873 0.056120 0.259755 0.375873 0.348597 0.475889 0.574832 0.462731 0.552211 0.696699 0.744708 0.776888 0.728015 0.717389 0.707895 0.625498 0.568069 0.423184 0.283598 0.197524 0.073478 0.122988 -0.049408 -0.028019 -0.083443 -0.043231 -0.001226 0.140804 0.091201 0.293383 0.277924 0.362530 0.459408 0.518417 0.510957 0.514092 0.509132 0.330939 0.306874 0.276019 0.101313 0.041019 -0.017125 -0.026084 -0.044579 -0.096121 -0.110063 -0.010238 0.058900 0.126949 0.142977 0.225655 0.327810 0.308224 0.420897 0.392490 0.279059 0.235761 0.243675 0.194457 0.105876 0.070222 0.012368 0.003759 -0.001807 -0.023203 0.063074 0.143159 0.143706 0.232826 0.253122 0.304831 0.255334 0.219288 0.191828 0.210736 0.142729 0.044415 0.034800 -0.008934 -0.010083 -0.031761 0.020976 0.015111 0.171508 0.129605 0.176763 0.240228 0.196886 0.185481 0.200885 0.138954 0.098131 0.059633 0.044264 -0.032309 0.005923 0.025746 0.051723 0.051597 0.083102 0.093828 0.120643 0.140009 0.193402 0.081214 0.101239 0.077348 0.005659 0.007789 0.008038 0.002265 0.020452 -0.000503 0.023439 0.069872 0.084681 0.128965 0.053190 0.109969 0.055296 0.008269 0.059160 -0.035572 -0.008315 0.030422 -0.003117 0.060480 0.048621 0.056706 0.069658 0.052512 0.042185 0.022696 0.010804 0.014701 0.004711 -0.017390 0.072910 -0.012038 0.014911 0.054964 0.055049 0.043823 0.045355 0.041182 0.016895 -0.013168 -0.041530 -0.009837 0.020941 0.024894 0.073033 0.058408 0.061552 0.079182 0.068036 0.030042 0.067250 0.085732 0.018903 0.018756 0.065793 0.047984 0.095203 0.107479 0.096565 0.113832 0.064201 0.033710 0.030393 -0.000895 -0.000864 0.051646 0.073428 0.038689 0.034117 0.031810 0.024974 0.087811 0.044961 -0.049400 -0.050262 0.031480 0.086306 0.005228 0.025463 0.067095 0.076798 0.038423 0.050919 0.080940 0.040049 0.043815 -0.038844 0.023325 0.115774 0.067266 -0.053649 -0.027684 -0.048921 0.038378 -0.111285 0.029787 -0.101229 -0.033246 0.046474 0.039761 0.023372 -0.037690 -0.052852 -0.072102 -0.077391 -0.059032 -0.096364 -0.093098 -0.030053 0.045550 -0.029426 0.053955 0.008275 -0.033058 0.047947 -0.093943 -0.093168 -0.078620 0.005644 -0.026875 -0.048691 0.024017 0.002560 0.011623 0.201122 0.007214 0.177154 0.054693 0.238330 0.249014 0.334522 0.290373 0.098653 0.205070 0.266387 0.054932 0.228653 0.119320 0.119833 0.237677 0.077790 -0.556496
0.072396 0.072899 0.074406 0.076918 0.080433 0.084952 0.090472 0.096992 0.104511 0.113024 0.122530 0.133023 0.144498 0.156948 0.170367 0.184745 0.200070 0.216331 0.233511 0.251594 0.270560 0.290386 0.311046 0.332510 0.354746 0.377715 0.401378 0.425688 0.450593 0.476040 0.501965 0.528303 0.554980 0.581918 0.609032 0.636229 0.663412 0.690476 0.717308 0.743790 0.769796 0.795195 0.819847 0.843607 0.866324 0.887841 0.907996 0.926623 0.943550 0.958604 0.971607 0.982383 0.990754 0.996541 0.999571 0.999672 0.996677 0.990428 0.980774 0.967574 0.950702 0.930045 0.905505 0.877006 0.844491 0.807927 0.767305 0.722648 0.674002 0.621452 0.565111 0.505131 0.441699 0.375042 0.305426 0.233155 0.158576 0.082077 0.004082 0.074943 0.154494 0.234035 0.312993 0.390770 0.466740 0.540256 0.610656 0.677269 0.739420 0.796436 0.847659 0.892448 0.930192 0.960317 0.982296 0.995657 0.999996 0.994982 0.980372 0.956012 0.921854 0.877956 0.824493 0.761763 0.690185 0.610311 0.522819 0.428514 0.328328 0.223311 0.114628 0.003543 0.108587 0.220332 0.330199 0.436659 0.538164 0.633169 0.720158 0.797674 0.864339 0.918886 0.960186 0.987275 0.999378 0.995937 0.976627 0.941383 0.890408 0.824189 0.743498 0.649402 0.543248 0.426660 0.301519 0.169937 0.034233 0.103111 0.239486 0.372207 0.498565 0.615885 0.721579 0.813218 0.888583 0.945733 0.983055 0.999325 0.993748 0.966003 0.916268 0.845244 0.754159 0.644766 0.519320 0.380543 0.231584 0.075946 0.082580 0.240010 0.392257 0.535247 0.665023 0.777861 0.870390 0.939696 0.983429 0.999894 0.988130 0.947968 0.880068 0.785939 0.667923 0.529157 0.373512 0.205495 0.030136 0.147162 0.320770 0.485029 0.634417 0.763764 0.868416 0.944439 0.988767 0.999357 0.975287 0.916844 0.825553 0.704170 0.556626 0.387921 0.203982 0.011465 0.182474 0.370433 0.545056 0.699321 0.826827 0.922090 0.980788 0.999984 0.978299 0.916024 0.815163 0.679413 0.514054 0.325782 0.122459 0.087201 0.293992 0.488610 0.662085 0.806204 0.913915 0.979698 0.999883 0.972879 0.899323 0.782121 0.626380 0.439220 0.229488 0.007365 0.216111 0.429582 0.621956 0.782988 0.903847 0.977636 0.999813 0.968515 0.884743 0.752389 0.578111 0.371045 0.142364 0.095297 0.328525 0.543877 0.728661 0.871713 0.964096 0.999701 0.975700 0.892808 0.755345 0.571072 0.350811 0.107844 0.142846 0.385488 0.604502 0.785531 0.916393 0.987951 0.994798 0.935725 0.813913 0.636846 0.415901 0.165692 0.096870 0.353691 0.586725 0.779280 0.917212 0.990041 0.991784 0.921523 0.783603 0.587443 0.346967 0.079688 0.194552 0.455008 0.681616 0.856559 0.965711 0.999838 0.955455 0.835243 0.647988 0.408033 0.134243 0.151421 0.425639 0.665633 0.851069 0.965850 0.999562 0.948509 0.816188 0.613169 0.356335 0.067561 0.228102 0.504563 0.737004 0.904152 0.990267 0.986722 0.892956 0.716715 0.473516 0.185391 0.121048 0.417024 0.674286 0.867838 0.978422 0.994520 0.913661 0.742860 0.498143 0.203149 0.113075 0.418886 0.683190 0.878655 0.984580 0.989202 0.891103 0.699593 0.433954 0.121613 0.204595 0.509863 0.761098 0.930580 0.999084 0.958187 0.811423 0.574149 0.272062 0.061458 0.388995 0.673246 0.881320 0.988608 0.981817 0.860743 0.638572 0.340590 0.001441 0.338827 0.639454 0.863875 0.984244 0.985005 0.865054 0.638157 0.331542 0.017233 0.364794 0.667315 0.886068 0.992469 0.971952 0.826111 0.572827 0.244220 0.117249
1.000000 1.000000 1.000000 1.000000 1.000000 1.000000 1.000000 1.000000 1.000000 1.000000 1.000000 1.000000 1.000000 1.000000 1.000000 1.000000 1.000000 1.000000 1.000000 1.000000 1.000000 1.000000 1.000000 1.000000 1.000000 1.000000 1.000000 1.000000 1.000000 1.000000 1.000000 1.000000 1.000000 1.000000 1.000000 1.000000 1.000000 1.000000 1.000000 1.000000 1.000000 1.000000 1.000000 1.000000 1.000000 1.000000 1.000000 1.000000 1.000000 1.000000 1.000000 1.000000 0.931728 0.931728 0.931728 0.922140 0.922140 0.922140 0.922140 0.922140 0.922140 0.922140 0.922140 0.922140 0.922140 0.922140 0.922140 0.922140 0.922140 0.922140 0.922140 0.922140 0.922140 0.922140 0.922140 0.922140 0.922140 0.922140 0.922140 0.922140 0.922140 0.922140 0.922140 0.922140 0.922140 0.922140 0.922140 0.922140 0.922140 0.922140 0.922140 0.922140 0.922140 0.922140 0.922140 0.922140 0.947406 0.948680 0.956593 0.956424 0.955899 0.953769 0.952814 0.951679 0.951214 0.951504 0.952143 0.953022 0.964787 0.965822 0.967375 0.968202 0.968921 0.969573 0.969409 0.970137 0.969357 0.968805 0.968299 0.964350 0.964960 0.965527 0.965655 0.966688 0.966571 0.968587 0.968743 0.968148 0.967270 0.966531 0.965818 0.965396 0.965119 0.965622 0.965914 0.967215 0.970385 0.969821 0.969515 0.969674 0.969776 0.969959 0.970395 0.972083 0.968381 0.969014 0.967380 0.967833 0.969404 0.969284 0.969062 0.970418 0.970773 0.971146 0.969654 0.965615 0.960597 0.959524 0.956546 0.947399 0.945357 0.946089 0.948190 0.948515 0.947393 0.939895 0.940508 0.934451 0.935756 0.939035 0.934053 0.933399 0.934500 0.933414 0.931540 0.930994 0.928121 0.924757 0.922876 0.922808 0.925805 0.926628 0.927783 0.927402 0.921556 0.913528 0.899718 0.896837 0.890903 0.894121 0.882007 0.881483 0.881430 0.876827 0.880504 0.882302 0.883353 0.879346 0.858598 0.835370 0.826460 0.830349 0.836123 0.832426 0.831309 0.824486 0.836722 0.820577 0.833495 0.837355 0.835534 0.835527 0.834592 0.830915 0.825264 0.825054 0.826853 0.828239 0.827505 0.828509 0.823945 0.813961 0.817109 0.753461 0.740761 0.736847 0.742613 0.748736 0.750998 0.750211 0.757467 0.762239 0.751705 0.735655 0.728709 0.720624 0.725871 0.729594 0.733468 0.723496 0.701862 0.694408 0.656576 0.673868 0.697530 0.651724 0.676418 0.688089 0.681639 0.680070 0.672742 0.666236 0.659679 0.662892 0.675247 0.693799 0.713688 0.739384 0.736033 0.727144 0.724282 0.709003 0.704286 0.700652 0.707663 0.690273 0.687198 0.705214 0.705823 0.692234 0.671747 0.657593 0.649054 0.646885 0.651762 0.644576 0.642206 0.624607 0.595102 0.585820 0.621895 0.636497 0.654651 0.628311 0.614553 0.603919 0.575870 0.590038 0.535791 0.535900 0.558947 0.566233 0.542805 0.531832 0.541247 0.555053 0.560517 0.551721 0.524422 0.510172 0.522853 0.552362 0.543985 0.520456 0.527902 0.525223 0.518479 0.449636 0.447744 0.417908 0.387344 0.342586 0.318384 0.312292 0.295129 0.288426 0.255780 0.252199 0.265195 0.273557 0.277575 0.277383 0.257821 0.270492 0.268141 0.254884 0.194607 0.185063 0.177896 0.166910 0.166701 0.148016 0.169315 0.226989 0.228684 0.228684 0.228684 0.228684 0.228684 0.228684 0.237860 0.237860 0.237860 0.237860 0.237860 0.237860 0.237860 0.237860 0.237860 0.247774 0.247774 0.247774 0.247774 0.247774 0.247774 0.247774 0.247774 0.247774 0.247774 0.247774 0.247774 0.247774 0.247774
0.000000 0.000000 0.000000 0.000000 0.000000 0.000000 0.000000 0.000000 0.000000 0.000000 0.000000 0.000000 0.000000 0.000000 0.000000 0.000000 0.000000 0.000000 0.000000 0.000000 0.000000 0.000000 0.000000 0.000000 0.000000 0.000000 0.000000 0.000000 0.000000 0.000000 0.000000 0.000000 0.000000 0.000000 0.000000 0.000000 0.000000 0.000000 0.000000 0.000000 0.000000 0.000000 0.000000 0.000000 0.000000 0.000000 0.000000 0.000000 0.000000 0.000000 0.000000 0.000000 0.180334 0.180334 0.180334 0.199007 0.199007 0.199007 0.199007 0.199007 0.199007 0.199007 0.199007 0.199007 0.199007 0.199007 0.199007 0.199007 0.199007 0.199007 0.199007 0.199007 0.199007 0.199007 0.199007 0.199007 0.199007 0.199007 0.199007 0.199007 0.199007 0.199007 0.199007 0.199007 0.199007 0.199007 0.199007 0.199007 0.199007 0.199007 0.199007 0.199007 0.199007 0.199007 0.199007 0.199007 0.225018 0.225018 0.225018 0.225018 0.225018 0.225018 0.225018 0.225018 0.225018 0.225018 0.225018 0.225018 0.225018 0.225018 0.225018 0.225018 0.225018 0.225018 0.225018 0.225018 0.225018 0.225018 0.225018 0.225018 0.225018 0.225018 0.225018 0.225018 0.225018 0.244339 0.244339 0.244339 0.244339 0.244339 0.244339 0.244339 0.244339 0.244339 0.244339 0.244339 0.244339 0.244339 0.244339 0.244339 0.244339 0.244339 0.244339 0.244339 0.244339 0.244339 0.244339 0.244339 0.251976 0.251976 0.251976 0.251976 0.251976 0.251976 0.251976 0.251976 0.251976 0.251976 0.251976 0.251976 0.251976 0.251976 0.251976 0.251976 0.251976 0.251976 0.251976 0.251976 0.264906 0.264906 0.264906 0.264906 0.264906 0.264906 0.264906 0.264906 0.264906 0.264906 0.264906 0.264906 0.264906 0.264906 0.264906 0.264906 0.264906 0.264906 0.264906 0.264906 0.264906 0.264906 0.264906 0.264906 0.264906 0.264906 0.264906 0.264906 0.264906 0.264906 0.264906 0.264906 0.264906 0.264906 0.264906 0.264906 0.264906 0.264906 0.264906 0.264906 0.264906 0.264906 0.264906 0.264906 0.264906 0.264906 0.264906 0.264906 0.264906 0.264906 0.264906 0.264906 0.264906 0.264906 0.264906 0.264906 0.264906 0.264906 0.264906 0.264906 0.264906 0.264906 0.256074 0.256074 0.256074 0.256074 0.256074 0.256074 0.256074 0.256074 0.256074 0.256074 0.256074 0.256074 0.256074 0.256074 0.269680 0.269680 0.269680 0.269680 0.269680 0.269680 0.269680 0.269680 0.269680 0.269680 0.269680 0.269680 0.264906 0.264906 0.264906 0.264906 0.264906 0.264906 0.264906 0.264906 0.264906 0.264906 0.264906 0.264906 0.269680 0.269680 0.269680 0.269680 0.269680 0.269680 0.269680 0.269680 0.269680 0.269680 0.269680 0.264906 0.264906 0.264906 0.264906 0.264906 0.264906 0.264906 0.264906 0.264906 0.264906 0.264906 0.256074 0.256074 0.256074 0.256074 0.256074 0.256074 0.256074 0.256074 0.256074 0.256074 0.256074 0.264906 0.264906 0.264906 0.264906 0.264906 0.264906 0.264906 0.264906 0.264906 0.264906 0.260378 0.260378 0.260378 0.260378 0.260378 0.260378 0.260378 0.260378 0.260378 0.260378 0.256074 0.256074 0.256074 0.256074 0.256074 0.256074 0.256074 0.256074 0.256074 0.256074 0.260378 0.260378 0.260378 0.260378 0.260378 0.260378 0.260378 0.260378 0.260378 0.256074 0.256074 0.256074 0.256074 0.256074 0.256074 0.256074 0.256074 0.256074 0.251976 0.251976 0.251976 0.251976 0.251976 0.251976 0.251976 0.251976 0.251976 0.251976 0.251976 0.251976 0.251976 0.251976
