# Output from CTFFind version 4.1.9, run on 2019-11-02 12:26:08
# Input file: stack6_ub_averaged_2000.mrc ; Number of micrographs: 1
# Pixel size: 3.000 Angstroms ; acceleration voltage: 300.0 keV ; spherical aberration: 0.00 mm ; amplitude contrast: 0.07
# Box size: 512 pixels ; min. res.: 30.0 Angstroms ; max. res.: 5.0 Angstroms ; min. def.: 5000.0 um; max. def. 50000.0 um; num. frames averaged: 1
# 6 lines per micrograph: #1 - spatial frequency (1/Angstroms); #2 - 1D rotational average of spectrum (assuming no astigmatism); #3 - 1D rotational average of spectrum; #4 - CTF fit; #5 - cross-correlation between spectrum and CTF fit; #6 - 2sigma of expected cross correlation of noise
0.000000 0.000651 0.001302 0.001953 0.002604 0.003255 0.003906 0.004557 0.005208 0.005859 0.006510 0.007161 0.007812 0.008464 0.009115 0.009766 0.010417 0.011068 0.011719 0.012370 0.013021 0.013672 0.014323 0.014974 0.015625 0.016276 0.016927 0.017578 0.018229 0.018880 0.019531 0.020182 0.020833 0.021484 0.022135 0.022786 0.023438 0.024089 0.024740 0.025391 0.026042 0.026693 0.027344 0.027995 0.028646 0.029297 0.029948 0.030599 0.031250 0.031901 0.032552 0.033203 0.033854 0.034505 0.035156 0.035807 0.036458 0.037109 0.037760 0.038411 0.039062 0.039714 0.040365 0.041016 0.041667 0.042318 0.042969 0.043620 0.044271 0.044922 0.045573 0.046224 0.046875 0.047526 0.048177 0.048828 0.049479 0.050130 0.050781 0.051432 0.052083 0.052734 0.053385 0.054036 0.054688 0.055339 0.055990 0.056641 0.057292 0.057943 0.058594 0.059245 0.059896 0.060547 0.061198 0.061849 0.062500 0.063151 0.063802 0.064453 0.065104 0.065755 0.066406 0.067057 0.067708 0.068359 0.069010 0.069661 0.070312 0.070964 0.071615 0.072266 0.072917 0.073568 0.074219 0.074870 0.075521 0.076172 0.076823 0.077474 0.078125 0.078776 0.079427 0.080078 0.080729 0.081380 0.082031 0.082682 0.083333 0.083984 0.084635 0.085286 0.085938 0.086589 0.087240 0.087891 0.088542 0.089193 0.089844 0.090495 0.091146 0.091797 0.092448 0.093099 0.093750 0.094401 0.095052 0.095703 0.096354 0.097005 0.097656 0.098307 0.098958 0.099609 0.100260 0.100911 0.101562 0.102214 0.102865 0.103516 0.104167 0.104818 0.105469 0.106120 0.106771 0.107422 0.108073 0.108724 0.109375 0.110026 0.110677 0.111328 0.111979 0.112630 0.113281 0.113932 0.114583 0.115234 0.115885 0.116536 0.117188 0.117839 0.118490 0.119141 0.119792 0.120443 0.121094 0.121745 0.122396 0.123047 0.123698 0.124349 0.125000 0.125651 0.126302 0.126953 0.127604 0.128255 0.128906 0.129557 0.130208 0.130859 0.131510 0.132161 0.132812 0.133464 0.134115 0.134766 0.135417 0.136068 0.136719 0.137370 0.138021 0.138672 0.139323 0.139974 0.140625 0.141276 0.141927 0.142578 0.143229 0.143880 0.144531 0.145182 0.145833 0.146484 0.147135 0.147786 0.148438 0.149089 0.149740 0.150391 0.151042 0.151693 0.152344 0.152995 0.153646 0.154297 0.154948 0.155599 0.156250 0.156901 0.157552 0.158203 0.158854 0.159505 0.160156 0.160807 0.161458 0.162109 0.162760 0.163411 0.164062 0.164714 0.165365 0.166016 0.166667 0.167318 0.167969 0.168620 0.169271 0.169922 0.170573 0.171224 0.171875 0.172526 0.173177 0.173828 0.174479 0.175130 0.175781 0.176432 0.177083 0.177734 0.178385 0.179036 0.179688 0.180339 0.180990 0.181641 0.182292 0.182943 0.183594 0.184245 0.184896 0.185547 0.186198 0.186849 0.187500 0.188151 0.188802 0.189453 0.190104 0.190755 0.191406 0.192057 0.192708 0.193359 0.194010 0.194661 0.195312 0.195964 0.196615 0.197266 0.197917 0.198568 0.199219 0.199870 0.200521 0.201172 0.201823 0.202474 0.203125 0.203776 0.204427 0.205078 0.205729 0.206380 0.207031 0.207682 0.208333 0.208984 0.209635 0.210286 0.210938 0.211589 0.212240 0.212891 0.213542 0.214193 0.214844 0.215495 0.216146 0.216797 0.217448 0.218099 0.218750 0.219401 0.220052 0.220703 0.221354 0.222005 0.222656 0.223307 0.223958 0.224609 0.225260 0.225911 0.226562 0.227214 0.227865 0.228516 0.229167 0.229818 0.230469 0.231120 0.231771 0.232422 0.233073 0.233724 0.234375 0.235026 0.235677
       0.31359        0.31359        0.31359        0.31359        0.31359        0.31359        0.31359        0.31359        0.31359        0.31359        0.31359        0.31359        0.31359        0.31359        0.31359        0.31359        0.31359        0.31359        0.31359        0.31359        0.31359        0.31359        0.31359        0.31359        0.31359        0.31359        0.31359        0.31359        0.31359        0.31359        0.31359        0.31359        0.31359        0.31359        0.31359        0.31359        0.31359        0.31359        0.31359        0.31359        0.31359        0.31359        0.31359        0.31359        0.31359        0.31359        0.31359        0.31359        0.31359        0.31359        0.31359        0.63762        0.82303        0.41846        0.31411        0.19211       -0.10329        0.11370       -0.00138        0.03609        0.11994        0.33820        0.42732        0.41027        0.22692       -0.00905        0.04930        0.07335       -0.16313       -0.17617       -0.08658       -0.10528       -0.29059       -0.18579       -0.30083       -0.25421       -0.28271       -0.39792       -0.47484       -0.47750       -0.41978       -0.33593       -0.43842       -0.36639       -0.40570       -0.34677       -0.27212       -0.19701       -0.19114       -0.13357       -0.09418        0.03719        0.08635        0.25020        0.28167        0.37226        0.40358        0.52029        0.58988        0.60754        0.74384        0.70208        0.74221        0.65024        0.66801        0.70008        0.63558        0.61659        0.61062        0.43834        0.40217        0.36217        0.32535        0.22372        0.13636        0.06154        0.06101       -0.00067       -0.07772       -0.03190       -0.03017       -0.06731        0.06310        0.16687        0.25615        0.32371        0.33911        0.43461        0.54894        0.59335        0.54636        0.66964        0.56699        0.54625        0.59970        0.64499        0.53354        0.46058        0.40994        0.37583        0.25225        0.21800        0.13234        0.11742        0.05796        0.06291        0.11305        0.17127        0.14696        0.18027        0.21876        0.24217        0.33683        0.46097        0.49733        0.50017        0.52371        0.57857        0.57027        0.52523        0.42746        0.38701        0.36873        0.27219        0.25008        0.21946        0.20825        0.20788        0.18620        0.16075        0.12582        0.19344        0.25264        0.35107        0.38545        0.40648        0.46381        0.53844        0.47966        0.48389        0.42200        0.40243        0.38503        0.36535        0.29185        0.26118        0.20325        0.23494        0.21936        0.19354        0.21821        0.22469        0.24440        0.29938        0.40326        0.40426        0.37192        0.39247        0.45787        0.48670        0.42809        0.35582        0.32904        0.28448        0.26349        0.24684        0.21287        0.28689        0.29471        0.29679        0.31839        0.31275        0.35247        0.37278        0.37494        0.37656        0.35824        0.32058        0.33772        0.31957        0.30057        0.28102        0.27308        0.22012        0.27480        0.27522        0.30507        0.32429        0.34681        0.37782        0.34244        0.32278        0.36004        0.37161        0.27059        0.29817        0.30643        0.24512        0.21377        0.25969        0.27130        0.27810        0.30118        0.30718        0.33669        0.33741        0.36546        0.32987        0.32513        0.31141        0.29491        0.27636        0.25137        0.25610        0.25924        0.27526        0.29998        0.29612        0.30348        0.31597        0.32831        0.26535        0.30739        0.27081        0.26613        0.28125        0.26594        0.26272        0.26814        0.31338        0.28812        0.32089        0.28799        0.27633        0.30680        0.31124        0.33153        0.31653        0.29467        0.25735        0.27251        0.27726        0.26926        0.31293        0.31729        0.34166        0.32271        0.30624        0.26370        0.28214        0.21165        0.20826        0.23956        0.26065        0.25452        0.29149        0.31020        0.29487        0.34862        0.31354        0.26927        0.23907        0.23784        0.28693        0.30987        0.30628        0.26751        0.27864        0.25750        0.32566        0.28819        0.25308        0.26965        0.25600        0.29239        0.25239        0.29144        0.32945        0.28714        0.21992        0.23263        0.28512        0.32551        0.28052        0.26850        0.24628        0.27600        0.29086        0.37466        0.29803        0.28342        0.25492        0.26746        0.22628        0.17661        0.25417        0.23520        0.21148        0.19370        0.19737        0.23689        0.23045        0.24176        0.19119        0.25140        0.22583        0.20467        0.17809        0.17293        0.19932        0.23834        0.15208        0.06904        0.18928        0.20664        0.16050        0.25152        0.14558        0.21422        0.22296       -0.07032       -0.45650       -0.90459
2.863378 2.835210 2.807187 2.779309 2.751576 2.723988 2.696544 2.669246 2.642092 2.615083 2.588219 2.561500 2.534926 2.508497 2.482212 2.456073 2.430078 2.404228 2.378523 2.352963 2.327548 2.302277 2.277152 2.252171 2.227336 2.202645 2.178099 2.153698 2.129441 2.105330 2.081363 2.057542 2.033865 2.010333 1.986946 1.963704 1.940606 1.917654 1.894846 1.872184 1.849666 1.827293 1.805065 1.782982 1.761043 1.739250 1.717601 1.696097 1.674738 1.653524 1.632455 1.930636 2.291034 1.707312 1.750026 1.388568 0.949236 1.205122 1.024799 1.078155 1.036638 1.498925 1.527314 1.554744 1.285759 0.947610 0.827901 1.013903 0.722637 0.496232 0.586635 0.682303 0.422378 0.491268 0.324912 0.371647 0.246792 0.164598 -0.038867 -0.001653 0.024552 0.080033 0.037158 0.070633 -0.038686 0.026336 0.113302 0.226216 0.288936 0.208402 0.318025 0.549565 0.454560 0.729614 0.791535 0.884247 0.913291 1.124810 1.146186 1.178272 1.336780 1.242782 1.381760 1.187018 1.121495 1.305318 1.151014 1.058832 1.131304 0.893836 0.748595 0.685047 0.676970 0.459636 0.399778 0.258390 0.232988 0.088252 -0.010037 0.084720 0.025245 -0.064511 0.114139 0.252926 0.306500 0.468762 0.490174 0.562019 0.726538 0.825229 0.667551 0.961090 0.800766 0.672271 0.770874 0.810270 0.715175 0.641824 0.452002 0.502245 0.280797 0.197173 0.140509 0.004215 -0.019818 -0.102699 -0.013679 0.026266 0.094424 -0.054546 0.250407 0.096278 0.211916 0.382215 0.444360 0.533321 0.442224 0.578929 0.625411 0.520339 0.393112 0.336027 0.324894 0.154486 0.129433 0.020089 0.088687 0.035813 -0.001825 -0.022210 -0.126100 -0.011827 0.022323 0.112776 0.296675 0.200830 0.355081 0.372566 0.427839 0.433134 0.371981 0.325337 0.228881 0.304080 0.165964 0.154628 0.010566 0.044230 0.063578 -0.027500 -0.012966 0.013163 0.056316 0.073364 0.209152 0.309772 0.240739 0.208943 0.377659 0.410439 0.351131 0.242008 0.177378 0.153961 0.081770 0.076209 0.018196 0.019493 0.137211 0.050724 0.189791 0.088450 0.143927 0.233746 0.209585 0.223898 0.210350 0.196607 0.123850 0.163667 0.122598 0.095568 0.107152 0.000160 0.032318 0.088931 0.049796 0.149380 0.124833 0.209528 0.207075 0.136462 0.129416 0.231027 0.119429 0.076282 0.087029 0.054755 -0.000153 -0.028320 0.039598 0.069390 0.027612 0.115119 0.108433 0.125817 0.125847 0.180681 0.114709 0.078954 0.098030 0.080210 0.016924 0.013307 0.028690 -0.005843 0.065041 0.099811 0.057779 0.068427 0.141617 0.084303 0.013489 0.113293 0.023414 0.033778 0.063616 0.019391 0.014898 0.058557 0.086969 0.034585 0.112166 0.050777 0.027884 0.122426 0.072421 0.095037 0.092029 0.028014 -0.003033 0.011463 0.052606 0.024106 0.060442 0.103336 0.104808 0.055824 0.134118 0.001143 0.029768 -0.088240 -0.014543 -0.046952 0.014825 0.018926 0.043276 0.068836 0.080804 0.119460 0.025440 -0.003478 -0.054481 -0.073536 0.070579 0.048732 0.059541 -0.015616 0.002517 -0.033859 0.070882 0.028491 -0.057349 -0.011070 -0.068104 0.033361 -0.040298 0.034363 0.067568 -0.010911 -0.068111 -0.051988 0.111869 0.048443 0.019480 0.003647 -0.045304 0.071105 0.071963 0.174870 0.055822 0.023835 0.031370 0.072437 -0.052205 -0.049763 0.059249 0.031376 -0.016410 -0.031173 -0.038206 0.094222 -0.045125 0.081935 0.000158 0.122884 -0.010554 0.055931 -0.086931 -0.007890 -0.034101 0.114354 -0.028598 -0.133623 0.260798 0.306561 0.227894 0.425420 0.168438 0.281921 0.396198 -0.097623 -1.272626
0.072396 0.072834 0.074148 0.076338 0.079402 0.083341 0.088154 0.093840 0.100396 0.107821 0.116112 0.125267 0.135281 0.146150 0.157869 0.170432 0.183830 0.198055 0.213097 0.228943 0.245581 0.262994 0.281165 0.300073 0.319696 0.340010 0.360985 0.382591 0.404793 0.427552 0.450828 0.474575 0.498743 0.523277 0.548120 0.573209 0.598475 0.623846 0.649244 0.674586 0.699785 0.724748 0.749375 0.773563 0.797205 0.820186 0.842387 0.863687 0.883957 0.903066 0.920880 0.937260 0.952065 0.965153 0.976380 0.985600 0.992668 0.997442 0.999779 0.999540 0.996591 0.990802 0.982051 0.970224 0.955214 0.936926 0.915280 0.890205 0.861649 0.829576 0.793966 0.754824 0.712172 0.666058 0.616552 0.563753 0.507785 0.448800 0.386980 0.322536 0.255711 0.186777 0.116037 0.043825 0.029494 0.103529 0.177858 0.252034 0.325587 0.398024 0.468834 0.537488 0.603449 0.666170 0.725102 0.779697 0.829415 0.873728 0.912129 0.944135 0.969296 0.987199 0.997479 0.999820 0.993967 0.979731 0.956993 0.925712 0.885931 0.837779 0.781477 0.717340 0.645782 0.567313 0.482540 0.392168 0.296994 0.197907 0.095875 0.008056 0.112772 0.217105 0.319840 0.419734 0.515526 0.605958 0.689788 0.765810 0.832876 0.889908 0.935928 0.970066 0.991588 0.999910 0.994615 0.975468 0.942431 0.895672 0.835573 0.762734 0.677978 0.582343 0.477080 0.363639 0.243658 0.118939 0.008571 0.136811 0.263637 0.386853 0.504258 0.613675 0.713000 0.800248 0.873588 0.931394 0.972282 0.995149 0.999209 0.984022 0.949522 0.896029 0.824262 0.735345 0.630792 0.512500 0.382717 0.244010 0.099220 0.048590 0.196199 0.340295 0.477544 0.604680 0.718573 0.816320 0.895321 0.953358 0.988662 0.999982 0.986630 0.948530 0.886233 0.800938 0.694477 0.569294 0.428401 0.275318 0.113992 0.051297 0.216040 0.375625 0.525468 0.661141 0.778510 0.873875 0.944090 0.986682 0.999949 0.983043 0.936024 0.859892 0.756590 0.628970 0.480736 0.316351 0.140921 0.039967 0.220399 0.394338 0.555822 0.699168 0.819188 0.911383 0.972129 0.998836 0.990073 0.945663 0.866724 0.755678 0.616195 0.453099 0.272215 0.080187 0.115765 0.308108 0.489275 0.651980 0.789508 0.896008 0.966767 0.998428 0.989179 0.938876 0.849093 0.723119 0.565854 0.383655 0.184099 0.024317 0.232523 0.431272 0.611544 0.764972 0.884239 0.963453 0.998457 0.987078 0.929290 0.827269 0.685357 0.509910 0.309044 0.092287 0.129862 0.346424 0.546485 0.719751 0.857096 0.951059 0.996284 0.989855 0.931515 0.823756 0.671754 0.483163 0.267769 0.037002 0.196645 0.420283 0.621344 0.788297 0.911326 0.982943 0.998474 0.956411 0.858575 0.710097 0.519194 0.296763 0.055789 0.189392 0.423934 0.633373 0.804540 0.926414 0.990866 0.993237 0.932733 0.812561 0.639820 0.425141 0.182073 0.073740 0.325542 0.556564 0.751136 0.895786 0.980204 0.998025 0.947358 0.831027 0.656483 0.435381 0.182863 0.083446 0.344646 0.581898 0.777787 0.917636 0.990647 0.990788 0.917348 0.775116 0.574141 0.329079 0.058192 0.217991 0.478209 0.702108 0.871850 0.973590 0.998646 0.944315 0.814216 0.618137 0.371371 0.093586 0.192707 0.463943 0.697455 0.873389 0.976435 0.997225 0.933257 0.789248 0.576890 0.313967 0.022942 0.270933 0.541770 0.765361 0.921351 0.995159 0.979414 0.874772 0.690018 0.441424 0.151394 0.153500 0.444910 0.695357 0.880843 0.983201 0.991957 0.905484 0.731341 0.485707 0.191981 0.121389 0.423618 0.684606 0.877952
1.000000 1.000000 1.000000 1.000000 1.000000 1.000000 1.000000 1.000000 1.000000 1.000000 1.000000 1.000000 1.000000 1.000000 1.000000 1.000000 1.000000 1.000000 1.000000 1.000000 1.000000 1.000000 1.000000 1.000000 1.000000 1.000000 1.000000 1.000000 1.000000 1.000000 1.000000 1.000000 1.000000 1.000000 1.000000 1.000000 1.000000 1.000000 1.000000 1.000000 1.000000 1.000000 1.000000 1.000000 1.000000 1.000000 1.000000 1.000000 1.000000 1.000000 1.000000 1.000000 0.834421 0.834421 0.834421 0.834421 0.834421 0.834421 0.834421 0.811760 0.811760 0.811760 0.811760 0.811760 0.811760 0.811760 0.811760 0.811760 0.811760 0.811760 0.811760 0.811760 0.811760 0.811760 0.811760 0.811760 0.811760 0.811760 0.811760 0.811760 0.811760 0.811760 0.811760 0.811760 0.811760 0.811760 0.811760 0.811760 0.811760 0.811760 0.811760 0.811760 0.811760 0.811760 0.811760 0.811760 0.811760 0.811760 0.811760 0.811760 0.811760 0.811760 0.811760 0.951016 0.951696 0.944001 0.942873 0.941089 0.937923 0.933408 0.932944 0.934302 0.934512 0.935158 0.937368 0.938455 0.940215 0.941502 0.942416 0.943281 0.951341 0.954951 0.955358 0.954872 0.950202 0.956785 0.955949 0.955784 0.956595 0.956908 0.957630 0.957500 0.957325 0.956763 0.955586 0.956327 0.956179 0.955441 0.954389 0.952476 0.952475 0.952019 0.952014 0.952983 0.953869 0.954512 0.955027 0.954981 0.955172 0.955152 0.955050 0.949955 0.949988 0.943597 0.944315 0.945512 0.945209 0.944133 0.942729 0.942775 0.942631 0.942531 0.942317 0.942547 0.923900 0.923213 0.923245 0.923306 0.915617 0.905004 0.898298 0.891883 0.892798 0.896726 0.901576 0.901741 0.898703 0.897882 0.881714 0.885475 0.872885 0.869932 0.858080 0.868499 0.870689 0.872131 0.867454 0.866859 0.865622 0.863722 0.855274 0.859305 0.859787 0.855544 0.852154 0.849885 0.848873 0.850244 0.855047 0.851407 0.846886 0.844206 0.832597 0.823436 0.822218 0.824919 0.832614 0.844678 0.845352 0.844673 0.837222 0.833423 0.826396 0.820361 0.817287 0.819171 0.816374 0.820386 0.818475 0.825127 0.815180 0.810538 0.815634 0.824470 0.829897 0.832734 0.835168 0.833116 0.831033 0.814657 0.815312 0.808296 0.759312 0.762663 0.751134 0.751372 0.740277 0.737939 0.734108 0.734584 0.728627 0.717099 0.729315 0.720091 0.691177 0.699416 0.692694 0.681398 0.660708 0.664930 0.679756 0.687948 0.686284 0.692130 0.679064 0.678036 0.690670 0.690343 0.697807 0.693067 0.691490 0.684382 0.685954 0.675887 0.677652 0.671743 0.670776 0.671121 0.667220 0.654759 0.661733 0.658673 0.654110 0.644838 0.606094 0.571273 0.550546 0.543985 0.525547 0.499123 0.516454 0.527186 0.508157 0.498968 0.480774 0.439312 0.432112 0.430459 0.403926 0.387499 0.365747 0.334074 0.335181 0.341085 0.345181 0.333544 0.333132 0.319534 0.279880 0.271847 0.235253 0.251115 0.273760 0.259053 0.235954 0.239395 0.250216 0.243092 0.254482 0.253013 0.266231 0.221852 0.169528 0.186947 0.183365 0.196446 0.181199 0.153272 0.179851 0.165208 0.174460 0.177325 0.136973 0.105757 0.086423 0.058732 0.064639 0.089272 0.105288 0.099252 0.079914 -0.006977 0.024970 0.049416 0.049416 0.049416 0.049416 0.049416 0.049416 0.049416 0.049416 0.049416 0.049416 0.049416 -0.011982 -0.011982 -0.011982 -0.011982 -0.011982 -0.011982 -0.011982 -0.011982 -0.011982 -0.011982 -0.011982 -0.011982 -0.011982 -0.011982 -0.011982 -0.011982 -0.011982 -0.011982 -0.011982
0.000000 0.000000 0.000000 0.000000 0.000000 0.000000 0.000000 0.000000 0.000000 0.000000 0.000000 0.000000 0.000000 0.000000 0.000000 0.000000 0.000000 0.000000 0.000000 0.000000 0.000000 9401.000000 0.000000 0.000000 0.000000 0.000000 0.000000 0.000000 0.000000 0.000000 0.000000 0.000000 0.000000 0.000000 0.000000 0.000000 0.000000 0.000000 0.000000 0.000000 0.000000 0.000000 0.000000 0.000000 0.000000 0.000000 0.000000 0.000000 0.000000 0.000000 0.000000 0.000000 0.173422 0.173422 0.173422 0.173422 0.173422 0.173422 0.173422 0.191565 0.191565 0.191565 0.191565 0.191565 0.191565 0.191565 0.191565 0.191565 0.191565 0.191565 0.191565 0.191565 0.191565 0.191565 0.191565 0.191565 0.191565 0.191565 0.191565 0.191565 0.191565 0.191565 0.191565 0.191565 0.191565 0.191565 0.191565 0.191565 0.191565 0.191565 0.191565 0.191565 0.191565 0.191565 0.191565 0.191565 0.191565 0.191565 0.191565 0.191565 0.191565 0.191565 0.191565 0.219529 0.219529 0.219529 0.219529 0.219529 0.219529 0.219529 0.219529 0.219529 0.219529 0.219529 0.219529 0.219529 0.219529 0.219529 0.219529 0.219529 0.219529 0.219529 0.219529 0.219529 0.219529 0.219529 0.219529 0.219529 0.219529 0.219529 0.219529 0.219529 0.219529 0.219529 0.237356 0.237356 0.237356 0.237356 0.237356 0.237356 0.237356 0.237356 0.237356 0.237356 0.237356 0.237356 0.237356 0.237356 0.237356 0.237356 0.237356 0.237356 0.237356 0.237356 0.237356 0.237356 0.237356 0.237356 0.244339 0.244339 0.244339 0.244339 0.244339 0.244339 0.244339 0.244339 0.244339 0.244339 0.244339 0.244339 0.244339 0.244339 0.244339 0.244339 0.244339 0.244339 0.244339 0.244339 0.244339 0.248069 0.248069 0.248069 0.248069 0.248069 0.248069 0.248069 0.248069 0.248069 0.248069 0.248069 0.248069 0.248069 0.248069 0.248069 0.248069 0.248069 0.248069 0.248069 0.248069 0.248069 0.248069 0.248069 0.248069 0.248069 0.248069 0.248069 0.248069 0.248069 0.248069 0.248069 0.248069 0.248069 0.248069 0.248069 0.248069 0.248069 0.256074 0.256074 0.256074 0.256074 0.256074 0.256074 0.256074 0.256074 0.256074 0.256074 0.256074 0.256074 0.256074 0.256074 0.256074 0.256074 0.256074 0.256074 0.256074 0.256074 0.256074 0.256074 0.256074 0.256074 0.256074 0.256074 0.256074 0.256074 0.256074 0.256074 0.256074 0.256074 0.256074 0.256074 0.256074 0.256074 0.256074 0.256074 0.256074 0.256074 0.256074 0.256074 0.256074 0.256074 0.256074 0.260378 0.260378 0.260378 0.260378 0.260378 0.260378 0.260378 0.260378 0.260378 0.260378 0.260378 0.260378 0.260378 0.256074 0.256074 0.256074 0.256074 0.256074 0.256074 0.256074 0.256074 0.256074 0.256074 0.256074 0.256074 0.256074 0.260378 0.260378 0.260378 0.260378 0.260378 0.260378 0.260378 0.260378 0.260378 0.260378 0.260378 0.260378 0.251976 0.251976 0.251976 0.251976 0.251976 0.251976 0.251976 0.251976 0.251976 0.251976 0.251976 0.251976 0.256074 0.256074 0.256074 0.256074 0.256074 0.256074 0.256074 0.256074 0.256074 0.256074 0.256074 0.251976 0.251976 0.251976 0.251976 0.251976 0.251976 0.251976 0.251976 0.251976 0.251976 0.251976 0.248069 0.248069 0.248069 0.248069 0.248069 0.248069 0.248069 0.248069 0.248069 0.248069 0.248069 0.256074 0.256074 0.256074 0.256074 0.256074 0.256074 0.256074 0.256074 0.256074 0.256074 0.256074 0.256074 0.256074 0.256074 0.256074 0.256074 0.256074 0.256074 0.256074
