# Output from CTFFind version 4.1.9, run on 2019-11-03 18:51:43
# Input file: stack19_ub_averaged_1000.mrc ; Number of micrographs: 1
# Pixel size: 3.000 Angstroms ; acceleration voltage: 300.0 keV ; spherical aberration: 0.00 mm ; amplitude contrast: 0.07
# Box size: 512 pixels ; min. res.: 30.0 Angstroms ; max. res.: 5.0 Angstroms ; min. def.: 5000.0 um; max. def. 50000.0 um; num. frames averaged: 1
# 6 lines per micrograph: #1 - spatial frequency (1/Angstroms); #2 - 1D rotational average of spectrum (assuming no astigmatism); #3 - 1D rotational average of spectrum; #4 - CTF fit; #5 - cross-correlation between spectrum and CTF fit; #6 - 2sigma of expected cross correlation of noise
0.000000 0.000651 0.001302 0.001953 0.002604 0.003255 0.003906 0.004557 0.005208 0.005859 0.006510 0.007161 0.007812 0.008464 0.009115 0.009766 0.010417 0.011068 0.011719 0.012370 0.013021 0.013672 0.014323 0.014974 0.015625 0.016276 0.016927 0.017578 0.018229 0.018880 0.019531 0.020182 0.020833 0.021484 0.022135 0.022786 0.023438 0.024089 0.024740 0.025391 0.026042 0.026693 0.027344 0.027995 0.028646 0.029297 0.029948 0.030599 0.031250 0.031901 0.032552 0.033203 0.033854 0.034505 0.035156 0.035807 0.036458 0.037109 0.037760 0.038411 0.039062 0.039714 0.040365 0.041016 0.041667 0.042318 0.042969 0.043620 0.044271 0.044922 0.045573 0.046224 0.046875 0.047526 0.048177 0.048828 0.049479 0.050130 0.050781 0.051432 0.052083 0.052734 0.053385 0.054036 0.054688 0.055339 0.055990 0.056641 0.057292 0.057943 0.058594 0.059245 0.059896 0.060547 0.061198 0.061849 0.062500 0.063151 0.063802 0.064453 0.065104 0.065755 0.066406 0.067057 0.067708 0.068359 0.069010 0.069661 0.070312 0.070964 0.071615 0.072266 0.072917 0.073568 0.074219 0.074870 0.075521 0.076172 0.076823 0.077474 0.078125 0.078776 0.079427 0.080078 0.080729 0.081380 0.082031 0.082682 0.083333 0.083984 0.084635 0.085286 0.085938 0.086589 0.087240 0.087891 0.088542 0.089193 0.089844 0.090495 0.091146 0.091797 0.092448 0.093099 0.093750 0.094401 0.095052 0.095703 0.096354 0.097005 0.097656 0.098307 0.098958 0.099609 0.100260 0.100911 0.101562 0.102214 0.102865 0.103516 0.104167 0.104818 0.105469 0.106120 0.106771 0.107422 0.108073 0.108724 0.109375 0.110026 0.110677 0.111328 0.111979 0.112630 0.113281 0.113932 0.114583 0.115234 0.115885 0.116536 0.117188 0.117839 0.118490 0.119141 0.119792 0.120443 0.121094 0.121745 0.122396 0.123047 0.123698 0.124349 0.125000 0.125651 0.126302 0.126953 0.127604 0.128255 0.128906 0.129557 0.130208 0.130859 0.131510 0.132161 0.132812 0.133464 0.134115 0.134766 0.135417 0.136068 0.136719 0.137370 0.138021 0.138672 0.139323 0.139974 0.140625 0.141276 0.141927 0.142578 0.143229 0.143880 0.144531 0.145182 0.145833 0.146484 0.147135 0.147786 0.148438 0.149089 0.149740 0.150391 0.151042 0.151693 0.152344 0.152995 0.153646 0.154297 0.154948 0.155599 0.156250 0.156901 0.157552 0.158203 0.158854 0.159505 0.160156 0.160807 0.161458 0.162109 0.162760 0.163411 0.164062 0.164714 0.165365 0.166016 0.166667 0.167318 0.167969 0.168620 0.169271 0.169922 0.170573 0.171224 0.171875 0.172526 0.173177 0.173828 0.174479 0.175130 0.175781 0.176432 0.177083 0.177734 0.178385 0.179036 0.179688 0.180339 0.180990 0.181641 0.182292 0.182943 0.183594 0.184245 0.184896 0.185547 0.186198 0.186849 0.187500 0.188151 0.188802 0.189453 0.190104 0.190755 0.191406 0.192057 0.192708 0.193359 0.194010 0.194661 0.195312 0.195964 0.196615 0.197266 0.197917 0.198568 0.199219 0.199870 0.200521 0.201172 0.201823 0.202474 0.203125 0.203776 0.204427 0.205078 0.205729 0.206380 0.207031 0.207682 0.208333 0.208984 0.209635 0.210286 0.210938 0.211589 0.212240 0.212891 0.213542 0.214193 0.214844 0.215495 0.216146 0.216797 0.217448 0.218099 0.218750 0.219401 0.220052 0.220703 0.221354 0.222005 0.222656 0.223307 0.223958 0.224609 0.225260 0.225911 0.226562 0.227214 0.227865 0.228516 0.229167 0.229818 0.230469 0.231120 0.231771 0.232422 0.233073 0.233724 0.234375 0.235026 0.235677
       0.32238        0.32238        0.32238        0.32238        0.32238        0.32238        0.32238        0.32238        0.32238        0.32238        0.32238        0.32238        0.32238        0.32238        0.32238        0.32238        0.32238        0.32238        0.32238        0.32238        0.32238        0.32238        0.32238        0.32238        0.32238        0.32238        0.32238        0.32238        0.32238        0.32238        0.32238        0.32238        0.32238        0.32238        0.32238        0.32238        0.32238        0.32238        0.32238        0.32238        0.32238        0.32238        0.32238        0.32238        0.32238        0.32238        0.32238        0.32238        0.32238        0.32238        0.32238        0.63211        0.80046        0.36185        0.18048       -0.11846       -0.27535       -0.28970       -0.04194       -0.13298        0.10726        0.01564       -0.04071       -0.06466       -0.12885       -0.24999       -0.37610       -0.44621       -0.46071       -0.45294       -0.45811       -0.50664       -0.52029       -0.51147       -0.54304       -0.54283       -0.63569       -0.53370       -0.56988       -0.50146       -0.47577       -0.32605       -0.27755       -0.11640       -0.06945        0.08323        0.16931        0.21848        0.27325        0.26976        0.47747        0.57023        0.54611        0.52355        0.63775        0.64946        0.73945        0.82435        0.79779        0.64641        0.53843        0.49395        0.36052        0.26816        0.17828        0.12830        0.10975        0.00145       -0.09255        0.02466       -0.01279       -0.08254       -0.04384        0.04765        0.09355        0.15586        0.24098        0.39493        0.53056        0.47828        0.64171        0.62610        0.69203        0.70726        0.67360        0.55882        0.58895        0.56878        0.51365        0.44173        0.30056        0.25984        0.13541        0.06165        0.05842        0.02262        0.14331        0.15604        0.13106        0.21466        0.31684        0.46353        0.50848        0.45761        0.61991        0.56114        0.59784        0.54524        0.59022        0.46377        0.39564        0.34744        0.24944        0.15215        0.11490        0.13574        0.10738        0.13140        0.23550        0.23397        0.30039        0.33794        0.35869        0.43491        0.49356        0.51245        0.48895        0.47126        0.35506        0.35060        0.28675        0.31335        0.22957        0.17396        0.17500        0.21855        0.27612        0.22472        0.24841        0.36632        0.42287        0.46769        0.53680        0.50072        0.42833        0.41276        0.34607        0.37104        0.34551        0.27478        0.22760        0.22520        0.27065        0.25993        0.34820        0.37335        0.39200        0.40497        0.41388        0.39691        0.42164        0.37987        0.31470        0.27899        0.23811        0.25012        0.21134        0.24042        0.26383        0.30492        0.34948        0.34204        0.38567        0.42037        0.42219        0.39973        0.38260        0.34218        0.33482        0.29245        0.25415        0.23346        0.23797        0.28977        0.35848        0.36246        0.38964        0.40015        0.37350        0.39566        0.31553        0.27793        0.25930        0.26511        0.28289        0.28673        0.31461        0.32663        0.34186        0.33842        0.34578        0.30027        0.30470        0.30753        0.25417        0.29434        0.24027        0.27718        0.27490        0.27489        0.28956        0.32665        0.32626        0.34037        0.31326        0.31047        0.27726        0.26780        0.28120        0.25418        0.27087        0.28698        0.31335        0.33598        0.32511        0.35953        0.34662        0.31132        0.30595        0.26932        0.28516        0.26790        0.29203        0.33025        0.33801        0.30990        0.33494        0.29164        0.29762        0.30346        0.28643        0.29927        0.31708        0.31564        0.29787        0.31345        0.30589        0.35658        0.33272        0.29843        0.26557        0.26081        0.28334        0.32491        0.26292        0.24427        0.29331        0.31988        0.28699        0.32434        0.30655        0.33640        0.30196        0.27271        0.23424        0.29467        0.32377        0.24985        0.31473        0.31113        0.32515        0.22196        0.27934        0.32342        0.32905        0.22192        0.28870        0.25610        0.27636        0.29298        0.28220        0.20329        0.21273        0.24342        0.25509        0.30670        0.24859        0.22483        0.24894        0.27716        0.23529        0.26552        0.20021        0.25288        0.21200        0.30086        0.27918        0.26127        0.25804        0.26526        0.23966        0.30944        0.25530        0.30112        0.23604        0.21601        0.24042        0.24060        0.27607        0.29024        0.15491        0.16002        0.13635        0.35362        0.24406        0.13561        0.15668        0.13622        0.02431        0.28957        0.38028       -0.25828       -0.43558
2.653745 2.625647 2.597706 2.569922 2.542295 2.514825 2.487512 2.460356 2.433356 2.406514 2.379829 2.353301 2.326929 2.300715 2.274657 2.248757 2.223013 2.197427 2.171997 2.146725 2.121609 2.096650 2.071849 2.047204 2.022716 1.998385 1.974211 1.950194 1.926334 1.902632 1.879086 1.855696 1.832464 1.809389 1.786471 1.763710 1.741106 1.718658 1.696368 1.674235 1.652258 1.630439 1.608776 1.587271 1.565922 1.544731 1.523696 1.502819 1.482098 1.461534 1.441128 1.545629 2.262684 1.386607 1.085239 0.771196 0.700865 0.483186 0.928928 0.699947 0.983448 0.933714 0.646960 0.747505 0.681210 0.520579 0.270426 0.243973 0.104654 0.192621 0.186004 0.041509 -0.035609 0.040322 -0.024963 -0.013633 -0.212651 -0.066619 -0.169399 -0.066794 -0.094775 0.107039 0.109367 0.277708 0.381847 0.466358 0.664047 0.631566 0.728354 0.629842 0.906556 1.038068 1.005207 0.951769 1.052742 1.053115 1.126934 1.310014 1.215398 1.098568 0.873431 0.859849 0.651747 0.589760 0.391541 0.302989 0.371029 0.173080 0.035890 0.131478 0.155363 -0.070962 0.048462 0.141122 0.162201 0.277939 0.238718 0.423181 0.703017 0.618825 0.707992 0.720615 0.823708 0.822738 0.821950 0.644631 0.695174 0.628676 0.590734 0.485157 0.387770 0.226124 0.148292 -0.026855 -0.028887 -0.039509 -0.059022 0.127616 0.044189 0.060936 0.164464 0.317799 0.538512 0.331553 0.508026 0.555125 0.538994 0.532365 0.558677 0.427112 0.304511 0.267186 0.165409 0.039322 -0.078606 -0.026022 -0.048583 -0.109478 0.087267 0.036407 0.114138 0.173893 0.213133 0.234009 0.335514 0.392250 0.465996 0.413123 0.341275 0.236783 0.166068 0.240879 0.132629 0.052626 -0.018793 0.049184 0.103635 0.134208 0.055313 0.185104 0.278763 0.295449 0.453473 0.390896 0.276888 0.331167 0.201421 0.211859 0.205245 0.135769 0.062718 0.012499 0.110988 0.047064 0.106622 0.208327 0.203965 0.258175 0.221183 0.249223 0.239239 0.219315 0.123561 0.126400 0.024928 0.051871 0.009575 0.009841 -0.003739 0.091230 0.109488 0.147916 0.140957 0.208186 0.214627 0.227793 0.197565 0.130473 0.103982 0.115599 0.032381 -0.013101 0.000155 -0.013147 0.117163 0.130474 0.138639 0.193290 0.182853 0.155904 0.174536 0.040608 0.027187 0.039107 0.014397 0.066454 0.043485 0.108000 0.087937 0.120183 0.134155 0.105498 0.064449 0.094320 0.042123 0.037055 0.060686 -0.006435 0.054839 0.029578 0.044846 0.065646 0.099741 0.112315 0.073981 0.090928 0.056406 0.025890 0.037482 -0.013322 0.029432 0.048006 0.034846 0.079668 0.086342 0.117601 0.128653 0.114662 0.054457 0.054940 0.003371 0.048324 0.023178 0.021558 0.113458 0.080971 0.022748 0.112498 -0.043143 0.044642 0.018298 0.009135 0.024415 0.034253 0.014861 0.044614 0.035931 0.041076 0.060888 0.057030 0.007131 -0.028161 -0.024186 -0.011527 0.062851 -0.048225 -0.004804 0.020605 0.046421 0.006630 0.079331 0.060643 0.059653 0.018423 0.018240 -0.057347 0.036727 0.138537 0.020062 0.118184 0.094479 0.102842 -0.028269 0.069657 0.132912 0.100505 -0.037352 0.138595 0.041727 0.044932 0.100992 0.081466 -0.025364 -0.016465 0.036318 0.016162 0.098807 0.033266 -0.047040 0.047429 0.044283 -0.028090 0.055847 -0.084782 0.061228 -0.009623 0.064671 0.029891 -0.013171 -0.019574 0.052608 -0.014060 0.053544 -0.000690 0.046327 -0.064501 -0.030646 -0.020224 -0.006902 0.060311 0.022005 -0.101481 -0.118584 -0.253844 0.424616 0.276277 0.162615 0.209800 0.237525 0.016116 0.339237 0.465827 -0.521975
0.072396 0.072910 0.074451 0.077019 0.080613 0.085232 0.090876 0.097542 0.105227 0.113931 0.123647 0.134373 0.146102 0.158827 0.172541 0.187234 0.202893 0.219506 0.237057 0.255526 0.274893 0.295134 0.316220 0.338121 0.360802 0.384222 0.408337 0.433100 0.458456 0.484346 0.510703 0.537459 0.564534 0.591846 0.619303 0.646809 0.674260 0.701543 0.728540 0.755127 0.781169 0.806528 0.831056 0.854602 0.877005 0.898101 0.917720 0.935687 0.951824 0.965950 0.977881 0.987434 0.994425 0.998671 0.999994 0.998219 0.993180 0.984717 0.972681 0.956934 0.937356 0.913839 0.886298 0.854666 0.818903 0.778991 0.734944 0.686804 0.634647 0.578582 0.518758 0.455360 0.388612 0.318780 0.246174 0.171142 0.094076 0.015413 0.064374 0.144771 0.225225 0.305151 0.383931 0.460921 0.535454 0.606848 0.674408 0.737435 0.795237 0.847131 0.892454 0.930575 0.960900 0.982885 0.996045 0.999965 0.994307 0.978825 0.953368 0.917894 0.872476 0.817307 0.752708 0.679133 0.597168 0.507535 0.411087 0.308810 0.201810 0.091313 0.021354 0.134769 0.247439 0.357811 0.464295 0.565289 0.659204 0.744487 0.819652 0.883307 0.934184 0.971170 0.993332 0.999943 0.990513 0.964803 0.922850 0.864979 0.791813 0.704277 0.603599 0.491298 0.369176 0.239290 0.103928 0.034425 0.173133 0.309452 0.440590 0.563754 0.676222 0.775402 0.858896 0.924567 0.970601 0.995564 0.998452 0.978743 0.936425 0.872028 0.786630 0.681859 0.559881 0.423361 0.275426 0.119595 0.040286 0.200146 0.355779 0.502958 0.637553 0.755652 0.853679 0.928517 0.977617 0.999096 0.991825 0.955494 0.890657 0.798752 0.682090 0.543822 0.387874 0.218846 0.041898 0.137406 0.313259 0.479808 0.631338 0.762488 0.868443 0.945127 0.989383 0.999112 0.973400 0.912592 0.818328 0.693533 0.542357 0.370053 0.182828 0.012369 0.208101 0.396707 0.570611 0.722633 0.846293 0.936110 0.987864 0.998823 0.967908 0.895803 0.784984 0.639675 0.465723 0.270389 0.062072 0.150035 0.356341 0.547291 0.713814 0.847769 0.942365 0.992534 0.995236 0.949672 0.857403 0.722344 0.550648 0.350462 0.131575 0.095034 0.317739 0.524851 0.705244 0.848965 0.947815 0.995847 0.989767 0.929200 0.816796 0.658179 0.461718 0.238123 0.000094 0.239307 0.465536 0.665272 0.826300 0.938474 0.994397 0.989959 0.924680 0.801858 0.628457 0.414788 0.173933 0.079015 0.327867 0.556381 0.749318 0.893497 0.978723 0.998572 0.950928 0.838248 0.667521 0.449900 0.200047 0.064830 0.326111 0.565078 0.764261 0.908757 0.987375 0.993578 0.926090 0.789131 0.592245 0.349710 0.079567 0.197679 0.460591 0.688458 0.862957 0.969664 0.999321 0.948708 0.821065 0.625985 0.378782 0.099375 0.189282 0.463052 0.698619 0.875529 0.977994 0.996394 0.928255 0.778652 0.559929 0.290794 0.005217 0.301740 0.571925 0.790861 0.937929 0.998811 0.966981 0.844496 0.642004 0.377936 0.076916 0.232465 0.520337 0.758438 0.922923 0.996844 0.971979 0.849862 0.641851 0.368194 0.056160 0.262598 0.555240 0.791106 0.945005 0.999974 0.949268 0.797304 0.559433 0.260514 0.067570 0.389261 0.669151 0.875916 0.985892 0.985895 0.874927 0.664555 0.377858 0.047018 0.290209 0.594748 0.830769 0.969957 0.995019 0.901971 0.700898 0.415024 0.078170 0.269137 0.584507 0.828869 0.971367 0.993396 0.891166 0.676484 0.375576 0.026030 0.327812 0.640414 0.870942 0.988685 0.977281 0.837155 0.585799 0.255759 0.109404 0.460818 0.750773 0.939300 0.999754
1.000000 1.000000 1.000000 1.000000 1.000000 1.000000 1.000000 1.000000 1.000000 1.000000 1.000000 1.000000 1.000000 1.000000 1.000000 1.000000 1.000000 1.000000 1.000000 1.000000 1.000000 1.000000 1.000000 1.000000 1.000000 1.000000 1.000000 1.000000 1.000000 1.000000 1.000000 1.000000 1.000000 1.000000 1.000000 1.000000 1.000000 1.000000 1.000000 1.000000 1.000000 1.000000 1.000000 1.000000 1.000000 1.000000 1.000000 1.000000 1.000000 1.000000 1.000000 1.000000 0.939161 0.939161 0.940206 0.940206 0.940206 0.940206 0.940206 0.940206 0.940206 0.940206 0.940206 0.940206 0.940206 0.940206 0.940206 0.940206 0.940206 0.940206 0.940206 0.940206 0.940206 0.940206 0.940206 0.940206 0.940206 0.940206 0.940206 0.940206 0.940206 0.940206 0.940206 0.940206 0.940206 0.940206 0.940206 0.940206 0.940206 0.940206 0.940206 0.940206 0.940206 0.940206 0.940206 0.944047 0.941883 0.941908 0.942688 0.943503 0.937683 0.936642 0.935927 0.935693 0.936270 0.936643 0.943825 0.945218 0.946371 0.949314 0.955817 0.956734 0.956939 0.958776 0.957441 0.957570 0.955753 0.952028 0.949970 0.950999 0.952366 0.951376 0.950235 0.952873 0.954007 0.952313 0.950080 0.949168 0.949434 0.949389 0.949279 0.949255 0.949078 0.949659 0.950237 0.950606 0.948972 0.946763 0.943914 0.945192 0.948023 0.950429 0.952603 0.946678 0.946293 0.939294 0.941876 0.938668 0.938695 0.939137 0.940403 0.941090 0.939896 0.928471 0.925497 0.912605 0.907114 0.907071 0.906775 0.909134 0.913972 0.915433 0.911290 0.905168 0.901749 0.893565 0.905282 0.901797 0.893310 0.888177 0.889402 0.892941 0.893458 0.892589 0.885426 0.882358 0.874386 0.875502 0.880094 0.884050 0.880831 0.880918 0.879253 0.877747 0.876508 0.877198 0.876823 0.882881 0.882720 0.883441 0.883985 0.876726 0.877182 0.881047 0.879229 0.864392 0.861494 0.859006 0.857511 0.861829 0.873997 0.874773 0.871805 0.852881 0.849887 0.866373 0.882130 0.881369 0.883085 0.883610 0.876795 0.872171 0.871313 0.875433 0.866570 0.871445 0.870219 0.871340 0.855506 0.858146 0.847682 0.847262 0.841939 0.840161 0.843976 0.850252 0.851712 0.848779 0.845228 0.843173 0.831608 0.840349 0.838879 0.840782 0.835097 0.831228 0.824724 0.827727 0.827587 0.825190 0.824788 0.822334 0.815251 0.821999 0.814757 0.813937 0.802566 0.811593 0.808678 0.782927 0.780336 0.749573 0.748620 0.741478 0.731577 0.728056 0.717052 0.708389 0.707770 0.714111 0.730107 0.727512 0.718437 0.705385 0.704346 0.703647 0.714371 0.695842 0.645903 0.623121 0.630862 0.635742 0.635307 0.616793 0.594854 0.510575 0.502863 0.471195 0.471421 0.492168 0.476485 0.471807 0.454320 0.433715 0.457347 0.449021 0.434593 0.411646 0.395165 0.386651 0.344981 0.326459 0.364085 0.379724 0.371088 0.351593 0.354902 0.345745 0.331378 0.299880 0.275161 0.264959 0.257498 0.262172 0.239006 0.248068 0.236489 0.219802 0.245422 0.239086 0.245148 0.194387 0.207328 0.202045 0.195331 0.212761 0.189979 0.173960 0.147545 0.147668 0.125399 0.042031 0.016983 0.021499 0.013723 -0.005876 0.015418 0.019933 0.010982 0.012271 0.023913 0.043047 0.066911 0.011504 0.009322 0.009322 -0.032380 -0.032380 -0.032380 -0.032380 -0.032380 -0.032380 -0.032380 -0.032380 -0.032380 -0.031218 -0.031218 -0.031218 -0.031218 -0.031218 -0.031218 -0.031218 -0.031218 -0.031218 0.013077 0.013077 0.013077 0.013077 0.013077 0.013077 0.013077 0.013077 0.013077
0.000000 0.000000 0.000000 0.000000 0.000000 0.000000 0.000000 0.000000 0.000000 0.000000 0.000000 0.000000 0.000000 0.000000 0.000000 0.000000 0.000000 0.000000 0.000000 0.000000 0.000000 0.000000 0.000000 0.000000 0.000000 0.000000 0.000000 0.000000 0.000000 0.000000 0.000000 0.000000 0.000000 0.000000 0.000000 0.000000 0.000000 0.000000 0.000000 0.000000 0.000000 0.000000 0.000000 0.000000 0.000000 0.000000 0.000000 0.000000 0.000000 0.000000 0.000000 0.000000 0.181818 0.181818 0.199007 0.199007 0.199007 0.199007 0.199007 0.199007 0.199007 0.199007 0.199007 0.199007 0.199007 0.199007 0.199007 0.199007 0.199007 0.199007 0.199007 0.199007 0.199007 0.199007 0.199007 0.199007 0.199007 0.199007 0.199007 0.199007 0.199007 0.199007 0.199007 0.199007 0.199007 0.199007 0.199007 0.199007 0.199007 0.199007 0.199007 0.199007 0.199007 0.199007 0.199007 0.230940 0.230940 0.230940 0.230940 0.230940 0.230940 0.230940 0.230940 0.230940 0.230940 0.230940 0.230940 0.230940 0.230940 0.230940 0.230940 0.230940 0.230940 0.230940 0.230940 0.230940 0.230940 0.230940 0.230940 0.230940 0.230940 0.230940 0.230940 0.244339 0.244339 0.244339 0.244339 0.244339 0.244339 0.244339 0.244339 0.244339 0.244339 0.244339 0.244339 0.244339 0.244339 0.244339 0.244339 0.244339 0.244339 0.244339 0.244339 0.244339 0.244339 0.244339 0.251976 0.251976 0.251976 0.251976 0.251976 0.251976 0.251976 0.251976 0.251976 0.251976 0.251976 0.251976 0.251976 0.251976 0.251976 0.251976 0.251976 0.251976 0.251976 0.251976 0.264906 0.264906 0.264906 0.264906 0.264906 0.264906 0.264906 0.264906 0.264906 0.264906 0.264906 0.264906 0.264906 0.264906 0.264906 0.264906 0.264906 0.264906 0.264906 0.264906 0.264906 0.264906 0.264906 0.264906 0.264906 0.264906 0.264906 0.264906 0.264906 0.264906 0.264906 0.264906 0.264906 0.264906 0.264906 0.264906 0.264906 0.264906 0.264906 0.264906 0.264906 0.264906 0.264906 0.264906 0.264906 0.264906 0.264906 0.264906 0.264906 0.264906 0.264906 0.264906 0.264906 0.264906 0.264906 0.264906 0.264906 0.264906 0.264906 0.264906 0.264906 0.264906 0.264906 0.264906 0.264906 0.264906 0.264906 0.264906 0.264906 0.264906 0.264906 0.264906 0.264906 0.264906 0.264906 0.269680 0.269680 0.269680 0.269680 0.269680 0.269680 0.269680 0.269680 0.269680 0.269680 0.269680 0.269680 0.264906 0.264906 0.264906 0.264906 0.264906 0.264906 0.264906 0.264906 0.264906 0.264906 0.264906 0.264906 0.269680 0.269680 0.269680 0.269680 0.269680 0.269680 0.269680 0.269680 0.269680 0.269680 0.269680 0.264906 0.264906 0.264906 0.264906 0.264906 0.264906 0.264906 0.264906 0.264906 0.264906 0.264906 0.256074 0.256074 0.256074 0.256074 0.256074 0.256074 0.256074 0.256074 0.256074 0.256074 0.256074 0.264906 0.264906 0.264906 0.264906 0.264906 0.264906 0.264906 0.264906 0.264906 0.264906 0.260378 0.260378 0.260378 0.260378 0.260378 0.260378 0.260378 0.260378 0.260378 0.260378 0.264906 0.264906 0.264906 0.264906 0.264906 0.264906 0.264906 0.264906 0.264906 0.260378 0.260378 0.260378 0.260378 0.260378 0.260378 0.260378 0.260378 0.260378 0.256074 0.256074 0.256074 0.256074 0.256074 0.256074 0.256074 0.256074 0.256074 0.251976 0.251976 0.251976 0.251976 0.251976 0.251976 0.251976 0.251976 0.251976 0.264906 0.264906 0.264906 0.264906 0.264906 0.264906 0.264906 0.264906 0.264906
