# Output from CTFFind version 4.1.9, run on 2019-11-02 12:25:51
# Input file: stack6_ub_averaged_750.mrc ; Number of micrographs: 1
# Pixel size: 3.000 Angstroms ; acceleration voltage: 300.0 keV ; spherical aberration: 0.00 mm ; amplitude contrast: 0.07
# Box size: 512 pixels ; min. res.: 30.0 Angstroms ; max. res.: 5.0 Angstroms ; min. def.: 5000.0 um; max. def. 50000.0 um; num. frames averaged: 1
# 6 lines per micrograph: #1 - spatial frequency (1/Angstroms); #2 - 1D rotational average of spectrum (assuming no astigmatism); #3 - 1D rotational average of spectrum; #4 - CTF fit; #5 - cross-correlation between spectrum and CTF fit; #6 - 2sigma of expected cross correlation of noise
0.000000 0.000651 0.001302 0.001953 0.002604 0.003255 0.003906 0.004557 0.005208 0.005859 0.006510 0.007161 0.007812 0.008464 0.009115 0.009766 0.010417 0.011068 0.011719 0.012370 0.013021 0.013672 0.014323 0.014974 0.015625 0.016276 0.016927 0.017578 0.018229 0.018880 0.019531 0.020182 0.020833 0.021484 0.022135 0.022786 0.023438 0.024089 0.024740 0.025391 0.026042 0.026693 0.027344 0.027995 0.028646 0.029297 0.029948 0.030599 0.031250 0.031901 0.032552 0.033203 0.033854 0.034505 0.035156 0.035807 0.036458 0.037109 0.037760 0.038411 0.039062 0.039714 0.040365 0.041016 0.041667 0.042318 0.042969 0.043620 0.044271 0.044922 0.045573 0.046224 0.046875 0.047526 0.048177 0.048828 0.049479 0.050130 0.050781 0.051432 0.052083 0.052734 0.053385 0.054036 0.054688 0.055339 0.055990 0.056641 0.057292 0.057943 0.058594 0.059245 0.059896 0.060547 0.061198 0.061849 0.062500 0.063151 0.063802 0.064453 0.065104 0.065755 0.066406 0.067057 0.067708 0.068359 0.069010 0.069661 0.070312 0.070964 0.071615 0.072266 0.072917 0.073568 0.074219 0.074870 0.075521 0.076172 0.076823 0.077474 0.078125 0.078776 0.079427 0.080078 0.080729 0.081380 0.082031 0.082682 0.083333 0.083984 0.084635 0.085286 0.085938 0.086589 0.087240 0.087891 0.088542 0.089193 0.089844 0.090495 0.091146 0.091797 0.092448 0.093099 0.093750 0.094401 0.095052 0.095703 0.096354 0.097005 0.097656 0.098307 0.098958 0.099609 0.100260 0.100911 0.101562 0.102214 0.102865 0.103516 0.104167 0.104818 0.105469 0.106120 0.106771 0.107422 0.108073 0.108724 0.109375 0.110026 0.110677 0.111328 0.111979 0.112630 0.113281 0.113932 0.114583 0.115234 0.115885 0.116536 0.117188 0.117839 0.118490 0.119141 0.119792 0.120443 0.121094 0.121745 0.122396 0.123047 0.123698 0.124349 0.125000 0.125651 0.126302 0.126953 0.127604 0.128255 0.128906 0.129557 0.130208 0.130859 0.131510 0.132161 0.132812 0.133464 0.134115 0.134766 0.135417 0.136068 0.136719 0.137370 0.138021 0.138672 0.139323 0.139974 0.140625 0.141276 0.141927 0.142578 0.143229 0.143880 0.144531 0.145182 0.145833 0.146484 0.147135 0.147786 0.148438 0.149089 0.149740 0.150391 0.151042 0.151693 0.152344 0.152995 0.153646 0.154297 0.154948 0.155599 0.156250 0.156901 0.157552 0.158203 0.158854 0.159505 0.160156 0.160807 0.161458 0.162109 0.162760 0.163411 0.164062 0.164714 0.165365 0.166016 0.166667 0.167318 0.167969 0.168620 0.169271 0.169922 0.170573 0.171224 0.171875 0.172526 0.173177 0.173828 0.174479 0.175130 0.175781 0.176432 0.177083 0.177734 0.178385 0.179036 0.179688 0.180339 0.180990 0.181641 0.182292 0.182943 0.183594 0.184245 0.184896 0.185547 0.186198 0.186849 0.187500 0.188151 0.188802 0.189453 0.190104 0.190755 0.191406 0.192057 0.192708 0.193359 0.194010 0.194661 0.195312 0.195964 0.196615 0.197266 0.197917 0.198568 0.199219 0.199870 0.200521 0.201172 0.201823 0.202474 0.203125 0.203776 0.204427 0.205078 0.205729 0.206380 0.207031 0.207682 0.208333 0.208984 0.209635 0.210286 0.210938 0.211589 0.212240 0.212891 0.213542 0.214193 0.214844 0.215495 0.216146 0.216797 0.217448 0.218099 0.218750 0.219401 0.220052 0.220703 0.221354 0.222005 0.222656 0.223307 0.223958 0.224609 0.225260 0.225911 0.226562 0.227214 0.227865 0.228516 0.229167 0.229818 0.230469 0.231120 0.231771 0.232422 0.233073 0.233724 0.234375 0.235026 0.235677
       0.31170        0.31170        0.31170        0.31170        0.31170        0.31170        0.31170        0.31170        0.31170        0.31170        0.31170        0.31170        0.31170        0.31170        0.31170        0.31170        0.31170        0.31170        0.31170        0.31170        0.31170        0.31170        0.31170        0.31170        0.31170        0.31170        0.31170        0.31170        0.31170        0.31170        0.31170        0.31170        0.31170        0.31170        0.31170        0.31170        0.31170        0.31170        0.31170        0.31170        0.31170        0.31170        0.31170        0.31170        0.31170        0.31170        0.31170        0.31170        0.31170        0.31170        0.31170        0.63367        0.81976        0.41761        0.31278        0.18716       -0.10511        0.11148       -0.00340        0.03343        0.11861        0.33596        0.42286        0.40593        0.22567       -0.01349        0.04782        0.07003       -0.16853       -0.18023       -0.08595       -0.10656       -0.29263       -0.19083       -0.30103       -0.25558       -0.28644       -0.40309       -0.47537       -0.47996       -0.42446       -0.33803       -0.44044       -0.36766       -0.40801       -0.34904       -0.27643       -0.20065       -0.19308       -0.13726       -0.09496        0.03786        0.08205        0.25049        0.27787        0.36671        0.40375        0.52304        0.59237        0.60968        0.74152        0.70179        0.74277        0.65132        0.66552        0.69536        0.63339        0.61541        0.60817        0.43400        0.40113        0.35811        0.32063        0.22208        0.12995        0.05946        0.05827        0.00097       -0.08016       -0.03014       -0.03132       -0.07041        0.06332        0.16327        0.25266        0.32209        0.33530        0.43108        0.54980        0.59736        0.54683        0.67155        0.56874        0.54542        0.59759        0.64700        0.53388        0.45767        0.40788        0.37543        0.24744        0.21370        0.12994        0.11630        0.05477        0.05441        0.10824        0.17008        0.14273        0.18034        0.21924        0.24020        0.33114        0.46114        0.49363        0.49838        0.51814        0.57927        0.56952        0.52283        0.42874        0.38588        0.36662        0.27210        0.24696        0.21149        0.20504        0.20028        0.17985        0.16266        0.12840        0.19481        0.25068        0.34572        0.38485        0.40777        0.46167        0.53711        0.47694        0.48616        0.42291        0.40110        0.38326        0.36309        0.29016        0.25421        0.19439        0.23121        0.21490        0.18903        0.21966        0.22458        0.23894        0.30005        0.40158        0.40254        0.37340        0.39128        0.45701        0.48716        0.42605        0.35117        0.32644        0.27591        0.26284        0.24974        0.21328        0.28397        0.29279        0.29713        0.31692        0.31290        0.35062        0.37317        0.37118        0.37428        0.35615        0.31749        0.33320        0.31729        0.29580        0.27968        0.27308        0.21856        0.27388        0.27383        0.30024        0.32032        0.34580        0.38143        0.34240        0.31888        0.36248        0.36563        0.26406        0.29397        0.30482        0.24417        0.20767        0.25648        0.27254        0.27699        0.29908        0.30799        0.33804        0.33549        0.36377        0.32519        0.31994        0.30892        0.29828        0.27687        0.25204        0.25450        0.25715        0.27772        0.30115        0.30140        0.30406        0.31166        0.32293        0.26226        0.30310        0.26947        0.26200        0.27863        0.26376        0.26325        0.26611        0.30925        0.28612        0.31859        0.28591        0.27124        0.30597        0.31147        0.33157        0.31446        0.28931        0.25230        0.26516        0.26835        0.26366        0.31444        0.31628        0.33642        0.31716        0.31055        0.25136        0.27754        0.20811        0.21049        0.24515        0.25399        0.25869        0.28657        0.30936        0.29871        0.35193        0.30954        0.26100        0.23847        0.23536        0.28898        0.31598        0.30506        0.26854        0.27978        0.26603        0.32429        0.28346        0.25389        0.26603        0.25840        0.28801        0.24837        0.28195        0.32465        0.29036        0.22468        0.24097        0.28893        0.31992        0.26986        0.26454        0.24358        0.27396        0.29366        0.37699        0.28551        0.27090        0.25444        0.25548        0.22137        0.17751        0.24484        0.22867        0.21178        0.18155        0.19549        0.23778        0.22114        0.23324        0.19599        0.25452        0.22612        0.20900        0.17326        0.17409        0.19980        0.24737        0.13261        0.05266        0.19820        0.19385        0.14718        0.24688        0.15527        0.21257        0.21264       -0.03670       -0.46435       -0.94974
2.833963 2.806111 2.778402 2.750836 2.723413 2.696135 2.668999 2.642006 2.615157 2.588451 2.561888 2.535469 2.509193 2.483060 2.457070 2.431224 2.405521 2.379961 2.354545 2.329272 2.304142 2.279156 2.254313 2.229612 2.205056 2.180643 2.156372 2.132246 2.108262 2.084422 2.060725 2.037171 2.013761 1.990494 1.967370 1.944389 1.921552 1.898858 1.876308 1.853900 1.831636 1.809515 1.787538 1.765704 1.744013 1.722465 1.701061 1.679799 1.658682 1.637707 1.616876 1.909329 2.266208 1.692933 1.735290 1.373627 0.937189 1.193179 1.016573 1.068001 1.026761 1.485062 1.511059 1.532898 1.277864 0.935095 0.820140 1.005055 0.709766 0.488278 0.585684 0.676566 0.420322 0.483564 0.324556 0.371621 0.243508 0.156377 -0.034909 0.001121 0.018324 0.083075 0.036371 0.072843 -0.039845 0.030458 0.111715 0.222355 0.283447 0.207762 0.316026 0.550665 0.447831 0.725474 0.786277 0.869734 0.908517 1.119927 1.147013 1.172739 1.322855 1.235789 1.368548 1.194008 1.111899 1.289842 1.142755 1.049335 1.124925 0.882211 0.741324 0.679762 0.669328 0.457070 0.391104 0.258147 0.229023 0.093909 -0.004443 0.088422 0.029508 -0.063020 0.115185 0.252245 0.307861 0.461930 0.487215 0.554187 0.723909 0.829482 0.664623 0.963381 0.801469 0.671056 0.764076 0.810164 0.717819 0.636151 0.447535 0.502583 0.281978 0.188693 0.142720 0.006910 -0.016122 -0.109461 -0.016633 0.036955 0.083037 -0.046182 0.252879 0.092357 0.217400 0.380114 0.441658 0.533982 0.434535 0.569825 0.641795 0.506123 0.396180 0.340575 0.325057 0.149688 0.144674 0.009485 0.092109 0.027976 -0.002150 -0.021631 -0.113537 -0.004722 0.029310 0.109909 0.295695 0.206928 0.357678 0.370679 0.430091 0.414660 0.387898 0.329838 0.230530 0.304001 0.170398 0.154886 0.000879 0.041268 0.065955 -0.029048 -0.006823 0.020227 0.058761 0.072779 0.216512 0.309424 0.246756 0.209520 0.382098 0.411679 0.351676 0.242062 0.175978 0.149253 0.082998 0.076556 0.029360 0.021377 0.135758 0.059539 0.186337 0.097189 0.144342 0.237088 0.212143 0.237064 0.200802 0.201492 0.116052 0.165488 0.126223 0.093195 0.110848 0.002313 0.038828 0.093371 0.050355 0.145843 0.126934 0.212202 0.215762 0.140696 0.130695 0.236051 0.110458 0.073736 0.084522 0.060984 0.000013 -0.032668 0.044930 0.071300 0.034945 0.117419 0.114829 0.129429 0.134698 0.180114 0.109896 0.082930 0.102995 0.088977 0.029521 0.016050 0.036915 -0.002785 0.074705 0.106987 0.072149 0.077534 0.120683 0.097497 0.020488 0.112734 0.031600 0.031489 0.069985 0.020043 0.024058 0.058143 0.088912 0.031135 0.109012 0.063652 0.019996 0.110001 0.075652 0.094444 0.082894 0.020798 -0.008819 0.000218 0.041610 0.004135 0.076421 0.093553 0.091257 0.053520 0.137252 -0.022969 0.025703 -0.093307 -0.012625 -0.044374 0.006318 0.020487 0.031532 0.082858 0.066487 0.119347 0.016081 -0.019849 -0.058197 -0.074184 0.065920 0.057814 0.048630 -0.012247 0.001443 -0.022152 0.070765 0.012321 -0.065080 -0.015415 -0.066897 0.022534 -0.049338 0.015090 0.057662 -0.006045 -0.066968 -0.032455 0.087721 0.036873 0.007907 0.002792 -0.046258 0.070836 0.079144 0.175184 0.039390 0.015192 0.019074 0.063662 -0.045775 -0.047310 0.050050 0.022897 -0.013347 -0.043691 -0.035472 0.090987 -0.048785 0.063431 0.009741 0.130772 -0.006315 0.067786 -0.095200 -0.002128 -0.036692 0.130568 -0.035665 -0.245318 0.274976 0.278555 0.206989 0.422386 0.183735 0.279931 0.357124 -0.049509 -1.323074
0.072396 0.072834 0.074149 0.076339 0.079404 0.083345 0.088159 0.093846 0.100403 0.107830 0.116124 0.125281 0.135298 0.146171 0.157893 0.170459 0.183861 0.198090 0.213136 0.228987 0.245629 0.263046 0.281222 0.300135 0.319764 0.340082 0.361063 0.382674 0.404881 0.427646 0.450927 0.474679 0.498852 0.523391 0.548239 0.573332 0.598603 0.623977 0.649379 0.674725 0.699926 0.724890 0.749519 0.773708 0.797349 0.820328 0.842527 0.863824 0.884089 0.903193 0.921000 0.937371 0.952167 0.965243 0.976457 0.985662 0.992715 0.997470 0.999787 0.999527 0.996554 0.990740 0.981962 0.970105 0.955064 0.936745 0.915064 0.889953 0.861360 0.829248 0.793600 0.754417 0.711724 0.665568 0.616022 0.563181 0.507172 0.448148 0.386289 0.321809 0.254949 0.185983 0.115215 0.042978 0.030362 0.104413 0.178753 0.252936 0.326488 0.398918 0.469714 0.538347 0.604280 0.666964 0.725851 0.780392 0.830048 0.874291 0.912613 0.944532 0.969598 0.987399 0.997569 0.999794 0.993820 0.979458 0.956591 0.925178 0.885264 0.836980 0.780547 0.716283 0.644602 0.566018 0.481138 0.390670 0.295413 0.196255 0.094169 0.009799 0.114533 0.218863 0.321575 0.421423 0.517147 0.607486 0.691201 0.767085 0.833990 0.890841 0.936658 0.970577 0.991863 0.999937 0.994383 0.974972 0.941668 0.894643 0.834283 0.761194 0.676202 0.580352 0.474896 0.361293 0.241182 0.116369 0.011194 0.139445 0.266236 0.389371 0.506648 0.615888 0.714991 0.801972 0.875005 0.932466 0.972978 0.995442 0.999082 0.983464 0.948529 0.894608 0.822429 0.733125 0.628220 0.509620 0.379581 0.240680 0.095764 0.052101 0.199685 0.343676 0.480740 0.607610 0.721160 0.818492 0.897013 0.954515 0.989240 0.999950 0.985973 0.947245 0.884337 0.798463 0.691472 0.565825 0.424550 0.271178 0.109668 0.055687 0.220376 0.379783 0.529323 0.664574 0.781409 0.876141 0.945638 0.987448 0.999889 0.982138 0.934280 0.857343 0.753296 0.625017 0.476237 0.311441 0.135747 0.045235 0.225590 0.399274 0.560327 0.703075 0.822348 0.913667 0.973435 0.999094 0.989250 0.943762 0.863792 0.751798 0.611493 0.447731 0.266374 0.074085 0.121897 0.314030 0.494748 0.656776 0.793418 0.898855 0.968411 0.998774 0.988186 0.936555 0.845514 0.718407 0.560188 0.377262 0.177242 0.031345 0.239413 0.437709 0.617231 0.769632 0.887638 0.965406 0.998842 0.985847 0.926467 0.822958 0.679736 0.503225 0.301603 0.084441 0.137731 0.353920 0.553222 0.725371 0.861287 0.953578 0.996966 0.988629 0.928410 0.818900 0.665375 0.475578 0.259368 0.028233 0.205303 0.428347 0.628349 0.793828 0.915037 0.984588 0.997921 0.953652 0.853732 0.703415 0.511043 0.287602 0.046154 0.198927 0.432779 0.640970 0.810395 0.930133 0.992173 0.992009 0.929004 0.806526 0.631832 0.415685 0.171748 0.084273 0.335583 0.565431 0.758211 0.900558 0.982310 0.997273 0.943754 0.824773 0.647973 0.425181 0.171671 0.094848 0.355441 0.591293 0.785073 0.922244 0.992192 0.989106 0.912512 0.767442 0.564164 0.317524 0.045922 0.230044 0.489103 0.710970 0.877953 0.976407 0.997901 0.940013 0.806647 0.607866 0.359195 0.080475 0.205683 0.475702 0.706998 0.879875 0.979272 0.996117 0.928237 0.780693 0.565484 0.300667 0.008883 0.284518 0.553675 0.774494 0.926851 0.996477 0.976371 0.867581 0.679280 0.428078 0.136642 0.168296 0.458360 0.706174 0.887958 0.985884 0.989886 0.898793 0.720614 0.471936 0.176477 0.137117 0.438011 0.696207 0.885559
1.000000 1.000000 1.000000 1.000000 1.000000 1.000000 1.000000 1.000000 1.000000 1.000000 1.000000 1.000000 1.000000 1.000000 1.000000 1.000000 1.000000 1.000000 1.000000 1.000000 1.000000 1.000000 1.000000 1.000000 1.000000 1.000000 1.000000 1.000000 1.000000 1.000000 1.000000 1.000000 1.000000 1.000000 1.000000 1.000000 1.000000 1.000000 1.000000 1.000000 1.000000 1.000000 1.000000 1.000000 1.000000 1.000000 1.000000 1.000000 1.000000 1.000000 1.000000 1.000000 0.833495 0.833495 0.833495 0.833495 0.833495 0.833495 0.833495 0.815594 0.815594 0.815594 0.815594 0.815594 0.815594 0.815594 0.815594 0.815594 0.815594 0.815594 0.815594 0.815594 0.815594 0.815594 0.815594 0.815594 0.815594 0.815594 0.815594 0.815594 0.815594 0.815594 0.815594 0.815594 0.815594 0.815594 0.815594 0.815594 0.815594 0.815594 0.815594 0.815594 0.815594 0.815594 0.815594 0.815594 0.815594 0.815594 0.815594 0.815594 0.815594 0.815594 0.815594 0.952600 0.953240 0.950290 0.949175 0.947466 0.944190 0.939832 0.939394 0.940753 0.940955 0.941571 0.943676 0.944664 0.946299 0.947475 0.948299 0.949114 0.957239 0.960947 0.961488 0.961144 0.951694 0.958438 0.957619 0.955378 0.956164 0.956463 0.957172 0.957052 0.956886 0.956364 0.955079 0.955805 0.955647 0.954908 0.953861 0.951559 0.951518 0.951064 0.951193 0.952160 0.952864 0.953517 0.954043 0.954018 0.954202 0.954188 0.954089 0.949160 0.949187 0.942579 0.943208 0.944334 0.943983 0.942905 0.941455 0.941513 0.941388 0.941312 0.941131 0.941585 0.922179 0.921620 0.921888 0.921093 0.913189 0.902103 0.894721 0.888290 0.889287 0.893552 0.898571 0.899117 0.896335 0.895385 0.879884 0.876776 0.863396 0.860390 0.848410 0.858962 0.860080 0.861442 0.854249 0.853583 0.852156 0.850417 0.841982 0.846369 0.846537 0.842341 0.838388 0.836749 0.835321 0.837555 0.846236 0.843720 0.839728 0.841834 0.829247 0.820283 0.819208 0.821437 0.829044 0.841386 0.841234 0.840418 0.834079 0.830385 0.824245 0.818804 0.817537 0.819178 0.817249 0.820853 0.818306 0.826501 0.816423 0.810571 0.815319 0.824354 0.828697 0.831176 0.833764 0.831759 0.834154 0.820848 0.822092 0.822679 0.772193 0.771862 0.762796 0.762658 0.743418 0.743311 0.737869 0.735825 0.725652 0.710950 0.721744 0.723078 0.691992 0.701188 0.695884 0.682762 0.662520 0.670583 0.685310 0.694213 0.692644 0.691535 0.679984 0.679251 0.688872 0.687057 0.692713 0.683766 0.680468 0.673187 0.676858 0.665734 0.668953 0.667347 0.666600 0.666668 0.663170 0.646042 0.653691 0.646633 0.637115 0.628013 0.596023 0.560267 0.546564 0.539176 0.520392 0.500394 0.518124 0.525325 0.503554 0.495314 0.477830 0.442781 0.441232 0.439897 0.422864 0.408085 0.389504 0.347771 0.357980 0.356447 0.355842 0.341807 0.349414 0.334241 0.298288 0.284040 0.249120 0.263941 0.286830 0.278396 0.254198 0.248782 0.260721 0.248035 0.257154 0.255546 0.270825 0.226552 0.172124 0.184870 0.185346 0.193197 0.176385 0.148073 0.175968 0.157531 0.169403 0.173331 0.125948 0.094889 0.076590 0.052139 0.056810 0.081576 0.097499 0.088783 0.072374 -0.018689 0.014224 0.038501 0.038501 0.038501 0.038501 0.038501 0.038501 0.038501 0.038501 0.038501 0.038501 0.038501 -0.021837 -0.021837 -0.021837 -0.021837 -0.021837 -0.021837 -0.021837 -0.021837 -0.021837 -0.021837 -0.021837 -0.021837 -0.021837 -0.021837 -0.021837 -0.021837 -0.021837 -0.021837 -0.021837
0.000000 0.000000 0.000000 0.000000 0.000000 0.000000 0.000000 0.000000 0.000000 0.000000 0.000000 0.000000 0.000000 0.000000 0.000000 0.000000 0.000000 0.000000 0.000000 0.000000 0.000000 0.000000 0.000000 0.000000 0.000000 0.000000 0.000000 0.000000 0.000000 0.000000 0.000000 0.000000 0.000000 0.000000 0.000000 0.000000 0.000000 0.000000 0.000000 0.000000 0.000000 0.000000 0.000000 0.000000 0.000000 0.000000 0.000000 0.000000 0.000000 0.000000 0.000000 0.000000 0.173422 0.173422 0.173422 0.173422 0.173422 0.173422 0.173422 0.191565 0.191565 0.191565 0.191565 0.191565 0.191565 0.191565 0.191565 0.191565 0.191565 0.191565 0.191565 0.191565 0.191565 0.191565 0.191565 0.191565 0.191565 0.191565 0.191565 0.191565 0.191565 0.191565 0.191565 0.191565 0.191565 0.191565 0.191565 0.191565 0.191565 0.191565 0.191565 0.191565 0.191565 0.191565 0.191565 0.191565 0.191565 0.191565 0.191565 0.191565 0.191565 0.191565 0.191565 0.219529 0.219529 0.219529 0.219529 0.219529 0.219529 0.219529 0.219529 0.219529 0.219529 0.219529 0.219529 0.219529 0.219529 0.219529 0.219529 0.219529 0.219529 0.219529 0.219529 0.219529 0.219529 0.219529 0.219529 0.219529 0.219529 0.219529 0.219529 0.219529 0.219529 0.219529 0.237356 0.237356 0.237356 0.237356 0.237356 0.237356 0.237356 0.237356 0.237356 0.237356 0.237356 0.237356 0.237356 0.237356 0.237356 0.237356 0.237356 0.237356 0.237356 0.237356 0.237356 0.237356 0.237356 0.237356 0.244339 0.244339 0.244339 0.244339 0.244339 0.244339 0.244339 0.244339 0.244339 0.244339 0.244339 0.244339 0.244339 0.244339 0.244339 0.244339 0.244339 0.244339 0.244339 0.244339 0.244339 0.248069 0.248069 0.248069 0.248069 0.248069 0.248069 0.248069 0.248069 0.248069 0.248069 0.248069 0.248069 0.248069 0.248069 0.248069 0.248069 0.248069 0.248069 0.248069 0.248069 0.248069 0.248069 0.248069 0.248069 0.248069 0.248069 0.248069 0.248069 0.248069 0.248069 0.248069 0.248069 0.248069 0.248069 0.248069 0.248069 0.248069 0.256074 0.256074 0.256074 0.256074 0.256074 0.256074 0.256074 0.256074 0.256074 0.256074 0.256074 0.256074 0.256074 0.256074 0.256074 0.256074 0.256074 0.256074 0.256074 0.256074 0.256074 0.256074 0.256074 0.256074 0.256074 0.256074 0.256074 0.256074 0.256074 0.256074 0.256074 0.256074 0.256074 0.256074 0.256074 0.256074 0.256074 0.256074 0.256074 0.256074 0.256074 0.256074 0.256074 0.256074 0.256074 0.260378 0.260378 0.260378 0.260378 0.260378 0.260378 0.260378 0.260378 0.260378 0.260378 0.260378 0.260378 0.260378 0.256074 0.256074 0.256074 0.256074 0.256074 0.256074 0.256074 0.256074 0.256074 0.256074 0.256074 0.256074 0.256074 0.260378 0.260378 0.260378 0.260378 0.260378 0.260378 0.260378 0.260378 0.260378 0.260378 0.260378 0.260378 0.251976 0.251976 0.251976 0.251976 0.251976 0.251976 0.251976 0.251976 0.251976 0.251976 0.251976 0.251976 0.256074 0.256074 0.256074 0.256074 0.256074 0.256074 0.256074 0.256074 0.256074 0.256074 0.256074 0.251976 0.251976 0.251976 0.251976 0.251976 0.251976 0.251976 0.251976 0.251976 0.251976 0.251976 0.248069 0.248069 0.248069 0.248069 0.248069 0.248069 0.248069 0.248069 0.248069 0.248069 0.248069 0.256074 0.256074 0.256074 0.256074 0.256074 0.256074 0.256074 0.256074 0.256074 0.256074 0.256074 0.256074 0.256074 0.256074 0.256074 0.256074 0.256074 0.256074 0.256074
