# Output from CTFFind version 4.1.9, run on 2019-11-02 12:27:07
# Input file: stack16_ub_averaged_250.mrc ; Number of micrographs: 1
# Pixel size: 3.000 Angstroms ; acceleration voltage: 300.0 keV ; spherical aberration: 0.00 mm ; amplitude contrast: 0.07
# Box size: 512 pixels ; min. res.: 30.0 Angstroms ; max. res.: 5.0 Angstroms ; min. def.: 5000.0 um; max. def. 50000.0 um; num. frames averaged: 1
# 6 lines per micrograph: #1 - spatial frequency (1/Angstroms); #2 - 1D rotational average of spectrum (assuming no astigmatism); #3 - 1D rotational average of spectrum; #4 - CTF fit; #5 - cross-correlation between spectrum and CTF fit; #6 - 2sigma of expected cross correlation of noise
0.000000 0.000651 0.001302 0.001953 0.002604 0.003255 0.003906 0.004557 0.005208 0.005859 0.006510 0.007161 0.007812 0.008464 0.009115 0.009766 0.010417 0.011068 0.011719 0.012370 0.013021 0.013672 0.014323 0.014974 0.015625 0.016276 0.016927 0.017578 0.018229 0.018880 0.019531 0.020182 0.020833 0.021484 0.022135 0.022786 0.023438 0.024089 0.024740 0.025391 0.026042 0.026693 0.027344 0.027995 0.028646 0.029297 0.029948 0.030599 0.031250 0.031901 0.032552 0.033203 0.033854 0.034505 0.035156 0.035807 0.036458 0.037109 0.037760 0.038411 0.039062 0.039714 0.040365 0.041016 0.041667 0.042318 0.042969 0.043620 0.044271 0.044922 0.045573 0.046224 0.046875 0.047526 0.048177 0.048828 0.049479 0.050130 0.050781 0.051432 0.052083 0.052734 0.053385 0.054036 0.054688 0.055339 0.055990 0.056641 0.057292 0.057943 0.058594 0.059245 0.059896 0.060547 0.061198 0.061849 0.062500 0.063151 0.063802 0.064453 0.065104 0.065755 0.066406 0.067057 0.067708 0.068359 0.069010 0.069661 0.070312 0.070964 0.071615 0.072266 0.072917 0.073568 0.074219 0.074870 0.075521 0.076172 0.076823 0.077474 0.078125 0.078776 0.079427 0.080078 0.080729 0.081380 0.082031 0.082682 0.083333 0.083984 0.084635 0.085286 0.085938 0.086589 0.087240 0.087891 0.088542 0.089193 0.089844 0.090495 0.091146 0.091797 0.092448 0.093099 0.093750 0.094401 0.095052 0.095703 0.096354 0.097005 0.097656 0.098307 0.098958 0.099609 0.100260 0.100911 0.101562 0.102214 0.102865 0.103516 0.104167 0.104818 0.105469 0.106120 0.106771 0.107422 0.108073 0.108724 0.109375 0.110026 0.110677 0.111328 0.111979 0.112630 0.113281 0.113932 0.114583 0.115234 0.115885 0.116536 0.117188 0.117839 0.118490 0.119141 0.119792 0.120443 0.121094 0.121745 0.122396 0.123047 0.123698 0.124349 0.125000 0.125651 0.126302 0.126953 0.127604 0.128255 0.128906 0.129557 0.130208 0.130859 0.131510 0.132161 0.132812 0.133464 0.134115 0.134766 0.135417 0.136068 0.136719 0.137370 0.138021 0.138672 0.139323 0.139974 0.140625 0.141276 0.141927 0.142578 0.143229 0.143880 0.144531 0.145182 0.145833 0.146484 0.147135 0.147786 0.148438 0.149089 0.149740 0.150391 0.151042 0.151693 0.152344 0.152995 0.153646 0.154297 0.154948 0.155599 0.156250 0.156901 0.157552 0.158203 0.158854 0.159505 0.160156 0.160807 0.161458 0.162109 0.162760 0.163411 0.164062 0.164714 0.165365 0.166016 0.166667 0.167318 0.167969 0.168620 0.169271 0.169922 0.170573 0.171224 0.171875 0.172526 0.173177 0.173828 0.174479 0.175130 0.175781 0.176432 0.177083 0.177734 0.178385 0.179036 0.179688 0.180339 0.180990 0.181641 0.182292 0.182943 0.183594 0.184245 0.184896 0.185547 0.186198 0.186849 0.187500 0.188151 0.188802 0.189453 0.190104 0.190755 0.191406 0.192057 0.192708 0.193359 0.194010 0.194661 0.195312 0.195964 0.196615 0.197266 0.197917 0.198568 0.199219 0.199870 0.200521 0.201172 0.201823 0.202474 0.203125 0.203776 0.204427 0.205078 0.205729 0.206380 0.207031 0.207682 0.208333 0.208984 0.209635 0.210286 0.210938 0.211589 0.212240 0.212891 0.213542 0.214193 0.214844 0.215495 0.216146 0.216797 0.217448 0.218099 0.218750 0.219401 0.220052 0.220703 0.221354 0.222005 0.222656 0.223307 0.223958 0.224609 0.225260 0.225911 0.226562 0.227214 0.227865 0.228516 0.229167 0.229818 0.230469 0.231120 0.231771 0.232422 0.233073 0.233724 0.234375 0.235026 0.235677
       0.34119        0.34119        0.34119        0.34119        0.34119        0.34119        0.34119        0.34119        0.34119        0.34119        0.34119        0.34119        0.34119        0.34119        0.34119        0.34119        0.34119        0.34119        0.34119        0.34119        0.34119        0.34119        0.34119        0.34119        0.34119        0.34119        0.34119        0.34119        0.34119        0.34119        0.34119        0.34119        0.34119        0.34119        0.34119        0.34119        0.34119        0.34119        0.34119        0.34119        0.34119        0.34119        0.34119        0.34119        0.34119        0.34119        0.34119        0.34119        0.34119        0.34119        0.34119        0.48782        0.70170        0.45432       -0.11407       -0.41356       -0.57373       -0.66545       -0.74794       -0.76628       -0.87034       -0.91637       -0.76049       -0.92654       -0.87339       -1.02533       -1.09951       -0.99066       -0.96477       -0.88509       -0.86326       -0.75265       -0.64281       -0.50247       -0.42737       -0.22073       -0.11778       -0.02188        0.20330        0.24324        0.30661        0.38195        0.43729        0.51506        0.57792        0.59320        0.58966        0.49996        0.54283        0.48553        0.38979        0.31848        0.20352        0.16961        0.10195       -0.06169       -0.11004       -0.09446        0.00858       -0.01682        0.01278        0.02630        0.20838        0.21853        0.39129        0.45501        0.55893        0.69443        0.75679        0.72843        0.70258        0.69851        0.58085        0.53881        0.39874        0.26966        0.19008        0.14337        0.06599        0.02268        0.02118        0.06222        0.07422        0.26768        0.41600        0.50602        0.58772        0.63734        0.70237        0.65914        0.64948        0.66834        0.60776        0.47866        0.28321        0.23466        0.20671        0.12855        0.04254        0.08926        0.12292        0.24892        0.33719        0.41435        0.49948        0.53605        0.66127        0.60827        0.55534        0.51124        0.36469        0.21056        0.21292        0.15081        0.11245        0.12174        0.21602        0.25008        0.35488        0.44000        0.43845        0.56121        0.50748        0.44626        0.45225        0.38076        0.32256        0.27481        0.21598        0.23548        0.20754        0.20647        0.32052        0.44847        0.48252        0.47861        0.54958        0.49397        0.45463        0.39223        0.29380        0.22356        0.23047        0.24257        0.26430        0.27604        0.32228        0.44106        0.49829        0.48474        0.45865        0.41380        0.38571        0.36101        0.24775        0.22256        0.24351        0.29270        0.35348        0.35928        0.38817        0.41100        0.44187        0.36954        0.34710        0.31180        0.30280        0.26711        0.25718        0.30476        0.34401        0.41318        0.41322        0.39482        0.39340        0.40486        0.34858        0.28849        0.29123        0.27822        0.30675        0.35785        0.36739        0.41630        0.35650        0.36646        0.38856        0.34624        0.31745        0.27836        0.29544        0.33840        0.32735        0.32317        0.37236        0.39039        0.33045        0.35097        0.29646        0.30637        0.28531        0.28214        0.29842        0.33053        0.38327        0.36323        0.34495        0.32460        0.28270        0.27543        0.29499        0.28151        0.31153        0.36545        0.39293        0.33655        0.31764        0.30852        0.29626        0.28005        0.28011        0.29863        0.33808        0.33820        0.33896        0.31261        0.34560        0.32195        0.28704        0.31580        0.32015        0.33031        0.33997        0.31817        0.31466        0.30584        0.32468        0.30841        0.33331        0.38384        0.32937        0.36074        0.31955        0.31257        0.29104        0.30978        0.28931        0.30661        0.31301        0.34755        0.35729        0.31556        0.32109        0.31540        0.29029        0.28836        0.28992        0.32826        0.34492        0.35391        0.33021        0.32164        0.25771        0.26083        0.31513        0.34390        0.32252        0.30112        0.28249        0.28516        0.32248        0.30812        0.31093        0.33454        0.34259        0.30555        0.23869        0.29010        0.27989        0.28480        0.32122        0.31853        0.34028        0.33975        0.27851        0.26623        0.29274        0.27338        0.29031        0.27611        0.24967        0.26402        0.24567        0.28167        0.27973        0.27576        0.26043        0.31851        0.32419        0.31392        0.28078        0.30043        0.24401        0.26552        0.25384        0.33874        0.34657        0.22967        0.24898        0.26229        0.23776        0.24389        0.29389        0.22233        0.14514        0.17649        0.24909        0.27304        0.22846        0.12848        0.03832       -0.42837       -0.76133
3.058725 3.020727 2.982973 2.945463 2.908198 2.871176 2.834398 2.797865 2.761575 2.725530 2.689728 2.654171 2.618858 2.583788 2.548963 2.514382 2.480044 2.445951 2.412102 2.378497 2.345136 2.312019 2.279146 2.246517 2.214132 2.181991 2.150095 2.118442 2.087033 2.055868 2.024948 1.994271 1.963838 1.933650 1.903705 1.874005 1.844548 1.815336 1.786368 1.757643 1.729163 1.700927 1.672935 1.645187 1.617682 1.590422 1.563406 1.536634 1.510107 1.483823 1.457783 1.515811 1.704781 1.616404 0.965773 0.685286 0.477236 0.429099 0.321955 0.262455 0.200359 0.020247 0.198738 0.080933 -0.007222 -0.057106 -0.200350 -0.152774 -0.092597 -0.091672 -0.098335 0.010538 0.030463 0.235642 0.148367 0.364303 0.448202 0.481622 0.718573 0.702942 0.709686 0.839750 0.823511 0.857750 0.923833 0.894122 0.941848 0.753496 0.837914 0.843387 0.624348 0.605961 0.457184 0.436056 0.388294 0.212051 0.124529 0.100451 0.206894 0.148413 0.198021 0.111869 0.313837 0.290118 0.460462 0.416983 0.583346 0.642604 0.763220 0.696515 0.663887 0.667081 0.531749 0.506304 0.369479 0.293754 0.117551 0.145163 0.005405 -0.012163 -0.037970 -0.025470 -0.002047 0.031213 0.276411 0.334106 0.387488 0.401854 0.468847 0.522577 0.471669 0.506244 0.402914 0.391772 0.154723 0.071800 0.076619 -0.000732 -0.124705 -0.043783 -0.107856 0.019544 0.135000 0.158328 0.256204 0.256686 0.384172 0.465189 0.356479 0.394315 0.285475 0.128824 0.054267 0.052384 0.013421 0.004628 0.010289 0.108985 0.126877 0.261721 0.238152 0.307973 0.368679 0.236756 0.244673 0.220266 0.132757 0.082700 0.050956 0.029169 0.038498 -0.014456 0.026001 0.186450 0.224205 0.245207 0.282383 0.231270 0.242569 0.145956 0.107809 -0.019690 -0.018614 -0.003659 0.015212 0.011021 0.029797 0.103504 0.191593 0.199611 0.225537 0.135969 0.144398 0.079818 0.057781 -0.060749 -0.017429 -0.007370 0.056885 0.066056 0.074015 0.151217 0.094253 0.163969 0.070114 0.054064 0.043516 0.029483 0.003587 0.006975 0.052171 0.084273 0.130902 0.141111 0.067576 0.131410 0.101084 0.019499 0.010281 0.008819 -0.003578 0.057301 0.062445 0.102514 0.100263 0.068881 0.072395 0.082505 0.037349 0.017674 -0.015475 0.014517 0.059659 0.023884 0.041527 0.081527 0.083560 0.054471 0.036197 0.011887 0.016150 -0.006734 -0.007957 0.013944 0.057449 0.107750 0.060245 0.056849 0.040520 -0.013909 -0.000416 0.015867 0.013486 0.029220 0.105025 0.063564 0.027113 0.045420 0.003061 0.028028 -0.011496 0.002661 0.022884 0.064985 0.038638 0.045285 0.028685 0.056535 0.028807 -0.003026 0.034028 0.042095 0.043009 0.040613 0.028474 0.004242 -0.007907 0.029313 0.005430 0.046862 0.073800 0.042809 0.032948 0.009917 0.004709 -0.005726 0.011809 0.003349 0.011506 -0.005834 0.080407 0.052794 0.036848 0.043203 0.004592 0.008314 0.007870 -0.003445 0.053243 0.064184 0.084184 0.043461 0.048903 -0.026405 0.008486 0.040845 0.069439 0.038818 0.034791 0.006601 0.002969 0.049526 0.049543 0.040792 0.062921 0.073120 0.051209 -0.024098 0.023018 0.039343 0.024878 0.045046 0.072963 0.075691 0.068895 0.017447 0.005664 0.019884 0.005982 0.024782 -0.015335 -0.022014 -0.009309 -0.052783 0.008455 -0.005873 0.012576 -0.075015 0.012259 0.014634 0.002270 -0.038371 0.025552 -0.088031 -0.021282 -0.043212 0.043650 0.071657 -0.105350 -0.026145 0.030661 0.009672 -0.045320 0.043268 0.023727 0.001196 -0.043230 0.077075 0.237122 0.204314 0.077850 0.037164 -0.669820
0.072396 0.073046 0.074995 0.078242 0.082787 0.088628 0.095763 0.104188 0.113901 0.124895 0.137165 0.150702 0.165495 0.181533 0.198799 0.217276 0.236941 0.257768 0.279727 0.302783 0.326895 0.352015 0.378090 0.405061 0.432858 0.461406 0.490619 0.520404 0.550656 0.581263 0.612098 0.643029 0.673907 0.704575 0.734865 0.764596 0.793575 0.821601 0.848460 0.873928 0.897772 0.919752 0.939618 0.957117 0.971989 0.983974 0.992809 0.998236 0.999997 0.997846 0.991544 0.980867 0.965608 0.945581 0.920624 0.890606 0.855425 0.815020 0.769370 0.718499 0.662481 0.601444 0.535573 0.465113 0.390372 0.311723 0.229607 0.144531 0.057070 0.032134 0.122375 0.212887 0.302846 0.391379 0.477567 0.560460 0.639080 0.712436 0.779539 0.839411 0.891103 0.933711 0.966396 0.988395 0.999045 0.997798 0.984243 0.958115 0.919322 0.867949 0.804277 0.728792 0.642190 0.545382 0.439494 0.325861 0.206021 0.081697 0.045218 0.172687 0.298561 0.420606 0.536552 0.644127 0.741108 0.825372 0.894943 0.948050 0.983175 0.999104 0.994973 0.970315 0.925089 0.859713 0.775079 0.672567 0.554033 0.421797 0.278614 0.127622 0.027708 0.183649 0.336300 0.481685 0.615854 0.734999 0.835568 0.914377 0.968733 0.996531 0.996356 0.967561 0.910327 0.825708 0.715636 0.582914 0.431165 0.264759 0.088704 0.091486 0.269961 0.440714 0.597786 0.735485 0.848600 0.932612 0.983905 0.999937 0.979393 0.922293 0.830055 0.705507 0.552838 0.377497 0.186025 0.014164 0.215055 0.408338 0.585763 0.739490 0.862458 0.948733 0.993824 0.994953 0.951256 0.863907 0.736151 0.573238 0.382256 0.171861 0.048085 0.266951 0.473847 0.658169 0.810156 0.921433 0.985516 0.998228 0.958021 0.866162 0.726779 0.546743 0.335384 0.104067 0.134397 0.366428 0.578456 0.757714 0.893048 0.975646 0.999669 0.962721 0.866129 0.714996 0.518016 0.287043 0.036437 0.217792 0.458984 0.670923 0.838954 0.951034 0.998663 0.977593 0.888280 0.736017 0.530717 0.286357 0.020092 0.248891 0.500754 0.716453 0.879229 0.975960 0.998293 0.943460 0.814675 0.621078 0.377191 0.101926 0.182822 0.453885 0.688694 0.867201 0.973650 0.998053 0.937234 0.795319 0.583597 0.319748 0.026472 0.270405 0.544177 0.769659 0.925557 0.996575 0.975013 0.861732 0.666318 0.406435 0.106328 0.205317 0.498102 0.742861 0.914617 0.995231 0.975430 0.856026 0.648104 0.372174 0.056278 0.266770 0.562733 0.799607 0.951137 0.999844 0.939195 0.774620 0.523240 0.212253 0.123875 0.447143 0.720309 0.911216 0.996698 0.965537 0.820113 0.576483 0.262799 0.083776 0.421388 0.708504 0.909085 0.997211 0.960611 0.802562 0.541870 0.210849 0.148528 0.489837 0.768204 0.946257 0.999301 0.918931 0.714579 0.412669 0.053412 0.314384 0.639892 0.877302 0.992392 0.967656 0.805197 0.526895 0.171721 0.209530 0.561391 0.831800 0.979892 0.982380 0.837455 0.565572 0.206834 0.184688 0.548984 0.829295 0.981057 0.979193 0.822525 0.534513 0.160027 0.241388 0.604877 0.870753 0.994425 0.954122 0.755021 0.428973 0.029716 0.375756 0.718365 0.938752 0.997754 0.883651 0.614820 0.237125 0.183604 0.572872 0.860715 0.994370 0.948254 0.729181 0.375788 0.047908 0.463912 0.794499 0.976864 0.975270 0.788428 0.450444 0.024961 0.406512 0.760143 0.966117 0.982670 0.804923 0.466592 0.034011 0.406569 0.766080 0.970680 0.977218 0.782704 0.425732 0.020761 0.464084 0.810932 0.987129 0.953808 0.716393 0.324301 0.138935 0.573146
1.000000 1.000000 1.000000 1.000000 1.000000 1.000000 1.000000 1.000000 1.000000 1.000000 1.000000 1.000000 1.000000 1.000000 1.000000 1.000000 1.000000 1.000000 1.000000 1.000000 1.000000 1.000000 1.000000 1.000000 1.000000 1.000000 1.000000 1.000000 1.000000 1.000000 1.000000 1.000000 1.000000 1.000000 1.000000 1.000000 1.000000 1.000000 1.000000 1.000000 1.000000 1.000000 1.000000 1.000000 1.000000 1.000000 1.000000 1.000000 1.000000 1.000000 1.000000 1.000000 0.933562 0.933562 0.933562 0.933562 0.933562 0.933562 0.933562 0.933562 0.933562 0.933562 0.933562 0.933562 0.933562 0.933562 0.933562 0.933562 0.933562 0.933562 0.933562 0.933562 0.933562 0.933562 0.933562 0.933562 0.933562 0.933562 0.933562 0.933562 0.933562 0.933562 0.933562 0.933562 0.933562 0.923249 0.924719 0.927670 0.928734 0.928696 0.928244 0.927930 0.928145 0.929852 0.932159 0.948778 0.950936 0.951494 0.952784 0.953035 0.955590 0.953876 0.953675 0.964272 0.963090 0.963762 0.956763 0.958341 0.957413 0.956475 0.957045 0.957291 0.955359 0.953217 0.951534 0.950897 0.950523 0.952283 0.952752 0.952709 0.953291 0.953143 0.952861 0.949475 0.948068 0.949542 0.951601 0.950755 0.956469 0.956293 0.964327 0.965106 0.963682 0.963590 0.963788 0.963986 0.953923 0.947813 0.942644 0.931158 0.922115 0.919886 0.922726 0.924587 0.923578 0.918788 0.917737 0.915296 0.909906 0.909034 0.908651 0.910264 0.905769 0.902031 0.885506 0.884425 0.887017 0.886921 0.884820 0.876488 0.871389 0.872134 0.875153 0.872718 0.869146 0.885302 0.879695 0.884584 0.887662 0.890905 0.894883 0.891582 0.890566 0.886665 0.882973 0.877037 0.878189 0.870156 0.872926 0.868438 0.859475 0.852222 0.855308 0.864614 0.872882 0.881260 0.880354 0.880603 0.879775 0.870766 0.871594 0.863821 0.864709 0.868987 0.874817 0.871072 0.868852 0.873299 0.871339 0.873306 0.876247 0.872337 0.870208 0.861726 0.861904 0.862140 0.879131 0.878054 0.865948 0.857154 0.849028 0.856089 0.859743 0.858856 0.860729 0.852822 0.854768 0.845121 0.831592 0.834252 0.839050 0.832791 0.832895 0.830622 0.834385 0.836883 0.835533 0.831359 0.830470 0.834612 0.813659 0.820718 0.823742 0.818325 0.822562 0.815847 0.809040 0.803829 0.803388 0.801315 0.813761 0.810543 0.778473 0.768329 0.776359 0.756645 0.747081 0.744541 0.745597 0.725066 0.709644 0.681937 0.676014 0.662171 0.668079 0.669975 0.658461 0.650329 0.636895 0.621163 0.634805 0.638124 0.603439 0.603373 0.596785 0.592381 0.588111 0.583601 0.579717 0.589786 0.596216 0.559060 0.554315 0.562736 0.538566 0.536244 0.533256 0.526616 0.499932 0.507428 0.503803 0.522070 0.558503 0.520664 0.514124 0.527790 0.541755 0.553280 0.553620 0.538486 0.514964 0.529496 0.501969 0.491129 0.506694 0.516303 0.505201 0.522194 0.512004 0.544626 0.537862 0.520644 0.543262 0.558796 0.561298 0.554002 0.564957 0.545520 0.548381 0.540104 0.485207 0.498864 0.479506 0.423329 0.427737 0.449128 0.437925 0.438329 0.410221 0.409977 0.383866 0.346537 0.356073 0.349606 0.314017 0.276131 0.278338 0.280450 0.248637 0.219001 0.240302 0.188157 0.179600 0.199472 0.210691 0.196755 0.199419 0.220701 0.220701 0.220701 0.220701 0.220701 0.220701 0.220701 0.220701 0.220701 0.220701 0.220701 0.220701 0.220701 0.220701 0.246989 0.246989 0.246989 0.246989 0.246989 0.246989 0.246989 0.246989 0.246989 0.246989 0.246989 0.246989
0.000000 0.000000 0.000000 0.000000 0.000000 0.000000 0.000000 0.000000 0.000000 0.000000 0.000000 0.000000 0.000000 0.000000 0.000000 0.000000 0.000000 0.000000 0.000000 0.000000 0.000000 9401.000000 0.000000 0.000000 0.000000 0.000000 0.000000 0.000000 0.000000 0.000000 0.000000 0.000000 0.000000 0.000000 0.000000 0.000000 0.000000 0.000000 0.000000 0.000000 0.000000 0.000000 0.000000 0.000000 0.000000 0.000000 0.000000 0.000000 0.000000 0.000000 0.000000 0.000000 0.209657 0.209657 0.209657 0.209657 0.209657 0.209657 0.209657 0.209657 0.209657 0.209657 0.209657 0.209657 0.209657 0.209657 0.209657 0.209657 0.209657 0.209657 0.209657 0.209657 0.209657 0.209657 0.209657 0.209657 0.209657 0.209657 0.209657 0.209657 0.209657 0.209657 0.209657 0.209657 0.209657 0.244339 0.244339 0.244339 0.244339 0.244339 0.244339 0.244339 0.244339 0.244339 0.244339 0.244339 0.244339 0.244339 0.244339 0.244339 0.244339 0.244339 0.244339 0.244339 0.244339 0.244339 0.244339 0.244339 0.244339 0.244339 0.260378 0.260378 0.260378 0.260378 0.260378 0.260378 0.260378 0.260378 0.260378 0.260378 0.260378 0.260378 0.260378 0.260378 0.260378 0.260378 0.260378 0.260378 0.260378 0.260378 0.269680 0.269680 0.269680 0.269680 0.269680 0.269680 0.269680 0.269680 0.269680 0.269680 0.269680 0.269680 0.269680 0.269680 0.269680 0.269680 0.269680 0.269680 0.269680 0.269680 0.269680 0.269680 0.269680 0.269680 0.269680 0.269680 0.269680 0.269680 0.269680 0.269680 0.269680 0.269680 0.269680 0.280056 0.280056 0.280056 0.280056 0.280056 0.280056 0.280056 0.280056 0.280056 0.280056 0.280056 0.280056 0.280056 0.280056 0.280056 0.280056 0.280056 0.280056 0.280056 0.280056 0.280056 0.280056 0.280056 0.280056 0.280056 0.280056 0.280056 0.274721 0.274721 0.274721 0.274721 0.274721 0.274721 0.274721 0.274721 0.274721 0.274721 0.274721 0.274721 0.274721 0.285714 0.285714 0.285714 0.285714 0.285714 0.285714 0.285714 0.285714 0.285714 0.285714 0.285714 0.280056 0.280056 0.280056 0.280056 0.280056 0.280056 0.280056 0.280056 0.280056 0.280056 0.280056 0.274721 0.274721 0.274721 0.274721 0.274721 0.274721 0.274721 0.274721 0.274721 0.274721 0.274721 0.280056 0.280056 0.280056 0.280056 0.280056 0.280056 0.280056 0.280056 0.280056 0.280056 0.285714 0.285714 0.285714 0.285714 0.285714 0.285714 0.285714 0.285714 0.285714 0.269680 0.269680 0.269680 0.269680 0.269680 0.269680 0.269680 0.269680 0.269680 0.269680 0.274721 0.274721 0.274721 0.274721 0.274721 0.274721 0.274721 0.274721 0.274721 0.285714 0.285714 0.285714 0.285714 0.285714 0.285714 0.285714 0.285714 0.264906 0.264906 0.264906 0.264906 0.264906 0.264906 0.264906 0.264906 0.264906 0.274721 0.274721 0.274721 0.274721 0.274721 0.274721 0.274721 0.274721 0.269680 0.269680 0.269680 0.269680 0.269680 0.269680 0.269680 0.269680 0.269680 0.269680 0.269680 0.269680 0.269680 0.269680 0.269680 0.269680 0.280056 0.280056 0.280056 0.280056 0.280056 0.280056 0.280056 0.260378 0.260378 0.260378 0.260378 0.260378 0.260378 0.260378 0.260378 0.269680 0.269680 0.269680 0.269680 0.269680 0.269680 0.269680 0.264906 0.264906 0.264906 0.264906 0.264906 0.264906 0.264906 0.264906 0.264906 0.264906 0.264906 0.264906 0.264906 0.264906 0.260378 0.260378 0.260378 0.260378 0.260378 0.260378 0.260378 0.260378 0.260378 0.260378 0.260378 0.260378
