# Output from CTFFind version 4.1.9, run on 2019-11-03 18:51:10
# Input file: stack3_ub_averaged_50.mrc ; Number of micrographs: 1
# Pixel size: 3.000 Angstroms ; acceleration voltage: 300.0 keV ; spherical aberration: 0.00 mm ; amplitude contrast: 0.07
# Box size: 512 pixels ; min. res.: 30.0 Angstroms ; max. res.: 5.0 Angstroms ; min. def.: 5000.0 um; max. def. 50000.0 um; num. frames averaged: 1
# 6 lines per micrograph: #1 - spatial frequency (1/Angstroms); #2 - 1D rotational average of spectrum (assuming no astigmatism); #3 - 1D rotational average of spectrum; #4 - CTF fit; #5 - cross-correlation between spectrum and CTF fit; #6 - 2sigma of expected cross correlation of noise
0.000000 0.000651 0.001302 0.001953 0.002604 0.003255 0.003906 0.004557 0.005208 0.005859 0.006510 0.007161 0.007812 0.008464 0.009115 0.009766 0.010417 0.011068 0.011719 0.012370 0.013021 0.013672 0.014323 0.014974 0.015625 0.016276 0.016927 0.017578 0.018229 0.018880 0.019531 0.020182 0.020833 0.021484 0.022135 0.022786 0.023438 0.024089 0.024740 0.025391 0.026042 0.026693 0.027344 0.027995 0.028646 0.029297 0.029948 0.030599 0.031250 0.031901 0.032552 0.033203 0.033854 0.034505 0.035156 0.035807 0.036458 0.037109 0.037760 0.038411 0.039062 0.039714 0.040365 0.041016 0.041667 0.042318 0.042969 0.043620 0.044271 0.044922 0.045573 0.046224 0.046875 0.047526 0.048177 0.048828 0.049479 0.050130 0.050781 0.051432 0.052083 0.052734 0.053385 0.054036 0.054688 0.055339 0.055990 0.056641 0.057292 0.057943 0.058594 0.059245 0.059896 0.060547 0.061198 0.061849 0.062500 0.063151 0.063802 0.064453 0.065104 0.065755 0.066406 0.067057 0.067708 0.068359 0.069010 0.069661 0.070312 0.070964 0.071615 0.072266 0.072917 0.073568 0.074219 0.074870 0.075521 0.076172 0.076823 0.077474 0.078125 0.078776 0.079427 0.080078 0.080729 0.081380 0.082031 0.082682 0.083333 0.083984 0.084635 0.085286 0.085938 0.086589 0.087240 0.087891 0.088542 0.089193 0.089844 0.090495 0.091146 0.091797 0.092448 0.093099 0.093750 0.094401 0.095052 0.095703 0.096354 0.097005 0.097656 0.098307 0.098958 0.099609 0.100260 0.100911 0.101562 0.102214 0.102865 0.103516 0.104167 0.104818 0.105469 0.106120 0.106771 0.107422 0.108073 0.108724 0.109375 0.110026 0.110677 0.111328 0.111979 0.112630 0.113281 0.113932 0.114583 0.115234 0.115885 0.116536 0.117188 0.117839 0.118490 0.119141 0.119792 0.120443 0.121094 0.121745 0.122396 0.123047 0.123698 0.124349 0.125000 0.125651 0.126302 0.126953 0.127604 0.128255 0.128906 0.129557 0.130208 0.130859 0.131510 0.132161 0.132812 0.133464 0.134115 0.134766 0.135417 0.136068 0.136719 0.137370 0.138021 0.138672 0.139323 0.139974 0.140625 0.141276 0.141927 0.142578 0.143229 0.143880 0.144531 0.145182 0.145833 0.146484 0.147135 0.147786 0.148438 0.149089 0.149740 0.150391 0.151042 0.151693 0.152344 0.152995 0.153646 0.154297 0.154948 0.155599 0.156250 0.156901 0.157552 0.158203 0.158854 0.159505 0.160156 0.160807 0.161458 0.162109 0.162760 0.163411 0.164062 0.164714 0.165365 0.166016 0.166667 0.167318 0.167969 0.168620 0.169271 0.169922 0.170573 0.171224 0.171875 0.172526 0.173177 0.173828 0.174479 0.175130 0.175781 0.176432 0.177083 0.177734 0.178385 0.179036 0.179688 0.180339 0.180990 0.181641 0.182292 0.182943 0.183594 0.184245 0.184896 0.185547 0.186198 0.186849 0.187500 0.188151 0.188802 0.189453 0.190104 0.190755 0.191406 0.192057 0.192708 0.193359 0.194010 0.194661 0.195312 0.195964 0.196615 0.197266 0.197917 0.198568 0.199219 0.199870 0.200521 0.201172 0.201823 0.202474 0.203125 0.203776 0.204427 0.205078 0.205729 0.206380 0.207031 0.207682 0.208333 0.208984 0.209635 0.210286 0.210938 0.211589 0.212240 0.212891 0.213542 0.214193 0.214844 0.215495 0.216146 0.216797 0.217448 0.218099 0.218750 0.219401 0.220052 0.220703 0.221354 0.222005 0.222656 0.223307 0.223958 0.224609 0.225260 0.225911 0.226562 0.227214 0.227865 0.228516 0.229167 0.229818 0.230469 0.231120 0.231771 0.232422 0.233073 0.233724 0.234375 0.235026 0.235677
       0.33457        0.33457        0.33457        0.33457        0.33457        0.33457        0.33457        0.33457        0.33457        0.33457        0.33457        0.33457        0.33457        0.33457        0.33457        0.33457        0.33457        0.33457        0.33457        0.33457        0.33457        0.33457        0.33457        0.33457        0.33457        0.33457        0.33457        0.33457        0.33457        0.33457        0.33457        0.33457        0.33457        0.33457        0.33457        0.33457        0.33457        0.33457        0.33457        0.33457        0.33457        0.33457        0.33457        0.33457        0.33457        0.33457        0.33457        0.33457        0.33457        0.33457        0.33457        0.45107        0.75852        0.36121        0.09363       -0.16319       -0.20672       -0.37323       -0.43271       -0.44762       -0.37291       -0.42843       -0.40012       -0.41281       -0.58680       -0.59288       -0.62132       -0.75450       -0.74502       -0.64229       -0.67320       -0.67294       -0.68770       -0.61575       -0.60976       -0.54374       -0.34092       -0.34233       -0.30006       -0.12697        0.01888        0.04592        0.20437        0.21721        0.39449        0.49816        0.58464        0.54114        0.60481        0.58307        0.50580        0.62011        0.60444        0.56895        0.54403        0.47736        0.38653        0.30486        0.18320        0.07480        0.00991       -0.05478       -0.03171       -0.02412        0.00856        0.00852        0.11407        0.15841        0.26975        0.32897        0.41544        0.54080        0.57380        0.64388        0.77603        0.76452        0.79366        0.75983        0.57562        0.49913        0.34142        0.34719        0.21450        0.13291        0.13676        0.08578        0.01709        0.03895        0.07794        0.18125        0.31424        0.34118        0.48615        0.54634        0.62041        0.55195        0.56933        0.58182        0.51652        0.49876        0.48899        0.36268        0.22567        0.15811        0.14815        0.16698        0.10737        0.12965        0.14870        0.21662        0.33361        0.36937        0.41427        0.50078        0.62062        0.51440        0.53042        0.46764        0.40610        0.30623        0.27107        0.23467        0.22524        0.15731        0.18796        0.20950        0.27193        0.38928        0.44062        0.45129        0.49983        0.50630        0.50579        0.46733        0.42579        0.38706        0.27143        0.23541        0.22958        0.22670        0.25944        0.31154        0.37195        0.40575        0.41388        0.42643        0.43452        0.44855        0.41530        0.35910        0.26799        0.31574        0.29833        0.31442        0.26980        0.31249        0.31333        0.41280        0.43629        0.39649        0.40041        0.36404        0.36436        0.34983        0.28992        0.23922        0.26206        0.24058        0.24002        0.31747        0.37228        0.37352        0.38466        0.37299        0.39578        0.37584        0.35118        0.27779        0.29538        0.31880        0.29657        0.33042        0.36717        0.34630        0.38718        0.34725        0.34559        0.32804        0.34492        0.33928        0.35038        0.30975        0.29063        0.32380        0.35661        0.34799        0.33017        0.31725        0.31917        0.30883        0.31576        0.31994        0.32147        0.31060        0.29797        0.33418        0.31448        0.32599        0.31761        0.34525        0.32128        0.29946        0.29766        0.30004        0.30670        0.28972        0.31135        0.35850        0.33752        0.32670        0.29241        0.31540        0.32834        0.32951        0.29157        0.27965        0.27705        0.31730        0.31825        0.31463        0.31026        0.30274        0.28577        0.28524        0.28037        0.29567        0.30379        0.33536        0.31886        0.35000        0.27865        0.27215        0.32139        0.33743        0.31679        0.30741        0.28090        0.30490        0.35608        0.37498        0.36060        0.29679        0.31014        0.34462        0.28712        0.32588        0.31953        0.30990        0.32072        0.30720        0.32189        0.31512        0.26303        0.29171        0.30001        0.29543        0.35515        0.35125        0.32272        0.30738        0.30142        0.27120        0.28181        0.29250        0.30159        0.27154        0.30503        0.28489        0.28635        0.25737        0.23415        0.24780        0.28305        0.33218        0.36240        0.33484        0.34687        0.27444        0.29968        0.27977        0.21024        0.19158        0.26744        0.27892        0.30292        0.35692        0.25031        0.26387        0.20560        0.26254        0.27039        0.32932        0.24236        0.18800        0.21047        0.26782        0.21637        0.21083        0.26719        0.28784        0.24549        0.19892        0.25422        0.24103        0.18418        0.19119        0.26200        0.10678        0.13344        0.23999       -0.04952       -0.35642       -0.39478
2.623978 2.594082 2.564362 2.534819 2.505452 2.476261 2.447246 2.418408 2.389746 2.361261 2.332951 2.304818 2.276861 2.249081 2.221476 2.194048 2.166797 2.139721 2.112822 2.086100 2.059553 2.033183 2.006989 1.980971 1.955130 1.929465 1.903976 1.878664 1.853527 1.828568 1.803784 1.779177 1.754746 1.730491 1.706412 1.682510 1.658784 1.635235 1.611861 1.588665 1.565644 1.542799 1.520131 1.497639 1.475324 1.453185 1.431222 1.409435 1.387824 1.366390 1.345132 1.498773 1.680076 1.339304 0.979445 0.832312 0.727815 0.535613 0.506159 0.381009 0.443537 0.430068 0.424060 0.368549 0.196758 0.176733 0.157449 -0.015984 -0.069575 0.060424 -0.002121 0.018996 -0.067903 0.006220 -0.023184 0.025466 0.228507 0.183454 0.158858 0.322807 0.523378 0.408618 0.684635 0.565270 0.793737 0.787199 0.985990 0.847421 0.922375 0.874738 0.751515 0.947065 0.841167 0.792124 0.836654 0.727257 0.627447 0.571364 0.395973 0.282278 0.220187 0.116039 0.095298 0.165889 0.148307 0.153214 0.171968 0.256133 0.312934 0.373534 0.463803 0.536019 0.589606 0.631440 0.727423 0.765680 0.743125 0.746892 0.581534 0.520587 0.296420 0.338531 0.163731 0.096655 0.056302 0.064505 -0.054397 -0.058105 -0.022192 0.038874 0.187552 0.159673 0.319776 0.328907 0.516278 0.387846 0.421235 0.427816 0.346267 0.362434 0.322838 0.274362 0.057826 0.041524 -0.033747 -0.019877 -0.057398 -0.052927 -0.036027 -0.028924 0.079160 0.160291 0.148421 0.240702 0.365266 0.286713 0.344242 0.343935 0.249442 0.156068 0.095285 0.072411 0.082356 -0.004313 -0.036701 0.008476 0.065319 0.105729 0.256223 0.210008 0.260136 0.287299 0.272541 0.247456 0.203985 0.182159 0.078271 0.007918 -0.019025 0.003355 -0.005422 0.048123 0.072091 0.163306 0.127616 0.174426 0.178907 0.175083 0.167212 0.137142 0.035862 0.021923 0.045873 0.048505 0.008372 0.029273 0.049876 0.061057 0.153163 0.149317 0.111456 0.091736 0.090484 0.090978 0.020570 -0.010747 -0.014162 -0.062524 -0.032930 -0.041400 0.069441 0.067596 0.086040 0.117748 0.071530 0.069494 0.090835 0.041999 -0.013770 0.006539 0.016569 -0.004521 0.052188 0.079523 0.042526 0.105307 0.017929 0.053330 0.045525 0.033121 0.055116 0.032583 -0.001885 0.014131 0.046103 0.040504 0.059617 -0.022007 -0.003885 -0.009294 -0.014428 -0.006279 -0.001129 -0.018249 -0.019153 -0.025928 0.021116 -0.005184 0.008889 0.019561 0.007887 0.032608 -0.031446 -0.002208 -0.016330 0.014000 -0.021233 0.013683 0.033453 0.050739 0.027322 -0.033940 0.037010 0.024719 0.019962 0.002947 -0.033810 -0.017392 0.029795 0.008013 0.001978 0.021194 -0.029618 -0.004258 -0.039081 -0.017458 0.002244 -0.005879 0.032384 -0.001744 0.052334 -0.052903 -0.036662 0.018317 0.032837 0.003605 -0.005443 -0.030959 -0.024430 0.030842 0.087578 0.028842 -0.018727 0.013363 0.017037 -0.023487 0.008929 0.020233 0.015587 0.015631 0.001119 0.024341 -0.000718 -0.042024 -0.005262 -0.009608 -0.000466 0.049599 0.044486 0.031016 0.042389 -0.006765 -0.018459 -0.005816 -0.001189 0.001392 -0.058313 0.000795 0.000137 -0.039742 -0.051225 -0.060904 -0.035982 0.000612 0.011186 0.074363 0.026418 0.040763 -0.030891 0.042174 -0.003621 -0.080230 -0.116714 0.004804 -0.025239 0.040236 0.079966 -0.074091 0.034423 -0.049488 0.009258 0.020038 0.128754 -0.070545 -0.000203 -0.027492 0.051207 0.004237 -0.004322 0.065193 0.119843 0.068349 -0.006185 0.065981 0.079351 0.198405 0.181811 0.295042 0.130933 0.094272 0.259313 -0.042418 -0.373670
0.072396 0.072980 0.074733 0.077653 0.081741 0.086994 0.093411 0.100991 0.109728 0.119621 0.130663 0.142849 0.156171 0.170618 0.186180 0.202844 0.220591 0.239403 0.259258 0.280128 0.301984 0.324791 0.348508 0.373092 0.398491 0.424649 0.451503 0.478983 0.507012 0.535504 0.564366 0.593498 0.622789 0.652121 0.681365 0.710385 0.739034 0.767157 0.794590 0.821158 0.846680 0.870965 0.893815 0.915027 0.934388 0.951683 0.966693 0.979195 0.988966 0.995783 0.999426 0.999680 0.996337 0.989196 0.978071 0.962788 0.943193 0.919151 0.890551 0.857309 0.819370 0.776713 0.729355 0.677351 0.620799 0.559842 0.494672 0.425531 0.352712 0.276562 0.197484 0.115934 0.032423 0.052486 0.138177 0.223986 0.309204 0.393082 0.474835 0.553654 0.628704 0.699142 0.764122 0.822807 0.874381 0.918059 0.953102 0.978830 0.994636 1.000000 0.994501 0.977833 0.949817 0.910412 0.859729 0.798033 0.725761 0.643517 0.552079 0.452401 0.345607 0.232982 0.115967 0.003857 0.124788 0.245023 0.362682 0.475838 0.582548 0.680888 0.768991 0.845083 0.907524 0.954849 0.985809 0.999404 0.994925 0.971982 0.930531 0.870900 0.793797 0.700326 0.591976 0.470618 0.338481 0.198122 0.052386 0.095646 0.242719 0.385467 0.520496 0.644464 0.754166 0.846628 0.919191 0.969601 0.996091 0.997447 0.973080 0.923066 0.848182 0.749918 0.630472 0.492720 0.340165 0.176865 0.007338 0.163558 0.330755 0.489120 0.633625 0.759504 0.862427 0.938655 0.985201 0.999962 0.981828 0.930770 0.847889 0.735427 0.596739 0.436222 0.259193 0.071745 0.119459 0.307408 0.484999 0.645309 0.781874 0.888962 0.961842 0.997007 0.992379 0.947449 0.863364 0.742945 0.590638 0.412383 0.215412 0.007990 0.200930 0.402070 0.586244 0.744795 0.870003 0.955504 0.996631 0.990713 0.937278 0.838158 0.697486 0.521579 0.318688 0.098658 0.127531 0.348294 0.552026 0.727729 0.865621 0.957713 0.998311 0.984416 0.915982 0.796029 0.630574 0.428386 0.200579 0.039970 0.279314 0.503247 0.698139 0.851800 0.954267 0.998508 0.980953 0.901839 0.765316 0.579314 0.355147 0.106880 0.149511 0.397146 0.619345 0.800771 0.928528 0.993122 0.989239 0.916243 0.778371 0.584583 0.348050 0.085340 0.184708 0.442302 0.668154 0.844944 0.958690 0.999936 0.964596 0.854448 0.677161 0.445862 0.178243 0.104711 0.380356 0.626170 0.821620 0.949939 0.999614 0.965525 0.849559 0.660641 0.414161 0.130823 0.165036 0.447489 0.691306 0.874207 0.978996 0.995248 0.920454 0.760477 0.529223 0.247547 0.058527 0.360161 0.628400 0.836966 0.964912 0.998806 0.934260 0.776611 0.540631 0.249279 0.068434 0.380264 0.653993 0.860774 0.978260 0.993118 0.902680 0.715495 0.450689 0.136146 0.194324 0.504568 0.760034 0.931682 0.999389 0.954432 0.800772 0.554901 0.244234 0.095805 0.425767 0.706710 0.904852 0.995735 0.967373 0.822011 0.576182 0.259008 0.091108 0.431031 0.718194 0.915981 0.998491 0.954102 0.787281 0.518384 0.181349 0.180418 0.519577 0.791018 0.957947 0.997005 0.901727 0.683792 0.371823 0.007826 0.358338 0.675745 0.899505 0.997239 0.953946 0.774518 0.483462 0.121787 0.258626 0.602365 0.858580 0.988606 0.971982 0.809895 0.525461 0.160666 0.229626 0.585849 0.852802 0.988335 0.970172 0.799835 0.502886 0.125336 0.273242 0.629082 0.884373 0.996825 0.946876 0.741353 0.412887 0.014985 0.386486 0.724148 0.940448 0.997657 0.884694 0.619548 0.246761 0.169842 0.557898 0.849057 0.991159
1.000000 1.000000 1.000000 1.000000 1.000000 1.000000 1.000000 1.000000 1.000000 1.000000 1.000000 1.000000 1.000000 1.000000 1.000000 1.000000 1.000000 1.000000 1.000000 1.000000 1.000000 1.000000 1.000000 1.000000 1.000000 1.000000 1.000000 1.000000 1.000000 1.000000 1.000000 1.000000 1.000000 1.000000 1.000000 1.000000 1.000000 1.000000 1.000000 1.000000 1.000000 1.000000 1.000000 1.000000 1.000000 1.000000 1.000000 1.000000 1.000000 1.000000 1.000000 1.000000 0.946910 0.946910 0.946910 0.946910 0.946910 0.946910 0.946910 0.946910 0.946910 0.946910 0.946910 0.946910 0.946910 0.946910 0.946910 0.946910 0.946910 0.946910 0.946910 0.946910 0.946910 0.946910 0.946910 0.946910 0.946910 0.946910 0.946910 0.946910 0.946910 0.946910 0.946910 0.946910 0.946910 0.946910 0.946910 0.946910 0.946910 0.940484 0.942398 0.942932 0.942433 0.941400 0.938017 0.937276 0.941859 0.943073 0.943688 0.944796 0.945985 0.947577 0.948188 0.949122 0.956814 0.964857 0.964338 0.963316 0.961948 0.960726 0.962885 0.962620 0.962367 0.966299 0.966151 0.964838 0.968636 0.969226 0.968710 0.967598 0.966996 0.970100 0.969543 0.969483 0.970080 0.969533 0.969819 0.970408 0.970264 0.969753 0.969003 0.963824 0.963738 0.964566 0.967336 0.965820 0.964568 0.964522 0.964182 0.963758 0.962014 0.961527 0.961558 0.961608 0.961413 0.960853 0.958890 0.957925 0.951490 0.945684 0.945645 0.947385 0.948277 0.948858 0.945337 0.941935 0.932808 0.928993 0.931244 0.937088 0.937958 0.938525 0.917235 0.906055 0.906357 0.902318 0.904393 0.903454 0.899361 0.891889 0.891721 0.894294 0.892873 0.898009 0.894688 0.894655 0.894441 0.896064 0.899140 0.900784 0.904668 0.905189 0.899183 0.895119 0.893634 0.894156 0.896333 0.891021 0.888601 0.888492 0.890143 0.884604 0.885520 0.885752 0.888465 0.890158 0.893075 0.881892 0.882486 0.839814 0.829544 0.824351 0.820640 0.820795 0.810546 0.795092 0.798044 0.792220 0.789626 0.783127 0.780651 0.726209 0.711618 0.692123 0.677467 0.669195 0.644697 0.663332 0.671561 0.653107 0.652940 0.627916 0.622294 0.628382 0.632273 0.613996 0.606224 0.601682 0.574488 0.551612 0.546644 0.557739 0.573137 0.576676 0.551507 0.510722 0.472674 0.435116 0.429561 0.412315 0.379602 0.355672 0.372342 0.381351 0.388201 0.377001 0.360560 0.335670 0.359736 0.355001 0.360866 0.334908 0.368350 0.383309 0.381272 0.396172 0.386543 0.391078 0.329420 0.288315 0.277497 0.255803 0.219397 0.213118 0.262892 0.271272 0.305171 0.317249 0.318665 0.288962 0.320661 0.314228 0.308058 0.309389 0.256352 0.247677 0.255998 0.243471 0.237300 0.252309 0.261680 0.242800 0.205573 0.209507 0.222412 0.216917 0.216434 0.222621 0.179189 0.186584 0.194986 0.186583 0.216157 0.227439 0.223057 0.225536 0.189856 0.171882 0.178219 0.154435 0.171590 0.168012 0.160076 0.096292 0.059018 0.062889 0.062281 0.024169 0.032387 -0.006408 -0.027383 0.000465 0.009805 -0.008184 0.005171 0.030037 0.032247 0.022252 0.021557 0.051630 0.031865 0.009159 0.026928 0.001013 -0.023938 -0.032905 -0.056724 -0.084392 -0.099383 -0.077813 -0.062256 -0.056782 -0.021461 -0.040683 -0.089453 -0.084878 -0.084878 -0.084878 -0.084878 -0.084878 -0.066953 -0.066953 -0.066953 -0.066953 -0.066953 -0.066953 -0.066953 -0.066953 -0.093203 -0.093203 -0.093203 -0.093203 -0.093203 -0.093203 -0.093203 -0.093203 -0.093203 -0.093203 -0.093203 -0.093203 -0.093203 -0.093203 -0.093203
0.000000 0.000000 0.000000 0.000000 0.000000 0.000000 0.000000 0.000000 0.000000 0.000000 0.000000 0.000000 0.000000 0.000000 0.000000 0.000000 0.000000 0.000000 0.000000 0.000000 0.000000 0.000000 0.000000 0.000000 0.000000 0.000000 0.000000 0.000000 0.000000 0.000000 0.000000 0.000000 0.000000 0.000000 0.000000 0.000000 0.000000 0.000000 0.000000 0.000000 0.000000 0.000000 0.000000 0.000000 0.000000 0.000000 0.000000 0.000000 0.000000 0.000000 0.000000 0.000000 0.207390 0.207390 0.207390 0.207390 0.207390 0.207390 0.207390 0.207390 0.207390 0.207390 0.207390 0.207390 0.207390 0.207390 0.207390 0.207390 0.207390 0.207390 0.207390 0.207390 0.207390 0.207390 0.207390 0.207390 0.207390 0.207390 0.207390 0.207390 0.207390 0.207390 0.207390 0.207390 0.207390 0.207390 0.207390 0.207390 0.207390 0.234082 0.234082 0.234082 0.234082 0.234082 0.234082 0.234082 0.234082 0.234082 0.234082 0.234082 0.234082 0.234082 0.234082 0.234082 0.234082 0.234082 0.234082 0.234082 0.234082 0.234082 0.234082 0.234082 0.234082 0.234082 0.234082 0.234082 0.256074 0.256074 0.256074 0.256074 0.256074 0.256074 0.256074 0.256074 0.256074 0.256074 0.256074 0.256074 0.256074 0.256074 0.256074 0.256074 0.256074 0.256074 0.256074 0.256074 0.256074 0.264906 0.264906 0.264906 0.264906 0.264906 0.264906 0.264906 0.264906 0.264906 0.264906 0.264906 0.264906 0.264906 0.264906 0.264906 0.264906 0.264906 0.264906 0.264906 0.264906 0.264906 0.264906 0.264906 0.264906 0.264906 0.264906 0.264906 0.264906 0.264906 0.264906 0.264906 0.264906 0.264906 0.264906 0.264906 0.269680 0.269680 0.269680 0.269680 0.269680 0.269680 0.269680 0.269680 0.269680 0.269680 0.269680 0.269680 0.269680 0.269680 0.269680 0.269680 0.269680 0.269680 0.269680 0.269680 0.269680 0.269680 0.269680 0.269680 0.269680 0.269680 0.269680 0.269680 0.269680 0.274721 0.274721 0.274721 0.274721 0.274721 0.274721 0.274721 0.274721 0.274721 0.274721 0.274721 0.274721 0.274721 0.274721 0.274721 0.274721 0.274721 0.274721 0.274721 0.274721 0.274721 0.274721 0.274721 0.274721 0.274721 0.269680 0.269680 0.269680 0.269680 0.269680 0.269680 0.269680 0.269680 0.269680 0.269680 0.269680 0.269680 0.274721 0.274721 0.274721 0.274721 0.274721 0.274721 0.274721 0.274721 0.274721 0.274721 0.274721 0.280056 0.280056 0.280056 0.280056 0.280056 0.280056 0.280056 0.280056 0.280056 0.280056 0.274721 0.274721 0.274721 0.274721 0.274721 0.274721 0.274721 0.274721 0.274721 0.274721 0.269680 0.269680 0.269680 0.269680 0.269680 0.269680 0.269680 0.269680 0.269680 0.269680 0.264906 0.264906 0.264906 0.264906 0.264906 0.264906 0.264906 0.264906 0.264906 0.264906 0.269680 0.269680 0.269680 0.269680 0.269680 0.269680 0.269680 0.269680 0.269680 0.264906 0.264906 0.264906 0.264906 0.264906 0.264906 0.264906 0.264906 0.264906 0.274721 0.274721 0.274721 0.274721 0.274721 0.274721 0.274721 0.274721 0.256074 0.256074 0.256074 0.256074 0.256074 0.256074 0.256074 0.256074 0.256074 0.269680 0.269680 0.269680 0.269680 0.269680 0.269680 0.269680 0.269680 0.264906 0.264906 0.264906 0.264906 0.264906 0.264906 0.264906 0.264906 0.260378 0.260378 0.260378 0.260378 0.260378 0.260378 0.260378 0.260378 0.269680 0.269680 0.269680 0.269680 0.269680 0.269680 0.269680 0.269680 0.269680 0.269680 0.269680 0.269680 0.269680 0.269680 0.269680
