# Output from CTFFind version 4.1.9, run on 2019-11-03 18:51:44
# Input file: stack12_ub_averaged_1000.mrc ; Number of micrographs: 1
# Pixel size: 3.000 Angstroms ; acceleration voltage: 300.0 keV ; spherical aberration: 0.00 mm ; amplitude contrast: 0.07
# Box size: 512 pixels ; min. res.: 30.0 Angstroms ; max. res.: 5.0 Angstroms ; min. def.: 5000.0 um; max. def. 50000.0 um; num. frames averaged: 1
# 6 lines per micrograph: #1 - spatial frequency (1/Angstroms); #2 - 1D rotational average of spectrum (assuming no astigmatism); #3 - 1D rotational average of spectrum; #4 - CTF fit; #5 - cross-correlation between spectrum and CTF fit; #6 - 2sigma of expected cross correlation of noise
0.000000 0.000651 0.001302 0.001953 0.002604 0.003255 0.003906 0.004557 0.005208 0.005859 0.006510 0.007161 0.007812 0.008464 0.009115 0.009766 0.010417 0.011068 0.011719 0.012370 0.013021 0.013672 0.014323 0.014974 0.015625 0.016276 0.016927 0.017578 0.018229 0.018880 0.019531 0.020182 0.020833 0.021484 0.022135 0.022786 0.023438 0.024089 0.024740 0.025391 0.026042 0.026693 0.027344 0.027995 0.028646 0.029297 0.029948 0.030599 0.031250 0.031901 0.032552 0.033203 0.033854 0.034505 0.035156 0.035807 0.036458 0.037109 0.037760 0.038411 0.039062 0.039714 0.040365 0.041016 0.041667 0.042318 0.042969 0.043620 0.044271 0.044922 0.045573 0.046224 0.046875 0.047526 0.048177 0.048828 0.049479 0.050130 0.050781 0.051432 0.052083 0.052734 0.053385 0.054036 0.054688 0.055339 0.055990 0.056641 0.057292 0.057943 0.058594 0.059245 0.059896 0.060547 0.061198 0.061849 0.062500 0.063151 0.063802 0.064453 0.065104 0.065755 0.066406 0.067057 0.067708 0.068359 0.069010 0.069661 0.070312 0.070964 0.071615 0.072266 0.072917 0.073568 0.074219 0.074870 0.075521 0.076172 0.076823 0.077474 0.078125 0.078776 0.079427 0.080078 0.080729 0.081380 0.082031 0.082682 0.083333 0.083984 0.084635 0.085286 0.085938 0.086589 0.087240 0.087891 0.088542 0.089193 0.089844 0.090495 0.091146 0.091797 0.092448 0.093099 0.093750 0.094401 0.095052 0.095703 0.096354 0.097005 0.097656 0.098307 0.098958 0.099609 0.100260 0.100911 0.101562 0.102214 0.102865 0.103516 0.104167 0.104818 0.105469 0.106120 0.106771 0.107422 0.108073 0.108724 0.109375 0.110026 0.110677 0.111328 0.111979 0.112630 0.113281 0.113932 0.114583 0.115234 0.115885 0.116536 0.117188 0.117839 0.118490 0.119141 0.119792 0.120443 0.121094 0.121745 0.122396 0.123047 0.123698 0.124349 0.125000 0.125651 0.126302 0.126953 0.127604 0.128255 0.128906 0.129557 0.130208 0.130859 0.131510 0.132161 0.132812 0.133464 0.134115 0.134766 0.135417 0.136068 0.136719 0.137370 0.138021 0.138672 0.139323 0.139974 0.140625 0.141276 0.141927 0.142578 0.143229 0.143880 0.144531 0.145182 0.145833 0.146484 0.147135 0.147786 0.148438 0.149089 0.149740 0.150391 0.151042 0.151693 0.152344 0.152995 0.153646 0.154297 0.154948 0.155599 0.156250 0.156901 0.157552 0.158203 0.158854 0.159505 0.160156 0.160807 0.161458 0.162109 0.162760 0.163411 0.164062 0.164714 0.165365 0.166016 0.166667 0.167318 0.167969 0.168620 0.169271 0.169922 0.170573 0.171224 0.171875 0.172526 0.173177 0.173828 0.174479 0.175130 0.175781 0.176432 0.177083 0.177734 0.178385 0.179036 0.179688 0.180339 0.180990 0.181641 0.182292 0.182943 0.183594 0.184245 0.184896 0.185547 0.186198 0.186849 0.187500 0.188151 0.188802 0.189453 0.190104 0.190755 0.191406 0.192057 0.192708 0.193359 0.194010 0.194661 0.195312 0.195964 0.196615 0.197266 0.197917 0.198568 0.199219 0.199870 0.200521 0.201172 0.201823 0.202474 0.203125 0.203776 0.204427 0.205078 0.205729 0.206380 0.207031 0.207682 0.208333 0.208984 0.209635 0.210286 0.210938 0.211589 0.212240 0.212891 0.213542 0.214193 0.214844 0.215495 0.216146 0.216797 0.217448 0.218099 0.218750 0.219401 0.220052 0.220703 0.221354 0.222005 0.222656 0.223307 0.223958 0.224609 0.225260 0.225911 0.226562 0.227214 0.227865 0.228516 0.229167 0.229818 0.230469 0.231120 0.231771 0.232422 0.233073 0.233724 0.234375 0.235026 0.235677
       0.33797        0.33797        0.33797        0.33797        0.33797        0.33797        0.33797        0.33797        0.33797        0.33797        0.33797        0.33797        0.33797        0.33797        0.33797        0.33797        0.33797        0.33797        0.33797        0.33797        0.33797        0.33797        0.33797        0.33797        0.33797        0.33797        0.33797        0.33797        0.33797        0.33797        0.33797        0.33797        0.33797        0.33797        0.33797        0.33797        0.33797        0.33797        0.33797        0.33797        0.33797        0.33797        0.33797        0.33797        0.33797        0.33797        0.33797        0.33797        0.33797        0.33797        0.33797        0.63748        0.67397        0.30380        0.21008       -0.02026       -0.24459       -0.30951       -0.26756       -0.09806       -0.30520       -0.14587       -0.17095       -0.23030       -0.25576       -0.42512       -0.52293       -0.61221       -0.62860       -0.56298       -0.53560       -0.49778       -0.52774       -0.54948       -0.62797       -0.60302       -0.50860       -0.48609       -0.37108       -0.32674       -0.29607       -0.13531       -0.09843       -0.01996        0.09099        0.19355        0.19383        0.46688        0.54528        0.50289        0.59235        0.60228        0.64844        0.76005        0.72880        0.71878        0.71056        0.65838        0.62025        0.50615        0.43602        0.29483        0.11796        0.03053        0.08047        0.09830       -0.05110        0.02113       -0.02355       -0.02375        0.06628        0.03886        0.17134        0.29478        0.36880        0.41739        0.45040        0.66706        0.65895        0.65094        0.68070        0.67325        0.66880        0.58334        0.64406        0.54924        0.45603        0.36688        0.27448        0.18272        0.02675        0.08901        0.04334        0.08058        0.09502        0.15596        0.29131        0.27594        0.43142        0.50401        0.53889        0.58415        0.57387        0.63872        0.61825        0.53759        0.48172        0.50084        0.33149        0.25260        0.16094        0.11778        0.10796        0.09161        0.12944        0.16456        0.20986        0.29234        0.39001        0.46865        0.54121        0.51801        0.49878        0.52370        0.45298        0.43624        0.41734        0.36256        0.27325        0.21107        0.20106        0.17404        0.17608        0.28548        0.32287        0.38783        0.39547        0.42654        0.50175        0.51089        0.50557        0.53380        0.41146        0.37904        0.37557        0.32341        0.25691        0.21461        0.21968        0.26499        0.34919        0.39615        0.38583        0.47713        0.42429        0.46498        0.44273        0.39851        0.34044        0.28593        0.31319        0.27678        0.27487        0.23949        0.25156        0.34938        0.40301        0.38680        0.38487        0.39723        0.36104        0.39605        0.42138        0.34251        0.33983        0.26970        0.23990        0.26190        0.29707        0.29990        0.34517        0.38771        0.38491        0.36593        0.38056        0.35451        0.33222        0.28438        0.27666        0.25666        0.29500        0.31290        0.33730        0.31859        0.36876        0.41442        0.39528        0.35662        0.31905        0.32116        0.31914        0.29408        0.27798        0.28731        0.31531        0.33593        0.36819        0.34741        0.35821        0.35958        0.33586        0.30945        0.27843        0.26614        0.26475        0.29763        0.26382        0.34142        0.36688        0.36296        0.37444        0.34080        0.33086        0.28776        0.29902        0.31361        0.28292        0.30431        0.30309        0.33958        0.35889        0.32533        0.31171        0.29133        0.31993        0.26601        0.27026        0.30158        0.31115        0.29456        0.32447        0.32891        0.30581        0.31106        0.30270        0.30867        0.27864        0.27832        0.30075        0.35230        0.35722        0.35088        0.35971        0.36126        0.30811        0.25501        0.23955        0.27115        0.26826        0.33329        0.36519        0.31339        0.31137        0.31374        0.31153        0.31372        0.28418        0.28680        0.30225        0.30486        0.35385        0.30281        0.31239        0.26523        0.26445        0.26618        0.29619        0.35759        0.33800        0.29320        0.32395        0.28306        0.30528        0.30740        0.23110        0.28535        0.28747        0.31484        0.37132        0.24838        0.31296        0.26247        0.22479        0.30137        0.24524        0.29332        0.22346        0.19192        0.27192        0.26018        0.26897        0.31210        0.21658        0.27246        0.26160        0.25239        0.26845        0.28796        0.23188        0.24139        0.22854        0.17226        0.21389        0.20882        0.18190        0.22083        0.27992        0.22960        0.20613        0.14330        0.13073       -0.03135       -0.31757
2.411275 2.385847 2.360561 2.335417 2.310414 2.285553 2.260834 2.236256 2.211820 2.187525 2.163372 2.139360 2.115490 2.091762 2.068175 2.044730 2.021427 1.998265 1.975244 1.952366 1.929628 1.907033 1.884579 1.862267 1.840096 1.818067 1.796179 1.774433 1.752829 1.731366 1.710045 1.688865 1.667827 1.646931 1.626176 1.605563 1.585091 1.564761 1.544573 1.524526 1.504620 1.484857 1.465235 1.445754 1.426415 1.407218 1.388162 1.369248 1.350476 1.331845 1.313356 1.452738 1.855827 1.331736 1.142775 0.872217 0.548481 0.509014 0.452188 0.816146 0.372140 0.636570 0.548367 0.395589 0.517536 0.251803 0.154720 0.030374 -0.092104 0.050322 0.020393 0.081207 -0.019002 -0.009470 -0.122127 -0.073722 -0.051536 -0.034326 0.085942 0.140458 0.091255 0.246155 0.370369 0.383591 0.441913 0.560652 0.600987 0.829856 0.923855 0.846806 0.984562 0.952397 0.973605 0.990879 1.128534 0.938926 1.079246 0.971156 0.926549 0.744480 0.734604 0.547787 0.354365 0.191230 0.260511 0.246864 0.133350 0.131834 0.124851 0.076129 0.156715 0.164128 0.131896 0.410590 0.393193 0.540942 0.476993 0.676173 0.734826 0.739321 0.733138 0.701757 0.756294 0.633196 0.620461 0.589033 0.508703 0.313660 0.308793 0.177214 -0.013748 -0.003136 -0.042820 0.022853 0.004018 0.005634 0.152799 0.187077 0.303113 0.347881 0.455785 0.475202 0.440157 0.526418 0.537673 0.446731 0.352424 0.408201 0.291904 0.088030 0.052993 -0.022273 -0.104583 -0.026183 -0.145889 0.022679 -0.034887 0.089086 0.150100 0.301692 0.288063 0.402651 0.383891 0.369687 0.337170 0.325851 0.265557 0.234541 0.153465 0.072285 0.033658 0.002404 0.000835 0.038946 0.149533 0.170745 0.256799 0.187248 0.307988 0.316974 0.359285 0.325243 0.310778 0.165057 0.172694 0.162938 0.081737 0.014542 -0.014086 0.006927 0.091658 0.179894 0.137069 0.229374 0.257246 0.217951 0.275851 0.190640 0.161891 0.081384 0.077534 0.078938 0.039513 0.022289 0.028186 0.028673 0.181730 0.176722 0.137578 0.179996 0.094308 0.148732 0.173374 0.144803 0.090258 0.066520 -0.011870 -0.019090 0.021852 0.046658 0.077196 0.087864 0.146721 0.106859 0.141171 0.095432 0.087503 0.059186 0.012295 -0.009329 -0.007922 0.030422 0.074974 0.073276 0.031548 0.138407 0.161758 0.122867 0.044576 0.066092 0.043649 0.024979 0.029940 -0.003675 0.035366 0.046826 0.075088 0.108749 0.071225 0.067352 0.104644 0.051486 0.012532 0.014552 -0.020462 -0.025783 0.021644 -0.014040 0.106330 0.095141 0.063147 0.115752 0.067978 0.038308 0.023552 0.057524 0.007289 0.020140 0.039743 0.048917 0.095510 0.116654 0.087123 0.018324 0.057517 0.089008 -0.001500 0.029338 0.055938 0.050696 0.068094 0.084463 0.093472 0.034211 0.102682 0.033170 0.091920 0.005803 0.030205 0.097611 0.109680 0.105249 0.109039 0.110184 0.110908 0.071351 0.000006 -0.026327 0.057065 0.006894 0.109573 0.091145 0.122618 0.067474 0.069762 0.086282 0.065977 0.022345 0.063558 0.065366 0.046885 0.133789 0.033065 0.041507 0.013837 0.016133 0.009361 0.039147 0.108339 0.100422 0.071534 0.030462 0.052581 0.043105 0.084997 -0.043798 0.063013 0.008909 0.072024 0.118418 -0.021185 0.158354 -0.006873 0.013482 0.065015 0.024081 0.087561 0.000825 -0.012409 0.080220 0.024443 0.078969 0.149071 -0.038387 0.067059 0.089504 0.050943 0.108028 0.138243 0.066609 0.000840 0.066377 0.014215 0.043277 0.056001 -0.005904 0.229438 0.387901 0.238061 0.194772 0.151544 0.139196 -0.339796
0.072396 0.072928 0.074524 0.077183 0.080905 0.085689 0.091533 0.098435 0.106393 0.115405 0.125465 0.136569 0.148711 0.161883 0.176077 0.191281 0.207484 0.224669 0.242819 0.261915 0.281932 0.302844 0.324620 0.347226 0.370623 0.394767 0.419611 0.445099 0.471173 0.497767 0.524809 0.552221 0.579919 0.607808 0.635791 0.663761 0.691602 0.719193 0.746405 0.773099 0.799131 0.824349 0.848594 0.871698 0.893491 0.913795 0.932425 0.949196 0.963916 0.976393 0.986432 0.993841 0.998426 1.000000 0.998378 0.993383 0.984847 0.972613 0.956536 0.936488 0.912358 0.884056 0.851514 0.814690 0.773571 0.728172 0.678545 0.624774 0.566982 0.505332 0.440027 0.371313 0.299484 0.224874 0.147864 0.068882 0.011602 0.093073 0.174974 0.256712 0.337655 0.417140 0.494479 0.568961 0.639858 0.706438 0.767966 0.823715 0.872976 0.915068 0.949347 0.975215 0.992135 0.999640 0.997343 0.984949 0.962264 0.929208 0.885819 0.832266 0.768851 0.696017 0.614350 0.524580 0.427580 0.324364 0.216081 0.104003 0.010482 0.125889 0.240646 0.353121 0.461643 0.564523 0.660083 0.746689 0.822776 0.886883 0.937681 0.974009 0.994902 0.999621 0.987680 0.958868 0.913273 0.851290 0.773638 0.681361 0.575824 0.458704 0.331972 0.197870 0.058874 0.082340 0.222954 0.360048 0.490673 0.611909 0.720933 0.815094 0.891978 0.949481 0.985875 0.999868 0.990656 0.957971 0.902109 0.823955 0.724984 0.607255 0.473380 0.326482 0.170137 0.008292 0.154827 0.314816 0.467217 0.607640 0.731893 0.836121 0.916930 0.971512 0.997757 0.994350 0.960843 0.897713 0.806380 0.689207 0.549458 0.391232 0.219360 0.039270 0.143171 0.321845 0.490582 0.643377 0.774620 0.879301 0.953227 0.993205 0.997201 0.964466 0.895612 0.792639 0.658917 0.499105 0.319011 0.125407 0.074206 0.271888 0.459561 0.629348 0.773912 0.886785 0.962685 0.997786 0.989937 0.938823 0.846042 0.715101 0.551327 0.361684 0.154506 0.060850 0.274403 0.476013 0.655866 0.804962 0.915584 0.981734 0.999486 0.967257 0.885967 0.759077 0.592489 0.394322 0.174550 0.055472 0.283571 0.497399 0.685104 0.836005 0.941226 0.994259 0.991404 0.932076 0.818935 0.657833 0.457564 0.229442 0.013311 0.256301 0.484808 0.684677 0.843219 0.950049 0.997810 0.982734 0.904987 0.768782 0.582215 0.356857 0.107078 0.150823 0.399665 0.622527 0.803916 0.930875 0.993959 0.987995 0.912575 0.772216 0.576172 0.337901 0.074201 0.195943 0.452679 0.676783 0.851096 0.961887 1.000000 0.961681 0.849013 0.669917 0.437674 0.170030 0.112122 0.386326 0.630343 0.823988 0.950829 0.999653 0.965543 0.850448 0.663199 0.418928 0.137936 0.155937 0.437298 0.681405 0.866343 0.975073 0.997072 0.929442 0.777375 0.553862 0.278701 0.023179 0.323917 0.595283 0.811340 0.950961 0.999994 0.952788 0.812952 0.593219 0.314403 0.003544 0.308687 0.590947 0.814416 0.955772 0.999733 0.940809 0.784106 0.545037 0.247931 0.076335 0.393496 0.669487 0.874147 0.984569 0.987796 0.882453 0.679168 0.399656 0.074517 0.260015 0.566066 0.808431 0.958673 0.998575 0.922476 0.738216 0.466502 0.138726 0.206549 0.528078 0.786853 0.950895 0.999323 0.925151 0.736450 0.455666 0.117092 0.237179 0.562455 0.817068 0.967798 0.994321 0.892119 0.673394 0.365805 0.009141 0.349731 0.662965 0.888162 0.994191 0.965654 0.805306 0.534035 0.188340 0.184420 0.532467 0.806733 0.967906 0.992175 0.874943 0.631869 0.296983 0.081868 0.449781 0.752691
1.000000 1.000000 1.000000 1.000000 1.000000 1.000000 1.000000 1.000000 1.000000 1.000000 1.000000 1.000000 1.000000 1.000000 1.000000 1.000000 1.000000 1.000000 1.000000 1.000000 1.000000 1.000000 1.000000 1.000000 1.000000 1.000000 1.000000 1.000000 1.000000 1.000000 1.000000 1.000000 1.000000 1.000000 1.000000 1.000000 1.000000 1.000000 1.000000 1.000000 1.000000 1.000000 1.000000 1.000000 1.000000 1.000000 1.000000 1.000000 1.000000 1.000000 1.000000 1.000000 0.917469 0.917469 0.905751 0.905751 0.905751 0.905751 0.905751 0.905751 0.905751 0.905751 0.905751 0.905751 0.905751 0.905751 0.905751 0.905751 0.905751 0.905751 0.905751 0.905751 0.905751 0.905751 0.905751 0.905751 0.905751 0.905751 0.905751 0.905751 0.905751 0.905751 0.905751 0.905751 0.905751 0.905751 0.905751 0.905751 0.905751 0.905751 0.905751 0.905751 0.905751 0.905751 0.884990 0.888591 0.892255 0.887841 0.888862 0.888523 0.887527 0.888117 0.888299 0.889878 0.906917 0.930458 0.932044 0.934073 0.939133 0.939274 0.941484 0.940000 0.938529 0.955513 0.953469 0.950904 0.951781 0.945566 0.947138 0.945055 0.944490 0.946988 0.944626 0.943438 0.942480 0.941497 0.940072 0.939573 0.939422 0.941025 0.941139 0.941235 0.941125 0.941600 0.941340 0.941280 0.941758 0.946208 0.949093 0.950353 0.952088 0.949977 0.950542 0.947194 0.955587 0.955416 0.954869 0.954882 0.955209 0.953450 0.953572 0.953098 0.952694 0.943408 0.940701 0.940291 0.941046 0.943687 0.948639 0.947637 0.946680 0.947771 0.939412 0.952813 0.943498 0.941907 0.940954 0.939485 0.940620 0.935493 0.928865 0.910358 0.902239 0.901374 0.903659 0.907740 0.908361 0.899668 0.899339 0.899639 0.889814 0.888262 0.888201 0.887741 0.893560 0.890683 0.891696 0.891112 0.897298 0.901025 0.900648 0.898392 0.895407 0.891670 0.892247 0.890925 0.891376 0.893827 0.890475 0.884341 0.882927 0.884805 0.893214 0.899774 0.904078 0.898873 0.897971 0.880705 0.878858 0.878974 0.862272 0.858031 0.858883 0.860894 0.860460 0.864912 0.862617 0.855307 0.849416 0.849779 0.852528 0.855679 0.853048 0.850888 0.847389 0.844082 0.848524 0.854470 0.863746 0.851189 0.846474 0.845366 0.831806 0.829114 0.830775 0.829990 0.830861 0.831909 0.821948 0.825563 0.827597 0.827624 0.821280 0.828849 0.826999 0.822121 0.799764 0.799317 0.776374 0.784937 0.781538 0.776673 0.772655 0.770805 0.774746 0.755464 0.750647 0.749282 0.698067 0.698810 0.700533 0.705631 0.703118 0.694206 0.691904 0.696318 0.720556 0.722841 0.719838 0.720259 0.730317 0.705829 0.704471 0.705042 0.704959 0.705024 0.713117 0.695949 0.692679 0.690457 0.683326 0.685060 0.662012 0.649064 0.633754 0.624383 0.627353 0.630109 0.630821 0.630075 0.629877 0.633378 0.629068 0.609973 0.611894 0.611195 0.625088 0.622238 0.582836 0.598652 0.588837 0.590280 0.532446 0.534629 0.538689 0.544733 0.535327 0.526970 0.500931 0.480506 0.484333 0.469643 0.476763 0.474088 0.441975 0.493664 0.464180 0.456248 0.455768 0.460454 0.462016 0.459839 0.441673 0.445629 0.440693 0.435086 0.401761 0.350800 0.356821 0.355217 0.382077 0.381876 0.341286 0.351840 0.351840 0.351840 0.351840 0.351840 0.351840 0.358708 0.358708 0.358708 0.358708 0.358708 0.358708 0.358708 0.358708 0.358708 0.319491 0.319491 0.319491 0.319491 0.319491 0.319491 0.319491 0.319491 0.319491 0.319491 0.319491 0.319491 0.319491 0.319491 0.319491
0.000000 0.000000 0.000000 0.000000 0.000000 0.000000 0.000000 0.000000 0.000000 0.000000 0.000000 0.000000 0.000000 0.000000 0.000000 0.000000 0.000000 0.000000 0.000000 0.000000 0.000000 0.000000 0.000000 0.000000 0.000000 0.000000 0.000000 0.000000 0.000000 0.000000 0.000000 0.000000 0.000000 0.000000 0.000000 0.000000 0.000000 0.000000 0.000000 0.000000 0.000000 0.000000 0.000000 0.000000 0.000000 0.000000 0.000000 0.000000 0.000000 0.000000 0.000000 0.000000 0.181818 0.181818 0.201008 0.201008 0.201008 0.201008 0.201008 0.201008 0.201008 0.201008 0.201008 0.201008 0.201008 0.201008 0.201008 0.201008 0.201008 0.201008 0.201008 0.201008 0.201008 0.201008 0.201008 0.201008 0.201008 0.201008 0.201008 0.201008 0.201008 0.201008 0.201008 0.201008 0.201008 0.201008 0.201008 0.201008 0.201008 0.201008 0.201008 0.201008 0.201008 0.201008 0.234082 0.234082 0.234082 0.234082 0.234082 0.234082 0.234082 0.234082 0.234082 0.234082 0.234082 0.234082 0.234082 0.234082 0.234082 0.234082 0.234082 0.234082 0.234082 0.234082 0.234082 0.234082 0.234082 0.234082 0.234082 0.234082 0.234082 0.244339 0.244339 0.244339 0.244339 0.244339 0.244339 0.244339 0.244339 0.244339 0.244339 0.244339 0.244339 0.244339 0.244339 0.244339 0.244339 0.244339 0.244339 0.244339 0.244339 0.244339 0.244339 0.244339 0.256074 0.256074 0.256074 0.256074 0.256074 0.256074 0.256074 0.256074 0.256074 0.256074 0.256074 0.256074 0.256074 0.256074 0.256074 0.256074 0.256074 0.256074 0.256074 0.264906 0.264906 0.264906 0.264906 0.264906 0.264906 0.264906 0.264906 0.264906 0.264906 0.264906 0.264906 0.264906 0.264906 0.264906 0.264906 0.264906 0.264906 0.264906 0.264906 0.264906 0.264906 0.264906 0.264906 0.264906 0.264906 0.264906 0.264906 0.264906 0.264906 0.264906 0.264906 0.264906 0.269680 0.269680 0.269680 0.269680 0.269680 0.269680 0.269680 0.269680 0.269680 0.269680 0.269680 0.269680 0.269680 0.269680 0.264906 0.264906 0.264906 0.264906 0.264906 0.264906 0.264906 0.264906 0.264906 0.264906 0.264906 0.264906 0.264906 0.264906 0.264906 0.264906 0.264906 0.264906 0.264906 0.264906 0.264906 0.264906 0.264906 0.264906 0.264906 0.264906 0.264906 0.269680 0.269680 0.269680 0.269680 0.269680 0.269680 0.269680 0.269680 0.269680 0.269680 0.269680 0.269680 0.264906 0.264906 0.264906 0.264906 0.264906 0.264906 0.264906 0.264906 0.264906 0.264906 0.264906 0.264906 0.269680 0.269680 0.269680 0.269680 0.269680 0.269680 0.269680 0.269680 0.269680 0.269680 0.269680 0.274721 0.274721 0.274721 0.274721 0.274721 0.274721 0.274721 0.274721 0.274721 0.274721 0.256074 0.256074 0.256074 0.256074 0.256074 0.256074 0.256074 0.256074 0.256074 0.256074 0.256074 0.274721 0.274721 0.274721 0.274721 0.274721 0.274721 0.274721 0.274721 0.274721 0.260378 0.260378 0.260378 0.260378 0.260378 0.260378 0.260378 0.260378 0.260378 0.260378 0.264906 0.264906 0.264906 0.264906 0.264906 0.264906 0.264906 0.264906 0.264906 0.260378 0.260378 0.260378 0.260378 0.260378 0.260378 0.260378 0.260378 0.260378 0.256074 0.256074 0.256074 0.256074 0.256074 0.256074 0.256074 0.256074 0.256074 0.251976 0.251976 0.251976 0.251976 0.251976 0.251976 0.251976 0.251976 0.251976 0.264906 0.264906 0.264906 0.264906 0.264906 0.264906 0.264906 0.264906 0.264906 0.264906 0.264906 0.264906 0.264906 0.264906 0.264906
