# Output from CTFFind version 4.1.9, run on 2019-11-03 18:51:18
# Input file: stack20_ub_averaged_250.mrc ; Number of micrographs: 1
# Pixel size: 3.000 Angstroms ; acceleration voltage: 300.0 keV ; spherical aberration: 0.00 mm ; amplitude contrast: 0.07
# Box size: 512 pixels ; min. res.: 30.0 Angstroms ; max. res.: 5.0 Angstroms ; min. def.: 5000.0 um; max. def. 50000.0 um; num. frames averaged: 1
# 6 lines per micrograph: #1 - spatial frequency (1/Angstroms); #2 - 1D rotational average of spectrum (assuming no astigmatism); #3 - 1D rotational average of spectrum; #4 - CTF fit; #5 - cross-correlation between spectrum and CTF fit; #6 - 2sigma of expected cross correlation of noise
0.000000 0.000651 0.001302 0.001953 0.002604 0.003255 0.003906 0.004557 0.005208 0.005859 0.006510 0.007161 0.007812 0.008464 0.009115 0.009766 0.010417 0.011068 0.011719 0.012370 0.013021 0.013672 0.014323 0.014974 0.015625 0.016276 0.016927 0.017578 0.018229 0.018880 0.019531 0.020182 0.020833 0.021484 0.022135 0.022786 0.023438 0.024089 0.024740 0.025391 0.026042 0.026693 0.027344 0.027995 0.028646 0.029297 0.029948 0.030599 0.031250 0.031901 0.032552 0.033203 0.033854 0.034505 0.035156 0.035807 0.036458 0.037109 0.037760 0.038411 0.039062 0.039714 0.040365 0.041016 0.041667 0.042318 0.042969 0.043620 0.044271 0.044922 0.045573 0.046224 0.046875 0.047526 0.048177 0.048828 0.049479 0.050130 0.050781 0.051432 0.052083 0.052734 0.053385 0.054036 0.054688 0.055339 0.055990 0.056641 0.057292 0.057943 0.058594 0.059245 0.059896 0.060547 0.061198 0.061849 0.062500 0.063151 0.063802 0.064453 0.065104 0.065755 0.066406 0.067057 0.067708 0.068359 0.069010 0.069661 0.070312 0.070964 0.071615 0.072266 0.072917 0.073568 0.074219 0.074870 0.075521 0.076172 0.076823 0.077474 0.078125 0.078776 0.079427 0.080078 0.080729 0.081380 0.082031 0.082682 0.083333 0.083984 0.084635 0.085286 0.085938 0.086589 0.087240 0.087891 0.088542 0.089193 0.089844 0.090495 0.091146 0.091797 0.092448 0.093099 0.093750 0.094401 0.095052 0.095703 0.096354 0.097005 0.097656 0.098307 0.098958 0.099609 0.100260 0.100911 0.101562 0.102214 0.102865 0.103516 0.104167 0.104818 0.105469 0.106120 0.106771 0.107422 0.108073 0.108724 0.109375 0.110026 0.110677 0.111328 0.111979 0.112630 0.113281 0.113932 0.114583 0.115234 0.115885 0.116536 0.117188 0.117839 0.118490 0.119141 0.119792 0.120443 0.121094 0.121745 0.122396 0.123047 0.123698 0.124349 0.125000 0.125651 0.126302 0.126953 0.127604 0.128255 0.128906 0.129557 0.130208 0.130859 0.131510 0.132161 0.132812 0.133464 0.134115 0.134766 0.135417 0.136068 0.136719 0.137370 0.138021 0.138672 0.139323 0.139974 0.140625 0.141276 0.141927 0.142578 0.143229 0.143880 0.144531 0.145182 0.145833 0.146484 0.147135 0.147786 0.148438 0.149089 0.149740 0.150391 0.151042 0.151693 0.152344 0.152995 0.153646 0.154297 0.154948 0.155599 0.156250 0.156901 0.157552 0.158203 0.158854 0.159505 0.160156 0.160807 0.161458 0.162109 0.162760 0.163411 0.164062 0.164714 0.165365 0.166016 0.166667 0.167318 0.167969 0.168620 0.169271 0.169922 0.170573 0.171224 0.171875 0.172526 0.173177 0.173828 0.174479 0.175130 0.175781 0.176432 0.177083 0.177734 0.178385 0.179036 0.179688 0.180339 0.180990 0.181641 0.182292 0.182943 0.183594 0.184245 0.184896 0.185547 0.186198 0.186849 0.187500 0.188151 0.188802 0.189453 0.190104 0.190755 0.191406 0.192057 0.192708 0.193359 0.194010 0.194661 0.195312 0.195964 0.196615 0.197266 0.197917 0.198568 0.199219 0.199870 0.200521 0.201172 0.201823 0.202474 0.203125 0.203776 0.204427 0.205078 0.205729 0.206380 0.207031 0.207682 0.208333 0.208984 0.209635 0.210286 0.210938 0.211589 0.212240 0.212891 0.213542 0.214193 0.214844 0.215495 0.216146 0.216797 0.217448 0.218099 0.218750 0.219401 0.220052 0.220703 0.221354 0.222005 0.222656 0.223307 0.223958 0.224609 0.225260 0.225911 0.226562 0.227214 0.227865 0.228516 0.229167 0.229818 0.230469 0.231120 0.231771 0.232422 0.233073 0.233724 0.234375 0.235026 0.235677
       0.32701        0.32701        0.32701        0.32701        0.32701        0.32701        0.32701        0.32701        0.32701        0.32701        0.32701        0.32701        0.32701        0.32701        0.32701        0.32701        0.32701        0.32701        0.32701        0.32701        0.32701        0.32701        0.32701        0.32701        0.32701        0.32701        0.32701        0.32701        0.32701        0.32701        0.32701        0.32701        0.32701        0.32701        0.32701        0.32701        0.32701        0.32701        0.32701        0.32701        0.32701        0.32701        0.32701        0.32701        0.32701        0.32701        0.32701        0.32701        0.32701        0.32701        0.32701        0.67760        0.99758        0.53253        0.23201        0.13572        0.10583        0.03616        0.15988        0.21750        0.14985        0.32438        0.45639        0.41337        0.21833        0.05309        0.00303        0.12581        0.11682        0.01655        0.12959        0.00341        0.04363        0.07943        0.17093        0.01625       -0.08050       -0.11683       -0.10957       -0.19001       -0.39063       -0.29012       -0.33159       -0.29808       -0.37311       -0.29567       -0.34918       -0.25869       -0.30171       -0.30184       -0.26746       -0.17978       -0.17684       -0.02442       -0.03180        0.06185        0.24283        0.32198        0.47034        0.41716        0.43019        0.56227        0.61174        0.69892        0.55233        0.63244        0.67271        0.76380        0.65864        0.69946        0.72773        0.72377        0.59092        0.55071        0.51939        0.49460        0.40071        0.30832        0.20680        0.20268        0.05297       -0.03127       -0.04447       -0.02032       -0.06642       -0.01268       -0.01049        0.05522        0.08908        0.18349        0.27455        0.41392        0.44321        0.50877        0.52019        0.56063        0.60247        0.63338        0.70408        0.63433        0.63798        0.58763        0.54855        0.49570        0.42368        0.39579        0.35770        0.31484        0.22511        0.18924        0.08642        0.06877        0.01855        0.07806        0.19820        0.22627        0.26627        0.27467        0.35455        0.39961        0.46795        0.52932        0.55697        0.53374        0.55743        0.54406        0.50399        0.47918        0.43799        0.40884        0.32737        0.30561        0.20576        0.22034        0.18317        0.15181        0.22511        0.21675        0.19142        0.26552        0.31294        0.26960        0.38666        0.38836        0.47312        0.45750        0.43952        0.46152        0.47356        0.42554        0.39984        0.31649        0.30530        0.28546        0.23696        0.25485        0.22828        0.25254        0.29154        0.25711        0.30321        0.35290        0.36113        0.36170        0.45686        0.39994        0.39355        0.38270        0.36954        0.41472        0.35935        0.33996        0.29110        0.25275        0.26196        0.25959        0.25422        0.29335        0.28205        0.33352        0.33242        0.36097        0.38552        0.38467        0.40366        0.37882        0.35157        0.31915        0.29147        0.30409        0.29748        0.29374        0.26559        0.24659        0.29013        0.29556        0.29863        0.35153        0.36492        0.33586        0.39270        0.35965        0.33760        0.31264        0.29960        0.28706        0.30992        0.28434        0.28177        0.26703        0.25102        0.30110        0.28075        0.30896        0.30972        0.32322        0.29831        0.33540        0.33243        0.29635        0.32640        0.32197        0.25271        0.26634        0.27063        0.26700        0.27932        0.27941        0.28558        0.31074        0.32398        0.33830        0.28702        0.32103        0.32778        0.26952        0.30243        0.25442        0.30794        0.28926        0.30652        0.34939        0.33613        0.33559        0.32165        0.31275        0.33876        0.31437        0.29890        0.32394        0.28628        0.28281        0.24992        0.32949        0.31361        0.33617        0.28193        0.29024        0.32349        0.30234        0.29697        0.32873        0.28760        0.31722        0.26413        0.26244        0.33143        0.29974        0.27356        0.35225        0.30565        0.30026        0.26515        0.32897        0.32688        0.27313        0.27641        0.24362        0.29070        0.30817        0.32064        0.28968        0.23970        0.23535        0.22819        0.29500        0.27750        0.26719        0.28493        0.29525        0.28613        0.22272        0.20198        0.27319        0.32508        0.24951        0.26399        0.25366        0.28838        0.23538        0.24991        0.23178        0.23857        0.25132        0.20431        0.21206        0.20958        0.17185        0.19454        0.22450        0.19268        0.15324        0.17701        0.17877        0.31872        0.14812        0.11840        0.29784        0.07363        0.08144       -0.01587       -0.30734       -0.67185
1.484885 1.474546 1.464245 1.453981 1.443754 1.433564 1.423411 1.413295 1.403216 1.393175 1.383170 1.373203 1.363273 1.353380 1.343523 1.333705 1.323923 1.314178 1.304470 1.294800 1.285167 1.275570 1.266011 1.256489 1.247004 1.237556 1.228145 1.218772 1.209435 1.200136 1.190873 1.181648 1.172460 1.163309 1.154195 1.145118 1.136079 1.127076 1.118111 1.109182 1.100291 1.091437 1.082620 1.073840 1.065097 1.056391 1.047723 1.039091 1.030497 1.021940 1.013419 1.350358 1.897791 1.231900 0.862282 0.795988 0.623310 0.687652 0.681391 0.847609 0.687567 1.024213 1.022041 1.070793 0.811056 0.540547 0.438066 0.665107 0.749357 0.410425 0.557041 0.497980 0.527643 0.501259 0.588571 0.478024 0.357695 0.292015 0.236808 0.185362 -0.059173 0.041837 -0.072311 0.015867 -0.080160 -0.007675 -0.101809 -0.000619 -0.002837 0.024305 -0.091595 0.035960 0.121299 0.221089 0.188828 0.347164 0.472701 0.649813 0.805830 0.720591 0.760797 0.886625 0.900342 1.081819 0.926458 0.951605 0.905802 1.134298 1.001590 1.074763 0.998913 1.077770 0.871756 0.884476 0.789212 0.765118 0.611611 0.568208 0.367096 0.398092 0.233833 0.092790 0.059630 0.103053 0.021874 -0.004119 0.076155 0.105959 0.181320 0.251361 0.306075 0.565849 0.527093 0.636736 0.646801 0.674392 0.781380 0.716159 0.868344 0.733768 0.821375 0.687546 0.699811 0.643673 0.453255 0.472337 0.480362 0.297592 0.361296 0.155966 0.124461 0.062492 -0.049320 -0.035100 0.166483 0.168827 0.224354 0.269993 0.264568 0.454305 0.318450 0.603749 0.524155 0.572716 0.531927 0.525129 0.467724 0.450788 0.409665 0.345558 0.253765 0.260973 0.137080 0.086735 0.103957 0.009101 0.057437 0.081523 0.070541 0.068285 0.187832 0.125088 0.221886 0.245754 0.370204 0.335485 0.337143 0.300010 0.375226 0.323332 0.280614 0.217679 0.109072 0.162476 0.074038 0.033500 0.098352 0.002427 0.106563 0.078906 0.075420 0.178599 0.145369 0.194429 0.198802 0.307943 0.200968 0.172335 0.155978 0.215860 0.191947 0.127464 0.104707 0.051703 -0.018742 0.035333 -0.010077 0.019394 0.072386 0.062597 0.116053 0.076210 0.170683 0.117416 0.169497 0.216922 0.119416 0.137672 0.066393 0.069043 0.065237 0.079784 0.034599 -0.024794 0.052515 0.051679 0.060747 0.078615 0.132828 0.094504 0.105533 0.168937 0.121710 0.049755 0.090130 0.027949 0.015088 0.060863 0.006652 0.023612 -0.022785 0.035140 0.011816 0.009958 0.057604 0.057385 0.042964 0.021131 0.100717 0.036690 0.009501 0.072153 0.020635 -0.039622 -0.009765 -0.019923 -0.017241 0.001759 -0.009972 0.019008 0.032322 0.048499 0.052091 -0.036205 0.063965 0.032880 -0.031450 -0.008492 -0.007796 0.000216 -0.005024 0.046376 0.061936 0.092169 0.041773 0.018678 0.066795 0.083934 0.062375 0.018720 0.082606 0.006142 0.024735 -0.026351 0.105411 0.050840 0.092081 -0.020382 0.071421 0.030603 0.055957 0.040276 0.084819 0.060203 0.058613 -0.015960 0.027535 0.102269 0.039501 0.023542 0.138564 0.059936 0.045546 -0.018702 0.146906 0.077639 0.002583 0.055448 -0.042052 0.071338 0.073588 0.070455 0.100548 -0.009050 -0.066278 0.012844 0.043016 0.043926 0.021974 0.059618 0.034142 0.068145 -0.027410 -0.042126 0.056940 0.114118 0.012308 0.001344 0.075718 0.025582 0.065615 0.026762 0.045898 -0.000447 0.044302 -0.005416 -0.009510 0.311943 0.198329 0.251412 0.257249 0.236495 0.174623 0.193859 0.215686 0.513222 0.181234 0.049481 0.496211 0.104623 0.157141 -0.018143 -0.806163
0.072396 0.072799 0.074006 0.076018 0.078834 0.082455 0.086878 0.092103 0.098128 0.104953 0.112575 0.120992 0.130200 0.140196 0.150975 0.162533 0.174864 0.187960 0.201813 0.216414 0.231752 0.247815 0.264588 0.282056 0.300200 0.319002 0.338439 0.358486 0.379116 0.400299 0.422002 0.444189 0.466820 0.489854 0.513244 0.536940 0.560887 0.585029 0.609303 0.633644 0.657982 0.682240 0.706342 0.730203 0.753735 0.776847 0.799442 0.821420 0.842675 0.863100 0.882583 0.901007 0.918255 0.934205 0.948733 0.961714 0.973021 0.982527 0.990104 0.995624 0.998962 0.999995 0.998601 0.994665 0.988074 0.978724 0.966514 0.951356 0.933169 0.911881 0.887435 0.859786 0.828903 0.794770 0.757391 0.716784 0.672990 0.626068 0.576101 0.523194 0.467473 0.409092 0.348229 0.285085 0.219891 0.152901 0.084396 0.014683 0.055908 0.127021 0.198278 0.269277 0.339600 0.408808 0.476449 0.542056 0.605154 0.665261 0.721894 0.774570 0.822811 0.866153 0.904145 0.936356 0.962381 0.981849 0.994422 0.999806 0.997753 0.988071 0.970622 0.945335 0.912203 0.871292 0.822746 0.766781 0.703701 0.633885 0.557800 0.475992 0.389091 0.297802 0.202908 0.105263 0.005782 0.094560 0.194739 0.293694 0.390334 0.483550 0.572232 0.655278 0.731612 0.800197 0.860051 0.910265 0.950016 0.978582 0.995360 0.999881 0.991818 0.971004 0.937436 0.891288 0.832918 0.762867 0.681861 0.590811 0.490809 0.383113 0.269143 0.150462 0.028757 0.094181 0.216483 0.336226 0.451468 0.560277 0.660765 0.751123 0.829657 0.894822 0.945256 0.979814 0.997599 0.997987 0.980651 0.945582 0.893100 0.823864 0.738871 0.639451 0.527254 0.404236 0.272616 0.134861 0.006372 0.148275 0.287948 0.422452 0.548879 0.664409 0.766383 0.852362 0.920199 0.968091 0.994640 0.998899 0.980409 0.939233 0.875971 0.791765 0.688294 0.567749 0.432799 0.286543 0.132439 0.025762 0.184110 0.338548 0.485024 0.619583 0.738499 0.838366 0.916212 0.969596 0.996692 0.996364 0.968223 0.912659 0.830864 0.724814 0.597247 0.451600 0.291928 0.122810 0.050786 0.223637 0.390419 0.545879 0.684994 0.803148 0.896289 0.961087 0.995054 0.996665 0.965434 0.901965 0.807961 0.686207 0.540502 0.375558 0.196863 0.010508 0.177012 0.359016 0.528884 0.680293 0.807468 0.905408 0.970099 0.998697 0.989670 0.942894 0.859702 0.742873 0.596562 0.426176 0.238195 0.039932 0.160727 0.355645 0.536756 0.696409 0.827690 0.924752 0.983083 0.999740 0.973519 0.905058 0.796856 0.653218 0.480102 0.284906 0.076165 0.136807 0.344326 0.536777 0.705062 0.841046 0.937969 0.990800 0.996526 0.954353 0.865799 0.734683 0.566988 0.370626 0.155086 0.069008 0.290400 0.497779 0.680344 0.828395 0.933857 0.990749 0.995558 0.947482 0.848546 0.703551 0.519894 0.307218 0.076925 0.158405 0.385691 0.592088 0.765711 0.896342 0.976063 0.999765 0.965509 0.874722 0.732183 0.545825 0.326332 0.086554 0.159228 0.396113 0.609527 0.786087 0.914491 0.986263 0.996350 0.943525 0.830547 0.664078 0.454331 0.214498 0.040064 0.292783 0.526945 0.726817 0.878713 0.971964 0.999718 0.959480 0.853382 0.688141 0.474679 0.227462 0.036459 0.298589 0.540276 0.744059 0.894937 0.981523 0.996940 0.939430 0.812581 0.625183 0.390667 0.126204 0.148531 0.412786 0.646317 0.830939 0.951981 0.999504 0.969167 0.862684 0.687815 0.457862 0.190718 0.092475 0.368984 0.616295 0.813969 0.945355 0.999051 0.969951 0.859801 0.677178 0.436907
1.000000 1.000000 1.000000 1.000000 1.000000 1.000000 1.000000 1.000000 1.000000 1.000000 1.000000 1.000000 1.000000 1.000000 1.000000 1.000000 1.000000 1.000000 1.000000 1.000000 1.000000 1.000000 1.000000 1.000000 1.000000 1.000000 1.000000 1.000000 1.000000 1.000000 1.000000 1.000000 1.000000 1.000000 1.000000 1.000000 1.000000 1.000000 1.000000 1.000000 1.000000 1.000000 1.000000 1.000000 1.000000 1.000000 1.000000 1.000000 1.000000 1.000000 1.000000 1.000000 0.802156 0.802156 0.802156 0.802156 0.802156 0.802156 0.802156 0.802156 0.802156 0.779487 0.779487 0.779487 0.779487 0.779487 0.779487 0.779487 0.779487 0.779487 0.779487 0.779487 0.779487 0.779487 0.779487 0.779487 0.779487 0.779487 0.779487 0.779487 0.779487 0.779487 0.779487 0.779487 0.779487 0.779487 0.779487 0.779487 0.779487 0.779487 0.779487 0.779487 0.779487 0.779487 0.779487 0.779487 0.779487 0.779487 0.779487 0.779487 0.779487 0.779487 0.779487 0.779487 0.779487 0.779487 0.779487 0.779487 0.940116 0.940367 0.941431 0.949914 0.950727 0.951603 0.951408 0.951074 0.951284 0.951382 0.950937 0.951522 0.952134 0.953044 0.966154 0.966923 0.970523 0.970563 0.970466 0.970086 0.969010 0.975644 0.974951 0.974910 0.973803 0.972957 0.972908 0.973807 0.968207 0.967880 0.967518 0.974932 0.968948 0.968325 0.967346 0.965072 0.964216 0.963501 0.963416 0.963019 0.962975 0.963206 0.963137 0.963499 0.963887 0.964046 0.964107 0.959239 0.959447 0.958485 0.957899 0.947250 0.949072 0.943805 0.941436 0.932958 0.929824 0.936119 0.931145 0.929565 0.928753 0.928685 0.928734 0.928901 0.927250 0.923427 0.918404 0.917328 0.916575 0.914768 0.913908 0.916193 0.913481 0.914911 0.919883 0.921653 0.921207 0.918951 0.916361 0.908245 0.898877 0.899113 0.894277 0.897577 0.899550 0.891552 0.888443 0.876132 0.869657 0.866931 0.864253 0.864058 0.869040 0.866147 0.865502 0.863911 0.862101 0.863553 0.857298 0.856907 0.844824 0.842746 0.849954 0.824536 0.819758 0.811216 0.804659 0.805636 0.810962 0.810098 0.814131 0.811475 0.803274 0.786412 0.778017 0.767448 0.759368 0.747160 0.755890 0.751885 0.739112 0.752120 0.737568 0.758562 0.759941 0.766517 0.777081 0.777023 0.768843 0.762951 0.757204 0.751306 0.750018 0.695812 0.750199 0.698935 0.699972 0.693244 0.684260 0.674297 0.672443 0.673886 0.678111 0.669255 0.663245 0.654688 0.651283 0.640529 0.639863 0.656669 0.624765 0.626447 0.610616 0.629624 0.583013 0.581096 0.582810 0.543237 0.524256 0.510254 0.506598 0.501029 0.501011 0.496480 0.491935 0.467948 0.481582 0.494201 0.468996 0.475906 0.468873 0.482375 0.472096 0.462724 0.414334 0.414348 0.410198 0.420722 0.425433 0.417984 0.456619 0.428257 0.424907 0.432170 0.441211 0.429614 0.366088 0.357821 0.345389 0.328925 0.317453 0.199294 0.200096 0.192041 0.206900 0.229009 0.212670 0.187557 0.225615 0.216761 0.211808 0.222618 0.215722 0.207267 0.174319 0.177046 0.156123 0.111589 0.111063 0.098937 0.082291 0.062707 0.057360 0.074421 0.095539 0.089355 0.079772 0.046018 0.002924 0.006081 -0.004296 -0.013633 0.042439 0.026916 0.026916 0.026916 0.026916 0.026916 0.032615 0.032615 0.032615 0.032615 0.032615 0.032615 0.032615 0.032615 0.032615 0.032615 0.032615 0.032615 0.026916 0.026916 0.026916 0.026916 0.026916 0.026916 0.026916 0.026916 0.026916 0.026916 0.026916 0.026916 0.026916 0.026916 0.026916
0.000000 0.000000 0.000000 0.000000 0.000000 0.000000 0.000000 0.000000 0.000000 0.000000 0.000000 0.000000 0.000000 0.000000 0.000000 0.000000 0.000000 0.000000 0.000000 0.000000 0.000000 9401.000000 0.000000 0.000000 0.000000 0.000000 0.000000 0.000000 0.000000 0.000000 0.000000 0.000000 0.000000 0.000000 0.000000 0.000000 0.000000 0.000000 0.000000 0.000000 0.000000 0.000000 0.000000 0.000000 0.000000 0.000000 0.000000 0.000000 0.000000 0.000000 0.000000 0.000000 0.170872 0.170872 0.170872 0.170872 0.170872 0.170872 0.170872 0.170872 0.170872 0.186501 0.186501 0.186501 0.186501 0.186501 0.186501 0.186501 0.186501 0.186501 0.186501 0.186501 0.186501 0.186501 0.186501 0.186501 0.186501 0.186501 0.186501 0.186501 0.186501 0.186501 0.186501 0.186501 0.186501 0.186501 0.186501 0.186501 0.186501 0.186501 0.186501 0.186501 0.186501 0.186501 0.186501 0.186501 0.186501 0.186501 0.186501 0.186501 0.186501 0.186501 0.186501 0.186501 0.186501 0.186501 0.186501 0.186501 0.219529 0.219529 0.219529 0.219529 0.219529 0.219529 0.219529 0.219529 0.219529 0.219529 0.219529 0.219529 0.219529 0.219529 0.219529 0.219529 0.219529 0.219529 0.219529 0.219529 0.219529 0.219529 0.219529 0.219529 0.219529 0.219529 0.219529 0.219529 0.219529 0.219529 0.219529 0.230940 0.230940 0.230940 0.230940 0.230940 0.230940 0.230940 0.230940 0.230940 0.230940 0.230940 0.230940 0.230940 0.230940 0.230940 0.230940 0.230940 0.230940 0.230940 0.230940 0.230940 0.230940 0.230940 0.230940 0.230940 0.230940 0.240772 0.240772 0.240772 0.240772 0.240772 0.240772 0.240772 0.240772 0.240772 0.240772 0.240772 0.240772 0.240772 0.240772 0.240772 0.240772 0.240772 0.240772 0.240772 0.240772 0.240772 0.240772 0.244339 0.244339 0.244339 0.244339 0.244339 0.244339 0.244339 0.244339 0.244339 0.244339 0.244339 0.244339 0.244339 0.244339 0.244339 0.244339 0.244339 0.244339 0.244339 0.244339 0.248069 0.248069 0.248069 0.248069 0.248069 0.248069 0.248069 0.248069 0.248069 0.248069 0.248069 0.248069 0.248069 0.248069 0.248069 0.248069 0.248069 0.248069 0.248069 0.248069 0.248069 0.248069 0.248069 0.248069 0.248069 0.248069 0.248069 0.248069 0.248069 0.248069 0.248069 0.248069 0.248069 0.248069 0.248069 0.256074 0.256074 0.256074 0.256074 0.256074 0.256074 0.256074 0.256074 0.256074 0.256074 0.256074 0.256074 0.256074 0.256074 0.256074 0.248069 0.248069 0.248069 0.248069 0.248069 0.248069 0.248069 0.248069 0.248069 0.248069 0.248069 0.248069 0.248069 0.248069 0.248069 0.251976 0.251976 0.251976 0.251976 0.251976 0.251976 0.251976 0.251976 0.251976 0.251976 0.251976 0.251976 0.251976 0.251976 0.256074 0.256074 0.256074 0.256074 0.256074 0.256074 0.256074 0.256074 0.256074 0.256074 0.256074 0.256074 0.256074 0.248069 0.248069 0.248069 0.248069 0.248069 0.248069 0.248069 0.248069 0.248069 0.248069 0.248069 0.248069 0.248069 0.251976 0.251976 0.251976 0.251976 0.251976 0.251976 0.251976 0.251976 0.251976 0.251976 0.251976 0.251976 0.248069 0.248069 0.248069 0.248069 0.248069 0.248069 0.248069 0.248069 0.248069 0.248069 0.248069 0.248069 0.244339 0.244339 0.244339 0.244339 0.244339 0.244339 0.244339 0.244339 0.244339 0.244339 0.244339 0.244339 0.248069 0.248069 0.248069 0.248069 0.248069 0.248069 0.248069 0.248069 0.248069 0.248069 0.248069 0.248069 0.248069 0.248069 0.248069
