# Output from CTFFind version 4.1.9, run on 2019-11-03 18:51:11
# Input file: stack13_ub_averaged_50.mrc ; Number of micrographs: 1
# Pixel size: 3.000 Angstroms ; acceleration voltage: 300.0 keV ; spherical aberration: 0.00 mm ; amplitude contrast: 0.07
# Box size: 512 pixels ; min. res.: 30.0 Angstroms ; max. res.: 5.0 Angstroms ; min. def.: 5000.0 um; max. def. 50000.0 um; num. frames averaged: 1
# 6 lines per micrograph: #1 - spatial frequency (1/Angstroms); #2 - 1D rotational average of spectrum (assuming no astigmatism); #3 - 1D rotational average of spectrum; #4 - CTF fit; #5 - cross-correlation between spectrum and CTF fit; #6 - 2sigma of expected cross correlation of noise
0.000000 0.000651 0.001302 0.001953 0.002604 0.003255 0.003906 0.004557 0.005208 0.005859 0.006510 0.007161 0.007812 0.008464 0.009115 0.009766 0.010417 0.011068 0.011719 0.012370 0.013021 0.013672 0.014323 0.014974 0.015625 0.016276 0.016927 0.017578 0.018229 0.018880 0.019531 0.020182 0.020833 0.021484 0.022135 0.022786 0.023438 0.024089 0.024740 0.025391 0.026042 0.026693 0.027344 0.027995 0.028646 0.029297 0.029948 0.030599 0.031250 0.031901 0.032552 0.033203 0.033854 0.034505 0.035156 0.035807 0.036458 0.037109 0.037760 0.038411 0.039062 0.039714 0.040365 0.041016 0.041667 0.042318 0.042969 0.043620 0.044271 0.044922 0.045573 0.046224 0.046875 0.047526 0.048177 0.048828 0.049479 0.050130 0.050781 0.051432 0.052083 0.052734 0.053385 0.054036 0.054688 0.055339 0.055990 0.056641 0.057292 0.057943 0.058594 0.059245 0.059896 0.060547 0.061198 0.061849 0.062500 0.063151 0.063802 0.064453 0.065104 0.065755 0.066406 0.067057 0.067708 0.068359 0.069010 0.069661 0.070312 0.070964 0.071615 0.072266 0.072917 0.073568 0.074219 0.074870 0.075521 0.076172 0.076823 0.077474 0.078125 0.078776 0.079427 0.080078 0.080729 0.081380 0.082031 0.082682 0.083333 0.083984 0.084635 0.085286 0.085938 0.086589 0.087240 0.087891 0.088542 0.089193 0.089844 0.090495 0.091146 0.091797 0.092448 0.093099 0.093750 0.094401 0.095052 0.095703 0.096354 0.097005 0.097656 0.098307 0.098958 0.099609 0.100260 0.100911 0.101562 0.102214 0.102865 0.103516 0.104167 0.104818 0.105469 0.106120 0.106771 0.107422 0.108073 0.108724 0.109375 0.110026 0.110677 0.111328 0.111979 0.112630 0.113281 0.113932 0.114583 0.115234 0.115885 0.116536 0.117188 0.117839 0.118490 0.119141 0.119792 0.120443 0.121094 0.121745 0.122396 0.123047 0.123698 0.124349 0.125000 0.125651 0.126302 0.126953 0.127604 0.128255 0.128906 0.129557 0.130208 0.130859 0.131510 0.132161 0.132812 0.133464 0.134115 0.134766 0.135417 0.136068 0.136719 0.137370 0.138021 0.138672 0.139323 0.139974 0.140625 0.141276 0.141927 0.142578 0.143229 0.143880 0.144531 0.145182 0.145833 0.146484 0.147135 0.147786 0.148438 0.149089 0.149740 0.150391 0.151042 0.151693 0.152344 0.152995 0.153646 0.154297 0.154948 0.155599 0.156250 0.156901 0.157552 0.158203 0.158854 0.159505 0.160156 0.160807 0.161458 0.162109 0.162760 0.163411 0.164062 0.164714 0.165365 0.166016 0.166667 0.167318 0.167969 0.168620 0.169271 0.169922 0.170573 0.171224 0.171875 0.172526 0.173177 0.173828 0.174479 0.175130 0.175781 0.176432 0.177083 0.177734 0.178385 0.179036 0.179688 0.180339 0.180990 0.181641 0.182292 0.182943 0.183594 0.184245 0.184896 0.185547 0.186198 0.186849 0.187500 0.188151 0.188802 0.189453 0.190104 0.190755 0.191406 0.192057 0.192708 0.193359 0.194010 0.194661 0.195312 0.195964 0.196615 0.197266 0.197917 0.198568 0.199219 0.199870 0.200521 0.201172 0.201823 0.202474 0.203125 0.203776 0.204427 0.205078 0.205729 0.206380 0.207031 0.207682 0.208333 0.208984 0.209635 0.210286 0.210938 0.211589 0.212240 0.212891 0.213542 0.214193 0.214844 0.215495 0.216146 0.216797 0.217448 0.218099 0.218750 0.219401 0.220052 0.220703 0.221354 0.222005 0.222656 0.223307 0.223958 0.224609 0.225260 0.225911 0.226562 0.227214 0.227865 0.228516 0.229167 0.229818 0.230469 0.231120 0.231771 0.232422 0.233073 0.233724 0.234375 0.235026 0.235677
       0.36365        0.36365        0.36365        0.36365        0.36365        0.36365        0.36365        0.36365        0.36365        0.36365        0.36365        0.36365        0.36365        0.36365        0.36365        0.36365        0.36365        0.36365        0.36365        0.36365        0.36365        0.36365        0.36365        0.36365        0.36365        0.36365        0.36365        0.36365        0.36365        0.36365        0.36365        0.36365        0.36365        0.36365        0.36365        0.36365        0.36365        0.36365        0.36365        0.36365        0.36365        0.36365        0.36365        0.36365        0.36365        0.36365        0.36365        0.36365        0.36365        0.36365        0.36365        0.57558        0.99193        0.79796        0.07187       -0.24396       -0.19551       -0.33986       -0.34617       -0.29917       -0.35422       -0.08052       -0.31068       -0.27742       -0.49200       -0.52188       -0.60899       -0.65519       -0.67485       -0.79905       -0.71783       -0.72494       -0.63047       -0.64305       -0.58598       -0.54355       -0.57197       -0.45276       -0.31944       -0.28952       -0.17126       -0.02749        0.08269        0.26797        0.38005        0.41620        0.45339        0.56079        0.68815        0.59875        0.61732        0.54426        0.69001        0.64983        0.63038        0.68557        0.60973        0.55551        0.35855        0.32480        0.24044        0.15799        0.05319        0.05231       -0.06703        0.02652        0.02063        0.07085        0.13107        0.17368        0.23610        0.40705        0.49284        0.60481        0.63291        0.69757        0.67903        0.75072        0.72070        0.62449        0.59591        0.62376        0.53960        0.40715        0.34778        0.27201        0.15757        0.15151        0.07583        0.09782        0.03526        0.12605        0.20501        0.36309        0.45201        0.44303        0.51902        0.59279        0.57731        0.55331        0.63712        0.57846        0.51665        0.48078        0.43192        0.30534        0.26957        0.19825        0.14270        0.12227        0.17280        0.18542        0.29481        0.34483        0.46733        0.45587        0.52735        0.54920        0.55033        0.55525        0.54832        0.47003        0.41326        0.32849        0.27469        0.22003        0.18841        0.19979        0.23866        0.29119        0.29073        0.38773        0.47735        0.50779        0.53481        0.51192        0.53837        0.48041        0.41904        0.35483        0.28641        0.25664        0.24818        0.22980        0.25950        0.33945        0.37901        0.42066        0.51522        0.49118        0.48060        0.44107        0.39175        0.39050        0.35613        0.33172        0.25378        0.25051        0.29774        0.34862        0.35312        0.41025        0.43454        0.48894        0.43799        0.43944        0.39104        0.40986        0.36577        0.32548        0.30188        0.34331        0.31162        0.31563        0.35545        0.40701        0.38335        0.40414        0.45105        0.39491        0.34403        0.28123        0.27872        0.30524        0.29991        0.33561        0.37511        0.40684        0.46753        0.42079        0.42038        0.41720        0.34959        0.34794        0.35658        0.30829        0.31554        0.34171        0.35700        0.38097        0.40382        0.41228        0.38775        0.36780        0.36933        0.31201        0.30676        0.27453        0.29761        0.30719        0.32595        0.36263        0.36790        0.38850        0.36225        0.31362        0.29629        0.29065        0.26790        0.28072        0.35595        0.33122        0.36085        0.34224        0.37266        0.35492        0.32330        0.31166        0.32679        0.32447        0.32527        0.36480        0.35463        0.36192        0.42102        0.34001        0.37207        0.32497        0.29416        0.33390        0.35491        0.37241        0.32089        0.34988        0.38736        0.38045        0.40501        0.38784        0.31440        0.28249        0.35585        0.28539        0.35338        0.36424        0.37629        0.33246        0.32404        0.35209        0.32959        0.34606        0.32554        0.33434        0.37050        0.40391        0.31804        0.37263        0.31757        0.29542        0.28811        0.30886        0.33614        0.33170        0.33776        0.33395        0.28864        0.26664        0.36097        0.29977        0.28635        0.30975        0.36442        0.34047        0.29950        0.28403        0.29506        0.31734        0.32182        0.34766        0.34857        0.29809        0.31534        0.28482        0.26723        0.22835        0.28201        0.33967        0.33513        0.32300        0.27407        0.29624        0.29406        0.23327        0.30731        0.36808        0.23801        0.23270        0.26259        0.30113        0.21917        0.24069        0.22782        0.29768        0.19972        0.20783        0.25610        0.28583        0.22125        0.20618        0.22420        0.17970        0.03450       -0.42264       -0.56796
2.400534 2.373903 2.347427 2.321107 2.294943 2.268934 2.243080 2.217383 2.191841 2.166455 2.141224 2.116149 2.091229 2.066466 2.041858 2.017405 1.993108 1.968967 1.944981 1.921151 1.897477 1.873958 1.850595 1.827388 1.804336 1.781440 1.758699 1.736114 1.713685 1.691411 1.669293 1.647331 1.625524 1.603873 1.582378 1.561038 1.539854 1.518825 1.497952 1.477235 1.456673 1.436267 1.416017 1.395922 1.375983 1.356199 1.336572 1.317099 1.297783 1.278622 1.259617 1.354992 1.798070 1.652149 1.011909 0.573618 0.632927 0.496172 0.384247 0.530972 0.355885 0.632504 0.465965 0.439187 0.237615 0.101222 0.093325 0.023558 -0.032997 -0.164550 -0.063039 -0.222705 -0.045406 -0.096519 -0.052967 0.028603 -0.094720 0.027106 0.125298 0.126842 0.213138 0.399527 0.400032 0.652399 0.648560 0.773266 0.734110 0.850041 0.908822 0.916394 0.839242 0.743641 0.887977 0.893067 0.838248 0.879960 0.778478 0.786684 0.529999 0.460639 0.429115 0.309300 0.226533 0.194894 0.079724 0.104350 0.094315 0.155178 0.188562 0.238761 0.219970 0.441759 0.441035 0.598097 0.596015 0.698375 0.658760 0.653451 0.726312 0.566293 0.452343 0.654828 0.470939 0.354488 0.289514 0.232170 0.098383 0.050804 0.012959 0.009782 -0.114526 0.038007 0.025088 0.192954 0.269882 0.292487 0.316305 0.410398 0.403504 0.421499 0.400276 0.448368 0.362523 0.291058 0.326893 0.132744 0.119076 0.072675 -0.006818 -0.099002 -0.018330 0.016236 0.028990 0.091696 0.251159 0.207035 0.272736 0.346904 0.379205 0.383464 0.403317 0.330149 0.249960 0.235935 0.085975 0.098601 0.015682 0.022021 0.036408 0.094533 0.123983 0.132288 0.240133 0.277408 0.335020 0.277590 0.371380 0.282403 0.223714 0.161076 0.139884 0.019137 0.076838 0.002087 0.036005 0.065217 0.118506 0.170510 0.242700 0.281971 0.224535 0.211090 0.178981 0.091506 0.129672 0.093143 0.023115 -0.025687 -0.013638 0.077821 0.036256 0.148517 0.109678 0.180772 0.193007 0.155055 0.112840 0.107687 0.123612 0.042203 0.023545 0.038634 0.057576 0.011242 0.055352 0.058449 0.104982 0.078630 0.148503 0.117866 0.076336 0.025935 -0.061665 0.012373 -0.016409 0.028379 0.028670 0.088117 0.130133 0.155256 0.101092 0.119364 0.120882 0.056554 0.036706 0.058885 0.011169 0.044393 0.040273 0.068478 0.097506 0.105013 0.113593 0.093040 0.077949 0.073852 0.009402 0.028741 -0.016275 0.013387 0.028240 0.048661 0.082368 0.095040 0.093408 0.051633 0.010362 0.010477 0.002465 -0.020373 0.006494 0.066578 0.046787 0.058853 0.059487 0.113722 0.059734 0.034639 0.027786 0.052111 0.033628 0.043258 0.083268 0.070881 0.059355 0.102734 0.037137 0.103665 0.025924 -0.029197 0.049750 0.062597 0.078828 0.013758 0.055672 0.105322 0.086606 0.105707 0.100193 -0.008436 0.003109 0.077074 -0.033625 0.068898 0.088089 0.066450 0.022696 0.036304 0.049340 0.019181 0.039297 0.019399 0.035294 0.046037 0.044324 -0.006195 0.043030 -0.035859 -0.038873 -0.039295 -0.016821 -0.031752 -0.009408 0.011370 -0.030925 -0.060587 -0.066192 0.039831 -0.046219 -0.050808 -0.004679 0.028833 0.001826 0.016842 -0.034176 0.013711 0.032324 -0.003965 0.042349 0.047267 0.020618 0.032884 0.016207 0.002296 -0.045064 0.020334 0.075144 0.067930 0.102099 -0.002778 0.098393 0.046707 -0.041005 0.080235 0.122903 0.018988 -0.056540 0.022637 0.109368 -0.007389 0.003593 0.015419 0.053634 -0.099085 0.225353 0.205076 0.264914 0.210145 0.234416 0.196296 0.118152 0.207339 -0.347648
0.072396 0.072957 0.074640 0.077444 0.081369 0.086414 0.092576 0.099854 0.108246 0.117747 0.128353 0.140058 0.152855 0.166737 0.181691 0.197707 0.214769 0.232859 0.251959 0.272043 0.293086 0.315055 0.337915 0.361627 0.386146 0.411420 0.437393 0.464003 0.491182 0.518852 0.546931 0.575328 0.603945 0.632675 0.661404 0.690008 0.718356 0.746308 0.773715 0.800420 0.826258 0.851056 0.874633 0.896803 0.917371 0.936140 0.952904 0.967458 0.979592 0.989095 0.995759 0.999376 0.999744 0.996666 0.989954 0.979431 0.964933 0.946311 0.923437 0.896201 0.864521 0.828339 0.787628 0.742396 0.692685 0.638575 0.580188 0.517690 0.451293 0.381255 0.307885 0.231539 0.152625 0.071603 0.011021 0.094689 0.178799 0.262706 0.345724 0.427133 0.506184 0.582104 0.654105 0.721391 0.783167 0.838652 0.887083 0.927735 0.959924 0.983027 0.996489 0.999838 0.992698 0.974798 0.945989 0.906248 0.855692 0.794588 0.723352 0.642560 0.552950 0.455418 0.351018 0.240955 0.126575 0.009356 0.109110 0.227136 0.342963 0.454783 0.560767 0.659100 0.748007 0.825797 0.890888 0.941854 0.977452 0.996664 0.998726 0.983158 0.949792 0.898795 0.830681 0.746323 0.646957 0.534174 0.409902 0.276393 0.136181 0.007953 0.153031 0.295944 0.433502 0.562523 0.679893 0.782658 0.868098 0.933809 0.977780 0.998466 0.994849 0.966493 0.913585 0.836962 0.738116 0.619195 0.482962 0.332759 0.172429 0.006238 0.161238 0.325227 0.480902 0.623523 0.748583 0.851967 0.930092 0.980051 0.999738 0.987948 0.944462 0.870095 0.766718 0.637236 0.485535 0.316387 0.135320 0.051547 0.237704 0.416469 0.581230 0.725697 0.844150 0.931689 0.984450 0.999805 0.976514 0.914828 0.816546 0.684994 0.524956 0.342529 0.144916 0.059844 0.263173 0.456329 0.630771 0.778551 0.892693 0.967548 0.999107 0.985239 0.925871 0.823061 0.680979 0.505786 0.305404 0.089188 0.132482 0.348696 0.548534 0.721638 0.858761 0.952290 0.996704 0.988944 0.928657 0.818313 0.663165 0.471054 0.252056 0.017998 0.218163 0.443038 0.643580 0.807835 0.925707 0.989601 0.994970 0.940688 0.829226 0.666622 0.462212 0.228157 0.021244 0.270392 0.503358 0.704903 0.861499 0.962282 0.999849 0.970871 0.876437 0.722116 0.517714 0.276714 0.015442 0.247997 0.494960 0.707600 0.870159 0.970206 0.999637 0.955406 0.839902 0.660925 0.431244 0.167768 0.109641 0.379647 0.621061 0.814519 0.944091 0.998653 0.972917 0.868035 0.691672 0.457557 0.184506 0.105042 0.386804 0.636704 0.832937 0.957929 0.999986 0.954480 0.824454 0.620541 0.360219 0.066402 0.234521 0.515018 0.748939 0.913990 0.993944 0.980325 0.873416 0.682457 0.424983 0.125308 0.187669 0.483230 0.731839 0.908140 0.993617 0.978651 0.863724 0.659618 0.386547 0.072267 0.250644 0.548147 0.788320 0.944846 0.999994 0.946750 0.789847 0.545517 0.239966 0.093337 0.417233 0.695024 0.894642 0.992462 0.976210 0.846663 0.617850 0.315711 0.024719 0.363267 0.659347 0.876841 0.988603 0.979980 0.850894 0.616183 0.304068 0.047075 0.393348 0.690782 0.900969 0.996109 0.962851 0.804343 0.540170 0.204146 0.159896 0.503709 0.781030 0.953867 0.997840 0.905795 0.689159 0.376739 0.011098 0.357139 0.676227 0.900612 0.997555 0.952071 0.769469 0.474997 0.110564 0.271082 0.613858 0.866670 0.991085 0.967367 0.797838 0.506956 0.138034 0.253045 0.606181 0.866324 0.992158 0.962837 0.781704 0.476216 0.094032 0.304234 0.654524 0.899712 0.998987
1.000000 1.000000 1.000000 1.000000 1.000000 1.000000 1.000000 1.000000 1.000000 1.000000 1.000000 1.000000 1.000000 1.000000 1.000000 1.000000 1.000000 1.000000 1.000000 1.000000 1.000000 1.000000 1.000000 1.000000 1.000000 1.000000 1.000000 1.000000 1.000000 1.000000 1.000000 1.000000 1.000000 1.000000 1.000000 1.000000 1.000000 1.000000 1.000000 1.000000 1.000000 1.000000 1.000000 1.000000 1.000000 1.000000 1.000000 1.000000 1.000000 1.000000 1.000000 1.000000 0.937812 0.937812 0.937812 0.937812 0.937812 0.937812 0.937812 0.937812 0.937812 0.937812 0.937812 0.937812 0.937812 0.937812 0.937812 0.937812 0.937812 0.937812 0.937812 0.937812 0.937812 0.937812 0.937812 0.937812 0.937812 0.937812 0.937812 0.937812 0.937812 0.937812 0.937812 0.937812 0.937812 0.937812 0.937812 0.937812 0.937812 0.937812 0.937812 0.918047 0.921646 0.922483 0.925887 0.928135 0.926646 0.927440 0.927657 0.928075 0.929339 0.930761 0.932979 0.934399 0.937343 0.944233 0.950700 0.949717 0.952562 0.954826 0.955555 0.969490 0.970186 0.971328 0.971768 0.971926 0.971988 0.972090 0.972751 0.972872 0.972615 0.972127 0.970534 0.972493 0.977943 0.977975 0.977597 0.977684 0.978155 0.978169 0.979163 0.979364 0.978198 0.975805 0.975687 0.975252 0.975300 0.975581 0.974844 0.973614 0.974907 0.974961 0.975113 0.975469 0.974874 0.968785 0.969054 0.966737 0.962287 0.956102 0.954020 0.949832 0.950882 0.953206 0.953002 0.949310 0.944535 0.939659 0.937454 0.942163 0.936694 0.935520 0.935816 0.937374 0.938276 0.938161 0.928408 0.926699 0.924960 0.925273 0.928267 0.931343 0.929916 0.926951 0.926244 0.925495 0.926699 0.923911 0.910755 0.903860 0.903134 0.901440 0.905853 0.908098 0.907760 0.899177 0.890707 0.872873 0.864433 0.857649 0.860309 0.861929 0.863930 0.872062 0.864152 0.859700 0.853813 0.850946 0.847989 0.850505 0.850423 0.849481 0.847668 0.849675 0.849746 0.847547 0.847291 0.844077 0.841325 0.833353 0.833346 0.827775 0.827822 0.829735 0.833589 0.835638 0.836890 0.835662 0.840558 0.832546 0.836401 0.835224 0.837691 0.834195 0.836830 0.838503 0.833485 0.825625 0.822348 0.824216 0.829421 0.814230 0.820595 0.825842 0.834582 0.837766 0.828626 0.825671 0.808944 0.788410 0.796890 0.801447 0.777171 0.780519 0.792968 0.791924 0.794051 0.793506 0.785320 0.771775 0.773008 0.787262 0.767356 0.757543 0.793521 0.762692 0.746958 0.737624 0.717736 0.718335 0.726764 0.735197 0.702410 0.657081 0.653032 0.639100 0.646177 0.644739 0.617767 0.614687 0.599903 0.606663 0.600811 0.580913 0.567882 0.565620 0.547103 0.553455 0.547608 0.534990 0.542203 0.550602 0.545225 0.539087 0.516827 0.522911 0.514084 0.502264 0.495129 0.411245 0.421352 0.411801 0.416962 0.445693 0.427720 0.436146 0.427324 0.424743 0.394707 0.359905 0.360882 0.365940 0.378252 0.363769 0.370302 0.373110 0.404573 0.399251 0.372612 0.398461 0.420525 0.403439 0.415509 0.436465 0.415388 0.392164 0.375949 0.358813 0.388452 0.378147 0.370458 0.369814 0.369597 0.352881 0.364531 0.361329 0.334592 0.282507 0.258935 0.260505 0.296691 0.209004 0.237074 0.237074 0.237074 0.237074 0.237074 0.237074 0.237074 0.188343 0.188343 0.188343 0.188343 0.188343 0.188343 0.188343 0.188343 0.219387 0.219387 0.219387 0.219387 0.219387 0.219387 0.219387 0.219387 0.219387 0.219387 0.219387 0.219387 0.219387 0.219387 0.219387 0.219387
0.000000 0.000000 0.000000 0.000000 0.000000 0.000000 0.000000 0.000000 0.000000 0.000000 0.000000 0.000000 0.000000 0.000000 0.000000 0.000000 0.000000 0.000000 0.000000 0.000000 0.000000 0.000000 0.000000 0.000000 0.000000 0.000000 0.000000 0.000000 0.000000 0.000000 0.000000 0.000000 0.000000 0.000000 0.000000 0.000000 0.000000 0.000000 0.000000 0.000000 0.000000 0.000000 0.000000 0.000000 0.000000 0.000000 0.000000 0.000000 0.000000 0.000000 0.000000 0.000000 0.203069 0.203069 0.203069 0.203069 0.203069 0.203069 0.203069 0.203069 0.203069 0.203069 0.203069 0.203069 0.203069 0.203069 0.203069 0.203069 0.203069 0.203069 0.203069 0.203069 0.203069 0.203069 0.203069 0.203069 0.203069 0.203069 0.203069 0.203069 0.203069 0.203069 0.203069 0.203069 0.203069 0.203069 0.203069 0.203069 0.203069 0.203069 0.203069 0.234082 0.234082 0.234082 0.234082 0.234082 0.234082 0.234082 0.234082 0.234082 0.234082 0.234082 0.234082 0.234082 0.234082 0.234082 0.234082 0.234082 0.234082 0.234082 0.234082 0.234082 0.234082 0.234082 0.234082 0.234082 0.234082 0.234082 0.248069 0.248069 0.248069 0.248069 0.248069 0.248069 0.248069 0.248069 0.248069 0.248069 0.248069 0.248069 0.248069 0.248069 0.248069 0.248069 0.248069 0.248069 0.248069 0.248069 0.248069 0.248069 0.256074 0.256074 0.256074 0.256074 0.256074 0.256074 0.256074 0.256074 0.256074 0.256074 0.256074 0.256074 0.256074 0.256074 0.256074 0.256074 0.256074 0.256074 0.256074 0.269680 0.269680 0.269680 0.269680 0.269680 0.269680 0.269680 0.269680 0.269680 0.269680 0.269680 0.269680 0.269680 0.269680 0.269680 0.269680 0.264906 0.264906 0.264906 0.264906 0.264906 0.264906 0.264906 0.264906 0.264906 0.264906 0.264906 0.264906 0.264906 0.264906 0.264906 0.264906 0.269680 0.269680 0.269680 0.269680 0.269680 0.269680 0.269680 0.269680 0.269680 0.269680 0.269680 0.269680 0.269680 0.269680 0.274721 0.274721 0.274721 0.274721 0.274721 0.274721 0.274721 0.274721 0.274721 0.274721 0.274721 0.274721 0.274721 0.264906 0.264906 0.264906 0.264906 0.264906 0.264906 0.264906 0.264906 0.264906 0.264906 0.264906 0.264906 0.264906 0.280056 0.280056 0.280056 0.280056 0.280056 0.280056 0.280056 0.280056 0.280056 0.280056 0.280056 0.264906 0.264906 0.264906 0.264906 0.264906 0.264906 0.264906 0.264906 0.264906 0.264906 0.264906 0.264906 0.280056 0.280056 0.280056 0.280056 0.280056 0.280056 0.280056 0.280056 0.280056 0.280056 0.264906 0.264906 0.264906 0.264906 0.264906 0.264906 0.264906 0.264906 0.264906 0.264906 0.264906 0.269680 0.269680 0.269680 0.269680 0.269680 0.269680 0.269680 0.269680 0.269680 0.269680 0.264906 0.264906 0.264906 0.264906 0.264906 0.264906 0.264906 0.264906 0.264906 0.264906 0.269680 0.269680 0.269680 0.269680 0.269680 0.269680 0.269680 0.269680 0.269680 0.264906 0.264906 0.264906 0.264906 0.264906 0.264906 0.264906 0.264906 0.264906 0.260378 0.260378 0.260378 0.260378 0.260378 0.260378 0.260378 0.260378 0.260378 0.269680 0.269680 0.269680 0.269680 0.269680 0.269680 0.269680 0.269680 0.251976 0.251976 0.251976 0.251976 0.251976 0.251976 0.251976 0.251976 0.251976 0.264906 0.264906 0.264906 0.264906 0.264906 0.264906 0.264906 0.264906 0.260378 0.260378 0.260378 0.260378 0.260378 0.260378 0.260378 0.260378 0.260378 0.260378 0.260378 0.260378 0.260378 0.260378 0.260378 0.260378
