# Output from CTFFind version 4.1.9, run on 2019-11-03 18:51:45
# Input file: stack13_ub_averaged_1000.mrc ; Number of micrographs: 1
# Pixel size: 3.000 Angstroms ; acceleration voltage: 300.0 keV ; spherical aberration: 0.00 mm ; amplitude contrast: 0.07
# Box size: 512 pixels ; min. res.: 30.0 Angstroms ; max. res.: 5.0 Angstroms ; min. def.: 5000.0 um; max. def. 50000.0 um; num. frames averaged: 1
# 6 lines per micrograph: #1 - spatial frequency (1/Angstroms); #2 - 1D rotational average of spectrum (assuming no astigmatism); #3 - 1D rotational average of spectrum; #4 - CTF fit; #5 - cross-correlation between spectrum and CTF fit; #6 - 2sigma of expected cross correlation of noise
0.000000 0.000651 0.001302 0.001953 0.002604 0.003255 0.003906 0.004557 0.005208 0.005859 0.006510 0.007161 0.007812 0.008464 0.009115 0.009766 0.010417 0.011068 0.011719 0.012370 0.013021 0.013672 0.014323 0.014974 0.015625 0.016276 0.016927 0.017578 0.018229 0.018880 0.019531 0.020182 0.020833 0.021484 0.022135 0.022786 0.023438 0.024089 0.024740 0.025391 0.026042 0.026693 0.027344 0.027995 0.028646 0.029297 0.029948 0.030599 0.031250 0.031901 0.032552 0.033203 0.033854 0.034505 0.035156 0.035807 0.036458 0.037109 0.037760 0.038411 0.039062 0.039714 0.040365 0.041016 0.041667 0.042318 0.042969 0.043620 0.044271 0.044922 0.045573 0.046224 0.046875 0.047526 0.048177 0.048828 0.049479 0.050130 0.050781 0.051432 0.052083 0.052734 0.053385 0.054036 0.054688 0.055339 0.055990 0.056641 0.057292 0.057943 0.058594 0.059245 0.059896 0.060547 0.061198 0.061849 0.062500 0.063151 0.063802 0.064453 0.065104 0.065755 0.066406 0.067057 0.067708 0.068359 0.069010 0.069661 0.070312 0.070964 0.071615 0.072266 0.072917 0.073568 0.074219 0.074870 0.075521 0.076172 0.076823 0.077474 0.078125 0.078776 0.079427 0.080078 0.080729 0.081380 0.082031 0.082682 0.083333 0.083984 0.084635 0.085286 0.085938 0.086589 0.087240 0.087891 0.088542 0.089193 0.089844 0.090495 0.091146 0.091797 0.092448 0.093099 0.093750 0.094401 0.095052 0.095703 0.096354 0.097005 0.097656 0.098307 0.098958 0.099609 0.100260 0.100911 0.101562 0.102214 0.102865 0.103516 0.104167 0.104818 0.105469 0.106120 0.106771 0.107422 0.108073 0.108724 0.109375 0.110026 0.110677 0.111328 0.111979 0.112630 0.113281 0.113932 0.114583 0.115234 0.115885 0.116536 0.117188 0.117839 0.118490 0.119141 0.119792 0.120443 0.121094 0.121745 0.122396 0.123047 0.123698 0.124349 0.125000 0.125651 0.126302 0.126953 0.127604 0.128255 0.128906 0.129557 0.130208 0.130859 0.131510 0.132161 0.132812 0.133464 0.134115 0.134766 0.135417 0.136068 0.136719 0.137370 0.138021 0.138672 0.139323 0.139974 0.140625 0.141276 0.141927 0.142578 0.143229 0.143880 0.144531 0.145182 0.145833 0.146484 0.147135 0.147786 0.148438 0.149089 0.149740 0.150391 0.151042 0.151693 0.152344 0.152995 0.153646 0.154297 0.154948 0.155599 0.156250 0.156901 0.157552 0.158203 0.158854 0.159505 0.160156 0.160807 0.161458 0.162109 0.162760 0.163411 0.164062 0.164714 0.165365 0.166016 0.166667 0.167318 0.167969 0.168620 0.169271 0.169922 0.170573 0.171224 0.171875 0.172526 0.173177 0.173828 0.174479 0.175130 0.175781 0.176432 0.177083 0.177734 0.178385 0.179036 0.179688 0.180339 0.180990 0.181641 0.182292 0.182943 0.183594 0.184245 0.184896 0.185547 0.186198 0.186849 0.187500 0.188151 0.188802 0.189453 0.190104 0.190755 0.191406 0.192057 0.192708 0.193359 0.194010 0.194661 0.195312 0.195964 0.196615 0.197266 0.197917 0.198568 0.199219 0.199870 0.200521 0.201172 0.201823 0.202474 0.203125 0.203776 0.204427 0.205078 0.205729 0.206380 0.207031 0.207682 0.208333 0.208984 0.209635 0.210286 0.210938 0.211589 0.212240 0.212891 0.213542 0.214193 0.214844 0.215495 0.216146 0.216797 0.217448 0.218099 0.218750 0.219401 0.220052 0.220703 0.221354 0.222005 0.222656 0.223307 0.223958 0.224609 0.225260 0.225911 0.226562 0.227214 0.227865 0.228516 0.229167 0.229818 0.230469 0.231120 0.231771 0.232422 0.233073 0.233724 0.234375 0.235026 0.235677
       0.36274        0.36274        0.36274        0.36274        0.36274        0.36274        0.36274        0.36274        0.36274        0.36274        0.36274        0.36274        0.36274        0.36274        0.36274        0.36274        0.36274        0.36274        0.36274        0.36274        0.36274        0.36274        0.36274        0.36274        0.36274        0.36274        0.36274        0.36274        0.36274        0.36274        0.36274        0.36274        0.36274        0.36274        0.36274        0.36274        0.36274        0.36274        0.36274        0.36274        0.36274        0.36274        0.36274        0.36274        0.36274        0.36274        0.36274        0.36274        0.36274        0.36274        0.36274        0.58138        1.00066        0.80504        0.07118       -0.24107       -0.19405       -0.34623       -0.35070       -0.30871       -0.35957       -0.08084       -0.31055       -0.27909       -0.49885       -0.52135       -0.61739       -0.65796       -0.67871       -0.80375       -0.72810       -0.73027       -0.64163       -0.65061       -0.59152       -0.55445       -0.57165       -0.45606       -0.32755       -0.29236       -0.16964       -0.02874        0.07914        0.26735        0.37460        0.41663        0.45516        0.56514        0.69498        0.60377        0.61599        0.54979        0.70191        0.65493        0.62028        0.67393        0.61319        0.55165        0.35970        0.31611        0.23254        0.15450        0.05366        0.04635       -0.07625        0.01852        0.01565        0.06586        0.13539        0.17811        0.22886        0.41054        0.49216        0.60875        0.62590        0.69046        0.68152        0.74966        0.72381        0.63068        0.60323        0.63515        0.53721        0.41327        0.35645        0.27053        0.15566        0.15083        0.07018        0.09164        0.02774        0.12209        0.18930        0.36666        0.45440        0.44574        0.51379        0.58994        0.58968        0.55493        0.64923        0.57902        0.51036        0.48193        0.42383        0.29183        0.26670        0.18617        0.13635        0.11987        0.16446        0.18099        0.29066        0.35134        0.46905        0.45963        0.53487        0.56193        0.56027        0.56415        0.55458        0.46946        0.40285        0.32356        0.26930        0.21884        0.19708        0.19534        0.23386        0.29407        0.28906        0.38163        0.46791        0.49739        0.52873        0.51558        0.52322        0.46824        0.41031        0.34307        0.27767        0.26092        0.23824        0.22240        0.25506        0.33610        0.37969        0.42878        0.51798        0.49106        0.49122        0.45496        0.40339        0.39506        0.35795        0.33476        0.24833        0.24630        0.29258        0.34280        0.35296        0.40245        0.43434        0.48557        0.43403        0.42963        0.39877        0.40998        0.36202        0.32601        0.30486        0.34637        0.32908        0.32782        0.35746        0.39698        0.37691        0.41819        0.44445        0.39169        0.33576        0.28555        0.27194        0.30279        0.29178        0.33300        0.36457        0.40008        0.46098        0.42335        0.42939        0.41224        0.35087        0.36197        0.35626        0.29796        0.31607        0.34286        0.35445        0.38009        0.39931        0.40046        0.38756        0.36657        0.36543        0.31577        0.30530        0.27076        0.29554        0.31731        0.32645        0.35706        0.37955        0.39343        0.36141        0.31550        0.30239        0.28623        0.27129        0.28009        0.34260        0.33866        0.35826        0.34465        0.36729        0.35621        0.31442        0.30032        0.32707        0.32176        0.31839        0.36418        0.34161        0.34832        0.41449        0.34702        0.38061        0.33374        0.27943        0.31965        0.35144        0.36417        0.32902        0.34836        0.39056        0.38387        0.39066        0.37934        0.30990        0.28643        0.35817        0.28166        0.35956        0.36367        0.37178        0.33232        0.34192        0.34690        0.33608        0.33000        0.32232        0.32647        0.35132        0.40921        0.32989        0.38310        0.32376        0.30653        0.27533        0.32510        0.34763        0.32732        0.35245        0.34430        0.28559        0.26230        0.37337        0.28869        0.28017        0.31217        0.36169        0.33775        0.29975        0.26240        0.29061        0.32309        0.33629        0.33582        0.34888        0.29213        0.31806        0.27161        0.23432        0.24186        0.28222        0.34105        0.33156        0.33594        0.28317        0.31286        0.28503        0.24638        0.29111        0.34272        0.23000        0.26053        0.27068        0.29598        0.24228        0.26629        0.19737        0.26722        0.21028        0.20744        0.30217        0.30026        0.21102        0.22749        0.21972        0.21689        0.08331       -0.49807       -0.72133
2.387787 2.361344 2.335056 2.308922 2.282942 2.257116 2.231445 2.205928 2.180565 2.155357 2.130303 2.105403 2.080657 2.056066 2.031629 2.007346 1.983218 1.959243 1.935423 1.911758 1.888246 1.864889 1.841687 1.818638 1.795744 1.773004 1.750418 1.727987 1.705710 1.683587 1.661618 1.639804 1.618144 1.596638 1.575287 1.554090 1.533047 1.512158 1.491424 1.470844 1.450418 1.430147 1.410030 1.390067 1.370258 1.350604 1.331104 1.311758 1.292567 1.273530 1.254647 1.378679 1.779125 1.652160 1.009354 0.579808 0.638177 0.492149 0.389288 0.521822 0.354020 0.635110 0.472598 0.440779 0.234759 0.112393 0.091089 0.031578 -0.026883 -0.159679 -0.067718 -0.214152 -0.047313 -0.095218 -0.050797 0.027583 -0.089777 0.035874 0.122914 0.129230 0.216234 0.402187 0.397773 0.654511 0.643472 0.771130 0.735210 0.849179 0.909821 0.922137 0.833436 0.751032 0.902265 0.893108 0.825241 0.860656 0.780834 0.784009 0.531470 0.455537 0.421381 0.305399 0.232915 0.191901 0.075507 0.099415 0.096753 0.153198 0.193576 0.250411 0.214816 0.443761 0.441344 0.597055 0.593519 0.685125 0.656254 0.650481 0.728105 0.573313 0.456680 0.661418 0.472355 0.355408 0.303368 0.236530 0.092306 0.062849 0.005378 0.010807 -0.119162 0.043478 0.009264 0.196170 0.271635 0.294196 0.315739 0.403716 0.413278 0.424004 0.405209 0.452473 0.356257 0.290922 0.323368 0.121375 0.110803 0.067964 -0.015901 -0.096175 -0.023568 0.015173 0.021540 0.097192 0.258346 0.205968 0.277938 0.356519 0.378332 0.391815 0.409035 0.329346 0.245100 0.225832 0.074387 0.099373 0.016975 0.023229 0.036269 0.086440 0.129395 0.133381 0.222368 0.266647 0.327171 0.276374 0.354555 0.272909 0.210838 0.152927 0.128620 0.021635 0.069796 -0.000492 0.028021 0.067410 0.110947 0.180188 0.246194 0.280631 0.221830 0.220438 0.197962 0.099368 0.128106 0.103478 0.017294 -0.025087 -0.014753 0.074838 0.031760 0.144942 0.107707 0.176743 0.194313 0.144717 0.112890 0.113553 0.117638 0.052103 0.022488 0.037869 0.073248 0.023676 0.070176 0.052643 0.097725 0.091403 0.143084 0.116964 0.074086 0.027121 -0.055383 0.003817 -0.013676 0.019428 0.036138 0.070770 0.130724 0.146950 0.107424 0.122015 0.122726 0.057531 0.054220 0.050019 0.009594 0.045812 0.039101 0.071035 0.096493 0.090643 0.111375 0.087977 0.072460 0.072927 0.007939 0.025526 -0.022870 0.011521 0.040534 0.040232 0.078972 0.102497 0.095781 0.052112 0.018362 0.010476 -0.002675 -0.009551 0.004733 0.047765 0.063836 0.053007 0.063685 0.092744 0.065851 0.027785 0.024040 0.056272 0.032316 0.042826 0.088913 0.054239 0.051154 0.102656 0.053461 0.113350 0.043310 -0.044608 0.044259 0.062721 0.075634 0.030391 0.058729 0.124636 0.080179 0.102401 0.100046 -0.003610 0.016956 0.079127 -0.032892 0.088015 0.078793 0.067761 0.015579 0.060249 0.033684 0.023507 0.013397 0.027317 0.011167 0.025033 0.039231 0.005805 0.044133 -0.043989 -0.043669 -0.055512 -0.010512 -0.024309 -0.040682 0.021151 -0.041903 -0.074322 -0.084934 0.047240 -0.076198 -0.076918 -0.010534 0.016543 -0.011961 -0.011847 -0.072762 -0.003394 0.024967 -0.007518 0.014311 0.014722 0.023848 0.014757 -0.024852 -0.055638 -0.043568 -0.000584 0.049209 0.049634 0.065607 -0.014729 0.098836 -0.008924 -0.043378 0.028783 0.073200 -0.014481 -0.045905 -0.000190 0.061748 -0.012007 0.014951 -0.045695 -0.006133 -0.102006 0.197513 0.313575 0.272816 0.194085 0.253404 0.194152 0.161800 0.084198 -0.672136
0.072396 0.072957 0.074640 0.077443 0.081367 0.086411 0.092572 0.099849 0.108238 0.117737 0.128341 0.140044 0.152839 0.166717 0.181668 0.197681 0.214739 0.232826 0.251922 0.272002 0.293040 0.315005 0.337861 0.361569 0.386083 0.411352 0.437321 0.463927 0.491100 0.518766 0.546841 0.575235 0.603848 0.632575 0.661301 0.689903 0.718249 0.746200 0.773606 0.800312 0.826151 0.850951 0.874532 0.896706 0.917280 0.936055 0.952828 0.967391 0.979536 0.989053 0.995732 0.999365 0.999752 0.996693 0.990003 0.979504 0.965031 0.946436 0.923590 0.896385 0.864736 0.828586 0.787910 0.742712 0.693036 0.638961 0.580609 0.518147 0.451784 0.381778 0.308439 0.232121 0.153234 0.072234 0.010370 0.094023 0.178124 0.262026 0.345046 0.426463 0.505528 0.581470 0.653501 0.720824 0.782646 0.838184 0.886677 0.927399 0.959666 0.982854 0.996408 0.999855 0.992819 0.975027 0.946328 0.906700 0.856258 0.795266 0.724139 0.643452 0.553940 0.456497 0.352175 0.242178 0.127849 0.010666 0.107783 0.225811 0.341661 0.453525 0.559576 0.657998 0.747017 0.824940 0.890186 0.941325 0.977113 0.996530 0.998808 0.983464 0.950326 0.899556 0.831664 0.747519 0.648350 0.535742 0.411622 0.278234 0.138110 0.005975 0.151047 0.293996 0.431637 0.560784 0.678327 0.781308 0.867005 0.933009 0.977304 0.998337 0.995082 0.967097 0.914557 0.838288 0.739777 0.621155 0.485179 0.335178 0.174992 0.008875 0.158599 0.322664 0.478494 0.621347 0.746712 0.850469 0.929026 0.979465 0.999666 0.988408 0.945457 0.871609 0.768717 0.639666 0.488327 0.319453 0.138563 0.048238 0.234446 0.413382 0.578433 0.723302 0.842261 0.930391 0.983812 0.999871 0.977300 0.916326 0.818713 0.687762 0.528230 0.346184 0.148808 0.055872 0.259290 0.452707 0.627576 0.775937 0.890792 0.966467 0.998916 0.985972 0.927517 0.825566 0.684247 0.509679 0.309747 0.093780 0.127864 0.344282 0.544553 0.718306 0.856266 0.950784 0.996291 0.989672 0.930515 0.821229 0.667004 0.475626 0.257124 0.023288 0.212948 0.438200 0.639405 0.804587 0.923596 0.988781 0.995520 0.942606 0.832427 0.670937 0.467396 0.233904 0.015283 0.264597 0.498105 0.700547 0.858346 0.960568 0.999721 0.972370 0.879497 0.726562 0.523269 0.283013 0.022059 0.241526 0.489102 0.702786 0.866766 0.968511 0.999800 0.957454 0.843721 0.666259 0.437720 0.174912 0.102373 0.372822 0.615223 0.810154 0.941577 0.998229 0.974661 0.871845 0.697274 0.464521 0.192273 0.097110 0.379383 0.630441 0.828396 0.955539 0.999996 0.956935 0.829181 0.627159 0.368170 0.074979 0.226095 0.507520 0.743084 0.910361 0.992925 0.982059 0.877788 0.689092 0.433277 0.134480 0.178511 0.474996 0.725367 0.904116 0.992490 0.980589 0.868582 0.666943 0.395616 0.082163 0.240960 0.539706 0.782048 0.941458 0.999905 0.950028 0.796189 0.554273 0.250196 0.082754 0.407492 0.687244 0.889748 0.991065 0.978533 0.852494 0.626561 0.326315 0.013449 0.352677 0.650721 0.871259 0.986796 0.982232 0.856990 0.625424 0.315348 0.035145 0.382272 0.681991 0.895623 0.994955 0.966104 0.811645 0.550625 0.216412 0.147419 0.492695 0.772984 0.949927 0.998606 0.911233 0.698589 0.388911 0.024352 0.344651 0.666283 0.894666 0.996514 0.956159 0.778172 0.487110 0.124360 0.257595 0.602698 0.859531 0.989089 0.970894 0.806430 0.519377 0.152436 0.238854 0.594405 0.858837 0.990187 0.966774 0.791007 0.489471 0.109181 0.289613 0.642807 0.892844 0.998165
1.000000 1.000000 1.000000 1.000000 1.000000 1.000000 1.000000 1.000000 1.000000 1.000000 1.000000 1.000000 1.000000 1.000000 1.000000 1.000000 1.000000 1.000000 1.000000 1.000000 1.000000 1.000000 1.000000 1.000000 1.000000 1.000000 1.000000 1.000000 1.000000 1.000000 1.000000 1.000000 1.000000 1.000000 1.000000 1.000000 1.000000 1.000000 1.000000 1.000000 1.000000 1.000000 1.000000 1.000000 1.000000 1.000000 1.000000 1.000000 1.000000 1.000000 1.000000 1.000000 0.939189 0.939189 0.939189 0.939189 0.939189 0.939189 0.939189 0.939189 0.939189 0.939189 0.939189 0.939189 0.939189 0.939189 0.939189 0.939189 0.939189 0.939189 0.939189 0.939189 0.939189 0.939189 0.939189 0.939189 0.939189 0.939189 0.939189 0.939189 0.939189 0.939189 0.939189 0.939189 0.939189 0.939189 0.939189 0.939189 0.939189 0.939189 0.939189 0.919975 0.923466 0.924223 0.927601 0.928270 0.926906 0.928864 0.929076 0.929857 0.931099 0.932519 0.934210 0.935827 0.938765 0.943298 0.949647 0.949901 0.952800 0.955032 0.955731 0.969683 0.970377 0.971495 0.971935 0.972092 0.972152 0.972253 0.972970 0.973083 0.972823 0.972331 0.970704 0.972680 0.978130 0.978104 0.977738 0.977825 0.978057 0.978069 0.979050 0.979259 0.978039 0.975737 0.975565 0.975078 0.975146 0.975446 0.974666 0.973407 0.974754 0.974772 0.974915 0.975271 0.975096 0.970482 0.970750 0.968684 0.963957 0.957718 0.955330 0.951699 0.952814 0.955073 0.954714 0.951825 0.947118 0.944173 0.942967 0.945293 0.942044 0.941929 0.942743 0.944149 0.944960 0.945011 0.936853 0.935357 0.933382 0.933376 0.935998 0.939029 0.937791 0.934147 0.933646 0.932268 0.933357 0.927646 0.912802 0.906036 0.905448 0.904022 0.907644 0.911831 0.909410 0.902382 0.896028 0.873061 0.860622 0.856917 0.859464 0.860726 0.862846 0.870533 0.862612 0.858547 0.855569 0.852183 0.851274 0.853016 0.853716 0.851852 0.850215 0.851951 0.851923 0.849917 0.850210 0.847206 0.845555 0.841967 0.841881 0.835160 0.834895 0.836866 0.839248 0.840987 0.841804 0.840456 0.844880 0.836249 0.840356 0.839208 0.842450 0.837631 0.841115 0.842301 0.837600 0.827861 0.823528 0.824752 0.833526 0.818289 0.825120 0.833703 0.841571 0.844017 0.840060 0.836972 0.834230 0.830165 0.835595 0.856094 0.801986 0.805245 0.815426 0.815436 0.811284 0.810876 0.806818 0.794458 0.791986 0.806975 0.787645 0.778381 0.779141 0.778234 0.769015 0.755817 0.756755 0.752408 0.744102 0.720122 0.727540 0.728857 0.704558 0.700730 0.664802 0.666829 0.669710 0.665496 0.624886 0.614790 0.617792 0.623426 0.627974 0.589344 0.555424 0.560449 0.560705 0.550390 0.556920 0.558933 0.554719 0.554180 0.547947 0.538977 0.526658 0.505109 0.495414 0.406765 0.417540 0.403787 0.402227 0.420023 0.405345 0.408712 0.397403 0.408222 0.375384 0.329905 0.325920 0.333128 0.346698 0.344664 0.348939 0.358987 0.383585 0.383075 0.354185 0.378776 0.395637 0.374957 0.380474 0.408934 0.405982 0.385834 0.364678 0.354213 0.378087 0.368724 0.361733 0.341443 0.356070 0.314305 0.339771 0.344235 0.312845 0.275261 0.251759 0.247729 0.276093 0.176974 0.190437 0.190437 0.190437 0.190437 0.190437 0.190437 0.190437 0.165639 0.165639 0.165639 0.165639 0.165639 0.165639 0.165639 0.165639 0.183306 0.183306 0.183306 0.183306 0.183306 0.183306 0.183306 0.183306 0.183306 0.183306 0.183306 0.183306 0.183306 0.183306 0.183306 0.183306
0.000000 0.000000 0.000000 0.000000 0.000000 0.000000 0.000000 0.000000 0.000000 0.000000 0.000000 0.000000 0.000000 0.000000 0.000000 0.000000 0.000000 0.000000 0.000000 0.000000 0.000000 0.000000 0.000000 0.000000 0.000000 0.000000 0.000000 0.000000 0.000000 0.000000 0.000000 0.000000 0.000000 0.000000 0.000000 0.000000 0.000000 0.000000 0.000000 0.000000 0.000000 0.000000 0.000000 0.000000 0.000000 0.000000 0.000000 0.000000 0.000000 0.000000 0.000000 0.000000 0.203069 0.203069 0.203069 0.203069 0.203069 0.203069 0.203069 0.203069 0.203069 0.203069 0.203069 0.203069 0.203069 0.203069 0.203069 0.203069 0.203069 0.203069 0.203069 0.203069 0.203069 0.203069 0.203069 0.203069 0.203069 0.203069 0.203069 0.203069 0.203069 0.203069 0.203069 0.203069 0.203069 0.203069 0.203069 0.203069 0.203069 0.203069 0.203069 0.234082 0.234082 0.234082 0.234082 0.234082 0.234082 0.234082 0.234082 0.234082 0.234082 0.234082 0.234082 0.234082 0.234082 0.234082 0.234082 0.234082 0.234082 0.234082 0.234082 0.234082 0.234082 0.234082 0.234082 0.234082 0.234082 0.234082 0.248069 0.248069 0.248069 0.248069 0.248069 0.248069 0.248069 0.248069 0.248069 0.248069 0.248069 0.248069 0.248069 0.248069 0.248069 0.248069 0.248069 0.248069 0.248069 0.248069 0.248069 0.248069 0.256074 0.256074 0.256074 0.256074 0.256074 0.256074 0.256074 0.256074 0.256074 0.256074 0.256074 0.256074 0.256074 0.256074 0.256074 0.256074 0.256074 0.256074 0.256074 0.269680 0.269680 0.269680 0.269680 0.269680 0.269680 0.269680 0.269680 0.269680 0.269680 0.269680 0.269680 0.269680 0.269680 0.269680 0.269680 0.264906 0.264906 0.264906 0.264906 0.264906 0.264906 0.264906 0.264906 0.264906 0.264906 0.264906 0.264906 0.264906 0.264906 0.264906 0.264906 0.269680 0.269680 0.269680 0.269680 0.269680 0.269680 0.269680 0.269680 0.269680 0.269680 0.269680 0.269680 0.269680 0.269680 0.274721 0.274721 0.274721 0.274721 0.274721 0.274721 0.274721 0.274721 0.274721 0.274721 0.274721 0.274721 0.274721 0.264906 0.264906 0.264906 0.264906 0.264906 0.264906 0.264906 0.264906 0.264906 0.264906 0.264906 0.264906 0.264906 0.280056 0.280056 0.280056 0.280056 0.280056 0.280056 0.280056 0.280056 0.280056 0.280056 0.280056 0.264906 0.264906 0.264906 0.264906 0.264906 0.264906 0.264906 0.264906 0.264906 0.264906 0.264906 0.264906 0.269680 0.269680 0.269680 0.269680 0.269680 0.269680 0.269680 0.269680 0.269680 0.269680 0.269680 0.274721 0.274721 0.274721 0.274721 0.274721 0.274721 0.274721 0.274721 0.274721 0.274721 0.269680 0.269680 0.269680 0.269680 0.269680 0.269680 0.269680 0.269680 0.269680 0.269680 0.264906 0.264906 0.264906 0.264906 0.264906 0.264906 0.264906 0.264906 0.264906 0.264906 0.269680 0.269680 0.269680 0.269680 0.269680 0.269680 0.269680 0.269680 0.269680 0.264906 0.264906 0.264906 0.264906 0.264906 0.264906 0.264906 0.264906 0.264906 0.260378 0.260378 0.260378 0.260378 0.260378 0.260378 0.260378 0.260378 0.260378 0.269680 0.269680 0.269680 0.269680 0.269680 0.269680 0.269680 0.269680 0.251976 0.251976 0.251976 0.251976 0.251976 0.251976 0.251976 0.251976 0.251976 0.264906 0.264906 0.264906 0.264906 0.264906 0.264906 0.264906 0.264906 0.260378 0.260378 0.260378 0.260378 0.260378 0.260378 0.260378 0.260378 0.260378 0.260378 0.260378 0.260378 0.260378 0.260378 0.260378 0.260378
