# Output from CTFFind version 4.1.9, run on 2019-11-02 12:26:27
# Input file: stack11_ub_averaged_250.mrc ; Number of micrographs: 1
# Pixel size: 3.000 Angstroms ; acceleration voltage: 300.0 keV ; spherical aberration: 0.00 mm ; amplitude contrast: 0.07
# Box size: 512 pixels ; min. res.: 30.0 Angstroms ; max. res.: 5.0 Angstroms ; min. def.: 5000.0 um; max. def. 50000.0 um; num. frames averaged: 1
# 6 lines per micrograph: #1 - spatial frequency (1/Angstroms); #2 - 1D rotational average of spectrum (assuming no astigmatism); #3 - 1D rotational average of spectrum; #4 - CTF fit; #5 - cross-correlation between spectrum and CTF fit; #6 - 2sigma of expected cross correlation of noise
0.000000 0.000651 0.001302 0.001953 0.002604 0.003255 0.003906 0.004557 0.005208 0.005859 0.006510 0.007161 0.007812 0.008464 0.009115 0.009766 0.010417 0.011068 0.011719 0.012370 0.013021 0.013672 0.014323 0.014974 0.015625 0.016276 0.016927 0.017578 0.018229 0.018880 0.019531 0.020182 0.020833 0.021484 0.022135 0.022786 0.023438 0.024089 0.024740 0.025391 0.026042 0.026693 0.027344 0.027995 0.028646 0.029297 0.029948 0.030599 0.031250 0.031901 0.032552 0.033203 0.033854 0.034505 0.035156 0.035807 0.036458 0.037109 0.037760 0.038411 0.039062 0.039714 0.040365 0.041016 0.041667 0.042318 0.042969 0.043620 0.044271 0.044922 0.045573 0.046224 0.046875 0.047526 0.048177 0.048828 0.049479 0.050130 0.050781 0.051432 0.052083 0.052734 0.053385 0.054036 0.054688 0.055339 0.055990 0.056641 0.057292 0.057943 0.058594 0.059245 0.059896 0.060547 0.061198 0.061849 0.062500 0.063151 0.063802 0.064453 0.065104 0.065755 0.066406 0.067057 0.067708 0.068359 0.069010 0.069661 0.070312 0.070964 0.071615 0.072266 0.072917 0.073568 0.074219 0.074870 0.075521 0.076172 0.076823 0.077474 0.078125 0.078776 0.079427 0.080078 0.080729 0.081380 0.082031 0.082682 0.083333 0.083984 0.084635 0.085286 0.085938 0.086589 0.087240 0.087891 0.088542 0.089193 0.089844 0.090495 0.091146 0.091797 0.092448 0.093099 0.093750 0.094401 0.095052 0.095703 0.096354 0.097005 0.097656 0.098307 0.098958 0.099609 0.100260 0.100911 0.101562 0.102214 0.102865 0.103516 0.104167 0.104818 0.105469 0.106120 0.106771 0.107422 0.108073 0.108724 0.109375 0.110026 0.110677 0.111328 0.111979 0.112630 0.113281 0.113932 0.114583 0.115234 0.115885 0.116536 0.117188 0.117839 0.118490 0.119141 0.119792 0.120443 0.121094 0.121745 0.122396 0.123047 0.123698 0.124349 0.125000 0.125651 0.126302 0.126953 0.127604 0.128255 0.128906 0.129557 0.130208 0.130859 0.131510 0.132161 0.132812 0.133464 0.134115 0.134766 0.135417 0.136068 0.136719 0.137370 0.138021 0.138672 0.139323 0.139974 0.140625 0.141276 0.141927 0.142578 0.143229 0.143880 0.144531 0.145182 0.145833 0.146484 0.147135 0.147786 0.148438 0.149089 0.149740 0.150391 0.151042 0.151693 0.152344 0.152995 0.153646 0.154297 0.154948 0.155599 0.156250 0.156901 0.157552 0.158203 0.158854 0.159505 0.160156 0.160807 0.161458 0.162109 0.162760 0.163411 0.164062 0.164714 0.165365 0.166016 0.166667 0.167318 0.167969 0.168620 0.169271 0.169922 0.170573 0.171224 0.171875 0.172526 0.173177 0.173828 0.174479 0.175130 0.175781 0.176432 0.177083 0.177734 0.178385 0.179036 0.179688 0.180339 0.180990 0.181641 0.182292 0.182943 0.183594 0.184245 0.184896 0.185547 0.186198 0.186849 0.187500 0.188151 0.188802 0.189453 0.190104 0.190755 0.191406 0.192057 0.192708 0.193359 0.194010 0.194661 0.195312 0.195964 0.196615 0.197266 0.197917 0.198568 0.199219 0.199870 0.200521 0.201172 0.201823 0.202474 0.203125 0.203776 0.204427 0.205078 0.205729 0.206380 0.207031 0.207682 0.208333 0.208984 0.209635 0.210286 0.210938 0.211589 0.212240 0.212891 0.213542 0.214193 0.214844 0.215495 0.216146 0.216797 0.217448 0.218099 0.218750 0.219401 0.220052 0.220703 0.221354 0.222005 0.222656 0.223307 0.223958 0.224609 0.225260 0.225911 0.226562 0.227214 0.227865 0.228516 0.229167 0.229818 0.230469 0.231120 0.231771 0.232422 0.233073 0.233724 0.234375 0.235026 0.235677
       0.31817        0.31817        0.31817        0.31817        0.31817        0.31817        0.31817        0.31817        0.31817        0.31817        0.31817        0.31817        0.31817        0.31817        0.31817        0.31817        0.31817        0.31817        0.31817        0.31817        0.31817        0.31817        0.31817        0.31817        0.31817        0.31817        0.31817        0.31817        0.31817        0.31817        0.31817        0.31817        0.31817        0.31817        0.31817        0.31817        0.31817        0.31817        0.31817        0.31817        0.31817        0.31817        0.31817        0.31817        0.31817        0.31817        0.31817        0.31817        0.31817        0.31818        0.31817        0.68538        0.86995        0.52341        0.08972       -0.06088       -0.42066       -0.20640       -0.29479       -0.11562       -0.07392       -0.11721       -0.06560       -0.20608       -0.23153       -0.25626       -0.32601       -0.33580       -0.48509       -0.38028       -0.46466       -0.44812       -0.41801       -0.46685       -0.54013       -0.55819       -0.58558       -0.62383       -0.57598       -0.41493       -0.37795       -0.32559       -0.31101       -0.21448       -0.20085        0.01852        0.07549        0.10969        0.22770        0.37298        0.44210        0.51271        0.55936        0.55640        0.56778        0.69912        0.81394        0.73842        0.73416        0.66787        0.58184        0.48420        0.40983        0.49480        0.37802        0.20971        0.07696        0.05302        0.01625       -0.06008       -0.03483       -0.02085       -0.06989       -0.00906       -0.01626        0.21173        0.24956        0.28793        0.42976        0.46292        0.40638        0.54136        0.63014        0.70118        0.76301        0.68975        0.65212        0.69746        0.58737        0.50458        0.42002        0.28686        0.18626        0.15621        0.10408        0.04172        0.01564        0.00064        0.07589        0.13072        0.20700        0.28580        0.39933        0.42225        0.51263        0.60610        0.63240        0.62280        0.63107        0.55796        0.44798        0.45038        0.35345        0.23192        0.17822        0.14889        0.11499        0.12006        0.06940        0.10131        0.23213        0.26399        0.34666        0.35517        0.44987        0.51274        0.53946        0.55201        0.47197        0.43533        0.39412        0.36690        0.30465        0.25207        0.20112        0.18912        0.16257        0.18879        0.17963        0.27308        0.33401        0.37127        0.42869        0.46032        0.48034        0.44316        0.39343        0.41919        0.37093        0.28903        0.27002        0.22478        0.21561        0.19453        0.21757        0.23222        0.32902        0.37447        0.36837        0.45955        0.44061        0.43811        0.43195        0.39753        0.34512        0.32608        0.27468        0.24279        0.23909        0.27408        0.27116        0.30193        0.30716        0.33986        0.32816        0.41038        0.42179        0.37714        0.34637        0.37039        0.28189        0.28258        0.26161        0.28395        0.26324        0.27740        0.28702        0.30956        0.35222        0.36461        0.36253        0.33799        0.35483        0.28346        0.31828        0.26660        0.24582        0.28973        0.28196        0.31019        0.31188        0.33108        0.33339        0.31514        0.31502        0.28593        0.29299        0.26699        0.27934        0.25823        0.30766        0.28539        0.27067        0.30748        0.31393        0.32489        0.28680        0.30381        0.28905        0.25133        0.24402        0.22231        0.28254        0.27589        0.32028        0.31524        0.31811        0.31786        0.31125        0.27651        0.28799        0.32933        0.27252        0.26338        0.29726        0.29276        0.33551        0.33279        0.35546        0.33223        0.30917        0.28015        0.26881        0.25892        0.22903        0.27644        0.30384        0.29512        0.28172        0.29573        0.27605        0.32532        0.31903        0.24830        0.21851        0.27970        0.33028        0.27566        0.31424        0.32576        0.32699        0.30805        0.32311        0.34141        0.30668        0.29783        0.26530        0.28519        0.35897        0.35532        0.26107        0.26510        0.25736        0.29320        0.22278        0.28983        0.22309        0.24996        0.32773        0.31967        0.34106        0.29520        0.24725        0.24189        0.24356        0.23649        0.19677        0.23114        0.26451        0.30815        0.26650        0.30746        0.30909        0.28006        0.27146        0.21229        0.17204        0.19281        0.23566        0.20958        0.21118        0.23117        0.20036        0.23749        0.33877        0.30838        0.32064        0.23698        0.22992        0.22636        0.29366        0.30148        0.13514        0.21002        0.22501        0.11682        0.20750        0.10715        0.14786        0.16561        0.08671       -0.11332       -0.56387
2.612414 2.585051 2.557836 2.530771 2.503854 2.477086 2.450466 2.423995 2.397673 2.371500 2.345475 2.319600 2.293872 2.268294 2.242864 2.217583 2.192450 2.167467 2.142632 2.117946 2.093408 2.069019 2.044779 2.020688 1.996745 1.972951 1.949306 1.925809 1.902462 1.879262 1.856212 1.833310 1.810557 1.787953 1.765497 1.743191 1.721032 1.699023 1.677162 1.655450 1.633887 1.612472 1.591206 1.570089 1.549121 1.528301 1.507630 1.487107 1.466734 1.446509 1.426433 1.647872 2.056035 1.627381 1.140004 0.996374 0.432029 0.816520 0.569269 0.840064 0.782280 0.794430 0.758955 0.714495 0.570752 0.520176 0.492458 0.447646 0.212365 0.385423 0.205287 0.307605 0.243747 0.183769 0.134068 0.011315 0.043847 -0.014573 -0.056132 0.106101 0.208258 0.198479 0.160168 0.328211 0.196411 0.495275 0.581756 0.555213 0.598206 0.878722 0.811609 0.944117 0.889869 0.976365 0.945045 1.080670 1.144713 1.077961 1.123012 0.949310 0.946775 0.782805 0.654157 0.772417 0.707853 0.467846 0.307724 0.252166 0.220381 0.146859 0.089796 0.127596 0.070574 0.143496 0.055207 0.259694 0.376801 0.351594 0.477995 0.578343 0.464671 0.552575 0.699878 0.745596 0.770581 0.737645 0.723050 0.710941 0.628068 0.570127 0.425150 0.284345 0.200244 0.074338 0.125186 -0.050108 -0.028285 -0.082385 -0.043520 -0.001106 0.142081 0.091444 0.294474 0.279974 0.363648 0.458396 0.522098 0.511404 0.515861 0.510980 0.331591 0.307940 0.277600 0.101786 0.042719 -0.015873 -0.028162 -0.044480 -0.095880 -0.109188 -0.009838 0.059291 0.128999 0.144960 0.224818 0.326601 0.309120 0.427428 0.391703 0.280676 0.235651 0.243071 0.194609 0.105317 0.071380 0.012521 0.003736 0.000172 -0.022736 0.062055 0.145722 0.145326 0.232422 0.251962 0.309491 0.250267 0.220650 0.189775 0.210717 0.141921 0.044678 0.035357 -0.007850 -0.010595 -0.034074 0.021153 0.015022 0.171376 0.129577 0.178144 0.239671 0.197314 0.187315 0.200461 0.140158 0.097862 0.059364 0.044706 -0.033077 0.006777 0.025488 0.051627 0.052450 0.083291 0.092723 0.118433 0.144571 0.195267 0.082228 0.101171 0.076063 0.005856 0.009647 0.008376 0.001973 0.021390 0.000032 0.025004 0.069114 0.086792 0.126393 0.054165 0.110046 0.056605 0.010671 0.061250 -0.035256 -0.010161 0.031998 -0.000614 0.061976 0.050669 0.055308 0.071056 0.053596 0.043083 0.024047 0.009593 0.015708 0.006511 -0.015761 0.073629 -0.010571 0.016226 0.057255 0.052449 0.047500 0.044861 0.041591 0.018735 -0.013552 -0.041003 -0.010931 0.022762 0.027771 0.072845 0.059647 0.061540 0.080356 0.066996 0.028581 0.067162 0.086828 0.019301 0.020334 0.064180 0.049517 0.097066 0.105632 0.104830 0.114483 0.064334 0.034050 0.031932 -0.001038 0.000475 0.051735 0.074628 0.039310 0.034501 0.030142 0.022685 0.089090 0.047346 -0.050222 -0.049902 0.031772 0.087403 0.003977 0.028735 0.067418 0.078624 0.034792 0.053857 0.079980 0.040646 0.043425 -0.036470 0.022556 0.116799 0.072921 -0.056675 -0.027425 -0.046219 0.039299 -0.112450 0.031062 -0.101732 -0.033993 0.047006 0.039195 0.018585 -0.038566 -0.053985 -0.074571 -0.080072 -0.062119 -0.098469 -0.092440 -0.028276 0.047351 -0.030810 0.051920 0.003415 -0.034809 0.049377 -0.097294 -0.091678 -0.080895 0.009734 -0.033189 -0.045184 0.020106 0.004707 0.012572 0.201767 0.006563 0.175847 0.049373 0.234861 0.251359 0.333597 0.285824 0.099789 0.213173 0.268645 0.044231 0.231102 0.113812 0.124154 0.228719 0.088304 -0.585733
0.072396 0.072899 0.074406 0.076918 0.080434 0.084953 0.090473 0.096994 0.104513 0.113028 0.122534 0.133027 0.144503 0.156955 0.170375 0.184753 0.200080 0.216342 0.233523 0.251608 0.270575 0.290403 0.311064 0.332529 0.354767 0.377738 0.401402 0.425713 0.450621 0.476069 0.501996 0.528335 0.555013 0.581953 0.609068 0.636266 0.663450 0.690514 0.717347 0.743829 0.769836 0.795234 0.819886 0.843645 0.866361 0.887877 0.908031 0.926655 0.943580 0.958630 0.971630 0.982402 0.990768 0.996550 0.999574 0.999669 0.996667 0.990410 0.980748 0.967540 0.950659 0.929992 0.905442 0.876932 0.844406 0.807830 0.767197 0.722527 0.673870 0.621307 0.564954 0.504961 0.441518 0.374850 0.305223 0.232942 0.158355 0.081847 0.003845 0.075185 0.154740 0.234283 0.313242 0.391017 0.466983 0.540492 0.610884 0.677486 0.739622 0.796622 0.847826 0.892593 0.930313 0.960411 0.982360 0.995689 0.999994 0.994946 0.980298 0.955900 0.921703 0.877766 0.824264 0.761495 0.689881 0.609972 0.522446 0.428111 0.327899 0.222861 0.114160 0.003064 0.109072 0.220816 0.330676 0.437122 0.538605 0.633580 0.720534 0.798006 0.864620 0.919110 0.960348 0.987368 0.999399 0.995882 0.976494 0.941172 0.890118 0.823822 0.743059 0.648894 0.542679 0.426038 0.300853 0.169239 0.033514 0.103837 0.240206 0.372904 0.499226 0.616493 0.722122 0.813680 0.888953 0.945998 0.983207 0.999356 0.993653 0.965779 0.915917 0.844770 0.753569 0.644070 0.518531 0.379679 0.230663 0.074990 0.083548 0.240963 0.393173 0.536098 0.665784 0.778510 0.870905 0.940058 0.983623 0.999909 0.987961 0.947613 0.879534 0.785236 0.667066 0.528169 0.372420 0.204329 0.028931 0.148366 0.321937 0.486118 0.635391 0.764586 0.869054 0.944865 0.988963 0.999308 0.974989 0.916300 0.824777 0.703184 0.555459 0.386612 0.202579 0.010015 0.183912 0.371807 0.546309 0.700398 0.827683 0.922684 0.981090 0.999974 0.977969 0.915380 0.814225 0.678213 0.512638 0.324208 0.120789 0.088894 0.295630 0.490118 0.663394 0.807246 0.914636 0.980057 0.999854 0.972454 0.898514 0.780959 0.624911 0.437513 0.227622 0.005431 0.218016 0.431358 0.623510 0.784233 0.904711 0.978063 0.999771 0.967997 0.883765 0.750996 0.576372 0.369050 0.140220 0.097473 0.330605 0.545739 0.730192 0.872817 0.964698 0.999755 0.975190 0.891754 0.753801 0.569123 0.348570 0.105446 0.145253 0.387746 0.606466 0.787070 0.917395 0.988339 0.994535 0.934816 0.812408 0.634832 0.413509 0.163077 0.099527 0.356205 0.588920 0.780986 0.918304 0.990427 0.991423 0.920427 0.781839 0.585128 0.344268 0.076798 0.197414 0.457626 0.683780 0.858095 0.966487 0.999779 0.954551 0.833550 0.645628 0.405189 0.131135 0.154542 0.428516 0.668018 0.852759 0.966686 0.999460 0.947460 0.814268 0.610529 0.353193 0.064181 0.231418 0.507521 0.739336 0.905632 0.990748 0.986144 0.891354 0.714220 0.470348 0.181836 0.124660 0.420349 0.677006 0.869676 0.979187 0.994120 0.912115 0.740303 0.494815 0.199368 0.116932 0.422430 0.686057 0.880537 0.985269 0.988607 0.889266 0.696687 0.430273 0.117538 0.208637 0.513435 0.763806 0.932114 0.999256 0.956959 0.808912 0.570614 0.267886 0.065813 0.393036 0.676506 0.883409 0.989272 0.980954 0.858433 0.635063 0.336286 0.003160 0.343177 0.643025 0.866223 0.985066 0.984178 0.862654 0.634461 0.326993 0.022077 0.369329 0.670957 0.888342 0.993064 0.970766 0.823276 0.568686 0.239304 0.122309
1.000000 1.000000 1.000000 1.000000 1.000000 1.000000 1.000000 1.000000 1.000000 1.000000 1.000000 1.000000 1.000000 1.000000 1.000000 1.000000 1.000000 1.000000 1.000000 1.000000 1.000000 1.000000 1.000000 1.000000 1.000000 1.000000 1.000000 1.000000 1.000000 1.000000 1.000000 1.000000 1.000000 1.000000 1.000000 1.000000 1.000000 1.000000 1.000000 1.000000 1.000000 1.000000 1.000000 1.000000 1.000000 1.000000 1.000000 1.000000 1.000000 1.000000 1.000000 1.000000 0.931838 0.931838 0.931838 0.922200 0.922200 0.922200 0.922200 0.922200 0.922200 0.922200 0.922200 0.922200 0.922200 0.922200 0.922200 0.922200 0.922200 0.922200 0.922200 0.922200 0.922200 0.922200 0.922200 0.922200 0.922200 0.922200 0.922200 0.922200 0.922200 0.922200 0.922200 0.922200 0.922200 0.922200 0.922200 0.922200 0.922200 0.922200 0.922200 0.922200 0.922200 0.922200 0.922200 0.922200 0.947495 0.948760 0.956673 0.956507 0.955986 0.953871 0.952911 0.951787 0.951320 0.951611 0.952250 0.953127 0.964883 0.965919 0.967465 0.968295 0.969018 0.969676 0.969520 0.970254 0.969485 0.968945 0.968450 0.964533 0.965126 0.965696 0.965839 0.966873 0.966761 0.968764 0.968902 0.968318 0.967450 0.966722 0.966016 0.965599 0.965327 0.965827 0.966118 0.967412 0.970572 0.970020 0.969705 0.969863 0.969968 0.970153 0.970590 0.972273 0.968613 0.969236 0.967623 0.968081 0.969645 0.969542 0.969327 0.970681 0.971038 0.971410 0.969261 0.965103 0.959589 0.958411 0.955284 0.946407 0.944537 0.945437 0.947494 0.947774 0.946692 0.939250 0.939861 0.933603 0.934908 0.938192 0.933014 0.932303 0.933413 0.932452 0.930838 0.930294 0.927578 0.924260 0.922433 0.922331 0.925371 0.926115 0.927273 0.926881 0.921165 0.913184 0.899145 0.894936 0.889687 0.892848 0.880745 0.880057 0.879797 0.875194 0.878953 0.880900 0.881907 0.877835 0.856829 0.833738 0.824218 0.828805 0.834629 0.831631 0.830161 0.823312 0.835628 0.817818 0.830819 0.835450 0.832972 0.833084 0.831923 0.828612 0.822774 0.822626 0.824703 0.825882 0.825120 0.825835 0.821462 0.811373 0.814717 0.752209 0.739313 0.735227 0.740790 0.747063 0.749872 0.748872 0.756246 0.760957 0.751599 0.734952 0.727534 0.719977 0.725290 0.727993 0.731700 0.720590 0.697529 0.690628 0.653823 0.671160 0.694385 0.649535 0.674311 0.685808 0.681297 0.679736 0.672642 0.666051 0.661139 0.664365 0.676815 0.695337 0.715064 0.741198 0.737215 0.728355 0.724949 0.709100 0.703037 0.697816 0.706063 0.688151 0.684608 0.703110 0.703359 0.689444 0.669551 0.654778 0.647052 0.644732 0.649568 0.640767 0.638383 0.621814 0.592868 0.584914 0.620180 0.635020 0.653243 0.624400 0.610547 0.599115 0.572695 0.587063 0.535749 0.535563 0.559214 0.566406 0.543968 0.532734 0.543049 0.557121 0.562476 0.553138 0.528044 0.516165 0.529927 0.560844 0.552464 0.528914 0.534721 0.532892 0.527144 0.458634 0.453603 0.423310 0.390701 0.343100 0.319113 0.313357 0.296459 0.291404 0.258948 0.254860 0.267367 0.276225 0.281185 0.281176 0.262153 0.271413 0.267299 0.253910 0.194115 0.184942 0.177625 0.167222 0.166316 0.147315 0.169493 0.227555 0.229332 0.229332 0.229332 0.229332 0.229332 0.229332 0.237485 0.237485 0.237485 0.237485 0.237485 0.237485 0.237485 0.237485 0.237485 0.248240 0.248240 0.248240 0.248240 0.248240 0.248240 0.248240 0.248240 0.248240 0.248240 0.248240 0.248240 0.248240 0.248240
0.000000 0.000000 0.000000 0.000000 0.000000 0.000000 0.000000 0.000000 0.000000 0.000000 0.000000 0.000000 0.000000 0.000000 0.000000 0.000000 0.000000 0.000000 0.000000 0.000000 0.000000 9401.000000 0.000000 0.000000 0.000000 0.000000 0.000000 0.000000 0.000000 0.000000 0.000000 0.000000 0.000000 0.000000 0.000000 0.000000 0.000000 0.000000 0.000000 0.000000 0.000000 0.000000 0.000000 0.000000 0.000000 0.000000 0.000000 0.000000 0.000000 0.000000 0.000000 0.000000 0.180334 0.180334 0.180334 0.199007 0.199007 0.199007 0.199007 0.199007 0.199007 0.199007 0.199007 0.199007 0.199007 0.199007 0.199007 0.199007 0.199007 0.199007 0.199007 0.199007 0.199007 0.199007 0.199007 0.199007 0.199007 0.199007 0.199007 0.199007 0.199007 0.199007 0.199007 0.199007 0.199007 0.199007 0.199007 0.199007 0.199007 0.199007 0.199007 0.199007 0.199007 0.199007 0.199007 0.199007 0.225018 0.225018 0.225018 0.225018 0.225018 0.225018 0.225018 0.225018 0.225018 0.225018 0.225018 0.225018 0.225018 0.225018 0.225018 0.225018 0.225018 0.225018 0.225018 0.225018 0.225018 0.225018 0.225018 0.225018 0.225018 0.225018 0.225018 0.225018 0.225018 0.244339 0.244339 0.244339 0.244339 0.244339 0.244339 0.244339 0.244339 0.244339 0.244339 0.244339 0.244339 0.244339 0.244339 0.244339 0.244339 0.244339 0.244339 0.244339 0.244339 0.244339 0.244339 0.244339 0.251976 0.251976 0.251976 0.251976 0.251976 0.251976 0.251976 0.251976 0.251976 0.251976 0.251976 0.251976 0.251976 0.251976 0.251976 0.251976 0.251976 0.251976 0.251976 0.251976 0.264906 0.264906 0.264906 0.264906 0.264906 0.264906 0.264906 0.264906 0.264906 0.264906 0.264906 0.264906 0.264906 0.264906 0.264906 0.264906 0.264906 0.264906 0.264906 0.264906 0.264906 0.264906 0.264906 0.264906 0.264906 0.264906 0.264906 0.264906 0.264906 0.264906 0.264906 0.264906 0.264906 0.264906 0.264906 0.264906 0.264906 0.264906 0.264906 0.264906 0.264906 0.264906 0.264906 0.264906 0.264906 0.264906 0.264906 0.264906 0.264906 0.264906 0.264906 0.264906 0.264906 0.264906 0.264906 0.264906 0.264906 0.264906 0.264906 0.264906 0.264906 0.264906 0.256074 0.256074 0.256074 0.256074 0.256074 0.256074 0.256074 0.256074 0.256074 0.256074 0.256074 0.256074 0.256074 0.256074 0.269680 0.269680 0.269680 0.269680 0.269680 0.269680 0.269680 0.269680 0.269680 0.269680 0.269680 0.269680 0.264906 0.264906 0.264906 0.264906 0.264906 0.264906 0.264906 0.264906 0.264906 0.264906 0.264906 0.264906 0.269680 0.269680 0.269680 0.269680 0.269680 0.269680 0.269680 0.269680 0.269680 0.269680 0.269680 0.264906 0.264906 0.264906 0.264906 0.264906 0.264906 0.264906 0.264906 0.264906 0.264906 0.264906 0.256074 0.256074 0.256074 0.256074 0.256074 0.256074 0.256074 0.256074 0.256074 0.256074 0.256074 0.264906 0.264906 0.264906 0.264906 0.264906 0.264906 0.264906 0.264906 0.264906 0.264906 0.260378 0.260378 0.260378 0.260378 0.260378 0.260378 0.260378 0.260378 0.260378 0.260378 0.256074 0.256074 0.256074 0.256074 0.256074 0.256074 0.256074 0.256074 0.256074 0.256074 0.260378 0.260378 0.260378 0.260378 0.260378 0.260378 0.260378 0.260378 0.260378 0.256074 0.256074 0.256074 0.256074 0.256074 0.256074 0.256074 0.256074 0.256074 0.251976 0.251976 0.251976 0.251976 0.251976 0.251976 0.251976 0.251976 0.251976 0.251976 0.251976 0.251976 0.251976 0.251976
