# Output from CTFFind version 4.1.9, run on 2019-11-03 18:52:06
# Input file: stack14_ub_averaged_2000.mrc ; Number of micrographs: 1
# Pixel size: 3.000 Angstroms ; acceleration voltage: 300.0 keV ; spherical aberration: 0.00 mm ; amplitude contrast: 0.07
# Box size: 512 pixels ; min. res.: 30.0 Angstroms ; max. res.: 5.0 Angstroms ; min. def.: 5000.0 um; max. def. 50000.0 um; num. frames averaged: 1
# 6 lines per micrograph: #1 - spatial frequency (1/Angstroms); #2 - 1D rotational average of spectrum (assuming no astigmatism); #3 - 1D rotational average of spectrum; #4 - CTF fit; #5 - cross-correlation between spectrum and CTF fit; #6 - 2sigma of expected cross correlation of noise
0.000000 0.000651 0.001302 0.001953 0.002604 0.003255 0.003906 0.004557 0.005208 0.005859 0.006510 0.007161 0.007812 0.008464 0.009115 0.009766 0.010417 0.011068 0.011719 0.012370 0.013021 0.013672 0.014323 0.014974 0.015625 0.016276 0.016927 0.017578 0.018229 0.018880 0.019531 0.020182 0.020833 0.021484 0.022135 0.022786 0.023438 0.024089 0.024740 0.025391 0.026042 0.026693 0.027344 0.027995 0.028646 0.029297 0.029948 0.030599 0.031250 0.031901 0.032552 0.033203 0.033854 0.034505 0.035156 0.035807 0.036458 0.037109 0.037760 0.038411 0.039062 0.039714 0.040365 0.041016 0.041667 0.042318 0.042969 0.043620 0.044271 0.044922 0.045573 0.046224 0.046875 0.047526 0.048177 0.048828 0.049479 0.050130 0.050781 0.051432 0.052083 0.052734 0.053385 0.054036 0.054688 0.055339 0.055990 0.056641 0.057292 0.057943 0.058594 0.059245 0.059896 0.060547 0.061198 0.061849 0.062500 0.063151 0.063802 0.064453 0.065104 0.065755 0.066406 0.067057 0.067708 0.068359 0.069010 0.069661 0.070312 0.070964 0.071615 0.072266 0.072917 0.073568 0.074219 0.074870 0.075521 0.076172 0.076823 0.077474 0.078125 0.078776 0.079427 0.080078 0.080729 0.081380 0.082031 0.082682 0.083333 0.083984 0.084635 0.085286 0.085938 0.086589 0.087240 0.087891 0.088542 0.089193 0.089844 0.090495 0.091146 0.091797 0.092448 0.093099 0.093750 0.094401 0.095052 0.095703 0.096354 0.097005 0.097656 0.098307 0.098958 0.099609 0.100260 0.100911 0.101562 0.102214 0.102865 0.103516 0.104167 0.104818 0.105469 0.106120 0.106771 0.107422 0.108073 0.108724 0.109375 0.110026 0.110677 0.111328 0.111979 0.112630 0.113281 0.113932 0.114583 0.115234 0.115885 0.116536 0.117188 0.117839 0.118490 0.119141 0.119792 0.120443 0.121094 0.121745 0.122396 0.123047 0.123698 0.124349 0.125000 0.125651 0.126302 0.126953 0.127604 0.128255 0.128906 0.129557 0.130208 0.130859 0.131510 0.132161 0.132812 0.133464 0.134115 0.134766 0.135417 0.136068 0.136719 0.137370 0.138021 0.138672 0.139323 0.139974 0.140625 0.141276 0.141927 0.142578 0.143229 0.143880 0.144531 0.145182 0.145833 0.146484 0.147135 0.147786 0.148438 0.149089 0.149740 0.150391 0.151042 0.151693 0.152344 0.152995 0.153646 0.154297 0.154948 0.155599 0.156250 0.156901 0.157552 0.158203 0.158854 0.159505 0.160156 0.160807 0.161458 0.162109 0.162760 0.163411 0.164062 0.164714 0.165365 0.166016 0.166667 0.167318 0.167969 0.168620 0.169271 0.169922 0.170573 0.171224 0.171875 0.172526 0.173177 0.173828 0.174479 0.175130 0.175781 0.176432 0.177083 0.177734 0.178385 0.179036 0.179688 0.180339 0.180990 0.181641 0.182292 0.182943 0.183594 0.184245 0.184896 0.185547 0.186198 0.186849 0.187500 0.188151 0.188802 0.189453 0.190104 0.190755 0.191406 0.192057 0.192708 0.193359 0.194010 0.194661 0.195312 0.195964 0.196615 0.197266 0.197917 0.198568 0.199219 0.199870 0.200521 0.201172 0.201823 0.202474 0.203125 0.203776 0.204427 0.205078 0.205729 0.206380 0.207031 0.207682 0.208333 0.208984 0.209635 0.210286 0.210938 0.211589 0.212240 0.212891 0.213542 0.214193 0.214844 0.215495 0.216146 0.216797 0.217448 0.218099 0.218750 0.219401 0.220052 0.220703 0.221354 0.222005 0.222656 0.223307 0.223958 0.224609 0.225260 0.225911 0.226562 0.227214 0.227865 0.228516 0.229167 0.229818 0.230469 0.231120 0.231771 0.232422 0.233073 0.233724 0.234375 0.235026 0.235677
       0.30811        0.30811        0.30811        0.30811        0.30811        0.30811        0.30811        0.30811        0.30811        0.30811        0.30811        0.30811        0.30811        0.30811        0.30811        0.30811        0.30811        0.30811        0.30811        0.30811        0.30811        0.30811        0.30811        0.30811        0.30811        0.30811        0.30811        0.30811        0.30811        0.30811        0.30811        0.30811        0.30811        0.30811        0.30811        0.30811        0.30811        0.30811        0.30811        0.30811        0.30811        0.30811        0.30811        0.30811        0.30811        0.30811        0.30811        0.30811        0.30811        0.30811        0.30811        0.43387        0.54417        0.19557       -0.14264       -0.34817       -0.39371       -0.47180       -0.60623       -0.61159       -0.61017       -0.58312       -0.57177       -0.58522       -0.71394       -0.80948       -0.81025       -0.83476       -0.78101       -0.85329       -0.69399       -0.79744       -0.74573       -0.56511       -0.47723       -0.36735       -0.22795       -0.12106       -0.13941        0.09945        0.25534        0.24025        0.33165        0.45430        0.47439        0.58060        0.49219        0.62800        0.61255        0.62005        0.51581        0.41485        0.33190        0.27716        0.25441        0.17761        0.09206        0.06966       -0.05877       -0.03842       -0.06585       -0.07818       -0.01532        0.04546        0.13397        0.18446        0.36771        0.45554        0.53459        0.58881        0.55573        0.65050        0.70330        0.63076        0.53824        0.49175        0.49987        0.38914        0.29664        0.17302        0.09179        0.03058       -0.01978       -0.05060        0.05724        0.12219        0.22873        0.34816        0.44479        0.55587        0.54956        0.61273        0.64335        0.58432        0.52960        0.54439        0.43317        0.35184        0.25421        0.17041        0.10376        0.03221        0.07005        0.09318        0.18061        0.28576        0.31357        0.42145        0.47088        0.46591        0.50271        0.53958        0.43371        0.43666        0.32050        0.19372        0.21135        0.10256        0.13147        0.13425        0.15770        0.25773        0.33528        0.44172        0.43965        0.42306        0.48476        0.46870        0.44666        0.41382        0.34843        0.21771        0.14421        0.23956        0.24846        0.21274        0.22774        0.34691        0.41357        0.47906        0.49343        0.44212        0.39135        0.35676        0.27666        0.28053        0.23351        0.23834        0.18872        0.24540        0.27066        0.35384        0.37654        0.43702        0.41960        0.37267        0.34355        0.34095        0.26992        0.23627        0.23218        0.25377        0.26988        0.33694        0.36532        0.35276        0.36240        0.39066        0.38153        0.36575        0.25908        0.26215        0.24941        0.24256        0.25919        0.23330        0.31990        0.40836        0.36792        0.33640        0.35204        0.30086        0.27697        0.26809        0.23549        0.27200        0.32033        0.30857        0.33316        0.32739        0.35145        0.34868        0.32120        0.31484        0.26335        0.28731        0.26543        0.28098        0.31204        0.31584        0.29393        0.31438        0.32507        0.29775        0.28326        0.25328        0.28088        0.27406        0.26988        0.33214        0.31710        0.26506        0.29668        0.27851        0.26943        0.23066        0.24013        0.30619        0.28835        0.30279        0.28809        0.31764        0.28411        0.23924        0.27369        0.28402        0.27192        0.26211        0.31408        0.35958        0.35763        0.31733        0.31115        0.27334        0.29011        0.27240        0.27374        0.29577        0.30246        0.30887        0.26681        0.25938        0.26693        0.28172        0.26684        0.27864        0.29482        0.33365        0.31467        0.28637        0.29401        0.28661        0.26264        0.26157        0.25253        0.29313        0.29363        0.30128        0.25693        0.20268        0.24030        0.23989        0.24239        0.28765        0.30736        0.28862        0.24846        0.25303        0.26590        0.25656        0.23095        0.23285        0.27758        0.27533        0.35556        0.30992        0.24867        0.26499        0.24238        0.24045        0.29690        0.30607        0.29780        0.24607        0.31528        0.27640        0.24968        0.27648        0.28451        0.27690        0.29293        0.23597        0.24345        0.28166        0.26817        0.24792        0.22469        0.23068        0.24463        0.22800        0.19264        0.16104        0.23596        0.26584        0.20657        0.26016        0.30763        0.22270        0.26375        0.27008        0.33825        0.29407        0.18669        0.29000        0.21727        0.19451        0.28837        0.18204        0.10274        0.03852        0.00547       -0.30135       -0.15161
2.495436 2.467797 2.440321 2.413006 2.385853 2.358862 2.332033 2.305365 2.278860 2.252516 2.226334 2.200314 2.174456 2.148760 2.123225 2.097853 2.072642 2.047593 2.022706 1.997981 1.973418 1.949016 1.924776 1.900699 1.876783 1.853029 1.829436 1.806006 1.782737 1.759631 1.736686 1.713903 1.691281 1.668822 1.646525 1.624389 1.602415 1.580603 1.558953 1.537465 1.516139 1.494974 1.473971 1.453131 1.432452 1.411934 1.391579 1.371386 1.351354 1.331484 1.311777 1.422379 1.542690 1.189495 0.788424 0.458334 0.539968 0.357340 0.134188 0.205309 0.149388 0.091215 0.179553 0.129282 0.038434 -0.197472 -0.194546 -0.207284 -0.181751 -0.305165 -0.049298 -0.296209 -0.225095 -0.026916 0.005685 0.122710 0.290763 0.366998 0.348079 0.465316 0.752668 0.709908 0.772402 0.855680 0.910659 1.019028 0.972800 0.943297 1.034048 0.981203 0.970987 0.683888 0.768082 0.554724 0.577945 0.483689 0.348982 0.330342 0.158066 0.211075 0.110327 0.089104 0.192292 0.194390 0.242918 0.343016 0.467643 0.642099 0.644768 0.657558 0.787104 0.718430 0.792179 0.738887 0.668560 0.596515 0.602681 0.454724 0.391471 0.209239 0.164538 0.026283 -0.017095 -0.070326 -0.064150 0.128660 0.129829 0.329657 0.358830 0.451863 0.556215 0.548871 0.612132 0.611835 0.465908 0.527313 0.341237 0.365039 0.215539 0.092537 0.013666 -0.049863 -0.068834 -0.046262 -0.007445 0.147411 0.190564 0.237709 0.357826 0.337041 0.421405 0.502828 0.390309 0.350624 0.299866 0.101210 0.077626 0.036818 -0.020657 0.016253 -0.007701 0.089811 0.155074 0.304482 0.283515 0.313958 0.342290 0.336501 0.310522 0.301034 0.226856 0.103785 -0.038694 0.027745 0.088440 0.040299 0.021281 0.102058 0.196356 0.287058 0.260068 0.312519 0.170623 0.215740 0.101126 0.074233 0.018629 -0.007218 0.020297 -0.025836 0.008808 0.111408 0.142162 0.188502 0.205309 0.159167 0.142223 0.101069 0.098915 -0.030923 0.003982 -0.019665 0.014398 0.055250 0.095276 0.129921 0.113741 0.132631 0.146763 0.160096 0.082679 -0.007754 0.002692 0.001309 -0.000830 -0.008760 -0.007861 0.113865 0.163966 0.095428 0.108431 0.088088 0.009270 0.011054 -0.018170 -0.016537 0.031494 0.059975 0.037389 0.072644 0.087213 0.073627 0.102000 0.067167 0.004696 0.011410 0.039070 -0.021457 0.027870 0.053442 0.030277 0.041657 0.055171 0.043215 0.022023 0.010292 -0.032675 0.019197 -0.015018 0.017332 0.078122 0.028942 0.000379 0.002423 0.026623 -0.020371 -0.065869 -0.007906 0.034367 0.029437 0.021708 0.032041 0.054530 -0.006573 -0.025093 0.018511 0.024092 0.012391 -0.016385 0.075894 0.097663 0.072283 0.061189 0.043338 -0.011661 0.039262 -0.014994 0.031567 0.046898 0.023782 0.058204 -0.013636 0.024461 -0.000777 0.011946 0.039812 -0.000384 0.046366 0.098419 0.023534 0.064068 0.035808 0.023965 -0.001060 0.007494 0.012831 0.050184 0.020483 0.052129 -0.059056 -0.044143 0.000230 -0.056184 -0.032558 0.031388 0.068921 0.030074 -0.047753 -0.012705 0.027416 -0.005879 -0.035122 -0.033795 0.069193 -0.033274 0.131689 0.020775 0.015848 0.018284 -0.031895 0.010474 0.055351 0.048129 0.071755 -0.015439 0.078991 0.060180 -0.025456 0.059656 0.027477 0.079627 0.054434 -0.000865 -0.004272 0.041489 0.021969 -0.020398 -0.087787 -0.021810 -0.066129 -0.040052 -0.088842 -0.134701 -0.035449 -0.020276 -0.127528 -0.030241 0.068857 -0.043535 0.003035 0.022001 0.130106 0.054654 -0.073329 0.097281 0.034367 -0.039264 0.178628 0.149496 0.225039 -0.069409 0.012894 -0.161712
0.072396 0.073021 0.074895 0.078017 0.082387 0.088004 0.094865 0.102967 0.112308 0.122882 0.134683 0.147704 0.161936 0.177367 0.193984 0.211770 0.230705 0.250766 0.271926 0.294152 0.317408 0.341653 0.366838 0.392909 0.419805 0.447458 0.475792 0.504723 0.534156 0.563991 0.594115 0.624406 0.654734 0.684956 0.714918 0.744459 0.773405 0.801571 0.828763 0.854777 0.879401 0.902412 0.923582 0.942676 0.959452 0.973666 0.985072 0.993423 0.998474 0.999985 0.997722 0.991462 0.980993 0.966120 0.946667 0.922481 0.893435 0.859432 0.820411 0.776346 0.727254 0.673199 0.614290 0.550693 0.482624 0.410362 0.334242 0.254661 0.172081 0.087023 0.000072 0.088127 0.176873 0.265408 0.352929 0.438585 0.521494 0.600743 0.675405 0.744542 0.807226 0.862544 0.909621 0.947625 0.975792 0.993437 0.999972 0.994921 0.977939 0.948825 0.907536 0.854201 0.789131 0.712826 0.625985 0.529504 0.424478 0.312195 0.194126 0.071915 0.052640 0.177611 0.300966 0.420598 0.534365 0.640126 0.735781 0.819323 0.888879 0.942759 0.979502 0.997927 0.997168 0.976720 0.936466 0.876713 0.798200 0.702116 0.590093 0.464201 0.326915 0.181084 0.029885 0.123250 0.274692 0.420710 0.557556 0.681568 0.789270 0.877483 0.943425 0.984812 0.999952 0.987826 0.948152 0.881431 0.788979 0.672924 0.536185 0.382422 0.215952 0.041654 0.135173 0.308956 0.474023 0.624793 0.755968 0.862732 0.940948 0.987330 0.999610 0.976666 0.918617 0.826878 0.704166 0.554456 0.382886 0.195605 0.000423 0.197662 0.388289 0.564502 0.718843 0.844535 0.935796 0.988131 0.998591 0.965960 0.890891 0.775956 0.625599 0.446024 0.244966 0.031392 0.184874 0.393592 0.584594 0.748288 0.876156 0.961231 0.998515 0.985313 0.921465 0.809455 0.654376 0.463763 0.247273 0.016241 0.216899 0.439253 0.638194 0.802088 0.921012 0.987388 0.996524 0.946993 0.840846 0.683606 0.484060 0.253823 0.006723 0.242014 0.476664 0.682020 0.844399 0.952583 0.998661 0.978668 0.892990 0.746482 0.548295 0.311372 0.051672 0.212858 0.463505 0.682110 0.852421 0.961333 0.999979 0.964521 0.856609 0.683425 0.457317 0.194998 0.083621 0.356897 0.603134 0.802309 0.937765 0.997660 0.976100 0.873811 0.698278 0.463322 0.188113 0.104320 0.388972 0.640982 0.837824 0.961401 0.999774 0.948433 0.810928 0.598766 0.330594 0.030650 0.273354 0.552752 0.780648 0.934550 0.998686 0.965735 0.837784 0.626390 0.351674 0.040542 0.275883 0.565319 0.797647 0.948098 0.999999 0.946753 0.792822 0.553528 0.253713 0.074747 0.396228 0.675206 0.880224 0.987525 0.983937 0.868648 0.653628 0.362557 0.028400 0.310250 0.613566 0.845198 0.976710 0.991218 0.885721 0.671825 0.374669 0.030153 0.319286 0.629853 0.861899 0.985089 0.982521 0.853235 0.612726 0.291316 0.069496 0.422282 0.719875 0.921736 0.999605 0.941640 0.754440 0.462557 0.105501 0.267434 0.603924 0.855931 0.986703 0.976293 0.824842 0.553015 0.199431 0.184609 0.542472 0.820526 0.976277 0.985037 0.844094 0.573610 0.214019 0.179802 0.546776 0.829096 0.981418 0.978362 0.818992 0.527511 0.149858 0.253280 0.616126 0.878550 0.996154 0.948041 0.740801 0.407991 0.004992 0.400009 0.737457 0.948451 0.995223 0.868157 0.588095 0.203241 0.218833 0.602919 0.879563 0.997769 0.934664 0.700262 0.336280 0.090962 0.502416 0.820881 0.985579 0.964029 0.758787 0.407653 0.022941 0.450220 0.790938 0.977638 0.972290 0.774393 0.421786 0.016176 0.452012
1.000000 1.000000 1.000000 1.000000 1.000000 1.000000 1.000000 1.000000 1.000000 1.000000 1.000000 1.000000 1.000000 1.000000 1.000000 1.000000 1.000000 1.000000 1.000000 1.000000 1.000000 1.000000 1.000000 1.000000 1.000000 1.000000 1.000000 1.000000 1.000000 1.000000 1.000000 1.000000 1.000000 1.000000 1.000000 1.000000 1.000000 1.000000 1.000000 1.000000 1.000000 1.000000 1.000000 1.000000 1.000000 1.000000 1.000000 1.000000 1.000000 1.000000 1.000000 1.000000 0.942234 0.942234 0.942234 0.942234 0.942234 0.942234 0.942234 0.942234 0.942234 0.942234 0.942234 0.942234 0.942234 0.942234 0.942234 0.942234 0.942234 0.942234 0.942234 0.942234 0.942234 0.942234 0.942234 0.942234 0.942234 0.942234 0.942234 0.942234 0.942234 0.942234 0.942234 0.942234 0.942234 0.942234 0.942234 0.920938 0.922468 0.926248 0.927499 0.927839 0.944110 0.944171 0.945452 0.950969 0.952936 0.954577 0.955307 0.963939 0.967039 0.966419 0.966330 0.963543 0.984785 0.983875 0.983375 0.983533 0.984447 0.984686 0.984507 0.984909 0.986261 0.985792 0.985006 0.984115 0.983341 0.983232 0.984075 0.982527 0.982592 0.983225 0.983834 0.983735 0.984096 0.984447 0.984494 0.984883 0.985617 0.981339 0.980688 0.979336 0.978295 0.978260 0.977925 0.977496 0.976029 0.975823 0.974855 0.975059 0.974934 0.974597 0.972817 0.973538 0.973330 0.969895 0.968801 0.966634 0.964776 0.951103 0.938682 0.933487 0.933521 0.931392 0.932924 0.922341 0.921783 0.915083 0.913248 0.914245 0.916942 0.917413 0.905611 0.886757 0.879228 0.872151 0.875131 0.877555 0.875194 0.868090 0.864828 0.863197 0.869771 0.872078 0.876926 0.875625 0.870814 0.866395 0.863098 0.857832 0.858052 0.854274 0.856237 0.854443 0.837314 0.846077 0.847263 0.855336 0.862198 0.860674 0.836976 0.795922 0.792840 0.794166 0.794655 0.792356 0.796721 0.804268 0.812143 0.808887 0.812647 0.821283 0.805114 0.810730 0.816095 0.816248 0.797602 0.777321 0.772057 0.768004 0.759833 0.746033 0.740427 0.742049 0.737417 0.737111 0.731445 0.725597 0.713166 0.709419 0.673888 0.676970 0.670810 0.655601 0.658749 0.659443 0.654865 0.638653 0.635225 0.620413 0.615005 0.608289 0.611699 0.603429 0.609620 0.619676 0.608599 0.595612 0.577068 0.573457 0.575632 0.530949 0.534742 0.562928 0.602080 0.595560 0.578973 0.602321 0.596389 0.581022 0.570279 0.548585 0.538111 0.549988 0.554700 0.534364 0.538058 0.523090 0.529785 0.533719 0.507158 0.531542 0.502208 0.490320 0.495863 0.520911 0.532747 0.504021 0.467667 0.474168 0.478326 0.498804 0.515293 0.502425 0.522001 0.524510 0.516172 0.482486 0.483645 0.503184 0.502531 0.505991 0.496542 0.498551 0.462194 0.422650 0.424167 0.390460 0.375881 0.376347 0.367945 0.338468 0.333039 0.325998 0.351371 0.344761 0.365136 0.329258 0.340571 0.289325 0.291325 0.235672 0.255956 0.250112 0.255423 0.276070 0.268502 0.268764 0.271837 0.303773 0.308108 0.280364 0.261024 0.234955 0.249167 0.223886 0.203208 0.219131 0.211887 0.205374 0.133290 0.137501 0.127113 0.155883 0.176576 0.167804 0.130899 0.124904 0.098642 0.087883 0.083752 0.061508 0.009278 -0.003993 0.009580 0.044959 0.107636 0.107636 0.107636 0.107636 0.107636 0.107636 0.107636 0.107636 0.110573 0.110573 0.110573 0.110573 0.110573 0.110573 0.110573 0.110573 0.110573 0.110573 0.110573 0.110573 0.110573 0.110573 0.110573 0.110573 0.110573 0.110573 0.110573
0.000000 0.000000 0.000000 0.000000 0.000000 0.000000 0.000000 0.000000 0.000000 0.000000 0.000000 0.000000 0.000000 0.000000 0.000000 0.000000 0.000000 0.000000 0.000000 0.000000 0.000000 0.000000 0.000000 0.000000 0.000000 0.000000 0.000000 0.000000 0.000000 0.000000 0.000000 0.000000 0.000000 0.000000 0.000000 0.000000 0.000000 0.000000 0.000000 0.000000 0.000000 0.000000 0.000000 0.000000 0.000000 0.000000 0.000000 0.000000 0.000000 0.000000 0.000000 0.000000 0.207390 0.207390 0.207390 0.207390 0.207390 0.207390 0.207390 0.207390 0.207390 0.207390 0.207390 0.207390 0.207390 0.207390 0.207390 0.207390 0.207390 0.207390 0.207390 0.207390 0.207390 0.207390 0.207390 0.207390 0.207390 0.207390 0.207390 0.207390 0.207390 0.207390 0.207390 0.207390 0.207390 0.207390 0.207390 0.244339 0.244339 0.244339 0.244339 0.244339 0.244339 0.244339 0.244339 0.244339 0.244339 0.244339 0.244339 0.244339 0.244339 0.244339 0.244339 0.244339 0.244339 0.244339 0.244339 0.244339 0.244339 0.244339 0.244339 0.244339 0.256074 0.256074 0.256074 0.256074 0.256074 0.256074 0.256074 0.256074 0.256074 0.256074 0.256074 0.256074 0.256074 0.256074 0.256074 0.256074 0.256074 0.256074 0.256074 0.256074 0.256074 0.269680 0.269680 0.269680 0.269680 0.269680 0.269680 0.269680 0.269680 0.269680 0.269680 0.269680 0.269680 0.269680 0.269680 0.269680 0.269680 0.269680 0.269680 0.269680 0.269680 0.269680 0.269680 0.269680 0.269680 0.269680 0.269680 0.269680 0.269680 0.269680 0.269680 0.269680 0.269680 0.269680 0.269680 0.269680 0.269680 0.269680 0.269680 0.269680 0.269680 0.269680 0.269680 0.269680 0.269680 0.269680 0.269680 0.269680 0.269680 0.280056 0.280056 0.280056 0.280056 0.280056 0.280056 0.280056 0.280056 0.280056 0.280056 0.280056 0.280056 0.280056 0.274721 0.274721 0.274721 0.274721 0.274721 0.274721 0.274721 0.274721 0.274721 0.274721 0.274721 0.274721 0.274721 0.274721 0.274721 0.274721 0.274721 0.274721 0.274721 0.274721 0.274721 0.274721 0.274721 0.274721 0.274721 0.280056 0.280056 0.280056 0.280056 0.280056 0.280056 0.280056 0.280056 0.280056 0.280056 0.280056 0.285714 0.285714 0.285714 0.285714 0.285714 0.285714 0.285714 0.285714 0.285714 0.285714 0.269680 0.269680 0.269680 0.269680 0.269680 0.269680 0.269680 0.269680 0.269680 0.269680 0.269680 0.285714 0.285714 0.285714 0.285714 0.285714 0.285714 0.285714 0.285714 0.285714 0.269680 0.269680 0.269680 0.269680 0.269680 0.269680 0.269680 0.269680 0.269680 0.269680 0.274721 0.274721 0.274721 0.274721 0.274721 0.274721 0.274721 0.274721 0.274721 0.269680 0.269680 0.269680 0.269680 0.269680 0.269680 0.269680 0.269680 0.269680 0.264906 0.264906 0.264906 0.264906 0.264906 0.264906 0.264906 0.264906 0.264906 0.274721 0.274721 0.274721 0.274721 0.274721 0.274721 0.274721 0.274721 0.269680 0.269680 0.269680 0.269680 0.269680 0.269680 0.269680 0.269680 0.269680 0.269680 0.269680 0.269680 0.269680 0.269680 0.269680 0.269680 0.264906 0.264906 0.264906 0.264906 0.264906 0.264906 0.264906 0.264906 0.274721 0.274721 0.274721 0.274721 0.274721 0.274721 0.274721 0.256074 0.256074 0.256074 0.256074 0.256074 0.256074 0.256074 0.256074 0.264906 0.264906 0.264906 0.264906 0.264906 0.264906 0.264906 0.264906 0.264906 0.264906 0.264906 0.264906 0.264906 0.264906 0.264906 0.264906 0.264906 0.264906 0.264906
