# Output from CTFFind version 4.1.9, run on 2019-11-03 18:51:32
# Input file: stack12_ub_averaged_750.mrc ; Number of micrographs: 1
# Pixel size: 3.000 Angstroms ; acceleration voltage: 300.0 keV ; spherical aberration: 0.00 mm ; amplitude contrast: 0.07
# Box size: 512 pixels ; min. res.: 30.0 Angstroms ; max. res.: 5.0 Angstroms ; min. def.: 5000.0 um; max. def. 50000.0 um; num. frames averaged: 1
# 6 lines per micrograph: #1 - spatial frequency (1/Angstroms); #2 - 1D rotational average of spectrum (assuming no astigmatism); #3 - 1D rotational average of spectrum; #4 - CTF fit; #5 - cross-correlation between spectrum and CTF fit; #6 - 2sigma of expected cross correlation of noise
0.000000 0.000651 0.001302 0.001953 0.002604 0.003255 0.003906 0.004557 0.005208 0.005859 0.006510 0.007161 0.007812 0.008464 0.009115 0.009766 0.010417 0.011068 0.011719 0.012370 0.013021 0.013672 0.014323 0.014974 0.015625 0.016276 0.016927 0.017578 0.018229 0.018880 0.019531 0.020182 0.020833 0.021484 0.022135 0.022786 0.023438 0.024089 0.024740 0.025391 0.026042 0.026693 0.027344 0.027995 0.028646 0.029297 0.029948 0.030599 0.031250 0.031901 0.032552 0.033203 0.033854 0.034505 0.035156 0.035807 0.036458 0.037109 0.037760 0.038411 0.039062 0.039714 0.040365 0.041016 0.041667 0.042318 0.042969 0.043620 0.044271 0.044922 0.045573 0.046224 0.046875 0.047526 0.048177 0.048828 0.049479 0.050130 0.050781 0.051432 0.052083 0.052734 0.053385 0.054036 0.054688 0.055339 0.055990 0.056641 0.057292 0.057943 0.058594 0.059245 0.059896 0.060547 0.061198 0.061849 0.062500 0.063151 0.063802 0.064453 0.065104 0.065755 0.066406 0.067057 0.067708 0.068359 0.069010 0.069661 0.070312 0.070964 0.071615 0.072266 0.072917 0.073568 0.074219 0.074870 0.075521 0.076172 0.076823 0.077474 0.078125 0.078776 0.079427 0.080078 0.080729 0.081380 0.082031 0.082682 0.083333 0.083984 0.084635 0.085286 0.085938 0.086589 0.087240 0.087891 0.088542 0.089193 0.089844 0.090495 0.091146 0.091797 0.092448 0.093099 0.093750 0.094401 0.095052 0.095703 0.096354 0.097005 0.097656 0.098307 0.098958 0.099609 0.100260 0.100911 0.101562 0.102214 0.102865 0.103516 0.104167 0.104818 0.105469 0.106120 0.106771 0.107422 0.108073 0.108724 0.109375 0.110026 0.110677 0.111328 0.111979 0.112630 0.113281 0.113932 0.114583 0.115234 0.115885 0.116536 0.117188 0.117839 0.118490 0.119141 0.119792 0.120443 0.121094 0.121745 0.122396 0.123047 0.123698 0.124349 0.125000 0.125651 0.126302 0.126953 0.127604 0.128255 0.128906 0.129557 0.130208 0.130859 0.131510 0.132161 0.132812 0.133464 0.134115 0.134766 0.135417 0.136068 0.136719 0.137370 0.138021 0.138672 0.139323 0.139974 0.140625 0.141276 0.141927 0.142578 0.143229 0.143880 0.144531 0.145182 0.145833 0.146484 0.147135 0.147786 0.148438 0.149089 0.149740 0.150391 0.151042 0.151693 0.152344 0.152995 0.153646 0.154297 0.154948 0.155599 0.156250 0.156901 0.157552 0.158203 0.158854 0.159505 0.160156 0.160807 0.161458 0.162109 0.162760 0.163411 0.164062 0.164714 0.165365 0.166016 0.166667 0.167318 0.167969 0.168620 0.169271 0.169922 0.170573 0.171224 0.171875 0.172526 0.173177 0.173828 0.174479 0.175130 0.175781 0.176432 0.177083 0.177734 0.178385 0.179036 0.179688 0.180339 0.180990 0.181641 0.182292 0.182943 0.183594 0.184245 0.184896 0.185547 0.186198 0.186849 0.187500 0.188151 0.188802 0.189453 0.190104 0.190755 0.191406 0.192057 0.192708 0.193359 0.194010 0.194661 0.195312 0.195964 0.196615 0.197266 0.197917 0.198568 0.199219 0.199870 0.200521 0.201172 0.201823 0.202474 0.203125 0.203776 0.204427 0.205078 0.205729 0.206380 0.207031 0.207682 0.208333 0.208984 0.209635 0.210286 0.210938 0.211589 0.212240 0.212891 0.213542 0.214193 0.214844 0.215495 0.216146 0.216797 0.217448 0.218099 0.218750 0.219401 0.220052 0.220703 0.221354 0.222005 0.222656 0.223307 0.223958 0.224609 0.225260 0.225911 0.226562 0.227214 0.227865 0.228516 0.229167 0.229818 0.230469 0.231120 0.231771 0.232422 0.233073 0.233724 0.234375 0.235026 0.235677
       0.33767        0.33767        0.33767        0.33767        0.33767        0.33767        0.33767        0.33767        0.33767        0.33767        0.33767        0.33767        0.33767        0.33767        0.33767        0.33767        0.33767        0.33767        0.33767        0.33767        0.33767        0.33767        0.33767        0.33767        0.33767        0.33767        0.33767        0.33767        0.33767        0.33767        0.33767        0.33767        0.33767        0.33767        0.33767        0.33767        0.33767        0.33767        0.33767        0.33767        0.33767        0.33767        0.33767        0.33767        0.33767        0.33767        0.33767        0.33767        0.33767        0.33767        0.33767        0.63715        0.67347        0.30317        0.20953       -0.02055       -0.24469       -0.30951       -0.26831       -0.09839       -0.30554       -0.14633       -0.17133       -0.23099       -0.25609       -0.42475       -0.52301       -0.61252       -0.62899       -0.56292       -0.53479       -0.49746       -0.52808       -0.54959       -0.62711       -0.60257       -0.50829       -0.48523       -0.37104       -0.32675       -0.29624       -0.13546       -0.09901       -0.01992        0.09095        0.19393        0.19374        0.46692        0.54430        0.50186        0.59123        0.60194        0.64770        0.75966        0.72794        0.71826        0.71033        0.65831        0.61935        0.50514        0.43480        0.29392        0.11766        0.03062        0.08062        0.09786       -0.05151        0.02091       -0.02370       -0.02282        0.06724        0.03888        0.17158        0.29424        0.36878        0.41750        0.44959        0.66592        0.65938        0.65122        0.68078        0.67314        0.66805        0.58262        0.64289        0.54805        0.45449        0.36670        0.27388        0.18315        0.02633        0.08926        0.04240        0.07975        0.09445        0.15593        0.29156        0.27600        0.43142        0.50311        0.53843        0.58370        0.57376        0.63823        0.61779        0.53748        0.48150        0.50048        0.33169        0.25260        0.16041        0.11687        0.10834        0.09191        0.12984        0.16457        0.20927        0.29232        0.39093        0.46828        0.54099        0.51747        0.49820        0.52412        0.45372        0.43563        0.41658        0.36180        0.27273        0.21020        0.20034        0.17429        0.17571        0.28520        0.32283        0.38808        0.39523        0.42636        0.50151        0.51148        0.50536        0.53376        0.41145        0.37819        0.37431        0.32268        0.25631        0.21383        0.21926        0.26576        0.34857        0.39585        0.38661        0.47659        0.42382        0.46492        0.44343        0.39950        0.33994        0.28487        0.31240        0.27655        0.27464        0.23852        0.25062        0.34808        0.40221        0.38636        0.38493        0.39793        0.36093        0.39459        0.41954        0.34200        0.33930        0.26951        0.24024        0.26105        0.29683        0.29987        0.34458        0.38706        0.38552        0.36566        0.38002        0.35439        0.33249        0.28435        0.27588        0.25607        0.29484        0.31373        0.33743        0.31838        0.36846        0.41429        0.39554        0.35746        0.31946        0.32088        0.31854        0.29305        0.27673        0.28623        0.31500        0.33516        0.36758        0.34780        0.35811        0.35923        0.33594        0.30883        0.27827        0.26620        0.26466        0.29781        0.26446        0.34105        0.36639        0.36136        0.37332        0.33942        0.33081        0.28843        0.29952        0.31301        0.28202        0.30398        0.30198        0.33836        0.35895        0.32385        0.31019        0.29120        0.31897        0.26571        0.26972        0.30262        0.31112        0.29372        0.32391        0.32856        0.30493        0.31209        0.30341        0.30864        0.27803        0.27816        0.30141        0.35220        0.35689        0.35053        0.35963        0.36116        0.30783        0.25496        0.23961        0.27246        0.26778        0.33296        0.36358        0.31231        0.31186        0.31319        0.31130        0.31286        0.28342        0.28499        0.30399        0.30605        0.35380        0.30338        0.31412        0.26529        0.26388        0.26493        0.29593        0.35490        0.33625        0.29140        0.32431        0.28394        0.30494        0.30771        0.22943        0.28655        0.28828        0.31482        0.37092        0.24760        0.31075        0.26039        0.22359        0.29866        0.24473        0.29304        0.22418        0.19317        0.27255        0.25834        0.26939        0.31161        0.21685        0.27361        0.26135        0.25055        0.26744        0.28653        0.23157        0.24282        0.23186        0.17660        0.21439        0.20993        0.18151        0.22086        0.28544        0.22719        0.21099        0.14475        0.13378       -0.02939       -0.32279
2.410342 2.384937 2.359674 2.334552 2.309571 2.284732 2.260034 2.235478 2.211063 2.186789 2.162657 2.138667 2.114817 2.091109 2.067543 2.044118 2.020834 1.997692 1.974691 1.951831 1.929113 1.906537 1.884101 1.861808 1.839655 1.817644 1.795774 1.774046 1.752459 1.731014 1.709710 1.688548 1.667526 1.646647 1.625908 1.605312 1.584856 1.564542 1.544369 1.524338 1.504448 1.484700 1.465092 1.445627 1.426303 1.407120 1.388078 1.369178 1.350420 1.331803 1.313327 1.452692 1.856526 1.331022 1.142373 0.872121 0.548018 0.509336 0.451462 0.815416 0.372058 0.636066 0.548175 0.394598 0.517342 0.251940 0.154575 0.029837 -0.092994 0.050229 0.021053 0.081822 -0.019516 -0.009713 -0.121689 -0.073072 -0.051470 -0.033257 0.086087 0.140476 0.091505 0.246254 0.369478 0.384768 0.441761 0.561410 0.601891 0.830553 0.923741 0.846739 0.983821 0.952617 0.974175 0.990742 1.129217 0.939211 1.080257 0.971921 0.926486 0.744356 0.734089 0.547394 0.354452 0.191863 0.261509 0.246456 0.133937 0.132025 0.124781 0.077242 0.158669 0.164499 0.133167 0.410885 0.393774 0.542076 0.476800 0.676243 0.735881 0.740325 0.734791 0.702132 0.756609 0.633657 0.619784 0.588944 0.507895 0.314106 0.308612 0.178505 -0.013601 -0.002399 -0.042977 0.022637 0.004029 0.005280 0.154073 0.188002 0.304209 0.347875 0.455906 0.476094 0.440139 0.527466 0.538055 0.447608 0.352427 0.408929 0.292471 0.088696 0.053115 -0.022623 -0.104400 -0.025363 -0.145642 0.023904 -0.035358 0.089849 0.151743 0.302401 0.288343 0.402543 0.384016 0.369952 0.339188 0.327011 0.264071 0.234124 0.154319 0.071395 0.033275 0.001984 0.002194 0.038757 0.149233 0.171452 0.256961 0.188017 0.308382 0.317742 0.359767 0.325255 0.311473 0.164450 0.172164 0.161552 0.081956 0.013889 -0.014489 0.006939 0.091966 0.179431 0.137149 0.231296 0.256253 0.218272 0.276098 0.191879 0.163056 0.080275 0.077112 0.078005 0.039587 0.022603 0.027056 0.027874 0.181292 0.176198 0.137518 0.180801 0.095401 0.147444 0.172382 0.143277 0.090406 0.066251 -0.012003 -0.018499 0.021401 0.046571 0.077379 0.086462 0.147661 0.107758 0.140446 0.095729 0.088439 0.058968 0.012449 -0.009805 -0.008414 0.030597 0.076565 0.073603 0.031267 0.138937 0.162326 0.124366 0.045576 0.066545 0.043787 0.024978 0.029488 -0.005198 0.035658 0.046341 0.075067 0.109041 0.071949 0.067228 0.105032 0.051701 0.011758 0.014950 -0.019896 -0.026062 0.022504 -0.013295 0.106167 0.075823 0.148218 0.090578 0.066666 0.038816 0.024540 0.057330 0.006800 0.018951 0.039222 0.048018 0.094422 0.119550 0.083973 0.016550 0.058200 0.086667 -0.000652 0.027887 0.057715 0.050081 0.067043 0.083824 0.092572 0.034653 0.104151 0.034297 0.091748 0.005069 0.030066 0.098493 0.109849 0.105265 0.108070 0.110363 0.111175 0.071467 -0.000168 -0.026195 0.058912 0.006096 0.109642 0.089537 0.122889 0.069775 0.068998 0.086759 0.065390 0.022356 0.062096 0.068805 0.050091 0.134882 0.035898 0.044125 0.015025 0.016528 0.010193 0.041215 0.106027 0.101043 0.071330 0.034544 0.055168 0.045559 0.088413 -0.043666 0.067139 0.011477 0.074207 0.120260 -0.020646 0.155640 -0.008119 0.014121 0.062212 0.024321 0.087520 0.002309 -0.018806 0.085528 0.022741 0.080090 0.148044 -0.037878 0.067359 0.088903 0.048524 0.107020 0.135297 0.066017 0.001327 0.069390 0.018640 0.041017 0.056609 -0.007698 0.229554 0.399323 0.234201 0.208153 0.149565 0.142482 -0.345614
0.072396 0.072928 0.074524 0.077183 0.080905 0.085689 0.091533 0.098435 0.106394 0.115405 0.125465 0.136569 0.148711 0.161884 0.176078 0.191282 0.207484 0.224670 0.242820 0.261916 0.281933 0.302845 0.324621 0.347228 0.370625 0.394769 0.419613 0.445101 0.471175 0.497769 0.524812 0.552224 0.579921 0.607811 0.635794 0.663764 0.691605 0.719197 0.746408 0.773102 0.799134 0.824352 0.848597 0.871701 0.893494 0.913797 0.932428 0.949198 0.963918 0.976394 0.986434 0.993842 0.998427 1.000000 0.998377 0.993382 0.984845 0.972610 0.956533 0.936484 0.912353 0.884050 0.851507 0.814682 0.773562 0.728163 0.678535 0.624763 0.566970 0.505318 0.440012 0.371298 0.299468 0.224857 0.147846 0.068863 0.011621 0.093092 0.174994 0.256732 0.337674 0.417160 0.494498 0.568979 0.639876 0.706455 0.767981 0.823729 0.872989 0.915079 0.949355 0.975221 0.992139 0.999641 0.997341 0.984944 0.962256 0.929196 0.885804 0.832248 0.768830 0.695993 0.614323 0.524550 0.427548 0.324331 0.216045 0.103966 0.010520 0.125927 0.240684 0.353159 0.461680 0.564557 0.660115 0.746718 0.822801 0.886903 0.937697 0.974019 0.994907 0.999620 0.987672 0.958854 0.913252 0.851263 0.773605 0.681323 0.575780 0.458655 0.331920 0.197815 0.058817 0.082398 0.223011 0.360103 0.490726 0.611957 0.720976 0.815130 0.892006 0.949501 0.985886 0.999869 0.990647 0.957951 0.902079 0.823915 0.724935 0.607197 0.473315 0.326412 0.170063 0.008215 0.154904 0.314891 0.467288 0.607703 0.731949 0.836167 0.916963 0.971532 0.997763 0.994340 0.960819 0.897674 0.806327 0.689141 0.549381 0.391147 0.219268 0.039175 0.143268 0.321937 0.490666 0.643454 0.774684 0.879350 0.953258 0.993217 0.997193 0.964438 0.895563 0.792571 0.658833 0.499008 0.318903 0.125295 0.074322 0.272000 0.459666 0.629441 0.773988 0.886840 0.962718 0.997794 0.989919 0.938780 0.845974 0.715012 0.551219 0.361562 0.154374 0.060983 0.274533 0.476134 0.655971 0.805044 0.915641 0.981762 0.999482 0.967220 0.885899 0.758980 0.592369 0.394184 0.174400 0.055625 0.283720 0.497535 0.685219 0.836092 0.941281 0.994277 0.991383 0.932017 0.818840 0.657706 0.457413 0.229277 0.013483 0.256469 0.484961 0.684806 0.843315 0.950105 0.997822 0.982700 0.904909 0.768663 0.582062 0.356679 0.106888 0.151014 0.399842 0.622680 0.804034 0.930948 0.993981 0.987964 0.912492 0.772085 0.576001 0.337703 0.073988 0.196148 0.452869 0.676943 0.851210 0.961947 1.000000 0.961620 0.848896 0.669749 0.437472 0.169805 0.112353 0.386540 0.630524 0.824122 0.950902 0.999659 0.965480 0.850320 0.663013 0.418703 0.137690 0.156182 0.437528 0.681590 0.866471 0.975131 0.997052 0.929347 0.777209 0.553639 0.278445 0.023446 0.324174 0.595504 0.811500 0.951046 0.999995 0.952704 0.812787 0.592989 0.314132 0.003254 0.308963 0.591184 0.814586 0.955860 0.999726 0.940708 0.783919 0.544782 0.247635 0.076644 0.393780 0.669719 0.874299 0.984625 0.987747 0.882302 0.678933 0.399359 0.074194 0.260332 0.566336 0.808626 0.958769 0.998557 0.922345 0.737987 0.466199 0.138386 0.206888 0.528373 0.787070 0.951004 0.999310 0.925015 0.736207 0.455343 0.116732 0.237535 0.562758 0.817282 0.967892 0.994281 0.891948 0.673112 0.365450 0.008756 0.350091 0.663256 0.888342 0.994233 0.965551 0.805071 0.533693 0.187943 0.184818 0.532809 0.806972 0.968010 0.992122 0.874740 0.631544 0.296582 0.082287 0.450155 0.752972
1.000000 1.000000 1.000000 1.000000 1.000000 1.000000 1.000000 1.000000 1.000000 1.000000 1.000000 1.000000 1.000000 1.000000 1.000000 1.000000 1.000000 1.000000 1.000000 1.000000 1.000000 1.000000 1.000000 1.000000 1.000000 1.000000 1.000000 1.000000 1.000000 1.000000 1.000000 1.000000 1.000000 1.000000 1.000000 1.000000 1.000000 1.000000 1.000000 1.000000 1.000000 1.000000 1.000000 1.000000 1.000000 1.000000 1.000000 1.000000 1.000000 1.000000 1.000000 1.000000 0.917482 0.917482 0.905763 0.905763 0.905763 0.905763 0.905763 0.905763 0.905763 0.905763 0.905763 0.905763 0.905763 0.905763 0.905763 0.905763 0.905763 0.905763 0.905763 0.905763 0.905763 0.905763 0.905763 0.905763 0.905763 0.905763 0.905763 0.905763 0.905763 0.905763 0.905763 0.905763 0.905763 0.905763 0.905763 0.905763 0.905763 0.905763 0.905763 0.905763 0.905763 0.905763 0.885001 0.888602 0.892266 0.887854 0.888874 0.888535 0.887540 0.888130 0.888312 0.889892 0.906930 0.930469 0.932055 0.934084 0.939144 0.939285 0.941496 0.940011 0.938541 0.955525 0.953482 0.950919 0.951797 0.945579 0.947151 0.945069 0.944503 0.947000 0.944640 0.943451 0.942493 0.941511 0.940087 0.939588 0.939436 0.941040 0.941153 0.941250 0.941140 0.941615 0.941355 0.941296 0.941774 0.946225 0.949110 0.950371 0.952105 0.949995 0.950561 0.947215 0.955606 0.955435 0.954889 0.954902 0.955229 0.953492 0.953614 0.953129 0.952729 0.943354 0.940610 0.940200 0.940962 0.943606 0.948557 0.947583 0.946647 0.947720 0.939378 0.952760 0.943462 0.942015 0.940956 0.939503 0.940637 0.935694 0.929241 0.910308 0.902073 0.901178 0.903469 0.907549 0.908061 0.899183 0.898900 0.899161 0.889258 0.887666 0.888141 0.887677 0.893532 0.890763 0.891740 0.891157 0.897347 0.901036 0.900692 0.898432 0.895471 0.891587 0.892116 0.890932 0.891386 0.893880 0.890582 0.884603 0.883253 0.885276 0.893673 0.900145 0.904305 0.898720 0.897786 0.880502 0.878669 0.878795 0.863168 0.859144 0.860182 0.862141 0.861361 0.865803 0.863452 0.856212 0.850414 0.850801 0.853604 0.856736 0.854000 0.851919 0.848394 0.844933 0.849056 0.854929 0.864464 0.852439 0.847730 0.837434 0.834471 0.827037 0.824241 0.821527 0.822261 0.822980 0.819539 0.823048 0.825300 0.823769 0.813438 0.817424 0.815345 0.809956 0.786919 0.786661 0.765369 0.760518 0.766342 0.758578 0.751057 0.748058 0.747989 0.752974 0.751716 0.722398 0.714474 0.723599 0.672495 0.668552 0.680969 0.689543 0.705899 0.698202 0.684934 0.684918 0.712943 0.702314 0.700638 0.697661 0.681310 0.681463 0.680395 0.679411 0.687242 0.672507 0.669247 0.665989 0.658894 0.661120 0.645850 0.634570 0.620734 0.612048 0.614906 0.617297 0.617607 0.616965 0.628792 0.617589 0.622934 0.601611 0.603309 0.605427 0.623902 0.628295 0.588356 0.605739 0.596427 0.597973 0.537940 0.541141 0.545209 0.550141 0.540697 0.531091 0.505217 0.482024 0.487993 0.472911 0.479924 0.477358 0.445077 0.496704 0.467128 0.459317 0.458471 0.463492 0.465061 0.462903 0.443071 0.445883 0.440876 0.435505 0.401732 0.350325 0.357347 0.355727 0.382527 0.382297 0.341767 0.351660 0.351660 0.351660 0.351660 0.351660 0.351660 0.358506 0.358506 0.358506 0.358506 0.358506 0.358506 0.358506 0.358506 0.358506 0.319244 0.319244 0.319244 0.319244 0.319244 0.319244 0.319244 0.319244 0.319244 0.319244 0.319244 0.319244 0.319244 0.319244 0.319244
0.000000 0.000000 0.000000 0.000000 0.000000 0.000000 0.000000 0.000000 0.000000 0.000000 0.000000 0.000000 0.000000 0.000000 0.000000 0.000000 0.000000 0.000000 0.000000 0.000000 0.000000 9401.000000 0.000000 0.000000 0.000000 0.000000 0.000000 0.000000 0.000000 0.000000 0.000000 0.000000 0.000000 0.000000 0.000000 0.000000 0.000000 0.000000 0.000000 0.000000 0.000000 0.000000 0.000000 0.000000 0.000000 0.000000 0.000000 0.000000 0.000000 0.000000 0.000000 0.000000 0.181818 0.181818 0.201008 0.201008 0.201008 0.201008 0.201008 0.201008 0.201008 0.201008 0.201008 0.201008 0.201008 0.201008 0.201008 0.201008 0.201008 0.201008 0.201008 0.201008 0.201008 0.201008 0.201008 0.201008 0.201008 0.201008 0.201008 0.201008 0.201008 0.201008 0.201008 0.201008 0.201008 0.201008 0.201008 0.201008 0.201008 0.201008 0.201008 0.201008 0.201008 0.201008 0.234082 0.234082 0.234082 0.234082 0.234082 0.234082 0.234082 0.234082 0.234082 0.234082 0.234082 0.234082 0.234082 0.234082 0.234082 0.234082 0.234082 0.234082 0.234082 0.234082 0.234082 0.234082 0.234082 0.234082 0.234082 0.234082 0.234082 0.244339 0.244339 0.244339 0.244339 0.244339 0.244339 0.244339 0.244339 0.244339 0.244339 0.244339 0.244339 0.244339 0.244339 0.244339 0.244339 0.244339 0.244339 0.244339 0.244339 0.244339 0.244339 0.244339 0.256074 0.256074 0.256074 0.256074 0.256074 0.256074 0.256074 0.256074 0.256074 0.256074 0.256074 0.256074 0.256074 0.256074 0.256074 0.256074 0.256074 0.256074 0.256074 0.264906 0.264906 0.264906 0.264906 0.264906 0.264906 0.264906 0.264906 0.264906 0.264906 0.264906 0.264906 0.264906 0.264906 0.264906 0.264906 0.264906 0.264906 0.264906 0.264906 0.264906 0.264906 0.264906 0.264906 0.264906 0.264906 0.264906 0.264906 0.264906 0.264906 0.264906 0.264906 0.264906 0.269680 0.269680 0.269680 0.269680 0.269680 0.269680 0.269680 0.269680 0.269680 0.269680 0.269680 0.269680 0.269680 0.269680 0.264906 0.264906 0.264906 0.264906 0.264906 0.264906 0.264906 0.264906 0.264906 0.264906 0.264906 0.264906 0.264906 0.264906 0.264906 0.264906 0.264906 0.264906 0.264906 0.264906 0.264906 0.264906 0.264906 0.264906 0.264906 0.264906 0.264906 0.269680 0.269680 0.269680 0.269680 0.269680 0.269680 0.269680 0.269680 0.269680 0.269680 0.269680 0.269680 0.274721 0.274721 0.274721 0.274721 0.274721 0.274721 0.274721 0.274721 0.274721 0.274721 0.274721 0.260378 0.260378 0.260378 0.260378 0.260378 0.260378 0.260378 0.260378 0.260378 0.260378 0.260378 0.260378 0.274721 0.274721 0.274721 0.274721 0.274721 0.274721 0.274721 0.274721 0.274721 0.274721 0.256074 0.256074 0.256074 0.256074 0.256074 0.256074 0.256074 0.256074 0.256074 0.256074 0.256074 0.274721 0.274721 0.274721 0.274721 0.274721 0.274721 0.274721 0.274721 0.274721 0.260378 0.260378 0.260378 0.260378 0.260378 0.260378 0.260378 0.260378 0.260378 0.260378 0.264906 0.264906 0.264906 0.264906 0.264906 0.264906 0.264906 0.264906 0.264906 0.260378 0.260378 0.260378 0.260378 0.260378 0.260378 0.260378 0.260378 0.260378 0.256074 0.256074 0.256074 0.256074 0.256074 0.256074 0.256074 0.256074 0.256074 0.251976 0.251976 0.251976 0.251976 0.251976 0.251976 0.251976 0.251976 0.251976 0.264906 0.264906 0.264906 0.264906 0.264906 0.264906 0.264906 0.264906 0.264906 0.264906 0.264906 0.264906 0.264906 0.264906 0.264906
