# Output from CTFFind version 4.1.9, run on 2019-11-03 18:51:21
# Input file: stack17_ub_averaged_250.mrc ; Number of micrographs: 1
# Pixel size: 3.000 Angstroms ; acceleration voltage: 300.0 keV ; spherical aberration: 0.00 mm ; amplitude contrast: 0.07
# Box size: 512 pixels ; min. res.: 30.0 Angstroms ; max. res.: 5.0 Angstroms ; min. def.: 5000.0 um; max. def. 50000.0 um; num. frames averaged: 1
# 6 lines per micrograph: #1 - spatial frequency (1/Angstroms); #2 - 1D rotational average of spectrum (assuming no astigmatism); #3 - 1D rotational average of spectrum; #4 - CTF fit; #5 - cross-correlation between spectrum and CTF fit; #6 - 2sigma of expected cross correlation of noise
0.000000 0.000651 0.001302 0.001953 0.002604 0.003255 0.003906 0.004557 0.005208 0.005859 0.006510 0.007161 0.007812 0.008464 0.009115 0.009766 0.010417 0.011068 0.011719 0.012370 0.013021 0.013672 0.014323 0.014974 0.015625 0.016276 0.016927 0.017578 0.018229 0.018880 0.019531 0.020182 0.020833 0.021484 0.022135 0.022786 0.023438 0.024089 0.024740 0.025391 0.026042 0.026693 0.027344 0.027995 0.028646 0.029297 0.029948 0.030599 0.031250 0.031901 0.032552 0.033203 0.033854 0.034505 0.035156 0.035807 0.036458 0.037109 0.037760 0.038411 0.039062 0.039714 0.040365 0.041016 0.041667 0.042318 0.042969 0.043620 0.044271 0.044922 0.045573 0.046224 0.046875 0.047526 0.048177 0.048828 0.049479 0.050130 0.050781 0.051432 0.052083 0.052734 0.053385 0.054036 0.054688 0.055339 0.055990 0.056641 0.057292 0.057943 0.058594 0.059245 0.059896 0.060547 0.061198 0.061849 0.062500 0.063151 0.063802 0.064453 0.065104 0.065755 0.066406 0.067057 0.067708 0.068359 0.069010 0.069661 0.070312 0.070964 0.071615 0.072266 0.072917 0.073568 0.074219 0.074870 0.075521 0.076172 0.076823 0.077474 0.078125 0.078776 0.079427 0.080078 0.080729 0.081380 0.082031 0.082682 0.083333 0.083984 0.084635 0.085286 0.085938 0.086589 0.087240 0.087891 0.088542 0.089193 0.089844 0.090495 0.091146 0.091797 0.092448 0.093099 0.093750 0.094401 0.095052 0.095703 0.096354 0.097005 0.097656 0.098307 0.098958 0.099609 0.100260 0.100911 0.101562 0.102214 0.102865 0.103516 0.104167 0.104818 0.105469 0.106120 0.106771 0.107422 0.108073 0.108724 0.109375 0.110026 0.110677 0.111328 0.111979 0.112630 0.113281 0.113932 0.114583 0.115234 0.115885 0.116536 0.117188 0.117839 0.118490 0.119141 0.119792 0.120443 0.121094 0.121745 0.122396 0.123047 0.123698 0.124349 0.125000 0.125651 0.126302 0.126953 0.127604 0.128255 0.128906 0.129557 0.130208 0.130859 0.131510 0.132161 0.132812 0.133464 0.134115 0.134766 0.135417 0.136068 0.136719 0.137370 0.138021 0.138672 0.139323 0.139974 0.140625 0.141276 0.141927 0.142578 0.143229 0.143880 0.144531 0.145182 0.145833 0.146484 0.147135 0.147786 0.148438 0.149089 0.149740 0.150391 0.151042 0.151693 0.152344 0.152995 0.153646 0.154297 0.154948 0.155599 0.156250 0.156901 0.157552 0.158203 0.158854 0.159505 0.160156 0.160807 0.161458 0.162109 0.162760 0.163411 0.164062 0.164714 0.165365 0.166016 0.166667 0.167318 0.167969 0.168620 0.169271 0.169922 0.170573 0.171224 0.171875 0.172526 0.173177 0.173828 0.174479 0.175130 0.175781 0.176432 0.177083 0.177734 0.178385 0.179036 0.179688 0.180339 0.180990 0.181641 0.182292 0.182943 0.183594 0.184245 0.184896 0.185547 0.186198 0.186849 0.187500 0.188151 0.188802 0.189453 0.190104 0.190755 0.191406 0.192057 0.192708 0.193359 0.194010 0.194661 0.195312 0.195964 0.196615 0.197266 0.197917 0.198568 0.199219 0.199870 0.200521 0.201172 0.201823 0.202474 0.203125 0.203776 0.204427 0.205078 0.205729 0.206380 0.207031 0.207682 0.208333 0.208984 0.209635 0.210286 0.210938 0.211589 0.212240 0.212891 0.213542 0.214193 0.214844 0.215495 0.216146 0.216797 0.217448 0.218099 0.218750 0.219401 0.220052 0.220703 0.221354 0.222005 0.222656 0.223307 0.223958 0.224609 0.225260 0.225911 0.226562 0.227214 0.227865 0.228516 0.229167 0.229818 0.230469 0.231120 0.231771 0.232422 0.233073 0.233724 0.234375 0.235026 0.235677
       0.33432        0.33610        0.33759        0.33812        0.33834        0.33853        0.33860        0.33869        0.33874        0.33878        0.33882        0.33884        0.33887        0.33889        0.33890        0.33892        0.33893        0.33895        0.33895        0.33896        0.33897        0.33898        0.33898        0.33899        0.33900        0.33900        0.33901        0.33901        0.33901        0.33902        0.33902        0.33902        0.33903        0.33903        0.33903        0.33903        0.33904        0.33904        0.33904        0.33904        0.33905        0.33905        0.33905        0.33905        0.33905        0.33905        0.33906        0.33906        0.33906        0.33906        0.33906        0.57507        1.06183        0.81540        0.25300        0.10483       -0.01042       -0.14426        0.09482        0.15362        0.33828        0.27662        0.28592        0.16571        0.23937        0.11968        0.07587        0.01595        0.04019       -0.01463       -0.02343        0.01803       -0.09110       -0.16387       -0.12907       -0.12664       -0.21344       -0.24744       -0.31490       -0.26306       -0.30039       -0.42455       -0.43578       -0.30991       -0.34085       -0.30082       -0.20931       -0.19267       -0.19759       -0.15678       -0.07738       -0.02892        0.00967        0.16497        0.28866        0.40352        0.46551        0.46488        0.47324        0.58382        0.57896        0.63074        0.67444        0.66313        0.69761        0.66824        0.65014        0.68766        0.66234        0.59162        0.63722        0.47778        0.38912        0.31948        0.30680        0.18333        0.11004        0.04464        0.06236        0.00921       -0.02457       -0.01143        0.04912        0.05763        0.02678        0.14712        0.24249        0.37944        0.47133        0.49835        0.60952        0.65652        0.65104        0.64020        0.73041        0.65824        0.61199        0.63926        0.63608        0.55735        0.52268        0.40146        0.27140        0.21228        0.13977        0.17073        0.13834        0.09572        0.08839        0.11091        0.10162        0.16902        0.22960        0.31688        0.38520        0.41278        0.49250        0.52650        0.49452        0.44136        0.50055        0.51733        0.51278        0.43927        0.39601        0.33523        0.27564        0.24486        0.25415        0.22511        0.17376        0.23678        0.27336        0.27062        0.32110        0.35265        0.41139        0.46069        0.52887        0.47804        0.49411        0.51701        0.46506        0.42760        0.41610        0.37208        0.36482        0.29469        0.21117        0.23225        0.23088        0.21389        0.28247        0.26183        0.30912        0.30706        0.37371        0.40731        0.42744        0.44865        0.42872        0.42174        0.41770        0.40765        0.31321        0.32937        0.32382        0.29452        0.25169        0.25857        0.28336        0.29361        0.35861        0.34049        0.35406        0.40390        0.41011        0.39576        0.39709        0.40286        0.39979        0.37629        0.33381        0.28687        0.29574        0.28255        0.30041        0.29806        0.26006        0.28333        0.32872        0.39992        0.37915        0.40263        0.39298        0.39058        0.36029        0.31277        0.33411        0.31395        0.29030        0.29636        0.29259        0.32363        0.32783        0.34314        0.31461        0.33026        0.36882        0.35329        0.33858        0.33608        0.31992        0.27014        0.27532        0.23560        0.25677        0.26580        0.28281        0.31904        0.34041        0.32804        0.33865        0.32321        0.29602        0.31008        0.31990        0.31915        0.27030        0.28189        0.31309        0.30315        0.31627        0.31369        0.33813        0.32379        0.35578        0.33118        0.30156        0.28003        0.33683        0.30325        0.31054        0.32328        0.27399        0.32203        0.34183        0.33562        0.29945        0.34334        0.36864        0.33897        0.31905        0.30099        0.32420        0.32240        0.28636        0.27687        0.32193        0.31323        0.35450        0.34851        0.32597        0.35989        0.26949        0.27187        0.30867        0.23055        0.27560        0.26071        0.27097        0.28685        0.33078        0.30406        0.25985        0.29091        0.30523        0.27454        0.27378        0.26396        0.29374        0.30492        0.26879        0.24754        0.27470        0.27828        0.33364        0.30659        0.31715        0.29191        0.24716        0.25006        0.24492        0.31312        0.27930        0.36151        0.37447        0.26178        0.26133        0.26081        0.25436        0.28553        0.26805        0.24401        0.21940        0.36274        0.36436        0.32798        0.21790        0.19697        0.26384        0.26410        0.11733        0.13373        0.18511        0.23812        0.22830        0.23641        0.00929        0.00676       -0.23453       -0.55294       -0.75371
2.271725 2.255178 2.236520 2.217402 2.198650 2.179046 2.159934 2.140631 2.121528 2.102569 2.083456 2.064622 2.045753 2.027086 2.008421 1.989833 1.971430 1.953039 1.934740 1.916540 1.898414 1.880441 1.862502 1.844664 1.826912 1.809278 1.791705 1.774223 1.756858 1.739552 1.722370 1.705251 1.688227 1.671310 1.654481 1.637733 1.621079 1.604512 1.588049 1.571661 1.555382 1.539176 1.523074 1.507061 1.491130 1.475304 1.459557 1.443913 1.428353 1.412882 1.397511 1.659299 2.241266 2.299571 0.988800 1.166947 0.919867 0.528737 0.988211 0.852207 1.188518 1.109886 1.214610 0.945442 0.972508 0.927399 0.874282 0.693857 0.665329 0.659094 0.637737 0.679688 0.569786 0.332442 0.419777 0.354465 0.314978 0.223973 0.129864 0.076173 0.199083 -0.046505 -0.215748 0.085717 0.019874 0.008460 0.131698 0.125755 0.156019 0.131030 0.288669 0.356815 0.329548 0.497765 0.717132 0.868002 0.918488 0.955917 0.985043 1.016710 1.101063 1.108686 1.147070 1.207223 1.117714 1.209557 1.020745 1.213055 1.143781 0.991073 1.044017 0.840201 0.729818 0.663606 0.583500 0.389011 0.253806 0.222770 0.192894 0.169719 -0.018424 0.043625 0.126230 0.136944 0.126844 0.103913 0.367649 0.399062 0.694711 0.707803 0.719575 0.863246 0.916854 0.850977 0.947270 0.874851 0.808089 0.765924 0.838704 0.751153 0.609349 0.589177 0.313777 0.240510 0.067040 0.150601 0.084365 0.031650 0.002444 -0.023821 -0.018691 0.046326 0.143187 0.216543 0.311709 0.362696 0.482868 0.561663 0.509355 0.391008 0.455426 0.504114 0.511706 0.406805 0.350176 0.240069 0.185059 0.140265 0.020631 0.129446 0.006281 0.052701 0.033232 0.128347 0.116365 0.214916 0.247222 0.246382 0.452714 0.365872 0.388487 0.386932 0.385434 0.288929 0.296314 0.255327 0.171445 0.143050 0.024573 -0.037081 0.017505 -0.043964 -0.004358 0.045466 0.035139 0.120121 0.094239 0.219563 0.200251 0.268249 0.279397 0.227679 0.215209 0.245492 0.123496 0.075473 0.103650 0.115046 -0.005013 -0.002590 0.000390 0.036994 0.066206 0.124422 0.118689 0.142778 0.228909 0.181417 0.216844 0.179254 0.218601 0.202159 0.178594 0.065800 0.072447 0.048417 0.010369 0.114407 0.027421 0.016165 0.051328 0.164896 0.182073 0.169554 0.215479 0.182887 0.181888 0.105103 0.110504 0.083119 0.049469 0.076069 0.021944 0.050320 0.081129 0.128995 0.075171 0.082394 0.114268 0.136042 0.135382 0.093253 0.097652 0.082168 -0.022323 0.034125 -0.055494 -0.000612 0.031588 0.015696 0.089177 0.105528 0.066055 0.112656 0.019007 0.032652 0.038660 0.061764 0.027268 -0.022804 0.009022 0.051841 0.021505 0.084512 0.026273 0.097926 0.035227 0.110604 0.081494 0.015963 -0.028706 0.131806 -0.001864 0.060188 0.032865 -0.010088 0.082113 0.068188 0.078433 0.043550 0.086487 0.092886 0.032567 0.068048 -0.024495 0.034236 0.016907 0.010461 -0.038112 0.076602 -0.014231 0.131884 0.109838 0.047703 0.152585 -0.031827 -0.015940 0.063317 -0.061587 0.002686 -0.031056 0.014353 0.019191 0.110249 0.046803 -0.053470 0.060269 0.025334 -0.015584 -0.001237 0.030930 -0.011850 0.091485 -0.026141 -0.003215 0.013475 0.007073 0.155611 0.022701 0.129370 0.036733 -0.022215 0.031580 0.016220 0.103807 0.036653 0.232507 0.150490 0.045183 0.050382 0.112925 0.015365 0.098474 0.098540 0.111139 0.040024 0.255919 0.259954 0.457831 0.295973 0.243073 0.390081 0.356353 0.141421 0.177057 0.234406 0.392714 0.263631 0.145135 -0.103356 0.099662 -0.318443 -1.038349
0.072396 0.072824 0.074107 0.076245 0.079237 0.083084 0.087784 0.093335 0.099737 0.106988 0.115085 0.124025 0.133806 0.144422 0.155868 0.168139 0.181228 0.195126 0.209823 0.225309 0.241570 0.258593 0.276359 0.294852 0.314049 0.333927 0.354459 0.375617 0.397368 0.419677 0.442504 0.465807 0.489540 0.513651 0.538086 0.562786 0.587688 0.612723 0.637818 0.662896 0.687875 0.712665 0.737176 0.761310 0.784964 0.808030 0.830399 0.851952 0.872570 0.892128 0.910498 0.927548 0.943143 0.957148 0.969424 0.979831 0.988229 0.994479 0.998443 0.999984 0.998970 0.995273 0.988769 0.979342 0.966884 0.951294 0.932485 0.910380 0.884915 0.856043 0.823731 0.787966 0.748752 0.706118 0.660110 0.610802 0.558289 0.502695 0.444171 0.382892 0.319066 0.252928 0.184742 0.114802 0.043430 0.029021 0.102173 0.175620 0.248932 0.321655 0.393315 0.463418 0.531458 0.596916 0.659264 0.717972 0.772512 0.822361 0.867008 0.905960 0.938747 0.964927 0.984097 0.995892 0.999998 0.996156 0.984166 0.963897 0.935290 0.898361 0.853213 0.800032 0.739093 0.670766 0.595510 0.513881 0.426526 0.334180 0.237668 0.137895 0.035843 0.067442 0.170852 0.273233 0.373398 0.470134 0.562225 0.648463 0.727664 0.798690 0.860462 0.911985 0.952357 0.980797 0.996657 0.999437 0.988807 0.964612 0.926892 0.875884 0.812033 0.735992 0.648626 0.551004 0.444394 0.330253 0.210208 0.086040 0.040342 0.166925 0.291624 0.412318 0.526880 0.633226 0.729341 0.813334 0.883471 0.938216 0.976271 0.996611 0.998518 0.981607 0.945849 0.891587 0.819545 0.730830 0.626925 0.509675 0.381256 0.244153 0.101106 0.044930 0.190849 0.333456 0.469535 0.595927 0.709601 0.807736 0.887794 0.947593 0.985375 0.999865 0.990324 0.956587 0.899090 0.818879 0.717611 0.597532 0.461438 0.312623 0.154809 0.007943 0.171328 0.330912 0.482247 0.621008 0.743100 0.844813 0.922919 0.974802 0.998549 0.993036 0.957988 0.894017 0.802639 0.686251 0.548092 0.392164 0.223133 0.046197 0.133063 0.308856 0.475363 0.626941 0.758313 0.864765 0.942322 0.987915 0.999522 0.976267 0.918491 0.827782 0.706951 0.559976 0.391884 0.208599 0.016748 0.176572 0.364049 0.538434 0.692826 0.820956 0.917450 0.978078 0.999955 0.981702 0.923550 0.827370 0.696654 0.536412 0.353004 0.153907 0.052570 0.257629 0.452349 0.628082 0.776840 0.891677 0.967030 0.999015 0.985653 0.927012 0.825267 0.684650 0.511319 0.313098 0.099168 0.120357 0.334890 0.533880 0.707344 0.846377 0.943624 0.993706 0.993540 0.942565 0.842836 0.698983 0.518042 0.309141 0.083065 0.148277 0.372472 0.577263 0.751235 0.884466 0.969116 0.999928 0.974582 0.893913 0.761933 0.585689 0.374919 0.141557 0.100931 0.338286 0.556319 0.741738 0.883002 0.971064 0.999975 0.967342 0.874561 0.726816 0.532848 0.304482 0.055936 0.197021 0.438079 0.651425 0.822800 0.940478 0.996114 0.985374 0.908327 0.769542 0.577871 0.345957 0.089418 0.174146 0.426367 0.649375 0.827091 0.946405 0.998200 0.978091 0.886862 0.730511 0.519937 0.270220 0.000388 0.271793 0.523524 0.736285 0.893465 0.982475 0.995802 0.931720 0.794541 0.594401 0.346592 0.070433 0.212185 0.478521 0.706814 0.878093 0.977779 0.997007 0.933468 0.791743 0.583065 0.324495 0.037587 0.253348 0.523309 0.748755 0.909670 0.991414 0.986107 0.893478 0.721035 0.483542 0.201848 0.098905 0.391477 0.648996 0.847443 0.967938 0.998612 0.935843 0.784772 0.558983 0.279359
1.000000 1.000000 1.000000 1.000000 1.000000 1.000000 1.000000 1.000000 1.000000 1.000000 1.000000 1.000000 1.000000 1.000000 1.000000 1.000000 1.000000 1.000000 1.000000 1.000000 1.000000 1.000000 1.000000 1.000000 1.000000 1.000000 1.000000 1.000000 1.000000 1.000000 1.000000 1.000000 1.000000 1.000000 1.000000 1.000000 1.000000 1.000000 1.000000 1.000000 1.000000 1.000000 1.000000 1.000000 1.000000 1.000000 1.000000 1.000000 1.000000 1.000000 1.000000 1.000000 0.809848 0.809848 0.809848 0.809848 0.809848 0.809848 0.809848 0.809848 0.785600 0.785600 0.785600 0.785600 0.785600 0.785600 0.785600 0.785600 0.785600 0.785600 0.785600 0.785600 0.785600 0.785600 0.785600 0.785600 0.785600 0.785600 0.785600 0.785600 0.785600 0.785600 0.785600 0.785600 0.785600 0.785600 0.785600 0.785600 0.785600 0.785600 0.785600 0.785600 0.785600 0.785600 0.785600 0.785600 0.785600 0.785600 0.785600 0.785600 0.785600 0.785600 0.785600 0.785600 0.785600 0.956216 0.955227 0.956182 0.957804 0.959106 0.959321 0.959601 0.959855 0.959824 0.962143 0.962369 0.962806 0.963341 0.964368 0.964823 0.969082 0.970568 0.972512 0.974275 0.976918 0.977030 0.979079 0.978191 0.973623 0.972516 0.973188 0.970606 0.971835 0.971238 0.969869 0.970805 0.971391 0.970278 0.968366 0.967804 0.967198 0.966896 0.966028 0.967572 0.967470 0.967693 0.968032 0.968142 0.968304 0.968486 0.968600 0.968695 0.968859 0.967857 0.966521 0.967610 0.967496 0.964263 0.961593 0.959231 0.966501 0.965207 0.964702 0.964531 0.964607 0.965021 0.965333 0.963070 0.960504 0.960136 0.950576 0.938423 0.936503 0.935893 0.934973 0.937821 0.939694 0.939899 0.938373 0.939395 0.935852 0.931897 0.929281 0.922511 0.923095 0.924450 0.926242 0.925734 0.925839 0.924728 0.922625 0.917534 0.918097 0.918556 0.921012 0.909231 0.906472 0.893251 0.880980 0.881991 0.883874 0.879294 0.884611 0.881624 0.886857 0.886788 0.888084 0.880086 0.878091 0.877875 0.878085 0.873631 0.876564 0.876219 0.874219 0.872508 0.860942 0.846557 0.846999 0.848861 0.850428 0.849776 0.845061 0.842906 0.842929 0.836438 0.837459 0.837066 0.839242 0.839441 0.839487 0.840676 0.814621 0.798947 0.791204 0.793788 0.794332 0.794106 0.796197 0.793344 0.783050 0.752908 0.749544 0.739547 0.734165 0.739342 0.728589 0.729333 0.723645 0.698091 0.665697 0.640620 0.643431 0.625480 0.620267 0.623489 0.610952 0.590988 0.606293 0.584804 0.594003 0.607887 0.598843 0.593199 0.589758 0.582148 0.574442 0.565532 0.555896 0.538259 0.550513 0.559546 0.548387 0.550412 0.509895 0.496882 0.484781 0.511979 0.500774 0.475808 0.495010 0.495145 0.499629 0.497050 0.493925 0.477718 0.484740 0.440329 0.447530 0.450091 0.416600 0.403430 0.384748 0.368166 0.343827 0.351014 0.326145 0.332563 0.342247 0.371415 0.377577 0.380018 0.367635 0.373820 0.356091 0.382210 0.390281 0.364525 0.360091 0.344120 0.349915 0.360506 0.381986 0.397137 0.373910 0.400173 0.401635 0.427071 0.439638 0.431792 0.435458 0.414012 0.381895 0.406846 0.411522 0.409161 0.396357 0.374702 0.345098 0.332431 0.323379 0.357238 0.355479 0.355479 0.355479 0.355479 0.355479 0.361643 0.361643 0.361643 0.361643 0.361643 0.361643 0.361643 0.361643 0.361643 0.361643 0.361643 0.366075 0.366075 0.366075 0.366075 0.366075 0.366075 0.366075 0.366075 0.366075 0.366075 0.366075 0.366075 0.366075 0.366075 0.366075
0.000000 0.000000 0.000000 0.000000 0.000000 0.000000 0.000000 0.000000 0.000000 0.000000 0.000000 0.000000 0.000000 0.000000 0.000000 0.000000 0.000000 0.000000 0.000000 0.000000 0.000000 9401.000000 0.000000 0.000000 0.000000 0.000000 0.000000 0.000000 0.000000 0.000000 0.000000 0.000000 0.000000 0.000000 0.000000 0.000000 0.000000 0.000000 0.000000 0.000000 0.000000 0.000000 0.000000 0.000000 0.000000 0.000000 0.000000 0.000000 0.000000 0.000000 0.000000 0.000000 0.172133 0.172133 0.172133 0.172133 0.172133 0.172133 0.172133 0.172133 0.189832 0.189832 0.189832 0.189832 0.189832 0.189832 0.189832 0.189832 0.189832 0.189832 0.189832 0.189832 0.189832 0.189832 0.189832 0.189832 0.189832 0.189832 0.189832 0.189832 0.189832 0.189832 0.189832 0.189832 0.189832 0.189832 0.189832 0.189832 0.189832 0.189832 0.189832 0.189832 0.189832 0.189832 0.189832 0.189832 0.189832 0.189832 0.189832 0.189832 0.189832 0.189832 0.189832 0.189832 0.189832 0.222222 0.222222 0.222222 0.222222 0.222222 0.222222 0.222222 0.222222 0.222222 0.222222 0.222222 0.222222 0.222222 0.222222 0.222222 0.222222 0.222222 0.222222 0.222222 0.222222 0.222222 0.222222 0.222222 0.222222 0.222222 0.222222 0.222222 0.222222 0.222222 0.222222 0.234082 0.234082 0.234082 0.234082 0.234082 0.234082 0.234082 0.234082 0.234082 0.234082 0.234082 0.234082 0.234082 0.234082 0.234082 0.234082 0.234082 0.234082 0.234082 0.234082 0.234082 0.234082 0.234082 0.234082 0.234082 0.240772 0.240772 0.240772 0.240772 0.240772 0.240772 0.240772 0.240772 0.240772 0.240772 0.240772 0.240772 0.240772 0.240772 0.240772 0.240772 0.240772 0.240772 0.240772 0.240772 0.240772 0.240772 0.248069 0.248069 0.248069 0.248069 0.248069 0.248069 0.248069 0.248069 0.248069 0.248069 0.248069 0.248069 0.248069 0.248069 0.248069 0.248069 0.248069 0.248069 0.248069 0.256074 0.256074 0.256074 0.256074 0.256074 0.256074 0.256074 0.256074 0.256074 0.256074 0.256074 0.256074 0.256074 0.256074 0.256074 0.256074 0.256074 0.248069 0.248069 0.248069 0.248069 0.248069 0.248069 0.248069 0.248069 0.248069 0.248069 0.248069 0.248069 0.248069 0.248069 0.248069 0.248069 0.248069 0.256074 0.256074 0.256074 0.256074 0.256074 0.256074 0.256074 0.256074 0.256074 0.256074 0.256074 0.256074 0.256074 0.256074 0.256074 0.256074 0.256074 0.256074 0.256074 0.256074 0.256074 0.256074 0.256074 0.256074 0.256074 0.256074 0.256074 0.256074 0.256074 0.251976 0.251976 0.251976 0.251976 0.251976 0.251976 0.251976 0.251976 0.251976 0.251976 0.251976 0.251976 0.251976 0.251976 0.264906 0.264906 0.264906 0.264906 0.264906 0.264906 0.264906 0.264906 0.264906 0.264906 0.264906 0.264906 0.248069 0.248069 0.248069 0.248069 0.248069 0.248069 0.248069 0.248069 0.248069 0.248069 0.248069 0.248069 0.248069 0.251976 0.251976 0.251976 0.251976 0.251976 0.251976 0.251976 0.251976 0.251976 0.251976 0.251976 0.251976 0.256074 0.256074 0.256074 0.256074 0.256074 0.256074 0.256074 0.256074 0.256074 0.256074 0.256074 0.251976 0.251976 0.251976 0.251976 0.251976 0.251976 0.251976 0.251976 0.251976 0.251976 0.251976 0.248069 0.248069 0.248069 0.248069 0.248069 0.248069 0.248069 0.248069 0.248069 0.248069 0.248069 0.256074 0.256074 0.256074 0.256074 0.256074 0.256074 0.256074 0.256074 0.256074 0.256074 0.256074 0.256074 0.256074 0.256074 0.256074
