# Output from CTFFind version 4.1.9, run on 2019-11-03 18:52:15
# Input file: stack3_ub_averaged_3000.mrc ; Number of micrographs: 1
# Pixel size: 3.000 Angstroms ; acceleration voltage: 300.0 keV ; spherical aberration: 0.00 mm ; amplitude contrast: 0.07
# Box size: 512 pixels ; min. res.: 30.0 Angstroms ; max. res.: 5.0 Angstroms ; min. def.: 5000.0 um; max. def. 50000.0 um; num. frames averaged: 1
# 6 lines per micrograph: #1 - spatial frequency (1/Angstroms); #2 - 1D rotational average of spectrum (assuming no astigmatism); #3 - 1D rotational average of spectrum; #4 - CTF fit; #5 - cross-correlation between spectrum and CTF fit; #6 - 2sigma of expected cross correlation of noise
0.000000 0.000651 0.001302 0.001953 0.002604 0.003255 0.003906 0.004557 0.005208 0.005859 0.006510 0.007161 0.007812 0.008464 0.009115 0.009766 0.010417 0.011068 0.011719 0.012370 0.013021 0.013672 0.014323 0.014974 0.015625 0.016276 0.016927 0.017578 0.018229 0.018880 0.019531 0.020182 0.020833 0.021484 0.022135 0.022786 0.023438 0.024089 0.024740 0.025391 0.026042 0.026693 0.027344 0.027995 0.028646 0.029297 0.029948 0.030599 0.031250 0.031901 0.032552 0.033203 0.033854 0.034505 0.035156 0.035807 0.036458 0.037109 0.037760 0.038411 0.039062 0.039714 0.040365 0.041016 0.041667 0.042318 0.042969 0.043620 0.044271 0.044922 0.045573 0.046224 0.046875 0.047526 0.048177 0.048828 0.049479 0.050130 0.050781 0.051432 0.052083 0.052734 0.053385 0.054036 0.054688 0.055339 0.055990 0.056641 0.057292 0.057943 0.058594 0.059245 0.059896 0.060547 0.061198 0.061849 0.062500 0.063151 0.063802 0.064453 0.065104 0.065755 0.066406 0.067057 0.067708 0.068359 0.069010 0.069661 0.070312 0.070964 0.071615 0.072266 0.072917 0.073568 0.074219 0.074870 0.075521 0.076172 0.076823 0.077474 0.078125 0.078776 0.079427 0.080078 0.080729 0.081380 0.082031 0.082682 0.083333 0.083984 0.084635 0.085286 0.085938 0.086589 0.087240 0.087891 0.088542 0.089193 0.089844 0.090495 0.091146 0.091797 0.092448 0.093099 0.093750 0.094401 0.095052 0.095703 0.096354 0.097005 0.097656 0.098307 0.098958 0.099609 0.100260 0.100911 0.101562 0.102214 0.102865 0.103516 0.104167 0.104818 0.105469 0.106120 0.106771 0.107422 0.108073 0.108724 0.109375 0.110026 0.110677 0.111328 0.111979 0.112630 0.113281 0.113932 0.114583 0.115234 0.115885 0.116536 0.117188 0.117839 0.118490 0.119141 0.119792 0.120443 0.121094 0.121745 0.122396 0.123047 0.123698 0.124349 0.125000 0.125651 0.126302 0.126953 0.127604 0.128255 0.128906 0.129557 0.130208 0.130859 0.131510 0.132161 0.132812 0.133464 0.134115 0.134766 0.135417 0.136068 0.136719 0.137370 0.138021 0.138672 0.139323 0.139974 0.140625 0.141276 0.141927 0.142578 0.143229 0.143880 0.144531 0.145182 0.145833 0.146484 0.147135 0.147786 0.148438 0.149089 0.149740 0.150391 0.151042 0.151693 0.152344 0.152995 0.153646 0.154297 0.154948 0.155599 0.156250 0.156901 0.157552 0.158203 0.158854 0.159505 0.160156 0.160807 0.161458 0.162109 0.162760 0.163411 0.164062 0.164714 0.165365 0.166016 0.166667 0.167318 0.167969 0.168620 0.169271 0.169922 0.170573 0.171224 0.171875 0.172526 0.173177 0.173828 0.174479 0.175130 0.175781 0.176432 0.177083 0.177734 0.178385 0.179036 0.179688 0.180339 0.180990 0.181641 0.182292 0.182943 0.183594 0.184245 0.184896 0.185547 0.186198 0.186849 0.187500 0.188151 0.188802 0.189453 0.190104 0.190755 0.191406 0.192057 0.192708 0.193359 0.194010 0.194661 0.195312 0.195964 0.196615 0.197266 0.197917 0.198568 0.199219 0.199870 0.200521 0.201172 0.201823 0.202474 0.203125 0.203776 0.204427 0.205078 0.205729 0.206380 0.207031 0.207682 0.208333 0.208984 0.209635 0.210286 0.210938 0.211589 0.212240 0.212891 0.213542 0.214193 0.214844 0.215495 0.216146 0.216797 0.217448 0.218099 0.218750 0.219401 0.220052 0.220703 0.221354 0.222005 0.222656 0.223307 0.223958 0.224609 0.225260 0.225911 0.226562 0.227214 0.227865 0.228516 0.229167 0.229818 0.230469 0.231120 0.231771 0.232422 0.233073 0.233724 0.234375 0.235026 0.235677
       0.33424        0.33424        0.33424        0.33424        0.33424        0.33424        0.33424        0.33424        0.33424        0.33424        0.33424        0.33424        0.33424        0.33424        0.33424        0.33424        0.33424        0.33424        0.33424        0.33424        0.33424        0.33424        0.33424        0.33424        0.33424        0.33424        0.33424        0.33424        0.33424        0.33424        0.33424        0.33424        0.33424        0.33424        0.33424        0.33424        0.33424        0.33424        0.33424        0.33424        0.33424        0.33424        0.33424        0.33424        0.33424        0.33424        0.33424        0.33424        0.33424        0.33424        0.33424        0.45193        0.75923        0.36432        0.09141       -0.16752       -0.20460       -0.37192       -0.44050       -0.45025       -0.38170       -0.43158       -0.40513       -0.41473       -0.59080       -0.59613       -0.62408       -0.75949       -0.74932       -0.64393       -0.67950       -0.67634       -0.69483       -0.61942       -0.60643       -0.55022       -0.34728       -0.34565       -0.30497       -0.12571        0.01886        0.04848        0.20587        0.21581        0.39026        0.50312        0.59024        0.54162        0.60142        0.57982        0.50518        0.62043        0.60711        0.57292        0.54675        0.48011        0.38663        0.30284        0.17114        0.06593        0.00325       -0.05175       -0.04331       -0.02847        0.00140        0.00475        0.11522        0.16110        0.26738        0.34043        0.41959        0.53990        0.57064        0.64450        0.77600        0.76302        0.78925        0.75845        0.56970        0.49726        0.34645        0.35253        0.21907        0.13481        0.13405        0.07966        0.01428        0.04178        0.08735        0.18676        0.31858        0.34023        0.48579        0.54980        0.61818        0.55059        0.57733        0.57101        0.51505        0.49250        0.48804        0.36720        0.22563        0.16369        0.15310        0.16458        0.10534        0.12635        0.14985        0.21671        0.33400        0.36230        0.41284        0.50284        0.62430        0.51540        0.53298        0.46837        0.39951        0.30138        0.26930        0.23271        0.22913        0.16002        0.18855        0.20648        0.26720        0.38614        0.44793        0.45373        0.49784        0.50670        0.50239        0.46734        0.42630        0.38809        0.27523        0.23772        0.22174        0.21980        0.26103        0.30918        0.36982        0.40545        0.41568        0.42981        0.43169        0.44314        0.40826        0.36784        0.27790        0.31100        0.30488        0.31472        0.26248        0.30930        0.31349        0.40777        0.43389        0.39312        0.39412        0.36063        0.36113        0.34744        0.29888        0.23956        0.26204        0.24047        0.24557        0.31516        0.37191        0.37049        0.38539        0.37230        0.40074        0.38111        0.34805        0.27767        0.30089        0.31824        0.29312        0.32999        0.36835        0.34550        0.38161        0.34547        0.34482        0.32185        0.34198        0.32526        0.35137        0.31577        0.29158        0.32588        0.36029        0.34149        0.32170        0.31090        0.32734        0.31505        0.32198        0.32365        0.32552        0.31670        0.30629        0.33937        0.31582        0.32956        0.31979        0.34330        0.31948        0.29680        0.29435        0.30028        0.30487        0.28835        0.30586        0.35925        0.34063        0.33022        0.27937        0.31230        0.33170        0.32949        0.29634        0.27960        0.27937        0.31923        0.30776        0.31281        0.31096        0.30512        0.28500        0.28553        0.28868        0.28856        0.31135        0.33466        0.31201        0.34261        0.28437        0.26399        0.31244        0.33559        0.31928        0.29693        0.27122        0.29583        0.35090        0.37113        0.35050        0.29354        0.30015        0.35566        0.29778        0.32833        0.31864        0.31169        0.32495        0.31981        0.33322        0.32785        0.28559        0.29333        0.29025        0.28970        0.36296        0.34573        0.31453        0.31121        0.28673        0.27013        0.27503        0.29162        0.29608        0.24380        0.28389        0.28400        0.29198        0.25459        0.22721        0.25079        0.28445        0.33536        0.34725        0.33950        0.34289        0.28850        0.30337        0.28203        0.21487        0.18736        0.26751        0.27277        0.30366        0.36452        0.24255        0.27634        0.19744        0.25247        0.27486        0.33399        0.25263        0.18966        0.21993        0.27495        0.21278        0.19704        0.27379        0.26998        0.20857        0.19896        0.28484        0.24458        0.16480        0.18729        0.30670        0.16719        0.15557        0.24644       -0.00717       -0.44965       -0.55616
2.516996 2.488360 2.459892 2.431593 2.403463 2.375502 2.347709 2.320085 2.292629 2.265342 2.238224 2.211275 2.184494 2.157882 2.131439 2.105164 2.079058 2.053121 2.027352 2.001752 1.976321 1.951059 1.925965 1.901040 1.876284 1.851696 1.827277 1.803027 1.778945 1.755032 1.731288 1.707713 1.684306 1.661068 1.637998 1.615098 1.592366 1.569802 1.547408 1.525182 1.503125 1.481236 1.459516 1.437965 1.416583 1.395369 1.374324 1.353448 1.332740 1.312201 1.291831 1.440638 1.610163 1.291353 0.938642 0.798400 0.702875 0.520463 0.483870 0.366873 0.420968 0.414416 0.405625 0.358099 0.188740 0.171236 0.156740 -0.014067 -0.066851 0.062669 -0.004544 0.019444 -0.065754 0.007548 -0.014128 0.026677 0.215795 0.178213 0.152519 0.312394 0.503865 0.398814 0.662377 0.543931 0.759827 0.757669 0.952131 0.817654 0.816718 0.943892 0.775708 0.910916 0.806258 0.765508 0.810387 0.701103 0.601915 0.551331 0.371490 0.268084 0.205023 0.120386 0.084149 0.162459 0.136481 0.144385 0.168222 0.253049 0.297139 0.369245 0.453832 0.516889 0.564774 0.606986 0.698539 0.739237 0.706443 0.715673 0.555765 0.493968 0.294278 0.332226 0.163363 0.098730 0.055107 0.061983 -0.057071 -0.052184 -0.009335 0.045607 0.186428 0.159002 0.307250 0.320609 0.492462 0.371260 0.408446 0.400523 0.337795 0.339316 0.307594 0.263723 0.062130 0.043179 -0.023598 -0.024330 -0.051224 -0.056123 -0.031311 -0.029309 0.080806 0.147736 0.142362 0.228816 0.353621 0.278171 0.331961 0.332297 0.235973 0.144967 0.093186 0.063234 0.080908 0.004447 -0.033035 0.011076 0.058242 0.096604 0.250987 0.209688 0.247450 0.269079 0.261380 0.237847 0.201638 0.169127 0.079888 0.013312 -0.019911 -0.009804 -0.005812 0.044020 0.069398 0.158068 0.122201 0.163910 0.176673 0.164069 0.160436 0.128309 0.048545 0.025015 0.048487 0.050099 0.010738 0.021726 0.050145 0.058370 0.137882 0.146484 0.097911 0.086311 0.083698 0.089139 0.016537 -0.001313 -0.017846 -0.057412 -0.029185 -0.034157 0.055966 0.069360 0.076516 0.104922 0.065032 0.065264 0.085772 0.027985 -0.018019 0.004160 0.008454 -0.017143 0.049006 0.065259 0.037625 0.089319 0.015950 0.032634 0.039108 0.012747 0.041966 0.032623 -0.006109 0.011126 0.041134 0.037971 0.045940 -0.033083 -0.013019 0.001323 -0.017317 -0.001532 -0.002963 -0.015269 -0.015873 -0.019307 0.016934 -0.009673 0.012183 0.017789 0.001430 0.028244 -0.035425 -0.005717 -0.016946 0.007164 -0.020250 0.002480 0.030636 0.056646 0.026548 -0.048512 0.036797 0.029235 0.018212 0.004942 -0.026677 -0.014105 0.025172 0.001654 0.018265 0.021219 -0.016774 -0.003335 -0.030537 0.000227 -0.002184 0.014258 0.030584 -0.013652 0.060025 -0.045877 -0.037686 0.012161 0.028717 0.010483 -0.016213 -0.029426 -0.024568 0.029461 0.083992 0.024235 -0.014469 0.005765 0.040013 -0.016182 0.016059 0.024085 0.014698 0.027664 0.010381 0.037533 0.014269 -0.021808 -0.002745 -0.010640 -0.003273 0.050919 0.028232 0.029867 0.036938 -0.019326 -0.022179 -0.006054 -0.001742 -0.008684 -0.094717 -0.003186 -0.009645 -0.027359 -0.055785 -0.065372 -0.023889 -0.019425 0.021649 0.046477 0.033700 0.028916 -0.007474 0.035110 -0.000159 -0.068058 -0.104441 0.008151 -0.034603 0.042226 0.082960 -0.070788 0.052563 -0.056478 0.023011 0.028796 0.132089 -0.052093 0.005804 -0.021381 0.064752 0.045447 -0.057825 0.071437 0.101754 0.028605 -0.010476 0.095721 0.080572 0.179975 0.171654 0.327265 0.195271 0.112303 0.231148 -0.000819 -0.503242
0.072396 0.072980 0.074732 0.077652 0.081739 0.086991 0.093406 0.100984 0.109719 0.119610 0.130649 0.142832 0.156151 0.170595 0.186154 0.202813 0.220556 0.239364 0.259214 0.280080 0.301931 0.324732 0.348445 0.373023 0.398417 0.424570 0.451419 0.478894 0.506917 0.535404 0.564262 0.593390 0.622677 0.652005 0.681247 0.710264 0.738912 0.767035 0.794467 0.821037 0.846561 0.870849 0.893705 0.914922 0.934292 0.951597 0.966618 0.979132 0.988918 0.995752 0.999414 0.999689 0.996369 0.989253 0.978155 0.962902 0.943339 0.919330 0.890765 0.857559 0.819658 0.777041 0.729723 0.677759 0.621248 0.560331 0.495201 0.426098 0.353316 0.277202 0.198156 0.116634 0.033147 0.051742 0.137419 0.223220 0.308436 0.392320 0.474087 0.552927 0.628008 0.698486 0.763515 0.822260 0.873902 0.917659 0.952789 0.978613 0.994524 0.999999 0.994619 0.978074 0.950186 0.910912 0.860358 0.798793 0.726646 0.644522 0.553198 0.453622 0.346917 0.234367 0.117411 0.002375 0.123289 0.243529 0.361218 0.474430 0.581222 0.679671 0.767909 0.844161 0.906786 0.954317 0.985502 0.999339 0.995113 0.972430 0.931242 0.871870 0.795020 0.701785 0.593651 0.472483 0.340502 0.200262 0.054602 0.093403 0.240497 0.383321 0.518479 0.642628 0.752565 0.845309 0.918200 0.968975 0.995859 0.997631 0.973690 0.924101 0.849629 0.751753 0.632657 0.495204 0.342889 0.179757 0.010316 0.160579 0.327865 0.486412 0.631190 0.757429 0.860788 0.937522 0.984628 0.999985 0.982467 0.932023 0.849733 0.737816 0.599606 0.439478 0.262734 0.075448 0.115727 0.303785 0.481627 0.642328 0.779409 0.887128 0.960729 0.996683 0.992880 0.948779 0.865491 0.745802 0.594125 0.416366 0.219733 0.012466 0.196494 0.397873 0.582488 0.741663 0.867661 0.954082 0.996223 0.991366 0.938988 0.840870 0.701093 0.525921 0.323567 0.103836 0.122314 0.343308 0.547541 0.723998 0.862866 0.956106 0.997971 0.985393 0.918254 0.799501 0.635077 0.433686 0.206385 0.033985 0.273505 0.497963 0.693714 0.848524 0.952370 0.998141 0.982176 0.904610 0.769496 0.584666 0.361348 0.113541 0.142821 0.390874 0.613923 0.796590 0.925902 0.992269 0.990258 0.919104 0.782912 0.590511 0.354969 0.092766 0.177312 0.435486 0.662441 0.840791 0.956448 0.999816 0.966653 0.858567 0.683062 0.453109 0.186288 0.096501 0.372649 0.619607 0.816772 0.947241 0.999338 0.967744 0.854132 0.667222 0.422221 0.139686 0.156135 0.439348 0.684659 0.869688 0.977058 0.996117 0.924105 0.766625 0.537336 0.256901 0.048802 0.350991 0.620678 0.831474 0.962228 0.999249 0.937845 0.783037 0.549302 0.259350 0.057965 0.370470 0.645902 0.855266 0.975964 0.994334 0.907340 0.723161 0.460580 0.147225 0.183258 0.494737 0.752555 0.927440 0.998917 0.957850 0.807754 0.564703 0.255769 0.083860 0.414808 0.698054 0.899573 0.994522 0.970442 0.829061 0.586415 0.271212 0.078410 0.419420 0.709149 0.910689 0.997688 0.957963 0.795385 0.529745 0.194541 0.167109 0.507907 0.782569 0.953902 0.997981 0.907671 0.693968 0.384902 0.022046 0.344943 0.665063 0.893081 0.996050 0.958243 0.783769 0.496408 0.136600 0.244075 0.590223 0.850679 0.986185 0.975488 0.818887 0.538658 0.176128 0.214242 0.572915 0.844359 0.985762 0.973962 0.809483 0.516943 0.141630 0.257302 0.616067 0.876440 0.995345 0.952182 0.752668 0.428419 0.032199 0.370463 0.712027 0.934352 0.998707 0.892810 0.633433 0.264073 0.152072 0.542776 0.839300 0.988563
1.000000 1.000000 1.000000 1.000000 1.000000 1.000000 1.000000 1.000000 1.000000 1.000000 1.000000 1.000000 1.000000 1.000000 1.000000 1.000000 1.000000 1.000000 1.000000 1.000000 1.000000 1.000000 1.000000 1.000000 1.000000 1.000000 1.000000 1.000000 1.000000 1.000000 1.000000 1.000000 1.000000 1.000000 1.000000 1.000000 1.000000 1.000000 1.000000 1.000000 1.000000 1.000000 1.000000 1.000000 1.000000 1.000000 1.000000 1.000000 1.000000 1.000000 1.000000 1.000000 0.953178 0.953178 0.953178 0.953178 0.953178 0.953178 0.953178 0.953178 0.953178 0.953178 0.953178 0.953178 0.953178 0.953178 0.953178 0.953178 0.953178 0.953178 0.953178 0.953178 0.953178 0.953178 0.953178 0.953178 0.953178 0.953178 0.953178 0.953178 0.953178 0.953178 0.953178 0.953178 0.953178 0.953178 0.953178 0.953178 0.953178 0.953178 0.942934 0.944904 0.945535 0.945235 0.944504 0.946303 0.946771 0.946642 0.947233 0.947982 0.951875 0.953393 0.954404 0.962380 0.971355 0.971129 0.970181 0.970624 0.969793 0.967680 0.965851 0.967387 0.971694 0.971821 0.972267 0.972012 0.972638 0.973160 0.972749 0.971794 0.970616 0.970172 0.969611 0.969584 0.969924 0.969259 0.969581 0.969955 0.969559 0.968831 0.967910 0.962508 0.962373 0.963185 0.966521 0.964933 0.963618 0.963615 0.963239 0.962782 0.960976 0.960503 0.960532 0.960583 0.960504 0.960216 0.958986 0.957952 0.952652 0.948004 0.947618 0.950149 0.951130 0.951942 0.948968 0.945996 0.937880 0.934385 0.936531 0.941866 0.942672 0.942582 0.926124 0.914562 0.914802 0.910933 0.912948 0.911077 0.907067 0.898777 0.899497 0.901854 0.900644 0.905614 0.903017 0.903195 0.901501 0.903084 0.905670 0.908424 0.911974 0.912364 0.907615 0.904069 0.902197 0.902644 0.904674 0.900201 0.898859 0.898375 0.899203 0.893372 0.893335 0.893877 0.895214 0.896453 0.899261 0.889718 0.890266 0.852008 0.835277 0.829947 0.826951 0.823555 0.815054 0.793157 0.794031 0.788616 0.786261 0.782518 0.778577 0.721920 0.705536 0.699099 0.688157 0.670195 0.638662 0.638315 0.643097 0.636027 0.633514 0.606916 0.603557 0.610317 0.614211 0.597178 0.592978 0.588425 0.566075 0.544323 0.533638 0.542773 0.558624 0.561934 0.528426 0.486465 0.446227 0.413483 0.406447 0.386907 0.358968 0.339190 0.355003 0.352777 0.368893 0.357479 0.337333 0.313803 0.342721 0.338892 0.335711 0.309432 0.354363 0.372050 0.349872 0.368539 0.348720 0.356884 0.309276 0.283949 0.264702 0.234729 0.189534 0.184057 0.241060 0.254388 0.274671 0.295720 0.297571 0.271951 0.301665 0.300754 0.302915 0.302163 0.248104 0.236264 0.237372 0.216319 0.193137 0.209156 0.215164 0.195782 0.165816 0.184158 0.198008 0.192956 0.205766 0.213314 0.159272 0.165078 0.173623 0.169764 0.158939 0.165018 0.163222 0.177880 0.116624 0.118430 0.120545 0.085188 0.099977 0.096293 0.081420 0.016747 -0.007128 -0.003052 -0.013426 -0.042401 -0.033473 -0.072121 -0.105202 -0.084850 -0.071722 -0.091974 -0.076292 -0.045755 -0.041796 -0.023770 -0.031614 0.001314 -0.015618 -0.026989 -0.014505 -0.033836 -0.064307 -0.066567 -0.067555 -0.092312 -0.108714 -0.091384 -0.080485 -0.082482 -0.046367 -0.059469 -0.099213 -0.107692 -0.107692 -0.107692 -0.107692 -0.107692 -0.091765 -0.091765 -0.091765 -0.091765 -0.091765 -0.091765 -0.091765 -0.091765 -0.098202 -0.098202 -0.098202 -0.098202 -0.098202 -0.098202 -0.098202 -0.098202 -0.098202 -0.098202 -0.098202 -0.098202 -0.098202 -0.098202 -0.098202
0.000000 0.000000 0.000000 0.000000 0.000000 0.000000 0.000000 0.000000 0.000000 0.000000 0.000000 0.000000 0.000000 0.000000 0.000000 0.000000 0.000000 0.000000 0.000000 0.000000 0.000000 9401.000000 0.000000 0.000000 0.000000 0.000000 0.000000 0.000000 0.000000 0.000000 0.000000 0.000000 0.000000 0.000000 0.000000 0.000000 0.000000 0.000000 0.000000 0.000000 0.000000 0.000000 0.000000 0.000000 0.000000 0.000000 0.000000 0.000000 0.000000 0.000000 0.000000 0.000000 0.203069 0.203069 0.203069 0.203069 0.203069 0.203069 0.203069 0.203069 0.203069 0.203069 0.203069 0.203069 0.203069 0.203069 0.203069 0.203069 0.203069 0.203069 0.203069 0.203069 0.203069 0.203069 0.203069 0.203069 0.203069 0.203069 0.203069 0.203069 0.203069 0.203069 0.203069 0.203069 0.203069 0.203069 0.203069 0.203069 0.203069 0.203069 0.237356 0.237356 0.237356 0.237356 0.237356 0.237356 0.237356 0.237356 0.237356 0.237356 0.237356 0.237356 0.237356 0.237356 0.237356 0.237356 0.237356 0.237356 0.237356 0.237356 0.237356 0.237356 0.237356 0.237356 0.237356 0.237356 0.256074 0.256074 0.256074 0.256074 0.256074 0.256074 0.256074 0.256074 0.256074 0.256074 0.256074 0.256074 0.256074 0.256074 0.256074 0.256074 0.256074 0.256074 0.256074 0.256074 0.256074 0.264906 0.264906 0.264906 0.264906 0.264906 0.264906 0.264906 0.264906 0.264906 0.264906 0.264906 0.264906 0.264906 0.264906 0.264906 0.264906 0.264906 0.264906 0.264906 0.264906 0.264906 0.264906 0.264906 0.264906 0.264906 0.264906 0.264906 0.264906 0.264906 0.264906 0.264906 0.264906 0.264906 0.264906 0.264906 0.269680 0.269680 0.269680 0.269680 0.269680 0.269680 0.269680 0.269680 0.269680 0.269680 0.269680 0.269680 0.269680 0.269680 0.269680 0.269680 0.269680 0.269680 0.269680 0.269680 0.269680 0.269680 0.269680 0.269680 0.269680 0.269680 0.269680 0.269680 0.269680 0.274721 0.274721 0.274721 0.274721 0.274721 0.274721 0.274721 0.274721 0.274721 0.274721 0.274721 0.274721 0.274721 0.274721 0.274721 0.274721 0.274721 0.274721 0.274721 0.274721 0.274721 0.274721 0.274721 0.274721 0.274721 0.269680 0.269680 0.269680 0.269680 0.269680 0.269680 0.269680 0.269680 0.269680 0.269680 0.269680 0.269680 0.274721 0.274721 0.274721 0.274721 0.274721 0.274721 0.274721 0.274721 0.274721 0.274721 0.274721 0.280056 0.280056 0.280056 0.280056 0.280056 0.280056 0.280056 0.280056 0.280056 0.280056 0.274721 0.274721 0.274721 0.274721 0.274721 0.274721 0.274721 0.274721 0.274721 0.274721 0.269680 0.269680 0.269680 0.269680 0.269680 0.269680 0.269680 0.269680 0.269680 0.269680 0.264906 0.264906 0.264906 0.264906 0.264906 0.264906 0.264906 0.264906 0.264906 0.264906 0.269680 0.269680 0.269680 0.269680 0.269680 0.269680 0.269680 0.269680 0.269680 0.264906 0.264906 0.264906 0.264906 0.264906 0.264906 0.264906 0.264906 0.264906 0.274721 0.274721 0.274721 0.274721 0.274721 0.274721 0.274721 0.274721 0.256074 0.256074 0.256074 0.256074 0.256074 0.256074 0.256074 0.256074 0.256074 0.269680 0.269680 0.269680 0.269680 0.269680 0.269680 0.269680 0.269680 0.264906 0.264906 0.264906 0.264906 0.264906 0.264906 0.264906 0.264906 0.260378 0.260378 0.260378 0.260378 0.260378 0.260378 0.260378 0.260378 0.269680 0.269680 0.269680 0.269680 0.269680 0.269680 0.269680 0.269680 0.269680 0.269680 0.269680 0.269680 0.269680 0.269680 0.269680
