# Output from CTFFind version 4.1.9, run on 2019-11-03 18:51:34
# Input file: stack4_ub_averaged_750.mrc ; Number of micrographs: 1
# Pixel size: 3.000 Angstroms ; acceleration voltage: 300.0 keV ; spherical aberration: 0.00 mm ; amplitude contrast: 0.07
# Box size: 512 pixels ; min. res.: 30.0 Angstroms ; max. res.: 5.0 Angstroms ; min. def.: 5000.0 um; max. def. 50000.0 um; num. frames averaged: 1
# 6 lines per micrograph: #1 - spatial frequency (1/Angstroms); #2 - 1D rotational average of spectrum (assuming no astigmatism); #3 - 1D rotational average of spectrum; #4 - CTF fit; #5 - cross-correlation between spectrum and CTF fit; #6 - 2sigma of expected cross correlation of noise
0.000000 0.000651 0.001302 0.001953 0.002604 0.003255 0.003906 0.004557 0.005208 0.005859 0.006510 0.007161 0.007812 0.008464 0.009115 0.009766 0.010417 0.011068 0.011719 0.012370 0.013021 0.013672 0.014323 0.014974 0.015625 0.016276 0.016927 0.017578 0.018229 0.018880 0.019531 0.020182 0.020833 0.021484 0.022135 0.022786 0.023438 0.024089 0.024740 0.025391 0.026042 0.026693 0.027344 0.027995 0.028646 0.029297 0.029948 0.030599 0.031250 0.031901 0.032552 0.033203 0.033854 0.034505 0.035156 0.035807 0.036458 0.037109 0.037760 0.038411 0.039062 0.039714 0.040365 0.041016 0.041667 0.042318 0.042969 0.043620 0.044271 0.044922 0.045573 0.046224 0.046875 0.047526 0.048177 0.048828 0.049479 0.050130 0.050781 0.051432 0.052083 0.052734 0.053385 0.054036 0.054688 0.055339 0.055990 0.056641 0.057292 0.057943 0.058594 0.059245 0.059896 0.060547 0.061198 0.061849 0.062500 0.063151 0.063802 0.064453 0.065104 0.065755 0.066406 0.067057 0.067708 0.068359 0.069010 0.069661 0.070312 0.070964 0.071615 0.072266 0.072917 0.073568 0.074219 0.074870 0.075521 0.076172 0.076823 0.077474 0.078125 0.078776 0.079427 0.080078 0.080729 0.081380 0.082031 0.082682 0.083333 0.083984 0.084635 0.085286 0.085938 0.086589 0.087240 0.087891 0.088542 0.089193 0.089844 0.090495 0.091146 0.091797 0.092448 0.093099 0.093750 0.094401 0.095052 0.095703 0.096354 0.097005 0.097656 0.098307 0.098958 0.099609 0.100260 0.100911 0.101562 0.102214 0.102865 0.103516 0.104167 0.104818 0.105469 0.106120 0.106771 0.107422 0.108073 0.108724 0.109375 0.110026 0.110677 0.111328 0.111979 0.112630 0.113281 0.113932 0.114583 0.115234 0.115885 0.116536 0.117188 0.117839 0.118490 0.119141 0.119792 0.120443 0.121094 0.121745 0.122396 0.123047 0.123698 0.124349 0.125000 0.125651 0.126302 0.126953 0.127604 0.128255 0.128906 0.129557 0.130208 0.130859 0.131510 0.132161 0.132812 0.133464 0.134115 0.134766 0.135417 0.136068 0.136719 0.137370 0.138021 0.138672 0.139323 0.139974 0.140625 0.141276 0.141927 0.142578 0.143229 0.143880 0.144531 0.145182 0.145833 0.146484 0.147135 0.147786 0.148438 0.149089 0.149740 0.150391 0.151042 0.151693 0.152344 0.152995 0.153646 0.154297 0.154948 0.155599 0.156250 0.156901 0.157552 0.158203 0.158854 0.159505 0.160156 0.160807 0.161458 0.162109 0.162760 0.163411 0.164062 0.164714 0.165365 0.166016 0.166667 0.167318 0.167969 0.168620 0.169271 0.169922 0.170573 0.171224 0.171875 0.172526 0.173177 0.173828 0.174479 0.175130 0.175781 0.176432 0.177083 0.177734 0.178385 0.179036 0.179688 0.180339 0.180990 0.181641 0.182292 0.182943 0.183594 0.184245 0.184896 0.185547 0.186198 0.186849 0.187500 0.188151 0.188802 0.189453 0.190104 0.190755 0.191406 0.192057 0.192708 0.193359 0.194010 0.194661 0.195312 0.195964 0.196615 0.197266 0.197917 0.198568 0.199219 0.199870 0.200521 0.201172 0.201823 0.202474 0.203125 0.203776 0.204427 0.205078 0.205729 0.206380 0.207031 0.207682 0.208333 0.208984 0.209635 0.210286 0.210938 0.211589 0.212240 0.212891 0.213542 0.214193 0.214844 0.215495 0.216146 0.216797 0.217448 0.218099 0.218750 0.219401 0.220052 0.220703 0.221354 0.222005 0.222656 0.223307 0.223958 0.224609 0.225260 0.225911 0.226562 0.227214 0.227865 0.228516 0.229167 0.229818 0.230469 0.231120 0.231771 0.232422 0.233073 0.233724 0.234375 0.235026 0.235677
       0.36381        0.36381        0.36381        0.36381        0.36381        0.36381        0.36381        0.36381        0.36381        0.36381        0.36381        0.36381        0.36381        0.36381        0.36381        0.36381        0.36381        0.36381        0.36381        0.36381        0.36381        0.36381        0.36381        0.36381        0.36381        0.36381        0.36381        0.36381        0.36381        0.36381        0.36381        0.36381        0.36381        0.36381        0.36381        0.36381        0.36381        0.36381        0.36381        0.36381        0.36381        0.36381        0.36381        0.36381        0.36381        0.36381        0.36381        0.36381        0.36381        0.36381        0.36381        0.70677        0.78167        0.46788        0.03736        0.05623       -0.16017       -0.30820       -0.07497       -0.04337       -0.09455       -0.16937       -0.13513       -0.16025       -0.36292       -0.43592       -0.31228       -0.34761       -0.39418       -0.46578       -0.45153       -0.40653       -0.54340       -0.43526       -0.53339       -0.58908       -0.49968       -0.39582       -0.44415       -0.30929       -0.19615       -0.18173       -0.11999       -0.07826        0.00509        0.05425        0.24786        0.43247        0.37466        0.57684        0.67229        0.65421        0.63711        0.65500        0.70302        0.66247        0.64386        0.71863        0.67485        0.60946        0.53533        0.43926        0.34046        0.26021        0.19982        0.10277        0.07769        0.01604        0.07853        0.03929        0.08094        0.09155        0.11413        0.26336        0.41768        0.44962        0.48555        0.53081        0.53242        0.61229        0.62593        0.68399        0.68080        0.63538        0.63281        0.59833        0.49807        0.38932        0.37674        0.25708        0.22144        0.17954        0.14998        0.09504        0.06266        0.11548        0.21800        0.30171        0.28638        0.48116        0.53454        0.54185        0.60831        0.64310        0.59526        0.61577        0.53002        0.49216        0.51529        0.47094        0.38411        0.24069        0.11529        0.19648        0.20920        0.19493        0.20307        0.29405        0.25358        0.40702        0.45761        0.45646        0.51344        0.53356        0.55641        0.51936        0.37712        0.39625        0.41735        0.30001        0.30548        0.23701        0.19961        0.24917        0.29704        0.29045        0.36942        0.40009        0.42522        0.47208        0.54363        0.54249        0.50833        0.40930        0.41496        0.37772        0.35658        0.32076        0.30261        0.27993        0.30799        0.33939        0.36144        0.41189        0.44691        0.44355        0.45933        0.43354        0.41281        0.38670        0.32862        0.33723        0.35804        0.33946        0.31129        0.30947        0.30664        0.36745        0.39369        0.37465        0.39204        0.44779        0.39955        0.40153        0.39081        0.37495        0.36770        0.33128        0.32262        0.31785        0.34587        0.37287        0.37969        0.38721        0.35036        0.34643        0.34798        0.34435        0.35951        0.34488        0.36876        0.36147        0.35697        0.37629        0.37327        0.34984        0.36753        0.36753        0.38905        0.38166        0.34065        0.36440        0.33671        0.32441        0.34479        0.34144        0.33172        0.36989        0.32590        0.36102        0.36578        0.33861        0.34641        0.31491        0.36155        0.28239        0.30611        0.29814        0.30775        0.34362        0.36895        0.36106        0.34188        0.35767        0.34552        0.33039        0.32866        0.34132        0.38132        0.32539        0.34182        0.33140        0.31214        0.32229        0.33880        0.36875        0.33344        0.34388        0.35736        0.33794        0.34708        0.35145        0.32568        0.34984        0.28786        0.35384        0.34018        0.34583        0.36706        0.36201        0.38050        0.36830        0.32846        0.31437        0.33648        0.34178        0.30200        0.33641        0.35313        0.37487        0.37463        0.36953        0.34514        0.33549        0.32742        0.33258        0.31292        0.35914        0.32382        0.27559        0.31266        0.34219        0.31338        0.32757        0.30834        0.30467        0.32333        0.32069        0.30631        0.31644        0.27534        0.27909        0.26219        0.26047        0.32463        0.35045        0.31401        0.31942        0.36950        0.34716        0.33247        0.33583        0.28116        0.30439        0.29421        0.27006        0.30152        0.29256        0.29681        0.31779        0.34387        0.29358        0.32875        0.26195        0.27311        0.17249        0.29917        0.27208        0.27625        0.28016        0.28499        0.28103        0.34120        0.30090        0.20530        0.17110        0.39543        0.37721        0.31348        0.18137        0.19811       -0.00547       -0.18259
2.590977 2.562442 2.534069 2.505858 2.477808 2.449919 2.422193 2.394627 2.367224 2.339982 2.312901 2.285982 2.259224 2.232628 2.206194 2.179921 2.153809 2.127860 2.102071 2.076445 2.050979 2.025676 2.000534 1.975553 1.950734 1.926077 1.901581 1.877246 1.853073 1.829062 1.805212 1.781524 1.757997 1.734632 1.711429 1.688387 1.665506 1.642787 1.620230 1.597834 1.575600 1.553527 1.531616 1.509866 1.488278 1.466851 1.445586 1.424483 1.403541 1.382760 1.362142 1.611051 1.815366 1.477264 0.933971 1.073049 0.685967 0.464811 0.750831 0.778375 0.659290 0.566240 0.640442 0.595982 0.325754 0.255714 0.302225 0.274633 0.283625 0.134634 0.085874 0.169928 0.000910 0.113844 -0.039000 -0.071842 -0.054073 0.062453 -0.024008 0.088429 0.257795 0.229777 0.231071 0.296231 0.360150 0.410142 0.554552 0.721129 0.718830 0.890047 1.017330 0.942152 0.898521 0.938530 0.979457 0.926236 0.874171 0.934074 0.926683 0.777642 0.767393 0.650847 0.478060 0.402108 0.375414 0.212938 0.166825 0.103683 0.107800 0.130863 0.088980 0.148865 0.125175 0.176326 0.380567 0.508665 0.461208 0.486699 0.543967 0.526827 0.630363 0.600252 0.660204 0.558027 0.606478 0.509737 0.474173 0.298814 0.309752 0.120789 0.156800 0.003790 0.028598 -0.041635 -0.121378 -0.114988 0.016914 0.097431 0.100634 0.220162 0.319801 0.359274 0.367671 0.441963 0.455354 0.390060 0.373283 0.275472 0.273104 0.260767 0.214305 0.044279 -0.066543 -0.155581 -0.005648 -0.118749 -0.065646 0.002074 -0.035985 0.085086 0.180497 0.169303 0.205064 0.255769 0.341280 0.334803 0.180732 0.149371 0.194375 0.131126 0.062474 -0.001773 -0.036596 -0.033376 0.027329 0.019571 0.088908 0.094701 0.186611 0.173665 0.279089 0.260818 0.295673 0.170802 0.136275 0.150560 0.051198 0.064211 0.041557 -0.000662 0.006993 0.001312 0.106199 0.073216 0.139137 0.160959 0.165375 0.185183 0.109392 0.111747 0.069835 0.034789 0.046727 0.070645 0.014530 0.015654 -0.006771 0.019743 0.072287 0.098558 0.079621 0.073230 0.110526 0.036397 0.107479 0.031774 0.057290 0.004371 -0.016834 -0.012454 -0.001899 0.017083 0.029355 0.062301 0.045649 0.026942 0.016049 0.055578 0.024059 0.037719 0.020439 0.053709 0.026603 0.049605 0.055771 0.052756 0.008440 0.075602 0.022830 0.070182 0.068989 -0.009468 0.080992 -0.009694 0.004316 0.037093 0.001479 0.008960 0.047571 -0.013521 0.077289 0.021367 0.027807 0.020642 0.007188 0.030424 -0.056716 -0.008066 -0.028004 -0.010980 0.031795 0.052422 0.036693 0.017606 0.031428 -0.002446 0.012716 -0.003714 0.045764 0.043052 -0.016383 -0.006145 -0.001528 -0.025067 0.003399 0.006303 0.026360 -0.017843 0.025184 -0.011064 -0.003621 0.002796 0.000575 0.011512 -0.053655 -0.061321 0.002410 0.001471 -0.022762 0.013053 0.024403 0.030362 -0.000678 -0.028463 -0.017509 0.002798 -0.005354 -0.018373 0.010087 -0.015972 0.102277 0.037643 0.035685 0.029297 0.009326 0.011217 0.010243 -0.027528 0.039723 0.012938 -0.064663 0.012968 0.016214 -0.004188 -0.012487 -0.028920 -0.045125 0.016637 -0.022861 -0.026280 0.005544 -0.067159 -0.012107 -0.043573 -0.056735 0.035729 0.093163 0.023326 0.016573 0.096521 0.063496 0.043138 0.071410 -0.006521 0.014740 0.001228 -0.010501 0.056510 0.021730 0.053396 0.006835 0.117526 0.024238 0.078387 -0.022824 0.043127 -0.136311 0.075928 -0.051696 0.037204 0.290071 0.324642 0.228047 0.352726 0.323280 0.241932 0.183106 0.524537 0.435801 0.326980 0.112802 0.210010 -0.192002
0.072396 0.072920 0.074491 0.077110 0.080775 0.085485 0.091240 0.098037 0.105874 0.114748 0.124655 0.135590 0.147548 0.160521 0.174501 0.189478 0.205438 0.222369 0.240252 0.259069 0.278797 0.299410 0.320879 0.343172 0.366251 0.390074 0.414594 0.439761 0.465517 0.491800 0.518540 0.545663 0.573087 0.600724 0.628478 0.656247 0.683920 0.711382 0.738507 0.765162 0.791210 0.816502 0.840886 0.864201 0.886281 0.906954 0.926043 0.943366 0.958738 0.971971 0.982876 0.991263 0.996945 0.999735 0.999450 0.995916 0.988964 0.978436 0.964184 0.946076 0.923996 0.897846 0.867549 0.833052 0.794328 0.751379 0.704237 0.652968 0.597671 0.538487 0.475592 0.409206 0.339589 0.267045 0.191922 0.114613 0.035552 0.044782 0.125868 0.207149 0.288029 0.367877 0.446038 0.521827 0.594546 0.663480 0.727911 0.787123 0.840411 0.887090 0.926504 0.958037 0.981123 0.995256 1.000000 0.995001 0.979998 0.954830 0.919448 0.873920 0.818442 0.753341 0.679082 0.596268 0.505644 0.408089 0.304623 0.196389 0.084654 0.029209 0.143733 0.257373 0.368526 0.475554 0.576807 0.670651 0.755495 0.829818 0.892205 0.941373 0.976203 0.995769 0.999366 0.986537 0.957092 0.911130 0.849054 0.771577 0.679726 0.574842 0.458569 0.332833 0.199823 0.061960 0.078150 0.217752 0.353996 0.484000 0.604909 0.713956 0.808539 0.886278 0.945093 0.983259 0.999472 0.992894 0.963204 0.910625 0.835949 0.740541 0.626332 0.495797 0.351915 0.198110 0.038182 0.123778 0.283492 0.436606 0.578805 0.705941 0.814166 0.900049 0.960702 0.993892 0.998130 0.972758 0.917999 0.834988 0.725781 0.593318 0.441375 0.274468 0.097736 0.083207 0.262439 0.433924 0.591720 0.730181 0.844180 0.929307 0.982058 1.000000 0.981904 0.927835 0.839204 0.718760 0.570542 0.399770 0.212677 0.016313 0.181724 0.373557 0.551360 0.707672 0.835725 0.929758 0.985298 0.999397 0.970819 0.900152 0.789848 0.644182 0.469123 0.272114 0.061794 0.152380 0.360529 0.552818 0.719931 0.853524 0.946681 0.994290 0.993366 0.943267 0.845806 0.705242 0.528134 0.323086 0.100355 0.128632 0.351856 0.557331 0.733755 0.871155 0.961474 0.999090 0.981202 0.908080 0.783148 0.612874 0.406504 0.175591 0.066614 0.305899 0.527922 0.719077 0.867345 0.963092 0.999734 0.974242 0.887441 0.744069 0.552589 0.324745 0.074899 0.180855 0.425696 0.643189 0.818406 0.938981 0.996036 0.984889 0.905499 0.762602 0.565508 0.327562 0.065297 0.202671 0.456953 0.678777 0.851414 0.961472 0.999993 0.963255 0.853200 0.677427 0.448757 0.184379 0.095398 0.368671 0.613638 0.810378 0.942482 0.998511 0.973045 0.867301 0.689187 0.452822 0.177493 0.113852 0.396486 0.645994 0.840396 0.962142 0.999763 0.949050 0.813599 0.604687 0.340438 0.044325 0.256842 0.535327 0.765031 0.923969 0.996460 0.974755 0.859977 0.662223 0.399788 0.097585 0.215162 0.507693 0.750753 0.919556 0.996386 0.972560 0.849532 0.638959 0.361752 0.046079 0.275399 0.568891 0.803028 0.952277 0.999817 0.939554 0.777024 0.529041 0.222098 0.110362 0.431534 0.705301 0.900342 0.993792 0.974048 0.842346 0.612891 0.311483 0.027249 0.363769 0.658198 0.875069 0.987700 0.981576 0.856387 0.626357 0.318798 0.028997 0.374183 0.673605 0.889244 0.993111 0.971035 0.824751 0.572002 0.244576 0.115573 0.461602 0.747850 0.935926 0.999974 0.930371 0.735366 0.440303 0.084520 0.283792 0.614039 0.860189 0.987285 0.976562 0.828400 0.562639 0.216133
1.000000 1.000000 1.000000 1.000000 1.000000 1.000000 1.000000 1.000000 1.000000 1.000000 1.000000 1.000000 1.000000 1.000000 1.000000 1.000000 1.000000 1.000000 1.000000 1.000000 1.000000 1.000000 1.000000 1.000000 1.000000 1.000000 1.000000 1.000000 1.000000 1.000000 1.000000 1.000000 1.000000 1.000000 1.000000 1.000000 1.000000 1.000000 1.000000 1.000000 1.000000 1.000000 1.000000 1.000000 1.000000 1.000000 1.000000 1.000000 1.000000 1.000000 1.000000 1.000000 0.946340 0.946340 0.947780 0.947780 0.947780 0.947780 0.947780 0.947780 0.947780 0.947780 0.947780 0.947780 0.947780 0.947780 0.947780 0.947780 0.947780 0.947780 0.947780 0.947780 0.947780 0.947780 0.947780 0.947780 0.947780 0.947780 0.947780 0.947780 0.947780 0.947780 0.947780 0.947780 0.947780 0.947780 0.947780 0.947780 0.947780 0.947780 0.947780 0.947780 0.947780 0.947780 0.936236 0.942918 0.944677 0.945241 0.944996 0.944888 0.944261 0.943683 0.946873 0.953125 0.953664 0.954527 0.957405 0.960848 0.964115 0.965234 0.966910 0.967597 0.967579 0.967050 0.967361 0.965247 0.962787 0.957777 0.960453 0.960356 0.957725 0.957781 0.962224 0.962289 0.958796 0.957812 0.956785 0.955551 0.954942 0.954999 0.955807 0.956004 0.956526 0.956510 0.955208 0.953368 0.953509 0.953810 0.954422 0.955705 0.956179 0.956877 0.951272 0.951432 0.949523 0.950053 0.953167 0.953283 0.953074 0.952567 0.952831 0.951283 0.951335 0.939785 0.927003 0.922614 0.910221 0.909303 0.913490 0.918402 0.922292 0.917567 0.916893 0.905663 0.895241 0.886774 0.887927 0.890779 0.883259 0.880292 0.872419 0.863568 0.863304 0.858491 0.860085 0.861050 0.856002 0.847032 0.842487 0.840632 0.832307 0.832026 0.841556 0.830229 0.830070 0.843946 0.830176 0.829908 0.830351 0.824577 0.825481 0.829385 0.831445 0.830070 0.825785 0.820643 0.829514 0.790939 0.747201 0.753071 0.742442 0.731766 0.733636 0.702497 0.695812 0.679373 0.669811 0.669008 0.628278 0.626758 0.603895 0.603438 0.606564 0.589262 0.559388 0.569297 0.570795 0.542772 0.526898 0.509011 0.503399 0.466202 0.485821 0.487295 0.487555 0.474427 0.454768 0.428817 0.448357 0.446692 0.453150 0.450036 0.460803 0.458694 0.458194 0.445439 0.448949 0.445886 0.441162 0.434070 0.424891 0.351052 0.303848 0.299232 0.289094 0.263169 0.191980 0.167275 0.158022 0.153028 0.160595 0.110975 0.101384 0.100306 0.126405 0.169323 0.130842 0.109157 0.114990 0.100384 0.117190 0.054956 0.029181 0.030974 0.043551 0.018641 0.020028 -0.035609 -0.071940 -0.078096 -0.072932 -0.090032 -0.072575 -0.106907 -0.122376 -0.127136 -0.103649 -0.151616 -0.138977 -0.127974 -0.118995 -0.119157 -0.133671 -0.218760 -0.089010 -0.085123 -0.080886 -0.145022 -0.159787 -0.163907 -0.170846 -0.179630 -0.199646 -0.239033 -0.263855 -0.256295 -0.309728 -0.270174 -0.251410 -0.258507 -0.235695 -0.240608 -0.210998 -0.214034 -0.184314 -0.203228 -0.194343 -0.219068 -0.214982 -0.175523 -0.195140 -0.195766 -0.170413 -0.161487 -0.150694 -0.136928 -0.062670 -0.075130 -0.079299 -0.092306 -0.076811 -0.053896 -0.049018 -0.052625 -0.018940 0.007743 0.043414 0.047703 0.057249 0.002957 0.029411 0.014489 0.020960 0.070601 0.070601 0.070601 0.070601 0.070601 0.070601 0.070601 0.070601 0.070601 0.039261 0.039261 0.039261 0.039261 0.039261 0.039261 0.039261 0.039261 0.076481 0.076481 0.076481 0.076481 0.076481 0.076481 0.076481 0.076481 0.076481 0.076481 0.076481 0.076481 0.076481
0.000000 0.000000 0.000000 0.000000 0.000000 0.000000 0.000000 0.000000 0.000000 0.000000 0.000000 0.000000 0.000000 0.000000 0.000000 0.000000 0.000000 0.000000 0.000000 0.000000 0.000000 0.000000 0.000000 0.000000 0.000000 0.000000 0.000000 0.000000 0.000000 0.000000 0.000000 0.000000 0.000000 0.000000 0.000000 0.000000 0.000000 0.000000 0.000000 0.000000 0.000000 0.000000 0.000000 0.000000 0.000000 0.000000 0.000000 0.000000 0.000000 0.000000 0.000000 0.000000 0.181818 0.181818 0.201008 0.201008 0.201008 0.201008 0.201008 0.201008 0.201008 0.201008 0.201008 0.201008 0.201008 0.201008 0.201008 0.201008 0.201008 0.201008 0.201008 0.201008 0.201008 0.201008 0.201008 0.201008 0.201008 0.201008 0.201008 0.201008 0.201008 0.201008 0.201008 0.201008 0.201008 0.201008 0.201008 0.201008 0.201008 0.201008 0.201008 0.201008 0.201008 0.201008 0.230940 0.230940 0.230940 0.230940 0.230940 0.230940 0.230940 0.230940 0.230940 0.230940 0.230940 0.230940 0.230940 0.230940 0.230940 0.230940 0.230940 0.230940 0.230940 0.230940 0.230940 0.230940 0.230940 0.230940 0.230940 0.230940 0.230940 0.230940 0.244339 0.244339 0.244339 0.244339 0.244339 0.244339 0.244339 0.244339 0.244339 0.244339 0.244339 0.244339 0.244339 0.244339 0.244339 0.244339 0.244339 0.244339 0.244339 0.244339 0.244339 0.244339 0.244339 0.256074 0.256074 0.256074 0.256074 0.256074 0.256074 0.256074 0.256074 0.256074 0.256074 0.256074 0.256074 0.256074 0.256074 0.256074 0.256074 0.256074 0.256074 0.256074 0.256074 0.256074 0.256074 0.256074 0.256074 0.256074 0.256074 0.256074 0.256074 0.256074 0.256074 0.256074 0.256074 0.256074 0.256074 0.256074 0.256074 0.256074 0.269680 0.269680 0.269680 0.269680 0.269680 0.269680 0.269680 0.269680 0.269680 0.269680 0.269680 0.269680 0.269680 0.269680 0.269680 0.264906 0.264906 0.264906 0.264906 0.264906 0.264906 0.264906 0.264906 0.264906 0.264906 0.264906 0.264906 0.264906 0.264906 0.264906 0.264906 0.264906 0.264906 0.264906 0.264906 0.264906 0.264906 0.264906 0.264906 0.264906 0.264906 0.264906 0.264906 0.264906 0.264906 0.264906 0.264906 0.264906 0.264906 0.264906 0.264906 0.264906 0.264906 0.264906 0.264906 0.264906 0.264906 0.269680 0.269680 0.269680 0.269680 0.269680 0.269680 0.269680 0.269680 0.269680 0.269680 0.269680 0.269680 0.264906 0.264906 0.264906 0.264906 0.264906 0.264906 0.264906 0.264906 0.264906 0.264906 0.264906 0.264906 0.269680 0.269680 0.269680 0.269680 0.269680 0.269680 0.269680 0.269680 0.269680 0.269680 0.269680 0.274721 0.274721 0.274721 0.274721 0.274721 0.274721 0.274721 0.274721 0.274721 0.274721 0.256074 0.256074 0.256074 0.256074 0.256074 0.256074 0.256074 0.256074 0.256074 0.256074 0.256074 0.264906 0.264906 0.264906 0.264906 0.264906 0.264906 0.264906 0.264906 0.264906 0.264906 0.269680 0.269680 0.269680 0.269680 0.269680 0.269680 0.269680 0.269680 0.269680 0.256074 0.256074 0.256074 0.256074 0.256074 0.256074 0.256074 0.256074 0.256074 0.256074 0.260378 0.260378 0.260378 0.260378 0.260378 0.260378 0.260378 0.260378 0.260378 0.256074 0.256074 0.256074 0.256074 0.256074 0.256074 0.256074 0.256074 0.256074 0.269680 0.269680 0.269680 0.269680 0.269680 0.269680 0.269680 0.269680 0.248069 0.248069 0.248069 0.248069 0.248069 0.248069 0.248069 0.248069 0.248069 0.248069 0.248069 0.248069 0.248069
