# Output from CTFFind version 4.1.9, run on 2019-11-03 18:51:33
# Input file: stack17_ub_averaged_750.mrc ; Number of micrographs: 1
# Pixel size: 3.000 Angstroms ; acceleration voltage: 300.0 keV ; spherical aberration: 0.00 mm ; amplitude contrast: 0.07
# Box size: 512 pixels ; min. res.: 30.0 Angstroms ; max. res.: 5.0 Angstroms ; min. def.: 5000.0 um; max. def. 50000.0 um; num. frames averaged: 1
# 6 lines per micrograph: #1 - spatial frequency (1/Angstroms); #2 - 1D rotational average of spectrum (assuming no astigmatism); #3 - 1D rotational average of spectrum; #4 - CTF fit; #5 - cross-correlation between spectrum and CTF fit; #6 - 2sigma of expected cross correlation of noise
0.000000 0.000651 0.001302 0.001953 0.002604 0.003255 0.003906 0.004557 0.005208 0.005859 0.006510 0.007161 0.007812 0.008464 0.009115 0.009766 0.010417 0.011068 0.011719 0.012370 0.013021 0.013672 0.014323 0.014974 0.015625 0.016276 0.016927 0.017578 0.018229 0.018880 0.019531 0.020182 0.020833 0.021484 0.022135 0.022786 0.023438 0.024089 0.024740 0.025391 0.026042 0.026693 0.027344 0.027995 0.028646 0.029297 0.029948 0.030599 0.031250 0.031901 0.032552 0.033203 0.033854 0.034505 0.035156 0.035807 0.036458 0.037109 0.037760 0.038411 0.039062 0.039714 0.040365 0.041016 0.041667 0.042318 0.042969 0.043620 0.044271 0.044922 0.045573 0.046224 0.046875 0.047526 0.048177 0.048828 0.049479 0.050130 0.050781 0.051432 0.052083 0.052734 0.053385 0.054036 0.054688 0.055339 0.055990 0.056641 0.057292 0.057943 0.058594 0.059245 0.059896 0.060547 0.061198 0.061849 0.062500 0.063151 0.063802 0.064453 0.065104 0.065755 0.066406 0.067057 0.067708 0.068359 0.069010 0.069661 0.070312 0.070964 0.071615 0.072266 0.072917 0.073568 0.074219 0.074870 0.075521 0.076172 0.076823 0.077474 0.078125 0.078776 0.079427 0.080078 0.080729 0.081380 0.082031 0.082682 0.083333 0.083984 0.084635 0.085286 0.085938 0.086589 0.087240 0.087891 0.088542 0.089193 0.089844 0.090495 0.091146 0.091797 0.092448 0.093099 0.093750 0.094401 0.095052 0.095703 0.096354 0.097005 0.097656 0.098307 0.098958 0.099609 0.100260 0.100911 0.101562 0.102214 0.102865 0.103516 0.104167 0.104818 0.105469 0.106120 0.106771 0.107422 0.108073 0.108724 0.109375 0.110026 0.110677 0.111328 0.111979 0.112630 0.113281 0.113932 0.114583 0.115234 0.115885 0.116536 0.117188 0.117839 0.118490 0.119141 0.119792 0.120443 0.121094 0.121745 0.122396 0.123047 0.123698 0.124349 0.125000 0.125651 0.126302 0.126953 0.127604 0.128255 0.128906 0.129557 0.130208 0.130859 0.131510 0.132161 0.132812 0.133464 0.134115 0.134766 0.135417 0.136068 0.136719 0.137370 0.138021 0.138672 0.139323 0.139974 0.140625 0.141276 0.141927 0.142578 0.143229 0.143880 0.144531 0.145182 0.145833 0.146484 0.147135 0.147786 0.148438 0.149089 0.149740 0.150391 0.151042 0.151693 0.152344 0.152995 0.153646 0.154297 0.154948 0.155599 0.156250 0.156901 0.157552 0.158203 0.158854 0.159505 0.160156 0.160807 0.161458 0.162109 0.162760 0.163411 0.164062 0.164714 0.165365 0.166016 0.166667 0.167318 0.167969 0.168620 0.169271 0.169922 0.170573 0.171224 0.171875 0.172526 0.173177 0.173828 0.174479 0.175130 0.175781 0.176432 0.177083 0.177734 0.178385 0.179036 0.179688 0.180339 0.180990 0.181641 0.182292 0.182943 0.183594 0.184245 0.184896 0.185547 0.186198 0.186849 0.187500 0.188151 0.188802 0.189453 0.190104 0.190755 0.191406 0.192057 0.192708 0.193359 0.194010 0.194661 0.195312 0.195964 0.196615 0.197266 0.197917 0.198568 0.199219 0.199870 0.200521 0.201172 0.201823 0.202474 0.203125 0.203776 0.204427 0.205078 0.205729 0.206380 0.207031 0.207682 0.208333 0.208984 0.209635 0.210286 0.210938 0.211589 0.212240 0.212891 0.213542 0.214193 0.214844 0.215495 0.216146 0.216797 0.217448 0.218099 0.218750 0.219401 0.220052 0.220703 0.221354 0.222005 0.222656 0.223307 0.223958 0.224609 0.225260 0.225911 0.226562 0.227214 0.227865 0.228516 0.229167 0.229818 0.230469 0.231120 0.231771 0.232422 0.233073 0.233724 0.234375 0.235026 0.235677
       0.33346        0.33519        0.33664        0.33715        0.33737        0.33756        0.33763        0.33771        0.33777        0.33780        0.33784        0.33786        0.33789        0.33791        0.33792        0.33794        0.33795        0.33796        0.33797        0.33798        0.33799        0.33799        0.33800        0.33801        0.33801        0.33802        0.33802        0.33803        0.33803        0.33803        0.33804        0.33804        0.33804        0.33805        0.33805        0.33805        0.33805        0.33805        0.33806        0.33806        0.33806        0.33806        0.33806        0.33807        0.33807        0.33807        0.33807        0.33807        0.33807        0.33807        0.33808        0.57371        1.06050        0.81357        0.25068        0.10339       -0.01108       -0.14536        0.09480        0.15123        0.33857        0.27492        0.28522        0.16425        0.23801        0.12019        0.07398        0.01528        0.03840       -0.01543       -0.02350        0.01820       -0.09102       -0.16411       -0.12999       -0.12875       -0.21521       -0.24926       -0.31551       -0.26580       -0.30280       -0.42776       -0.43763       -0.31109       -0.34254       -0.30272       -0.20982       -0.19345       -0.19747       -0.15731       -0.07833       -0.03178        0.00627        0.16398        0.28724        0.40164        0.46396        0.46509        0.47201        0.58124        0.57768        0.63023        0.67285        0.66204        0.69729        0.66647        0.64960        0.68804        0.66244        0.59334        0.63690        0.47778        0.39025        0.32256        0.30645        0.18419        0.10995        0.04538        0.06038        0.00519       -0.02430       -0.01211        0.04953        0.05662        0.02531        0.14639        0.24000        0.37893        0.46869        0.49606        0.61114        0.65667        0.65197        0.63699        0.72755        0.65738        0.60824        0.63892        0.63623        0.55838        0.52283        0.40100        0.26929        0.20662        0.13936        0.17062        0.13632        0.09299        0.08788        0.11161        0.10491        0.17021        0.22909        0.31586        0.38247        0.41045        0.49257        0.52315        0.49218        0.44127        0.49831        0.51420        0.51326        0.43645        0.39412        0.33902        0.27403        0.24399        0.25511        0.22398        0.17260        0.23530        0.27070        0.26734        0.31951        0.35338        0.40879        0.45931        0.52678        0.47535        0.49346        0.51426        0.46784        0.42751        0.41351        0.37046        0.36359        0.29280        0.20962        0.22915        0.22926        0.21053        0.28052        0.25955        0.30932        0.30399        0.37441        0.40842        0.42403        0.44698        0.42695        0.41989        0.41688        0.40837        0.31316        0.32995        0.32076        0.29203        0.24669        0.25813        0.28339        0.29318        0.35910        0.34147        0.35238        0.40394        0.41102        0.39512        0.39939        0.40509        0.39863        0.37739        0.33396        0.28655        0.29506        0.27890        0.29718        0.29611        0.25795        0.28400        0.32803        0.39814        0.38006        0.40101        0.39153        0.38922        0.35816        0.30972        0.33336        0.31136        0.28785        0.29394        0.29360        0.32236        0.32576        0.34086        0.31251        0.32945        0.36589        0.35274        0.33837        0.33591        0.31824        0.27198        0.27535        0.23756        0.25674        0.26440        0.28202        0.31880        0.34061        0.32836        0.33779        0.32060        0.29462        0.30924        0.31903        0.32050        0.26811        0.28080        0.30987        0.30173        0.31540        0.31240        0.34016        0.31938        0.35350        0.32855        0.30227        0.27972        0.33552        0.30082        0.31068        0.32204        0.27731        0.32240        0.34040        0.33648        0.29956        0.33848        0.36510        0.34082        0.31531        0.30217        0.32672        0.32131        0.28882        0.28067        0.32247        0.31252        0.34746        0.34397        0.32386        0.36116        0.26737        0.27020        0.31025        0.23315        0.27321        0.25730        0.26375        0.28189        0.33194        0.30438        0.26339        0.28932        0.29945        0.27239        0.27087        0.25900        0.29527        0.30690        0.26998        0.25261        0.27115        0.27395        0.33685        0.30378        0.31360        0.28981        0.24512        0.24560        0.24619        0.31223        0.27873        0.36648        0.37583        0.25711        0.25213        0.26486        0.26220        0.28839        0.27066        0.24151        0.21084        0.35191        0.35482        0.32459        0.22512        0.19347        0.26453        0.26697        0.10751        0.13368        0.18470        0.24646        0.23330        0.22194        0.00387        0.02703       -0.20944       -0.51280       -0.72902
2.281845 2.265128 2.246346 2.227118 2.208250 2.188551 2.169336 2.149936 2.130736 2.111679 2.092473 2.073544 2.054582 2.035820 2.017064 1.998386 1.979890 1.961410 1.943021 1.924732 1.906520 1.888458 1.870432 1.852509 1.834672 1.816952 1.799295 1.781730 1.764282 1.746895 1.729631 1.712432 1.695328 1.678332 1.661423 1.644598 1.627866 1.611223 1.594684 1.578221 1.561867 1.545586 1.529411 1.513325 1.497323 1.481425 1.465607 1.449893 1.434263 1.418723 1.403284 1.665753 2.248674 2.307777 0.990979 1.170670 0.924879 0.530785 0.994455 0.854454 1.194144 1.112671 1.221143 0.947513 0.977024 0.933829 0.875998 0.699467 0.665717 0.662277 0.640669 0.685808 0.574440 0.334267 0.423346 0.353266 0.316740 0.224319 0.131408 0.075978 0.198221 -0.048958 -0.218215 0.087728 0.020230 0.007470 0.132806 0.127680 0.158371 0.133601 0.289863 0.356033 0.329175 0.498183 0.719944 0.871485 0.922309 0.958641 0.990708 1.016934 1.106592 1.112010 1.152871 1.207605 1.128533 1.212363 1.025292 1.220514 1.149454 0.999758 1.048955 0.843978 0.736424 0.672669 0.588536 0.392829 0.255569 0.228852 0.194075 0.165103 -0.016364 0.043669 0.129914 0.140061 0.126973 0.105528 0.366630 0.401420 0.698568 0.704426 0.728334 0.867564 0.925332 0.852205 0.959046 0.864130 0.805202 0.771857 0.841320 0.757732 0.615289 0.593157 0.315084 0.236943 0.064582 0.156170 0.083836 0.032263 0.002145 -0.022078 -0.012302 0.053673 0.145536 0.219352 0.312778 0.360587 0.487008 0.564053 0.509220 0.395739 0.454796 0.504478 0.513946 0.409952 0.349536 0.248691 0.188085 0.141827 0.023525 0.134192 0.006844 0.053152 0.032958 0.130262 0.113803 0.217790 0.252445 0.247477 0.456433 0.359473 0.396110 0.388600 0.392629 0.296315 0.301484 0.255191 0.177027 0.146802 0.025510 -0.033541 0.017637 -0.044597 -0.000940 0.046680 0.041912 0.121382 0.096246 0.229937 0.204098 0.269423 0.281673 0.229995 0.220976 0.250810 0.131583 0.081672 0.106027 0.117661 -0.006591 -0.002603 0.005919 0.042218 0.071319 0.130698 0.124739 0.143226 0.238375 0.188629 0.218472 0.187022 0.225822 0.204281 0.184287 0.072085 0.074606 0.050338 0.008375 0.114414 0.027190 0.020222 0.053525 0.170505 0.182301 0.186379 0.195554 0.185451 0.185265 0.102204 0.108797 0.085635 0.044761 0.072665 0.023309 0.053065 0.078491 0.130538 0.071813 0.081054 0.114037 0.134122 0.135218 0.091721 0.098684 0.080326 -0.019369 0.034896 -0.053721 -0.001504 0.030712 0.014454 0.089517 0.106311 0.066794 0.109193 0.015100 0.035234 0.036417 0.061213 0.028423 -0.024052 0.008688 0.047341 0.021217 0.079492 0.027178 0.101775 0.028463 0.108969 0.076617 0.017238 -0.028547 0.127991 -0.000961 0.058580 0.031180 -0.003891 0.082132 0.069926 0.078482 0.040779 0.085760 0.090679 0.035469 0.061768 -0.019880 0.041451 0.015094 0.016346 -0.033200 0.083605 -0.016547 0.123790 0.115005 0.041553 0.157131 -0.031517 -0.015118 0.068368 -0.054236 0.001036 -0.030900 0.003547 0.016753 0.111798 0.031974 -0.043451 0.051383 0.016002 -0.017162 -0.006450 0.022079 -0.007105 0.091902 -0.025412 0.006733 0.008689 0.002928 0.175149 -0.002697 0.123496 0.041573 -0.023230 0.026190 0.024748 0.104134 0.038223 0.247769 0.158035 0.047790 0.044281 0.125050 0.037664 0.114984 0.112327 0.120309 0.038082 0.246613 0.278947 0.436479 0.291543 0.233801 0.392639 0.366562 0.111829 0.177758 0.234977 0.405482 0.264777 0.097342 -0.079738 0.132625 -0.285405 -1.007681
0.072396 0.072824 0.074107 0.076244 0.079236 0.083083 0.087782 0.093333 0.099734 0.106984 0.115080 0.124019 0.133798 0.144413 0.155858 0.168128 0.181215 0.195111 0.209806 0.225290 0.241549 0.258570 0.276334 0.294825 0.314019 0.333895 0.354425 0.375581 0.397329 0.419636 0.442461 0.465761 0.489492 0.513600 0.538034 0.562732 0.587631 0.612665 0.637758 0.662835 0.687812 0.712602 0.737112 0.761245 0.784899 0.807966 0.830335 0.851890 0.872510 0.892070 0.910442 0.927495 0.943095 0.957104 0.969385 0.979798 0.988203 0.994460 0.998432 0.999983 0.998979 0.995293 0.988800 0.979386 0.966940 0.951365 0.932570 0.910480 0.885031 0.856176 0.823881 0.788133 0.748938 0.706321 0.660332 0.611042 0.558547 0.502972 0.444465 0.383203 0.319393 0.253270 0.185098 0.115171 0.043811 0.028631 0.101776 0.175218 0.248528 0.321251 0.392913 0.463023 0.531072 0.596542 0.658905 0.717633 0.772196 0.822072 0.866750 0.905736 0.938561 0.964783 0.983997 0.995840 0.999997 0.996208 0.984274 0.964062 0.935512 0.898643 0.853553 0.800430 0.739549 0.671276 0.596073 0.514493 0.427182 0.334876 0.238397 0.138652 0.036619 0.066654 0.170061 0.272448 0.372628 0.469390 0.561517 0.647800 0.727058 0.798149 0.859998 0.911605 0.952070 0.980611 0.996577 0.999470 0.988955 0.964879 0.927277 0.876386 0.812649 0.736718 0.649453 0.551923 0.445396 0.331323 0.211332 0.087201 0.039161 0.165744 0.290463 0.411196 0.525821 0.632248 0.728465 0.812580 0.882856 0.937755 0.975978 0.996498 0.998593 0.981873 0.946308 0.892235 0.820375 0.731831 0.628083 0.510968 0.382664 0.245647 0.102657 0.043354 0.189283 0.331933 0.468093 0.594600 0.708423 0.806739 0.887006 0.947039 0.985075 0.999834 0.990571 0.957112 0.899888 0.819937 0.718909 0.599043 0.463129 0.314452 0.156732 0.005975 0.169368 0.329016 0.480469 0.619398 0.741712 0.843690 0.922103 0.974324 0.998431 0.993290 0.958617 0.895011 0.803975 0.687898 0.550005 0.394289 0.225406 0.048550 0.130706 0.306571 0.473229 0.625032 0.756701 0.863510 0.941476 0.987519 0.999598 0.976824 0.919520 0.829257 0.708829 0.562196 0.394372 0.211270 0.019502 0.173834 0.361436 0.536049 0.690766 0.819310 0.916291 0.977464 0.999922 0.982265 0.924697 0.829067 0.698843 0.539010 0.355909 0.157003 0.049415 0.254550 0.449484 0.625560 0.774781 0.890182 0.966180 0.998861 0.986216 0.928281 0.827195 0.687162 0.514305 0.316427 0.102684 0.116819 0.331503 0.530817 0.704763 0.844415 0.942392 0.993281 0.993960 0.943824 0.844883 0.701727 0.521351 0.312850 0.086982 0.144358 0.368764 0.573975 0.748557 0.882556 0.968095 0.999869 0.975507 0.895786 0.764666 0.589137 0.378894 0.145830 0.096604 0.334162 0.552646 0.738750 0.880895 0.969978 0.999997 0.968489 0.876781 0.729989 0.536786 0.308948 0.060654 0.192355 0.433767 0.647759 0.820030 0.938806 0.995669 0.986205 0.910401 0.772735 0.581986 0.350720 0.094515 0.169073 0.421672 0.645400 0.824130 0.944686 0.997867 0.979191 0.889338 0.734202 0.524585 0.275501 0.005136 0.266440 0.518752 0.732466 0.890908 0.981396 0.996310 0.933799 0.798051 0.599087 0.352096 0.076326 0.206373 0.473261 0.702546 0.875180 0.976485 0.997462 0.935660 0.795514 0.588118 0.330420 0.043892 0.247202 0.517860 0.744484 0.906970 0.990543 0.987172 0.896409 0.725597 0.489348 0.208389 0.092218 0.385251 0.643809 0.843794 0.966189 0.998952 0.938271 0.789087 0.564795 0.286139
1.000000 1.000000 1.000000 1.000000 1.000000 1.000000 1.000000 1.000000 1.000000 1.000000 1.000000 1.000000 1.000000 1.000000 1.000000 1.000000 1.000000 1.000000 1.000000 1.000000 1.000000 1.000000 1.000000 1.000000 1.000000 1.000000 1.000000 1.000000 1.000000 1.000000 1.000000 1.000000 1.000000 1.000000 1.000000 1.000000 1.000000 1.000000 1.000000 1.000000 1.000000 1.000000 1.000000 1.000000 1.000000 1.000000 1.000000 1.000000 1.000000 1.000000 1.000000 1.000000 0.805881 0.805881 0.805881 0.805881 0.805881 0.805881 0.805881 0.805881 0.784599 0.784599 0.784599 0.784599 0.784599 0.784599 0.784599 0.784599 0.784599 0.784599 0.784599 0.784599 0.784599 0.784599 0.784599 0.784599 0.784599 0.784599 0.784599 0.784599 0.784599 0.784599 0.784599 0.784599 0.784599 0.784599 0.784599 0.784599 0.784599 0.784599 0.784599 0.784599 0.784599 0.784599 0.784599 0.784599 0.784599 0.784599 0.784599 0.784599 0.784599 0.784599 0.784599 0.784599 0.784599 0.955194 0.954223 0.955202 0.956869 0.958800 0.959023 0.958996 0.959241 0.959205 0.961527 0.961754 0.962197 0.962739 0.963779 0.964245 0.968516 0.970002 0.971953 0.973716 0.976332 0.977741 0.978314 0.976324 0.971803 0.967150 0.967970 0.965486 0.966872 0.966281 0.964992 0.965586 0.966298 0.965145 0.963235 0.962585 0.961228 0.960051 0.959132 0.960684 0.960572 0.960818 0.961226 0.961348 0.961581 0.961789 0.961910 0.962005 0.962179 0.961240 0.960002 0.961294 0.961146 0.957601 0.954737 0.952159 0.959255 0.957937 0.957460 0.957332 0.957452 0.957927 0.958288 0.956057 0.953828 0.953393 0.945056 0.934057 0.932994 0.932253 0.931297 0.934277 0.936385 0.936887 0.935767 0.937186 0.934244 0.930118 0.927012 0.920123 0.920874 0.922221 0.923912 0.923588 0.923742 0.922979 0.920915 0.916375 0.916939 0.917383 0.920026 0.909024 0.906284 0.894290 0.882381 0.883359 0.884851 0.885637 0.890471 0.888587 0.893520 0.894897 0.896357 0.890573 0.889204 0.889329 0.889133 0.884848 0.887718 0.887228 0.885486 0.882943 0.871523 0.858288 0.860517 0.861754 0.863099 0.862657 0.857771 0.855797 0.855721 0.850014 0.851297 0.850919 0.852893 0.853029 0.852659 0.853777 0.825295 0.811003 0.803033 0.806210 0.805771 0.805582 0.807484 0.804436 0.794293 0.766815 0.763631 0.754588 0.749771 0.753897 0.740444 0.741037 0.734549 0.709584 0.676339 0.652643 0.654862 0.637712 0.633034 0.635954 0.623602 0.604063 0.617411 0.594310 0.603252 0.617011 0.608664 0.603669 0.597459 0.591098 0.582510 0.571793 0.559752 0.537982 0.549638 0.558285 0.542778 0.545066 0.501356 0.488494 0.477571 0.506260 0.488415 0.464020 0.483848 0.486580 0.491093 0.486608 0.481289 0.464579 0.465390 0.427928 0.434416 0.436430 0.416041 0.401872 0.386464 0.367943 0.341890 0.349108 0.319051 0.328797 0.335811 0.363964 0.372185 0.375155 0.362638 0.370580 0.353746 0.380221 0.387979 0.363680 0.359950 0.342680 0.344789 0.348881 0.367618 0.382596 0.360523 0.387984 0.388894 0.416451 0.428352 0.421402 0.425539 0.400481 0.361322 0.385425 0.388950 0.387523 0.376717 0.356224 0.327089 0.317987 0.308644 0.344607 0.341280 0.341280 0.341280 0.341280 0.341280 0.345500 0.345500 0.345500 0.345500 0.345500 0.345500 0.345500 0.345500 0.345500 0.345500 0.345500 0.354489 0.354489 0.354489 0.354489 0.354489 0.354489 0.354489 0.354489 0.354489 0.354489 0.354489 0.354489 0.354489 0.354489 0.354489
0.000000 0.000000 0.000000 0.000000 0.000000 0.000000 0.000000 0.000000 0.000000 0.000000 0.000000 0.000000 0.000000 0.000000 0.000000 0.000000 0.000000 0.000000 0.000000 0.000000 0.000000 9401.000000 0.000000 0.000000 0.000000 0.000000 0.000000 0.000000 0.000000 0.000000 0.000000 0.000000 0.000000 0.000000 0.000000 0.000000 0.000000 0.000000 0.000000 0.000000 0.000000 0.000000 0.000000 0.000000 0.000000 0.000000 0.000000 0.000000 0.000000 0.000000 0.000000 0.000000 0.172133 0.172133 0.172133 0.172133 0.172133 0.172133 0.172133 0.172133 0.189832 0.189832 0.189832 0.189832 0.189832 0.189832 0.189832 0.189832 0.189832 0.189832 0.189832 0.189832 0.189832 0.189832 0.189832 0.189832 0.189832 0.189832 0.189832 0.189832 0.189832 0.189832 0.189832 0.189832 0.189832 0.189832 0.189832 0.189832 0.189832 0.189832 0.189832 0.189832 0.189832 0.189832 0.189832 0.189832 0.189832 0.189832 0.189832 0.189832 0.189832 0.189832 0.189832 0.189832 0.189832 0.222222 0.222222 0.222222 0.222222 0.222222 0.222222 0.222222 0.222222 0.222222 0.222222 0.222222 0.222222 0.222222 0.222222 0.222222 0.222222 0.222222 0.222222 0.222222 0.222222 0.222222 0.222222 0.222222 0.222222 0.222222 0.222222 0.222222 0.222222 0.222222 0.222222 0.234082 0.234082 0.234082 0.234082 0.234082 0.234082 0.234082 0.234082 0.234082 0.234082 0.234082 0.234082 0.234082 0.234082 0.234082 0.234082 0.234082 0.234082 0.234082 0.234082 0.234082 0.234082 0.234082 0.234082 0.234082 0.240772 0.240772 0.240772 0.240772 0.240772 0.240772 0.240772 0.240772 0.240772 0.240772 0.240772 0.240772 0.240772 0.240772 0.240772 0.240772 0.240772 0.240772 0.240772 0.240772 0.240772 0.240772 0.248069 0.248069 0.248069 0.248069 0.248069 0.248069 0.248069 0.248069 0.248069 0.248069 0.248069 0.248069 0.248069 0.248069 0.248069 0.248069 0.248069 0.248069 0.248069 0.256074 0.256074 0.256074 0.256074 0.256074 0.256074 0.256074 0.256074 0.256074 0.256074 0.256074 0.256074 0.256074 0.256074 0.256074 0.256074 0.256074 0.248069 0.248069 0.248069 0.248069 0.248069 0.248069 0.248069 0.248069 0.248069 0.248069 0.248069 0.248069 0.248069 0.248069 0.248069 0.248069 0.248069 0.256074 0.256074 0.256074 0.256074 0.256074 0.256074 0.256074 0.256074 0.256074 0.256074 0.256074 0.256074 0.256074 0.256074 0.256074 0.256074 0.256074 0.256074 0.256074 0.256074 0.256074 0.256074 0.256074 0.256074 0.256074 0.256074 0.256074 0.256074 0.256074 0.251976 0.251976 0.251976 0.251976 0.251976 0.251976 0.251976 0.251976 0.251976 0.251976 0.251976 0.251976 0.251976 0.251976 0.264906 0.264906 0.264906 0.264906 0.264906 0.264906 0.264906 0.264906 0.264906 0.264906 0.264906 0.264906 0.248069 0.248069 0.248069 0.248069 0.248069 0.248069 0.248069 0.248069 0.248069 0.248069 0.248069 0.248069 0.248069 0.251976 0.251976 0.251976 0.251976 0.251976 0.251976 0.251976 0.251976 0.251976 0.251976 0.251976 0.251976 0.256074 0.256074 0.256074 0.256074 0.256074 0.256074 0.256074 0.256074 0.256074 0.256074 0.256074 0.251976 0.251976 0.251976 0.251976 0.251976 0.251976 0.251976 0.251976 0.251976 0.251976 0.251976 0.248069 0.248069 0.248069 0.248069 0.248069 0.248069 0.248069 0.248069 0.248069 0.248069 0.248069 0.256074 0.256074 0.256074 0.256074 0.256074 0.256074 0.256074 0.256074 0.256074 0.256074 0.256074 0.256074 0.256074 0.256074 0.256074
