# Output from CTFFind version 4.1.9, run on 2019-11-03 18:51:43
# Input file: stack2_ub_averaged_1000.mrc ; Number of micrographs: 1
# Pixel size: 3.000 Angstroms ; acceleration voltage: 300.0 keV ; spherical aberration: 0.00 mm ; amplitude contrast: 0.07
# Box size: 512 pixels ; min. res.: 30.0 Angstroms ; max. res.: 5.0 Angstroms ; min. def.: 5000.0 um; max. def. 50000.0 um; num. frames averaged: 1
# 6 lines per micrograph: #1 - spatial frequency (1/Angstroms); #2 - 1D rotational average of spectrum (assuming no astigmatism); #3 - 1D rotational average of spectrum; #4 - CTF fit; #5 - cross-correlation between spectrum and CTF fit; #6 - 2sigma of expected cross correlation of noise
0.000000 0.000651 0.001302 0.001953 0.002604 0.003255 0.003906 0.004557 0.005208 0.005859 0.006510 0.007161 0.007812 0.008464 0.009115 0.009766 0.010417 0.011068 0.011719 0.012370 0.013021 0.013672 0.014323 0.014974 0.015625 0.016276 0.016927 0.017578 0.018229 0.018880 0.019531 0.020182 0.020833 0.021484 0.022135 0.022786 0.023438 0.024089 0.024740 0.025391 0.026042 0.026693 0.027344 0.027995 0.028646 0.029297 0.029948 0.030599 0.031250 0.031901 0.032552 0.033203 0.033854 0.034505 0.035156 0.035807 0.036458 0.037109 0.037760 0.038411 0.039062 0.039714 0.040365 0.041016 0.041667 0.042318 0.042969 0.043620 0.044271 0.044922 0.045573 0.046224 0.046875 0.047526 0.048177 0.048828 0.049479 0.050130 0.050781 0.051432 0.052083 0.052734 0.053385 0.054036 0.054688 0.055339 0.055990 0.056641 0.057292 0.057943 0.058594 0.059245 0.059896 0.060547 0.061198 0.061849 0.062500 0.063151 0.063802 0.064453 0.065104 0.065755 0.066406 0.067057 0.067708 0.068359 0.069010 0.069661 0.070312 0.070964 0.071615 0.072266 0.072917 0.073568 0.074219 0.074870 0.075521 0.076172 0.076823 0.077474 0.078125 0.078776 0.079427 0.080078 0.080729 0.081380 0.082031 0.082682 0.083333 0.083984 0.084635 0.085286 0.085938 0.086589 0.087240 0.087891 0.088542 0.089193 0.089844 0.090495 0.091146 0.091797 0.092448 0.093099 0.093750 0.094401 0.095052 0.095703 0.096354 0.097005 0.097656 0.098307 0.098958 0.099609 0.100260 0.100911 0.101562 0.102214 0.102865 0.103516 0.104167 0.104818 0.105469 0.106120 0.106771 0.107422 0.108073 0.108724 0.109375 0.110026 0.110677 0.111328 0.111979 0.112630 0.113281 0.113932 0.114583 0.115234 0.115885 0.116536 0.117188 0.117839 0.118490 0.119141 0.119792 0.120443 0.121094 0.121745 0.122396 0.123047 0.123698 0.124349 0.125000 0.125651 0.126302 0.126953 0.127604 0.128255 0.128906 0.129557 0.130208 0.130859 0.131510 0.132161 0.132812 0.133464 0.134115 0.134766 0.135417 0.136068 0.136719 0.137370 0.138021 0.138672 0.139323 0.139974 0.140625 0.141276 0.141927 0.142578 0.143229 0.143880 0.144531 0.145182 0.145833 0.146484 0.147135 0.147786 0.148438 0.149089 0.149740 0.150391 0.151042 0.151693 0.152344 0.152995 0.153646 0.154297 0.154948 0.155599 0.156250 0.156901 0.157552 0.158203 0.158854 0.159505 0.160156 0.160807 0.161458 0.162109 0.162760 0.163411 0.164062 0.164714 0.165365 0.166016 0.166667 0.167318 0.167969 0.168620 0.169271 0.169922 0.170573 0.171224 0.171875 0.172526 0.173177 0.173828 0.174479 0.175130 0.175781 0.176432 0.177083 0.177734 0.178385 0.179036 0.179688 0.180339 0.180990 0.181641 0.182292 0.182943 0.183594 0.184245 0.184896 0.185547 0.186198 0.186849 0.187500 0.188151 0.188802 0.189453 0.190104 0.190755 0.191406 0.192057 0.192708 0.193359 0.194010 0.194661 0.195312 0.195964 0.196615 0.197266 0.197917 0.198568 0.199219 0.199870 0.200521 0.201172 0.201823 0.202474 0.203125 0.203776 0.204427 0.205078 0.205729 0.206380 0.207031 0.207682 0.208333 0.208984 0.209635 0.210286 0.210938 0.211589 0.212240 0.212891 0.213542 0.214193 0.214844 0.215495 0.216146 0.216797 0.217448 0.218099 0.218750 0.219401 0.220052 0.220703 0.221354 0.222005 0.222656 0.223307 0.223958 0.224609 0.225260 0.225911 0.226562 0.227214 0.227865 0.228516 0.229167 0.229818 0.230469 0.231120 0.231771 0.232422 0.233073 0.233724 0.234375 0.235026 0.235677
       0.34295        0.34295        0.34295        0.34295        0.34295        0.34295        0.34295        0.34295        0.34295        0.34295        0.34295        0.34295        0.34295        0.34295        0.34295        0.34295        0.34295        0.34295        0.34295        0.34295        0.34295        0.34295        0.34295        0.34295        0.34295        0.34295        0.34295        0.34295        0.34295        0.34295        0.34295        0.34295        0.34295        0.34295        0.34295        0.34295        0.34295        0.34295        0.34295        0.34295        0.34295        0.34295        0.34295        0.34295        0.34295        0.34295        0.34295        0.34295        0.34295        0.34295        0.34295        0.56631        0.78798        0.37174        0.08879       -0.22548       -0.46951       -0.38179       -0.33218       -0.27160       -0.39179       -0.26739       -0.25665       -0.49305       -0.49341       -0.58254       -0.60799       -0.68217       -0.68453       -0.66203       -0.67192       -0.69642       -0.63326       -0.53883       -0.56229       -0.60088       -0.44961       -0.34414       -0.26180       -0.23693       -0.15231       -0.05845        0.12475        0.16799        0.26167        0.45025        0.41115        0.57803        0.69858        0.58914        0.74318        0.67907        0.61348        0.61671        0.58522        0.45170        0.48653        0.32942        0.22790        0.25718        0.11451       -0.01374       -0.01297       -0.00746        0.00390       -0.00768        0.03487        0.10013        0.13197        0.29369        0.35813        0.41504        0.53312        0.65563        0.72869        0.77574        0.80830        0.71739        0.64393        0.58736        0.56024        0.44447        0.33260        0.32471        0.14574        0.12645        0.05346        0.14715        0.10516        0.10611        0.14264        0.16613        0.37836        0.44166        0.49199        0.51109        0.61329        0.54547        0.61204        0.57376        0.56335        0.49768        0.45883        0.37257        0.31352        0.21316        0.17213        0.15980        0.11250        0.11867        0.24637        0.25302        0.35548        0.44144        0.48990        0.50338        0.55737        0.49817        0.47275        0.41796        0.38760        0.34064        0.24195        0.18156        0.20533        0.23156        0.23486        0.26266        0.32426        0.31444        0.35363        0.47276        0.42274        0.50023        0.47620        0.43797        0.41514        0.35408        0.30128        0.29293        0.26894        0.28994        0.26531        0.29292        0.34000        0.41601        0.41651        0.40877        0.42047        0.44701        0.39992        0.40869        0.36393        0.30138        0.29283        0.29300        0.28675        0.33631        0.37535        0.36107        0.38365        0.41494        0.41967        0.45081        0.41536        0.40775        0.32270        0.30325        0.27619        0.31850        0.35386        0.35619        0.35639        0.31749        0.40396        0.39026        0.37292        0.36664        0.33913        0.29955        0.28039        0.28791        0.32404        0.31294        0.31538        0.30983        0.37030        0.38547        0.37963        0.37184        0.34555        0.33786        0.32584        0.34565        0.33284        0.35796        0.34825        0.33050        0.32055        0.30751        0.35495        0.37087        0.36449        0.29816        0.31302        0.31616        0.30890        0.31387        0.29942        0.31980        0.30920        0.30897        0.30492        0.34121        0.30284        0.27829        0.28076        0.28479        0.28750        0.30885        0.33089        0.34692        0.35196        0.30836        0.30421        0.32321        0.30997        0.32935        0.30696        0.30713        0.32172        0.32888        0.34809        0.33225        0.35084        0.38167        0.34743        0.31997        0.31305        0.32617        0.28486        0.31764        0.31739        0.32468        0.27643        0.34570        0.32104        0.30073        0.29715        0.29961        0.34334        0.32860        0.32946        0.30875        0.29901        0.36700        0.30638        0.33702        0.29315        0.27941        0.36305        0.31864        0.33818        0.35236        0.34773        0.32928        0.31905        0.31947        0.33896        0.31201        0.33506        0.33455        0.31467        0.32811        0.30918        0.30829        0.27199        0.25832        0.28135        0.29368        0.25568        0.30029        0.29016        0.31206        0.28738        0.26252        0.23920        0.27090        0.33272        0.29624        0.23267        0.24127        0.26718        0.27698        0.29438        0.29838        0.23669        0.26850        0.28177        0.26300        0.26665        0.24811        0.24497        0.29507        0.29266        0.32201        0.27997        0.23902        0.26165        0.33047        0.20444        0.24188        0.27837        0.30358        0.26359        0.15576        0.31991        0.27303        0.24195        0.08222       -0.05546       -0.30995       -0.76788
2.526554 2.498915 2.471432 2.444106 2.416936 2.389923 2.363066 2.336366 2.309822 2.283435 2.257204 2.231130 2.205212 2.179451 2.153847 2.128399 2.103107 2.077972 2.052994 2.028172 2.003507 1.978998 1.954646 1.930450 1.906410 1.882528 1.858801 1.835232 1.811819 1.788562 1.765462 1.742518 1.719731 1.697101 1.674627 1.652309 1.630148 1.608144 1.586296 1.564605 1.543070 1.521692 1.500470 1.479405 1.458496 1.437744 1.417148 1.396709 1.376426 1.356300 1.336331 1.298664 1.917854 1.338575 1.036871 0.598910 0.288875 0.401587 0.464955 0.488829 0.259875 0.460834 0.451561 0.220262 0.101633 0.033428 0.011799 -0.130834 -0.125434 -0.154754 -0.136725 -0.221719 -0.159606 -0.048585 -0.112341 -0.186351 -0.061564 0.082405 0.240215 0.096972 0.258077 0.286518 0.531330 0.543621 0.640721 0.813144 0.788786 0.903111 1.129190 0.970550 1.009748 1.048505 1.003433 0.861399 0.992569 0.690363 0.761311 0.600822 0.436615 0.475774 0.349177 0.129467 0.129562 0.112792 0.094962 0.104164 0.073201 0.178559 0.178137 0.350974 0.412837 0.470402 0.573602 0.703678 0.767406 0.832123 0.913924 0.719626 0.719638 0.641810 0.595363 0.438362 0.307895 0.324453 0.101895 0.078986 -0.063713 0.033940 0.011298 -0.027005 0.026582 -0.012527 0.233356 0.265238 0.418141 0.356847 0.499404 0.395285 0.512701 0.514561 0.425485 0.408748 0.311605 0.247518 0.198239 0.097462 -0.049514 0.000282 -0.092380 -0.127191 -0.010253 0.078331 0.104087 0.191626 0.308550 0.301377 0.371316 0.343962 0.355975 0.287870 0.217346 0.206251 0.099567 0.005771 -0.057483 0.061439 -0.006584 0.036746 0.117615 0.105917 0.134958 0.208284 0.257471 0.251196 0.294877 0.213361 0.221489 0.151504 0.085658 0.076656 0.059553 -0.009688 0.039952 0.019224 0.058351 0.118593 0.196661 0.170685 0.145349 0.162807 0.152422 0.102991 0.144537 0.000821 0.011950 -0.025828 -0.028345 -0.010499 0.093072 0.039052 0.076370 0.082712 0.107227 0.115778 0.125319 0.109466 0.045762 -0.033219 -0.065790 -0.026695 0.010664 0.000443 0.064151 -0.002781 0.001758 0.107155 0.037200 0.034336 0.062517 -0.064764 -0.025202 -0.073917 -0.041260 -0.000282 -0.038747 -0.014698 -0.017936 0.066191 0.050194 0.060778 0.008363 0.027176 0.008346 -0.019436 0.035533 0.017113 0.040105 0.002685 0.005592 -0.016804 -0.005099 0.057131 0.076617 0.037743 -0.018483 0.037300 -0.010710 -0.000024 0.005422 -0.008098 0.023827 -0.000657 0.011249 0.013491 0.057603 -0.016828 -0.023454 -0.023781 -0.016316 -0.006336 0.020275 0.037303 0.082871 0.022316 0.002592 0.016754 0.033012 0.019388 0.011528 0.008207 0.010546 0.032838 0.034951 0.066213 0.005554 0.046626 0.072588 0.035409 0.009335 0.000874 0.007653 -0.036133 0.030752 -0.029767 0.004082 -0.028074 0.023872 -0.003199 0.003303 -0.025993 -0.039127 0.045622 0.015402 0.017389 -0.005647 0.004036 0.053870 -0.005792 0.039297 -0.037250 -0.056208 0.055758 0.007787 0.045890 0.023510 0.052588 -0.015785 0.041526 0.010252 0.012663 0.020168 0.019732 0.027311 -0.001408 0.036134 0.013529 -0.000152 -0.040232 -0.016956 -0.018020 -0.033601 -0.053227 0.024912 -0.001198 0.027001 -0.010436 -0.025577 -0.024376 -0.064507 0.082835 0.018522 -0.046011 -0.049590 0.016092 0.038000 0.005541 0.068498 -0.035813 0.035339 0.047642 0.023232 0.029402 -0.003165 0.006010 0.060791 0.090480 0.097536 0.098311 -0.016037 0.107992 0.108277 0.058671 0.254521 0.320788 0.292430 0.335710 0.183365 0.402972 0.324780 0.270519 0.073605 -0.063016 -0.855354
0.072396 0.072964 0.074666 0.077503 0.081474 0.086577 0.092811 0.100174 0.108663 0.118274 0.129003 0.140843 0.153788 0.167829 0.182955 0.199153 0.216408 0.234702 0.254014 0.274320 0.295592 0.317797 0.340900 0.364858 0.389626 0.415151 0.441374 0.468232 0.495652 0.523557 0.551861 0.580470 0.609282 0.638188 0.667069 0.695799 0.724241 0.752252 0.779678 0.806357 0.832121 0.856790 0.880181 0.902100 0.922349 0.940725 0.957019 0.971021 0.982516 0.991291 0.997133 0.999833 0.999186 0.994995 0.987071 0.975238 0.959333 0.939212 0.914750 0.885845 0.852420 0.814428 0.771853 0.724715 0.673070 0.617017 0.556696 0.492292 0.424039 0.352220 0.277169 0.199269 0.118957 0.036721 0.046903 0.131326 0.215918 0.300002 0.382865 0.463760 0.541912 0.616529 0.686802 0.751921 0.811082 0.863499 0.908413 0.945105 0.972909 0.991224 0.999528 0.997389 0.984480 0.960589 0.925633 0.879665 0.822885 0.755650 0.678474 0.592036 0.497179 0.394908 0.286386 0.172926 0.055980 0.062878 0.181967 0.299523 0.413719 0.522701 0.624613 0.717630 0.799996 0.870059 0.926309 0.967412 0.992254 0.999968 0.989968 0.961982 0.916070 0.852647 0.772491 0.676751 0.566941 0.444931 0.312923 0.173421 0.029193 0.116778 0.261356 0.401309 0.533390 0.654407 0.761310 0.851271 0.921766 0.970660 0.996274 0.997461 0.973659 0.924934 0.852017 0.756307 0.639875 0.505433 0.356289 0.196283 0.029695 0.138855 0.304533 0.462425 0.607689 0.735703 0.842226 0.923548 0.976635 0.999260 0.990109 0.948874 0.876300 0.774210 0.645491 0.494039 0.324661 0.142948 0.044897 0.232261 0.412347 0.578424 0.724079 0.843486 0.931648 0.984629 0.999760 0.975789 0.912997 0.813241 0.679948 0.518028 0.333732 0.134428 0.071663 0.275801 0.469090 0.642866 0.789103 0.900796 0.972326 0.999774 0.981167 0.916646 0.808540 0.661327 0.481504 0.277328 0.058485 0.164364 0.380080 0.577604 0.746534 0.877690 0.963650 0.999200 0.981700 0.911309 0.791083 0.626898 0.427219 0.202711 0.034294 0.270457 0.492160 0.686316 0.841141 0.946918 0.996637 0.986523 0.916365 0.789648 0.613454 0.398133 0.156749 0.095679 0.343072 0.569323 0.759353 0.900141 0.981664 0.997671 0.946221 0.829952 0.656038 0.435825 0.184157 0.081576 0.342600 0.580088 0.776524 0.917027 0.990539 0.990761 0.916767 0.773233 0.570246 0.322663 0.049126 0.229331 0.490849 0.714476 0.881875 0.978881 0.996774 0.933153 0.792309 0.585054 0.327983 0.042239 0.248184 0.518417 0.744862 0.907291 0.990713 0.986850 0.895058 0.722588 0.484141 0.200710 0.102175 0.396706 0.655345 0.853406 0.971499 0.997495 0.927896 0.768392 0.533546 0.245571 0.067658 0.375245 0.646321 0.853146 0.974020 0.995673 0.914830 0.738812 0.485020 0.179349 0.146342 0.457520 0.720609 0.906657 0.994622 0.973864 0.845574 0.622925 0.329880 0.001264 0.333338 0.628450 0.852323 0.978365 0.990937 0.887453 0.678989 0.389270 0.052136 0.292332 0.602493 0.840236 0.975713 0.991231 0.883722 0.665458 0.362848 0.013397 0.338823 0.648695 0.875856 0.990060 0.975348 0.832463 0.579119 0.248001 0.117281 0.467849 0.756077 0.942114 0.999526 0.919236 0.711154 0.403192 0.037723 0.334126 0.659557 0.891621 0.996125 0.956829 0.778196 0.485163 0.119885 0.264165 0.609948 0.865320 0.991024 0.966905 0.795362 0.501441 0.129414 0.263680 0.616740 0.874056 0.994252 0.957121 0.767275 0.453902 0.066503 0.332706 0.678735 0.914405 0.999971 0.920025 0.686547
1.000000 1.000000 1.000000 1.000000 1.000000 1.000000 1.000000 1.000000 1.000000 1.000000 1.000000 1.000000 1.000000 1.000000 1.000000 1.000000 1.000000 1.000000 1.000000 1.000000 1.000000 1.000000 1.000000 1.000000 1.000000 1.000000 1.000000 1.000000 1.000000 1.000000 1.000000 1.000000 1.000000 1.000000 1.000000 1.000000 1.000000 1.000000 1.000000 1.000000 1.000000 1.000000 1.000000 1.000000 1.000000 1.000000 1.000000 1.000000 1.000000 1.000000 1.000000 1.000000 0.916569 0.916569 0.916569 0.916569 0.916569 0.916569 0.916569 0.916569 0.916569 0.916569 0.916569 0.916569 0.916569 0.916569 0.916569 0.916569 0.916569 0.916569 0.916569 0.916569 0.916569 0.916569 0.916569 0.916569 0.916569 0.916569 0.916569 0.916569 0.916569 0.916569 0.916569 0.916569 0.916569 0.916569 0.916569 0.916569 0.916569 0.916569 0.916569 0.891125 0.898969 0.902600 0.904820 0.901742 0.902997 0.902246 0.902948 0.901324 0.903284 0.906272 0.908483 0.921418 0.925597 0.928980 0.928435 0.929577 0.930338 0.950955 0.949928 0.945686 0.944858 0.947787 0.950912 0.951313 0.951644 0.951285 0.951840 0.951390 0.950527 0.949614 0.948369 0.947963 0.947849 0.947913 0.948571 0.948822 0.949722 0.949572 0.949671 0.949946 0.944443 0.935096 0.946359 0.946850 0.942556 0.938320 0.938990 0.936687 0.937111 0.937976 0.939166 0.938025 0.938915 0.933539 0.931193 0.923449 0.911238 0.906323 0.906164 0.908994 0.910011 0.912491 0.911048 0.910004 0.910200 0.911698 0.909823 0.909177 0.907545 0.899469 0.905765 0.907016 0.903869 0.900335 0.878408 0.873246 0.872360 0.877234 0.879807 0.864381 0.863922 0.864178 0.867002 0.869092 0.872403 0.866445 0.860854 0.849682 0.847472 0.851518 0.835580 0.834421 0.824506 0.815773 0.799784 0.798534 0.796855 0.796414 0.796129 0.798433 0.765224 0.779017 0.776889 0.775024 0.760459 0.763729 0.764949 0.758725 0.756981 0.758124 0.758050 0.738812 0.737111 0.741301 0.738380 0.734107 0.690068 0.669250 0.640376 0.636084 0.625074 0.576642 0.554624 0.562619 0.557964 0.546269 0.536749 0.522332 0.550460 0.557839 0.547105 0.507046 0.482706 0.487471 0.478673 0.473083 0.468506 0.481974 0.495077 0.491614 0.475282 0.463414 0.469942 0.492430 0.466762 0.427038 0.435222 0.437990 0.459873 0.463255 0.463080 0.455417 0.434246 0.414805 0.435385 0.456505 0.442442 0.440384 0.439119 0.405021 0.393358 0.393490 0.370070 0.369650 0.320170 0.295701 0.292584 0.272538 0.264879 0.240323 0.277025 0.318898 0.306862 0.328786 0.372354 0.391241 0.374858 0.355729 0.299392 0.282344 0.261512 0.236473 0.235482 0.217173 0.227948 0.234447 0.202962 0.247286 0.224940 0.226242 0.209728 0.250727 0.264573 0.246811 0.175461 0.122618 0.116060 0.112279 0.091726 0.057169 0.059580 0.090812 0.067875 0.039563 -0.008290 -0.070499 -0.067062 -0.067759 -0.079566 -0.139848 -0.112261 -0.084614 -0.038154 -0.028999 -0.018657 -0.034532 -0.010920 -0.036121 -0.017426 -0.014107 -0.024346 0.002355 -0.012035 0.012757 0.043270 0.047727 0.035271 0.066118 0.000068 0.037166 0.014545 0.014500 0.033638 0.014118 0.037942 0.036021 0.037424 0.006023 -0.000781 -0.007583 -0.005771 -0.005771 -0.005771 -0.005771 -0.005771 -0.026616 -0.026616 -0.026616 -0.026616 -0.026616 -0.026616 -0.026616 -0.026616 -0.009664 -0.009664 -0.009664 -0.009664 -0.009664 -0.009664 -0.009664 -0.009664 0.006801 0.006801 0.006801 0.006801 0.006801 0.006801 0.006801 0.006801 0.006801 0.006801
0.000000 0.000000 0.000000 0.000000 0.000000 0.000000 0.000000 0.000000 0.000000 0.000000 0.000000 0.000000 0.000000 0.000000 0.000000 0.000000 0.000000 0.000000 0.000000 0.000000 0.000000 9401.000000 0.000000 0.000000 0.000000 0.000000 0.000000 0.000000 0.000000 0.000000 0.000000 0.000000 0.000000 0.000000 0.000000 0.000000 0.000000 0.000000 0.000000 0.000000 0.000000 0.000000 0.000000 0.000000 0.000000 0.000000 0.000000 0.000000 0.000000 0.000000 0.000000 0.000000 0.203069 0.203069 0.203069 0.203069 0.203069 0.203069 0.203069 0.203069 0.203069 0.203069 0.203069 0.203069 0.203069 0.203069 0.203069 0.203069 0.203069 0.203069 0.203069 0.203069 0.203069 0.203069 0.203069 0.203069 0.203069 0.203069 0.203069 0.203069 0.203069 0.203069 0.203069 0.203069 0.203069 0.203069 0.203069 0.203069 0.203069 0.203069 0.203069 0.237356 0.237356 0.237356 0.237356 0.237356 0.237356 0.237356 0.237356 0.237356 0.237356 0.237356 0.237356 0.237356 0.237356 0.237356 0.237356 0.237356 0.237356 0.237356 0.237356 0.237356 0.237356 0.237356 0.237356 0.237356 0.237356 0.248069 0.248069 0.248069 0.248069 0.248069 0.248069 0.248069 0.248069 0.248069 0.248069 0.248069 0.248069 0.248069 0.248069 0.248069 0.248069 0.248069 0.248069 0.248069 0.248069 0.248069 0.248069 0.256074 0.256074 0.256074 0.256074 0.256074 0.256074 0.256074 0.256074 0.256074 0.256074 0.256074 0.256074 0.256074 0.256074 0.256074 0.256074 0.256074 0.256074 0.256074 0.269680 0.269680 0.269680 0.269680 0.269680 0.269680 0.269680 0.269680 0.269680 0.269680 0.269680 0.269680 0.269680 0.269680 0.269680 0.269680 0.264906 0.264906 0.264906 0.264906 0.264906 0.264906 0.264906 0.264906 0.264906 0.264906 0.264906 0.264906 0.264906 0.264906 0.264906 0.264906 0.269680 0.269680 0.269680 0.269680 0.269680 0.269680 0.269680 0.269680 0.269680 0.269680 0.269680 0.269680 0.269680 0.269680 0.274721 0.274721 0.274721 0.274721 0.274721 0.274721 0.274721 0.274721 0.274721 0.274721 0.274721 0.274721 0.274721 0.274721 0.274721 0.274721 0.274721 0.274721 0.274721 0.274721 0.274721 0.274721 0.274721 0.274721 0.274721 0.269680 0.269680 0.269680 0.269680 0.269680 0.269680 0.269680 0.269680 0.269680 0.269680 0.269680 0.269680 0.274721 0.274721 0.274721 0.274721 0.274721 0.274721 0.274721 0.274721 0.274721 0.274721 0.274721 0.269680 0.269680 0.269680 0.269680 0.269680 0.269680 0.269680 0.269680 0.269680 0.269680 0.269680 0.274721 0.274721 0.274721 0.274721 0.274721 0.274721 0.274721 0.274721 0.274721 0.274721 0.269680 0.269680 0.269680 0.269680 0.269680 0.269680 0.269680 0.269680 0.269680 0.269680 0.264906 0.264906 0.264906 0.264906 0.264906 0.264906 0.264906 0.264906 0.264906 0.264906 0.269680 0.269680 0.269680 0.269680 0.269680 0.269680 0.269680 0.269680 0.269680 0.264906 0.264906 0.264906 0.264906 0.264906 0.264906 0.264906 0.264906 0.264906 0.260378 0.260378 0.260378 0.260378 0.260378 0.260378 0.260378 0.260378 0.260378 0.269680 0.269680 0.269680 0.269680 0.269680 0.269680 0.269680 0.269680 0.251976 0.251976 0.251976 0.251976 0.251976 0.251976 0.251976 0.251976 0.251976 0.264906 0.264906 0.264906 0.264906 0.264906 0.264906 0.264906 0.264906 0.260378 0.260378 0.260378 0.260378 0.260378 0.260378 0.260378 0.260378 0.256074 0.256074 0.256074 0.256074 0.256074 0.256074 0.256074 0.256074 0.256074 0.256074
