# Output from CTFFind version 4.1.9, run on 2019-11-03 18:51:54
# Input file: stack18_ub_averaged_1500.mrc ; Number of micrographs: 1
# Pixel size: 3.000 Angstroms ; acceleration voltage: 300.0 keV ; spherical aberration: 0.00 mm ; amplitude contrast: 0.07
# Box size: 512 pixels ; min. res.: 30.0 Angstroms ; max. res.: 5.0 Angstroms ; min. def.: 5000.0 um; max. def. 50000.0 um; num. frames averaged: 1
# 6 lines per micrograph: #1 - spatial frequency (1/Angstroms); #2 - 1D rotational average of spectrum (assuming no astigmatism); #3 - 1D rotational average of spectrum; #4 - CTF fit; #5 - cross-correlation between spectrum and CTF fit; #6 - 2sigma of expected cross correlation of noise
0.000000 0.000651 0.001302 0.001953 0.002604 0.003255 0.003906 0.004557 0.005208 0.005859 0.006510 0.007161 0.007812 0.008464 0.009115 0.009766 0.010417 0.011068 0.011719 0.012370 0.013021 0.013672 0.014323 0.014974 0.015625 0.016276 0.016927 0.017578 0.018229 0.018880 0.019531 0.020182 0.020833 0.021484 0.022135 0.022786 0.023438 0.024089 0.024740 0.025391 0.026042 0.026693 0.027344 0.027995 0.028646 0.029297 0.029948 0.030599 0.031250 0.031901 0.032552 0.033203 0.033854 0.034505 0.035156 0.035807 0.036458 0.037109 0.037760 0.038411 0.039062 0.039714 0.040365 0.041016 0.041667 0.042318 0.042969 0.043620 0.044271 0.044922 0.045573 0.046224 0.046875 0.047526 0.048177 0.048828 0.049479 0.050130 0.050781 0.051432 0.052083 0.052734 0.053385 0.054036 0.054688 0.055339 0.055990 0.056641 0.057292 0.057943 0.058594 0.059245 0.059896 0.060547 0.061198 0.061849 0.062500 0.063151 0.063802 0.064453 0.065104 0.065755 0.066406 0.067057 0.067708 0.068359 0.069010 0.069661 0.070312 0.070964 0.071615 0.072266 0.072917 0.073568 0.074219 0.074870 0.075521 0.076172 0.076823 0.077474 0.078125 0.078776 0.079427 0.080078 0.080729 0.081380 0.082031 0.082682 0.083333 0.083984 0.084635 0.085286 0.085938 0.086589 0.087240 0.087891 0.088542 0.089193 0.089844 0.090495 0.091146 0.091797 0.092448 0.093099 0.093750 0.094401 0.095052 0.095703 0.096354 0.097005 0.097656 0.098307 0.098958 0.099609 0.100260 0.100911 0.101562 0.102214 0.102865 0.103516 0.104167 0.104818 0.105469 0.106120 0.106771 0.107422 0.108073 0.108724 0.109375 0.110026 0.110677 0.111328 0.111979 0.112630 0.113281 0.113932 0.114583 0.115234 0.115885 0.116536 0.117188 0.117839 0.118490 0.119141 0.119792 0.120443 0.121094 0.121745 0.122396 0.123047 0.123698 0.124349 0.125000 0.125651 0.126302 0.126953 0.127604 0.128255 0.128906 0.129557 0.130208 0.130859 0.131510 0.132161 0.132812 0.133464 0.134115 0.134766 0.135417 0.136068 0.136719 0.137370 0.138021 0.138672 0.139323 0.139974 0.140625 0.141276 0.141927 0.142578 0.143229 0.143880 0.144531 0.145182 0.145833 0.146484 0.147135 0.147786 0.148438 0.149089 0.149740 0.150391 0.151042 0.151693 0.152344 0.152995 0.153646 0.154297 0.154948 0.155599 0.156250 0.156901 0.157552 0.158203 0.158854 0.159505 0.160156 0.160807 0.161458 0.162109 0.162760 0.163411 0.164062 0.164714 0.165365 0.166016 0.166667 0.167318 0.167969 0.168620 0.169271 0.169922 0.170573 0.171224 0.171875 0.172526 0.173177 0.173828 0.174479 0.175130 0.175781 0.176432 0.177083 0.177734 0.178385 0.179036 0.179688 0.180339 0.180990 0.181641 0.182292 0.182943 0.183594 0.184245 0.184896 0.185547 0.186198 0.186849 0.187500 0.188151 0.188802 0.189453 0.190104 0.190755 0.191406 0.192057 0.192708 0.193359 0.194010 0.194661 0.195312 0.195964 0.196615 0.197266 0.197917 0.198568 0.199219 0.199870 0.200521 0.201172 0.201823 0.202474 0.203125 0.203776 0.204427 0.205078 0.205729 0.206380 0.207031 0.207682 0.208333 0.208984 0.209635 0.210286 0.210938 0.211589 0.212240 0.212891 0.213542 0.214193 0.214844 0.215495 0.216146 0.216797 0.217448 0.218099 0.218750 0.219401 0.220052 0.220703 0.221354 0.222005 0.222656 0.223307 0.223958 0.224609 0.225260 0.225911 0.226562 0.227214 0.227865 0.228516 0.229167 0.229818 0.230469 0.231120 0.231771 0.232422 0.233073 0.233724 0.234375 0.235026 0.235677
       0.32941        0.32941        0.32941        0.32941        0.32941        0.32941        0.32941        0.32941        0.32941        0.32941        0.32941        0.32941        0.32941        0.32941        0.32941        0.32941        0.32941        0.32941        0.32941        0.32941        0.32941        0.32941        0.32941        0.32941        0.32941        0.32941        0.32941        0.32941        0.32941        0.32941        0.32941        0.32941        0.32941        0.32941        0.32941        0.32941        0.32941        0.32941        0.32941        0.32941        0.32941        0.32941        0.32941        0.32941        0.32941        0.32941        0.32941        0.32941        0.32941        0.32941        0.32941        0.68223        1.09015        0.55305        0.11338       -0.01458       -0.20376       -0.14132       -0.17610       -0.22136       -0.14470       -0.05215       -0.00315        0.10624        0.00954       -0.08348       -0.10582       -0.29337       -0.26762       -0.37200       -0.18850       -0.34371       -0.44205       -0.36347       -0.33901       -0.44526       -0.46588       -0.46965       -0.46167       -0.56969       -0.54023       -0.41720       -0.31567       -0.32169       -0.32672       -0.23243       -0.12930        0.06957        0.12859        0.22060        0.26220        0.33495        0.35687        0.39893        0.52233        0.59086        0.68307        0.76162        0.66018        0.72236        0.71686        0.64224        0.69996        0.61306        0.56474        0.49747        0.41501        0.33241        0.30542        0.23171        0.09766        0.02141       -0.00698       -0.04781       -0.07268       -0.06569       -0.08284       -0.01779        0.08395        0.13496        0.29979        0.40725        0.42954        0.43820        0.51285        0.68546        0.63233        0.68014        0.76557        0.74652        0.75295        0.55789        0.51394        0.43547        0.42904        0.35621        0.23058        0.18261        0.06142       -0.00691        0.07103        0.02529        0.09333        0.15220        0.21243        0.30768        0.38146        0.45914        0.54150        0.57019        0.57010        0.56048        0.59726        0.55999        0.40125        0.38217        0.38641        0.37140        0.24948        0.22910        0.19297        0.12565        0.09646        0.11046        0.17115        0.24987        0.30209        0.35746        0.39656        0.50975        0.44953        0.52631        0.56354        0.52828        0.49972        0.43929        0.34976        0.31100        0.34587        0.28167        0.28694        0.17268        0.19442        0.21030        0.22752        0.30943        0.39734        0.40580        0.45442        0.47273        0.43789        0.45648        0.44626        0.41130        0.36463        0.30583        0.23926        0.25278        0.28797        0.21765        0.28600        0.29078        0.28163        0.33415        0.36941        0.43698        0.42978        0.37301        0.39558        0.36593        0.35679        0.31853        0.28948        0.24185        0.26014        0.25489        0.27558        0.28843        0.32055        0.36336        0.39080        0.42834        0.39968        0.37308        0.34398        0.29530        0.31300        0.28374        0.24990        0.21871        0.28979        0.29626        0.34302        0.34691        0.34856        0.36963        0.33927        0.40579        0.34190        0.33935        0.34539        0.26454        0.27035        0.28588        0.29634        0.29949        0.33082        0.30884        0.36749        0.36060        0.34284        0.32870        0.33740        0.31775        0.29883        0.23793        0.22107        0.22647        0.26131        0.29478        0.32493        0.31977        0.36676        0.34761        0.29643        0.30263        0.28667        0.27960        0.26293        0.23511        0.26113        0.26658        0.28458        0.31784        0.35744        0.37205        0.31628        0.28628        0.31958        0.30414        0.25639        0.32408        0.29739        0.29745        0.32341        0.31436        0.31823        0.37442        0.35215        0.34942        0.30316        0.30435        0.29177        0.29388        0.32910        0.28996        0.29541        0.35257        0.35669        0.31831        0.32799        0.32028        0.31443        0.25140        0.25702        0.32229        0.29829        0.32493        0.32617        0.27971        0.27418        0.28828        0.27146        0.28666        0.29427        0.29673        0.25367        0.24777        0.30333        0.32441        0.28024        0.27081        0.26982        0.23667        0.27708        0.24238        0.25561        0.30650        0.26359        0.27024        0.21272        0.24886        0.27110        0.24874        0.27625        0.25683        0.20937        0.23389        0.27245        0.26035        0.32633        0.26644        0.21821        0.20313        0.26634        0.21310        0.24646        0.31294        0.20977        0.18645        0.17035        0.27507        0.28629        0.38815        0.27683        0.18926        0.35620        0.34086        0.11971        0.04340       -0.15083       -0.45664       -0.56837
2.692159 2.665122 2.638227 2.611474 2.584863 2.558395 2.532068 2.505883 2.479841 2.453941 2.428182 2.402566 2.377092 2.351760 2.326570 2.301522 2.276616 2.251852 2.227230 2.202751 2.178413 2.154218 2.130164 2.106253 2.082483 2.058856 2.035371 2.012028 1.988827 1.965768 1.942851 1.920076 1.897444 1.874953 1.852604 1.830398 1.808334 1.786411 1.764631 1.742993 1.721496 1.700142 1.678930 1.657860 1.636933 1.616147 1.595503 1.575001 1.554642 1.534424 1.514349 1.667901 2.370034 1.909739 1.120448 1.158022 0.870200 0.825995 0.771340 0.749198 0.782291 0.853166 0.954834 0.984437 0.891169 0.808400 0.806396 0.488755 0.537423 0.362628 0.571382 0.427474 0.258364 0.344136 0.326116 0.247655 0.152581 0.122664 0.186887 0.027299 -0.052361 0.132774 0.262950 0.205790 0.179533 0.242590 0.371287 0.559358 0.592943 0.682675 0.800117 0.755000 0.877882 0.772124 0.964320 1.030348 1.091228 1.256710 1.077780 1.149854 1.095624 1.123441 1.031890 0.970573 0.903313 0.858775 0.734527 0.628893 0.585770 0.467140 0.378804 0.240111 0.156541 0.142207 0.104658 0.084041 0.049612 0.078186 0.196009 0.152391 0.413132 0.532935 0.532486 0.515129 0.618886 0.767981 0.772074 0.663869 0.838980 0.811668 0.993731 0.581444 0.592127 0.468242 0.482331 0.359412 0.280821 0.158285 0.084023 -0.094335 0.006954 -0.069000 -0.007867 0.035925 0.094292 0.209575 0.241371 0.404060 0.395704 0.491384 0.506174 0.483531 0.552213 0.552748 0.318682 0.307819 0.227222 0.300980 0.208638 0.052167 0.067920 0.052420 -0.070202 -0.085398 -0.024536 0.079572 0.092153 0.198104 0.201633 0.299212 0.344345 0.318551 0.429889 0.491933 0.325567 0.345365 0.286059 0.192359 0.184074 0.170152 0.112210 0.106272 -0.021628 0.050936 0.049606 0.076023 0.208104 0.218411 0.299402 0.306548 0.330665 0.260634 0.280248 0.274214 0.202861 0.175272 0.087969 0.004107 0.135495 0.011097 0.077382 0.099821 0.067797 0.065523 0.182110 0.176749 0.250745 0.256686 0.136499 0.169578 0.120708 0.099863 0.057503 0.038352 -0.032545 0.028232 0.014149 0.034079 0.035212 0.103089 0.105165 0.178941 0.183390 0.144661 0.072041 0.061346 0.053540 0.026674 0.044169 -0.069869 -0.029619 0.048346 0.008834 0.120462 0.054626 0.100581 0.078783 0.179836 0.155965 0.083508 0.089035 0.118439 -0.026771 0.035990 0.037700 0.052627 0.060741 0.073733 0.052868 0.134311 0.097171 0.104294 0.068866 0.124511 0.057531 0.020557 -0.029710 -0.027915 -0.023946 0.009833 0.041775 0.094052 0.058690 0.122685 0.067634 0.001142 0.024098 0.010207 -0.012106 -0.033171 -0.046189 -0.006811 -0.019197 0.010047 0.029731 0.109902 0.035602 0.052882 -0.028378 0.052463 0.000446 -0.037970 0.064409 -0.012786 -0.002735 0.063158 -0.017253 0.058923 0.058415 0.068979 0.043473 -0.016596 -0.016293 0.010245 -0.034241 0.024422 -0.019216 -0.006899 0.065592 -0.008690 0.055331 0.011183 0.020520 -0.006937 -0.040848 -0.067321 0.061965 -0.008128 0.037407 0.013025 -0.018070 0.029457 0.025732 0.019058 0.021417 0.016661 0.038439 -0.006672 -0.022531 0.045491 0.103051 0.010056 0.005923 0.004995 -0.023386 0.003814 -0.026200 0.002881 0.097766 -0.042377 0.019662 -0.063013 0.025112 -0.012031 -0.013255 -0.010983 -0.007482 -0.050061 -0.060275 0.060950 -0.024435 0.045073 -0.008927 -0.064627 -0.093873 0.006597 -0.079332 -0.022547 0.026057 -0.092210 0.233177 0.210446 0.292933 0.275249 0.425009 0.329746 0.220228 0.376622 0.497546 0.125367 0.099340 -0.161527 -0.624539
0.072396 0.072869 0.074289 0.076654 0.079964 0.084219 0.089418 0.095558 0.102639 0.110657 0.119611 0.129495 0.140306 0.152038 0.164684 0.178238 0.192688 0.208025 0.224236 0.241305 0.259217 0.277952 0.297487 0.317799 0.338858 0.360634 0.383091 0.406192 0.429893 0.454146 0.478901 0.504100 0.529682 0.555579 0.581721 0.608029 0.634419 0.660802 0.687082 0.713157 0.738921 0.764260 0.789053 0.813176 0.836497 0.858880 0.880183 0.900260 0.918959 0.936126 0.951603 0.965230 0.976846 0.986286 0.993390 0.997995 0.999943 0.999079 0.995253 0.988321 0.978149 0.964611 0.947593 0.926994 0.902729 0.874729 0.842944 0.807346 0.767927 0.724706 0.677729 0.627067 0.572823 0.515131 0.454157 0.390103 0.323203 0.253727 0.181983 0.108312 0.033093 0.043263 0.120308 0.197565 0.274524 0.350650 0.425382 0.498140 0.568325 0.635328 0.698535 0.757327 0.811095 0.859240 0.901183 0.936373 0.964292 0.984467 0.996476 0.999955 0.994610 0.980220 0.956650 0.923852 0.881877 0.830877 0.771113 0.702956 0.626888 0.543509 0.453531 0.357776 0.257176 0.152762 0.045663 0.062913 0.171682 0.279302 0.384390 0.485535 0.581321 0.670348 0.751249 0.822717 0.883530 0.932570 0.968848 0.991531 0.999957 0.993663 0.972396 0.936136 0.885103 0.819767 0.740857 0.649355 0.546500 0.433770 0.312875 0.185730 0.054436 0.078756 0.211478 0.341287 0.465707 0.582279 0.688613 0.782435 0.861649 0.924377 0.969022 0.994306 0.999317 0.983546 0.946917 0.889807 0.813061 0.717990 0.606363 0.480392 0.342685 0.196216 0.044258 0.109680 0.261932 0.408759 0.546446 0.671390 0.780210 0.869835 0.937607 0.981366 0.999531 0.991165 0.956033 0.894631 0.808205 0.698744 0.568956 0.422210 0.262468 0.094188 0.077793 0.248393 0.412428 0.564779 0.700544 0.815216 0.904836 0.966143 0.996708 0.995047 0.960707 0.894316 0.797607 0.673389 0.525498 0.358694 0.178527 0.008840 0.196825 0.378658 0.547623 0.697315 0.821888 0.916299 0.976529 0.999776 0.984604 0.931050 0.840668 0.716520 0.563104 0.386215 0.192751 0.009544 0.212372 0.407220 0.585717 0.739999 0.863072 0.949149 0.993943 0.994906 0.951407 0.864811 0.738491 0.577722 0.389503 0.182276 0.034433 0.250434 0.455352 0.639121 0.792496 0.907534 0.978033 0.999896 0.971403 0.893371 0.769185 0.604699 0.407999 0.189043 0.040825 0.269437 0.484444 0.673991 0.827374 0.935681 0.992335 0.993536 0.938553 0.829858 0.673063 0.476689 0.251738 0.011118 0.231080 0.460397 0.662870 0.825902 0.939065 0.994818 0.989046 0.921411 0.795481 0.618597 0.401509 0.157760 0.097116 0.346569 0.574095 0.764352 0.904209 0.983693 0.996758 0.941792 0.821843 0.644530 0.421619 0.168297 0.097816 0.357881 0.593155 0.786358 0.922985 0.992419 0.988837 0.911748 0.766167 0.562362 0.315209 0.043152 0.233131 0.492280 0.713909 0.880244 0.977577 0.997478 0.937580 0.801919 0.600758 0.349886 0.069445 0.217641 0.487515 0.717384 0.887449 0.982692 0.994247 0.920315 0.766484 0.545393 0.275801 0.018962 0.312947 0.579879 0.795487 0.939782 0.998957 0.966800 0.845429 0.645281 0.384318 0.086488 0.220402 0.507254 0.746452 0.914545 0.994618 0.978079 0.865683 0.667651 0.402860 0.097126 0.219235 0.514384 0.758166 0.925234 0.997754 0.967408 0.836456 0.617714 0.333422 0.013084 0.309543 0.599967 0.826664 0.964566 0.997915 0.922173 0.744759 0.484451 0.169529 0.165225 0.482293 0.745647 0.924867 0.998751 0.957929 0.806181 0.560255
1.000000 1.000000 1.000000 1.000000 1.000000 1.000000 1.000000 1.000000 1.000000 1.000000 1.000000 1.000000 1.000000 1.000000 1.000000 1.000000 1.000000 1.000000 1.000000 1.000000 1.000000 1.000000 1.000000 1.000000 1.000000 1.000000 1.000000 1.000000 1.000000 1.000000 1.000000 1.000000 1.000000 1.000000 1.000000 1.000000 1.000000 1.000000 1.000000 1.000000 1.000000 1.000000 1.000000 1.000000 1.000000 1.000000 1.000000 1.000000 1.000000 1.000000 1.000000 1.000000 0.884635 0.884635 0.884635 0.884635 0.884635 0.871798 0.871798 0.871798 0.871798 0.871798 0.871798 0.871798 0.871798 0.871798 0.871798 0.871798 0.871798 0.871798 0.871798 0.871798 0.871798 0.871798 0.871798 0.871798 0.871798 0.871798 0.871798 0.871798 0.871798 0.871798 0.871798 0.871798 0.871798 0.871798 0.871798 0.871798 0.871798 0.871798 0.871798 0.871798 0.871798 0.871798 0.871798 0.871798 0.871798 0.871798 0.871798 0.953351 0.957694 0.958608 0.958309 0.957552 0.956750 0.956135 0.955803 0.955738 0.958620 0.959397 0.965320 0.967034 0.967686 0.974200 0.974434 0.973432 0.971736 0.971541 0.971616 0.965373 0.964057 0.962570 0.962806 0.966351 0.966271 0.966149 0.966116 0.966273 0.966656 0.966874 0.967379 0.967105 0.966821 0.965892 0.965028 0.964346 0.964020 0.964166 0.964666 0.965516 0.966509 0.966977 0.967574 0.968039 0.968208 0.968077 0.967683 0.967120 0.966559 0.968399 0.968082 0.967923 0.969524 0.969571 0.969835 0.970243 0.971296 0.971865 0.967958 0.966945 0.966435 0.963492 0.961357 0.955894 0.947809 0.942429 0.944709 0.945943 0.946406 0.940709 0.927378 0.924969 0.918632 0.919020 0.916652 0.911264 0.912794 0.915452 0.906269 0.903418 0.897210 0.892462 0.887962 0.886743 0.888260 0.883868 0.885804 0.886386 0.883812 0.882128 0.881643 0.884107 0.886474 0.882019 0.871500 0.865488 0.864603 0.866177 0.865853 0.872433 0.873198 0.864286 0.862122 0.853437 0.848005 0.845963 0.842758 0.846189 0.847057 0.849890 0.849386 0.835826 0.830941 0.824386 0.823425 0.823646 0.816056 0.811602 0.808407 0.804301 0.793438 0.792705 0.795756 0.800551 0.800818 0.795204 0.796335 0.805479 0.799238 0.809129 0.814467 0.817579 0.827267 0.825903 0.826162 0.825672 0.824385 0.802730 0.801218 0.812138 0.818920 0.822043 0.818287 0.815010 0.810740 0.807652 0.801007 0.796007 0.762223 0.761593 0.764390 0.762255 0.767339 0.712228 0.717788 0.716577 0.718798 0.687724 0.696149 0.692141 0.688718 0.698970 0.695401 0.708721 0.706059 0.687509 0.688338 0.675074 0.663295 0.646274 0.661652 0.649747 0.657646 0.666392 0.667856 0.664984 0.681009 0.656100 0.658381 0.655874 0.656464 0.618958 0.623253 0.623730 0.618469 0.595760 0.552501 0.496207 0.475880 0.475474 0.444382 0.453695 0.453958 0.432690 0.438532 0.438935 0.447554 0.444849 0.441669 0.426868 0.413533 0.348872 0.346861 0.344884 0.348805 0.345503 0.322797 0.327735 0.308171 0.345303 0.358890 0.361669 0.355551 0.346452 0.335204 0.338292 0.337241 0.341183 0.329809 0.290902 0.247262 0.251988 0.212520 0.213677 0.192533 0.167550 0.173430 0.191305 0.167612 0.193004 0.149027 0.106658 0.107499 0.111510 0.111510 0.111510 0.111510 0.111510 0.111510 0.111510 0.111510 0.109535 0.109535 0.109535 0.109535 0.109535 0.109535 0.109535 0.109535 0.109535 0.137947 0.137947 0.137947 0.137947 0.137947 0.137947 0.137947 0.137947 0.137947 0.137947 0.137947 0.137947 0.137947
0.000000 0.000000 0.000000 0.000000 0.000000 0.000000 0.000000 0.000000 0.000000 0.000000 0.000000 0.000000 0.000000 0.000000 0.000000 0.000000 0.000000 0.000000 0.000000 0.000000 0.000000 0.000000 0.000000 0.000000 0.000000 0.000000 0.000000 0.000000 0.000000 0.000000 0.000000 0.000000 0.000000 0.000000 0.000000 0.000000 0.000000 0.000000 0.000000 0.000000 0.000000 0.000000 0.000000 0.000000 0.000000 0.000000 0.000000 0.000000 0.000000 0.000000 0.000000 0.000000 0.177471 0.177471 0.177471 0.177471 0.177471 0.197066 0.197066 0.197066 0.197066 0.197066 0.197066 0.197066 0.197066 0.197066 0.197066 0.197066 0.197066 0.197066 0.197066 0.197066 0.197066 0.197066 0.197066 0.197066 0.197066 0.197066 0.197066 0.197066 0.197066 0.197066 0.197066 0.197066 0.197066 0.197066 0.197066 0.197066 0.197066 0.197066 0.197066 0.197066 0.197066 0.197066 0.197066 0.197066 0.197066 0.197066 0.197066 0.222222 0.222222 0.222222 0.222222 0.222222 0.222222 0.222222 0.222222 0.222222 0.222222 0.222222 0.222222 0.222222 0.222222 0.222222 0.222222 0.222222 0.222222 0.222222 0.222222 0.222222 0.222222 0.222222 0.222222 0.222222 0.222222 0.222222 0.222222 0.222222 0.222222 0.244339 0.244339 0.244339 0.244339 0.244339 0.244339 0.244339 0.244339 0.244339 0.244339 0.244339 0.244339 0.244339 0.244339 0.244339 0.244339 0.244339 0.244339 0.244339 0.244339 0.244339 0.244339 0.244339 0.244339 0.244339 0.244339 0.244339 0.244339 0.244339 0.244339 0.244339 0.244339 0.244339 0.244339 0.244339 0.244339 0.244339 0.244339 0.244339 0.244339 0.244339 0.244339 0.244339 0.244339 0.256074 0.256074 0.256074 0.256074 0.256074 0.256074 0.256074 0.256074 0.256074 0.256074 0.256074 0.256074 0.256074 0.256074 0.256074 0.256074 0.256074 0.256074 0.256074 0.256074 0.256074 0.256074 0.256074 0.256074 0.256074 0.256074 0.256074 0.256074 0.256074 0.256074 0.256074 0.256074 0.256074 0.256074 0.256074 0.264906 0.264906 0.264906 0.264906 0.264906 0.264906 0.264906 0.264906 0.264906 0.264906 0.264906 0.264906 0.264906 0.264906 0.264906 0.264906 0.264906 0.264906 0.264906 0.264906 0.264906 0.264906 0.264906 0.264906 0.264906 0.264906 0.264906 0.264906 0.264906 0.256074 0.256074 0.256074 0.256074 0.256074 0.256074 0.256074 0.256074 0.256074 0.256074 0.256074 0.256074 0.256074 0.256074 0.260378 0.260378 0.260378 0.260378 0.260378 0.260378 0.260378 0.260378 0.260378 0.260378 0.260378 0.260378 0.260378 0.264906 0.264906 0.264906 0.264906 0.264906 0.264906 0.264906 0.264906 0.264906 0.264906 0.264906 0.264906 0.260378 0.260378 0.260378 0.260378 0.260378 0.260378 0.260378 0.260378 0.260378 0.260378 0.260378 0.260378 0.264906 0.264906 0.264906 0.264906 0.264906 0.264906 0.264906 0.264906 0.264906 0.264906 0.264906 0.256074 0.256074 0.256074 0.256074 0.256074 0.256074 0.256074 0.256074 0.256074 0.256074 0.256074 0.251976 0.251976 0.251976 0.251976 0.251976 0.251976 0.251976 0.251976 0.251976 0.251976 0.251976 0.260378 0.260378 0.260378 0.260378 0.260378 0.260378 0.260378 0.260378 0.260378 0.260378 0.256074 0.256074 0.256074 0.256074 0.256074 0.256074 0.256074 0.256074 0.256074 0.256074 0.260378 0.260378 0.260378 0.260378 0.260378 0.260378 0.260378 0.260378 0.260378 0.244339 0.244339 0.244339 0.244339 0.244339 0.244339 0.244339 0.244339 0.244339 0.244339 0.244339 0.244339 0.244339
