# Output from CTFFind version 4.1.9, run on 2019-11-03 18:51:45
# Input file: stack8_ub_averaged_1000.mrc ; Number of micrographs: 1
# Pixel size: 3.000 Angstroms ; acceleration voltage: 300.0 keV ; spherical aberration: 0.00 mm ; amplitude contrast: 0.07
# Box size: 512 pixels ; min. res.: 30.0 Angstroms ; max. res.: 5.0 Angstroms ; min. def.: 5000.0 um; max. def. 50000.0 um; num. frames averaged: 1
# 6 lines per micrograph: #1 - spatial frequency (1/Angstroms); #2 - 1D rotational average of spectrum (assuming no astigmatism); #3 - 1D rotational average of spectrum; #4 - CTF fit; #5 - cross-correlation between spectrum and CTF fit; #6 - 2sigma of expected cross correlation of noise
0.000000 0.000651 0.001302 0.001953 0.002604 0.003255 0.003906 0.004557 0.005208 0.005859 0.006510 0.007161 0.007812 0.008464 0.009115 0.009766 0.010417 0.011068 0.011719 0.012370 0.013021 0.013672 0.014323 0.014974 0.015625 0.016276 0.016927 0.017578 0.018229 0.018880 0.019531 0.020182 0.020833 0.021484 0.022135 0.022786 0.023438 0.024089 0.024740 0.025391 0.026042 0.026693 0.027344 0.027995 0.028646 0.029297 0.029948 0.030599 0.031250 0.031901 0.032552 0.033203 0.033854 0.034505 0.035156 0.035807 0.036458 0.037109 0.037760 0.038411 0.039062 0.039714 0.040365 0.041016 0.041667 0.042318 0.042969 0.043620 0.044271 0.044922 0.045573 0.046224 0.046875 0.047526 0.048177 0.048828 0.049479 0.050130 0.050781 0.051432 0.052083 0.052734 0.053385 0.054036 0.054688 0.055339 0.055990 0.056641 0.057292 0.057943 0.058594 0.059245 0.059896 0.060547 0.061198 0.061849 0.062500 0.063151 0.063802 0.064453 0.065104 0.065755 0.066406 0.067057 0.067708 0.068359 0.069010 0.069661 0.070312 0.070964 0.071615 0.072266 0.072917 0.073568 0.074219 0.074870 0.075521 0.076172 0.076823 0.077474 0.078125 0.078776 0.079427 0.080078 0.080729 0.081380 0.082031 0.082682 0.083333 0.083984 0.084635 0.085286 0.085938 0.086589 0.087240 0.087891 0.088542 0.089193 0.089844 0.090495 0.091146 0.091797 0.092448 0.093099 0.093750 0.094401 0.095052 0.095703 0.096354 0.097005 0.097656 0.098307 0.098958 0.099609 0.100260 0.100911 0.101562 0.102214 0.102865 0.103516 0.104167 0.104818 0.105469 0.106120 0.106771 0.107422 0.108073 0.108724 0.109375 0.110026 0.110677 0.111328 0.111979 0.112630 0.113281 0.113932 0.114583 0.115234 0.115885 0.116536 0.117188 0.117839 0.118490 0.119141 0.119792 0.120443 0.121094 0.121745 0.122396 0.123047 0.123698 0.124349 0.125000 0.125651 0.126302 0.126953 0.127604 0.128255 0.128906 0.129557 0.130208 0.130859 0.131510 0.132161 0.132812 0.133464 0.134115 0.134766 0.135417 0.136068 0.136719 0.137370 0.138021 0.138672 0.139323 0.139974 0.140625 0.141276 0.141927 0.142578 0.143229 0.143880 0.144531 0.145182 0.145833 0.146484 0.147135 0.147786 0.148438 0.149089 0.149740 0.150391 0.151042 0.151693 0.152344 0.152995 0.153646 0.154297 0.154948 0.155599 0.156250 0.156901 0.157552 0.158203 0.158854 0.159505 0.160156 0.160807 0.161458 0.162109 0.162760 0.163411 0.164062 0.164714 0.165365 0.166016 0.166667 0.167318 0.167969 0.168620 0.169271 0.169922 0.170573 0.171224 0.171875 0.172526 0.173177 0.173828 0.174479 0.175130 0.175781 0.176432 0.177083 0.177734 0.178385 0.179036 0.179688 0.180339 0.180990 0.181641 0.182292 0.182943 0.183594 0.184245 0.184896 0.185547 0.186198 0.186849 0.187500 0.188151 0.188802 0.189453 0.190104 0.190755 0.191406 0.192057 0.192708 0.193359 0.194010 0.194661 0.195312 0.195964 0.196615 0.197266 0.197917 0.198568 0.199219 0.199870 0.200521 0.201172 0.201823 0.202474 0.203125 0.203776 0.204427 0.205078 0.205729 0.206380 0.207031 0.207682 0.208333 0.208984 0.209635 0.210286 0.210938 0.211589 0.212240 0.212891 0.213542 0.214193 0.214844 0.215495 0.216146 0.216797 0.217448 0.218099 0.218750 0.219401 0.220052 0.220703 0.221354 0.222005 0.222656 0.223307 0.223958 0.224609 0.225260 0.225911 0.226562 0.227214 0.227865 0.228516 0.229167 0.229818 0.230469 0.231120 0.231771 0.232422 0.233073 0.233724 0.234375 0.235026 0.235677
       0.33634        0.33634        0.33634        0.33634        0.33634        0.33634        0.33634        0.33634        0.33634        0.33634        0.33634        0.33634        0.33634        0.33634        0.33634        0.33634        0.33634        0.33634        0.33634        0.33634        0.33634        0.33634        0.33634        0.33634        0.33634        0.33634        0.33634        0.33634        0.33634        0.33634        0.33634        0.33634        0.33634        0.33634        0.33634        0.33634        0.33634        0.33634        0.33634        0.33634        0.33634        0.33634        0.33634        0.33634        0.33634        0.33634        0.33634        0.33634        0.33634        0.33634        0.33634        0.73040        0.89729        0.73479        0.37603        0.15918        0.07464        0.01595        0.06938        0.18334        0.20367        0.25414        0.36411        0.22511        0.10068        0.16006        0.08039       -0.24748       -0.04554        0.05686       -0.08879       -0.04847       -0.02747       -0.04703       -0.16900       -0.18997       -0.23407       -0.32987       -0.28296       -0.33440       -0.41132       -0.39460       -0.42661       -0.42072       -0.37971       -0.42669       -0.39084       -0.30782       -0.22223       -0.11176        0.01657        0.02032        0.04515        0.15576        0.27244        0.30532        0.35901        0.46777        0.60997        0.53014        0.62592        0.80326        0.75300        0.62415        0.67655        0.78292        0.75819        0.67917        0.62790        0.64600        0.50135        0.56165        0.48318        0.44719        0.28053        0.14989        0.04373        0.01980        0.02407       -0.04953       -0.08318       -0.10675        0.03413        0.08480        0.08887        0.16298        0.21617        0.32384        0.45785        0.50710        0.49759        0.62590        0.69744        0.77235        0.79095        0.73452        0.66846        0.55009        0.56625        0.55161        0.44951        0.31760        0.31198        0.17919        0.08878        0.12177        0.12699        0.13842        0.09079        0.08319        0.17888        0.23301        0.29250        0.36263        0.39083        0.39462        0.42236        0.49990        0.59469        0.59053        0.54143        0.52035        0.50644        0.41586        0.43330        0.31158        0.29015        0.24741        0.19203        0.15953        0.19126        0.13849        0.17562        0.23957        0.29922        0.29201        0.35755        0.47187        0.44837        0.45507        0.55395        0.56404        0.47485        0.51391        0.42342        0.37038        0.34952        0.31384        0.26338        0.21824        0.20899        0.22607        0.28494        0.27405        0.30532        0.36295        0.37525        0.43239        0.43019        0.44767        0.50267        0.43502        0.37047        0.41820        0.31086        0.29835        0.29310        0.29120        0.27289        0.28080        0.20365        0.24616        0.28314        0.27948        0.36783        0.38514        0.39343        0.44734        0.42171        0.39198        0.37677        0.32534        0.30756        0.28250        0.26680        0.24046        0.29598        0.29094        0.32573        0.30998        0.33827        0.37694        0.39737        0.37137        0.35873        0.39468        0.40712        0.38549        0.32030        0.32579        0.27699        0.26590        0.27894        0.28568        0.29938        0.34478        0.34472        0.28358        0.31747        0.33065        0.31641        0.32316        0.35896        0.29676        0.29367        0.26886        0.23926        0.26037        0.28375        0.29461        0.29136        0.35707        0.37448        0.33372        0.32548        0.31165        0.33112        0.31752        0.32850        0.29921        0.31007        0.32831        0.26786        0.32706        0.33088        0.38084        0.36715        0.31034        0.34889        0.32977        0.30189        0.30581        0.20992        0.28530        0.27978        0.29501        0.33074        0.32661        0.36865        0.32336        0.34703        0.32574        0.26564        0.33733        0.33035        0.31160        0.31549        0.30593        0.25546        0.26563        0.35517        0.36964        0.32921        0.27322        0.30533        0.28075        0.31113        0.28289        0.27712        0.29399        0.35711        0.35375        0.26246        0.23529        0.29603        0.30452        0.29703        0.31464        0.29190        0.28861        0.31786        0.31340        0.25843        0.30883        0.35031        0.32372        0.24831        0.30001        0.26839        0.25249        0.21398        0.19778        0.23463        0.22160        0.27375        0.26181        0.30912        0.28063        0.23461        0.25002        0.22675        0.20038        0.16779        0.21508        0.16998        0.29458        0.35798        0.23168        0.25495        0.19329        0.16729        0.26433        0.28353        0.22972        0.24908        0.36234        0.23342        0.16106        0.32843        0.24643       -0.09244       -0.24924       -0.36474
2.508342 2.484935 2.461642 2.438464 2.415400 2.392452 2.369617 2.346898 2.324293 2.301803 2.279428 2.257167 2.235021 2.212989 2.191072 2.169270 2.147583 2.126010 2.104552 2.083208 2.061979 2.040865 2.019865 1.998981 1.978210 1.957555 1.937014 1.916588 1.896276 1.876079 1.855997 1.836029 1.816176 1.796438 1.776814 1.757305 1.737911 1.718631 1.699466 1.680416 1.661480 1.642659 1.623953 1.605361 1.586884 1.568522 1.550274 1.532141 1.514123 1.496219 1.478430 1.884528 2.162313 1.917140 1.456098 1.283987 1.060428 0.944180 1.035809 1.140112 1.087469 1.215347 1.265044 1.225743 0.897043 1.028111 0.932021 0.455848 0.635676 0.890932 0.651606 0.594509 0.659639 0.639851 0.521807 0.399923 0.361319 0.231142 0.264457 0.170723 0.173867 0.016789 0.059310 0.034139 0.029291 -0.001842 -0.021339 0.050680 0.214783 0.270365 0.468361 0.405854 0.481377 0.548783 0.711346 0.764202 0.797996 0.847716 1.089875 1.056740 1.047392 1.120757 1.380085 1.101342 0.980300 1.177236 1.254206 1.095596 0.992910 1.031231 0.850925 0.893300 0.772007 0.750983 0.632934 0.360802 0.184666 0.203343 0.145453 0.101650 -0.019796 -0.003569 0.045057 0.184734 0.155210 0.232206 0.277883 0.375308 0.590381 0.607948 0.597371 0.708716 0.833690 0.893521 0.986568 0.830641 0.832649 0.629217 0.630984 0.669147 0.559671 0.350706 0.315628 0.149602 0.072613 0.023339 0.063165 0.013696 0.054844 -0.076146 0.059361 0.117563 0.197007 0.254285 0.312199 0.301589 0.359588 0.349804 0.477356 0.572568 0.481812 0.473806 0.498708 0.308677 0.377762 0.244695 0.118212 0.138070 0.046125 0.005312 -0.040398 -0.017022 -0.083307 0.071954 0.056004 0.135205 0.159751 0.196726 0.412007 0.230848 0.378442 0.505417 0.368574 0.367753 0.272850 0.263745 0.175073 0.151171 0.081461 0.028603 0.025745 -0.072985 0.065115 0.056980 0.063867 0.157839 0.137441 0.231507 0.246865 0.209074 0.322067 0.343606 0.199069 0.189330 0.204016 0.086656 0.090359 0.052595 0.094451 0.064792 0.024371 -0.034501 0.031190 0.080117 0.072489 0.189213 0.180228 0.214584 0.280459 0.194346 0.206308 0.121684 0.069066 0.100108 0.040770 0.009852 -0.027310 0.098014 0.042228 0.091985 0.066644 0.106736 0.171048 0.155918 0.162174 0.120811 0.168619 0.185777 0.122441 0.021180 0.078688 -0.018075 0.004999 0.014075 0.027526 0.050642 0.095975 0.074776 -0.023705 0.076609 0.079214 0.066130 0.090644 0.102504 0.014095 0.060927 -0.030047 -0.014683 -0.018736 0.017465 0.020208 0.037768 0.148227 0.087415 0.088315 -0.026957 0.067808 0.030187 0.021241 0.051004 -0.008005 0.007166 0.041329 -0.062234 0.051078 0.051851 0.119867 0.049403 0.023693 0.092952 -0.007936 0.003322 0.021556 -0.129664 -0.000544 -0.035909 -0.005187 0.065222 0.007141 0.117923 0.035277 0.046210 -0.012858 -0.034201 0.058153 -0.026432 0.036387 0.026969 -0.034536 -0.057034 -0.055381 0.079737 0.069609 0.069884 -0.059759 -0.007815 0.028959 0.039034 -0.000065 -0.039861 0.057197 0.069346 0.108573 -0.027355 -0.013634 0.054625 0.058963 0.048157 0.110890 0.060761 0.047063 0.066274 0.105247 0.011260 0.107941 0.159220 0.085971 0.051793 0.104717 -0.007933 0.050394 -0.056468 -0.034384 0.005349 -0.046202 0.067666 0.015189 0.088760 0.074475 -0.023738 0.032528 -0.030264 -0.064123 -0.115685 -0.024247 -0.099546 0.091031 0.117483 0.268153 0.317949 0.193801 0.221268 0.331551 0.376553 0.288554 0.284746 0.451554 0.223164 0.127004 0.393605 0.350856 -0.112321 -0.450072
0.072396 0.072823 0.074103 0.076236 0.079223 0.083061 0.087750 0.093290 0.099678 0.106913 0.114993 0.123914 0.133673 0.144266 0.155688 0.167933 0.180994 0.194862 0.209529 0.224982 0.241209 0.258197 0.275927 0.294382 0.313540 0.333379 0.353871 0.374989 0.396699 0.418967 0.441754 0.465016 0.488709 0.512782 0.537180 0.561844 0.586712 0.611716 0.636784 0.661837 0.686794 0.711568 0.736067 0.760194 0.783847 0.806920 0.829301 0.850875 0.871522 0.891117 0.909534 0.926641 0.942305 0.956388 0.968755 0.979265 0.987778 0.994157 0.998263 0.999961 0.999117 0.995603 0.989297 0.980082 0.967849 0.952498 0.933941 0.912099 0.886910 0.858323 0.826306 0.790843 0.751939 0.709618 0.663927 0.614935 0.562737 0.507454 0.449232 0.388247 0.324701 0.258827 0.190884 0.121164 0.049985 0.022304 0.095328 0.168686 0.241951 0.314672 0.386378 0.456581 0.524775 0.590443 0.653063 0.712105 0.767041 0.817351 0.862523 0.902063 0.935501 0.962393 0.982332 0.994950 0.999928 0.997002 0.985965 0.966678 0.939073 0.903160 0.859028 0.806853 0.746901 0.679525 0.605176 0.524393 0.437810 0.346151 0.250226 0.150926 0.049222 0.053851 0.157198 0.259673 0.360095 0.457260 0.549955 0.636972 0.717129 0.789282 0.852349 0.905322 0.947290 0.977456 0.995153 0.999862 0.991227 0.969067 0.933394 0.884412 0.822535 0.748383 0.662783 0.566773 0.461585 0.348644 0.229545 0.106041 0.019982 0.146535 0.271548 0.392909 0.508499 0.616228 0.714076 0.800134 0.872644 0.930038 0.970981 0.994402 0.999531 0.985924 0.953489 0.902503 0.833620 0.747875 0.646682 0.531816 0.405388 0.269820 0.127805 0.017751 0.163774 0.307090 0.444494 0.572817 0.689012 0.790220 0.873850 0.937654 0.979794 0.998900 0.994129 0.965199 0.912425 0.836729 0.739642 0.623287 0.490344 0.343999 0.187883 0.025980 0.137459 0.298032 0.451297 0.592908 0.718725 0.824956 0.908272 0.965928 0.995856 0.996761 0.968178 0.910527 0.825116 0.714147 0.580665 0.428499 0.262161 0.086725 0.092316 0.269224 0.438185 0.593523 0.729872 0.842386 0.926917 0.980183 0.999912 0.984952 0.935354 0.852402 0.738612 0.597679 0.434372 0.254395 0.064204 0.129220 0.318615 0.496715 0.656528 0.791622 0.896395 0.966322 0.998174 0.990183 0.942165 0.855566 0.733461 0.580465 0.402591 0.207027 0.001869 0.204206 0.402303 0.583689 0.740191 0.864572 0.950891 0.994799 0.993793 0.947382 0.857160 0.726799 0.561929 0.369920 0.159591 0.059192 0.275957 0.480127 0.661540 0.810962 0.920585 0.984450 0.998804 0.962355 0.876398 0.744824 0.573978 0.372390 0.150381 0.080443 0.307788 0.519328 0.703361 0.849491 0.949231 0.996525 0.988154 0.923991 0.807088 0.643577 0.442392 0.214824 0.026092 0.266308 0.491560 0.688236 0.844209 0.949605 0.997475 0.984285 0.910223 0.779278 0.599075 0.380488 0.137015 0.116025 0.362432 0.586167 0.772407 0.908541 0.985072 0.996316 0.940877 0.821840 0.646659 0.426758 0.176825 0.086137 0.343933 0.578440 0.772892 0.913095 0.988515 0.993113 0.925884 0.791049 0.597850 0.359990 0.094700 0.178469 0.439065 0.667272 0.845436 0.959459 0.999974 0.963172 0.851217 0.672205 0.439649 0.171526 0.111076 0.385590 0.629760 0.823467 0.950426 0.999602 0.966238 0.852385 0.666868 0.424684 0.145846 0.146204 0.426557 0.670954 0.857895 0.970592 0.998528 0.938515 0.795125 0.580442 0.313115 0.016812 0.281826 0.555583 0.779139 0.931446 0.997790 0.971267 0.853598 0.655128 0.394014
1.000000 1.000000 1.000000 1.000000 1.000000 1.000000 1.000000 1.000000 1.000000 1.000000 1.000000 1.000000 1.000000 1.000000 1.000000 1.000000 1.000000 1.000000 1.000000 1.000000 1.000000 1.000000 1.000000 1.000000 1.000000 1.000000 1.000000 1.000000 1.000000 1.000000 1.000000 1.000000 1.000000 1.000000 1.000000 1.000000 1.000000 1.000000 1.000000 1.000000 1.000000 1.000000 1.000000 1.000000 1.000000 1.000000 1.000000 1.000000 1.000000 1.000000 1.000000 1.000000 0.830486 0.830486 0.830486 0.830486 0.830486 0.830486 0.830486 0.830486 0.805068 0.805068 0.805068 0.805068 0.805068 0.805068 0.805068 0.805068 0.805068 0.805068 0.805068 0.805068 0.805068 0.805068 0.805068 0.805068 0.805068 0.805068 0.805068 0.805068 0.805068 0.805068 0.805068 0.805068 0.805068 0.805068 0.805068 0.805068 0.805068 0.805068 0.805068 0.805068 0.805068 0.805068 0.805068 0.805068 0.805068 0.805068 0.805068 0.805068 0.805068 0.805068 0.805068 0.805068 0.805068 0.954357 0.953403 0.954362 0.953245 0.956322 0.956669 0.956660 0.956556 0.956831 0.956654 0.956692 0.956888 0.957442 0.958702 0.959409 0.960156 0.960141 0.963602 0.962374 0.961257 0.960722 0.957355 0.954996 0.953798 0.953675 0.954250 0.955689 0.957025 0.956000 0.955298 0.955488 0.956642 0.955115 0.953659 0.952824 0.951932 0.952414 0.951258 0.950698 0.950586 0.950948 0.951192 0.952309 0.952573 0.952822 0.952946 0.953017 0.953167 0.954718 0.955596 0.957008 0.953955 0.951662 0.949798 0.946542 0.949821 0.947979 0.947906 0.947622 0.948512 0.947997 0.948050 0.948305 0.938316 0.929934 0.926269 0.913713 0.909708 0.907399 0.907140 0.906251 0.908674 0.907111 0.904611 0.903009 0.896842 0.894583 0.902842 0.899030 0.892869 0.889947 0.892846 0.892164 0.891559 0.884603 0.873387 0.870853 0.868665 0.869347 0.873227 0.862181 0.862348 0.861820 0.856993 0.853477 0.856212 0.853920 0.855048 0.846304 0.844438 0.837152 0.840525 0.833703 0.832970 0.840550 0.844366 0.849052 0.848149 0.844430 0.841161 0.833227 0.777669 0.774456 0.769300 0.774449 0.769941 0.759273 0.747105 0.751078 0.744311 0.742150 0.764314 0.772758 0.782458 0.784447 0.777070 0.767888 0.762472 0.763556 0.768502 0.735667 0.742397 0.742601 0.740191 0.727159 0.727491 0.709567 0.685498 0.676318 0.676247 0.683552 0.686154 0.690084 0.686824 0.683665 0.677708 0.671665 0.663903 0.681536 0.654072 0.650309 0.640256 0.617722 0.626502 0.628474 0.629541 0.638954 0.629961 0.613645 0.603399 0.563320 0.524859 0.527773 0.506297 0.472736 0.482609 0.499505 0.514122 0.455797 0.428142 0.413030 0.397949 0.401884 0.402138 0.468092 0.448924 0.445125 0.452715 0.416736 0.378041 0.364139 0.357124 0.322320 0.288511 0.271263 0.282459 0.288810 0.276869 0.264631 0.238468 0.270942 0.286998 0.306593 0.311995 0.328902 0.314003 0.300887 0.338770 0.352049 0.364225 0.356146 0.370893 0.380067 0.360782 0.352703 0.353123 0.353711 0.379860 0.380124 0.376692 0.400147 0.362750 0.373254 0.352434 0.354564 0.349150 0.313839 0.300165 0.295377 0.287454 0.271522 0.252584 0.252257 0.269540 0.286314 0.271045 0.289231 0.290561 0.290561 0.290561 0.290561 0.290561 0.290561 0.268454 0.268454 0.268454 0.268454 0.268454 0.268454 0.268454 0.268454 0.268454 0.268454 0.250604 0.250604 0.250604 0.250604 0.250604 0.250604 0.250604 0.250604 0.250604 0.250604 0.250604 0.250604 0.250604 0.250604 0.250604
0.000000 0.000000 0.000000 0.000000 0.000000 0.000000 0.000000 0.000000 0.000000 0.000000 0.000000 0.000000 0.000000 0.000000 0.000000 0.000000 0.000000 0.000000 0.000000 0.000000 0.000000 9401.000000 0.000000 0.000000 0.000000 0.000000 0.000000 0.000000 0.000000 0.000000 0.000000 0.000000 0.000000 0.000000 0.000000 0.000000 0.000000 0.000000 0.000000 0.000000 0.000000 0.000000 0.000000 0.000000 0.000000 0.000000 0.000000 0.000000 0.000000 0.000000 0.000000 0.000000 0.172133 0.172133 0.172133 0.172133 0.172133 0.172133 0.172133 0.172133 0.189832 0.189832 0.189832 0.189832 0.189832 0.189832 0.189832 0.189832 0.189832 0.189832 0.189832 0.189832 0.189832 0.189832 0.189832 0.189832 0.189832 0.189832 0.189832 0.189832 0.189832 0.189832 0.189832 0.189832 0.189832 0.189832 0.189832 0.189832 0.189832 0.189832 0.189832 0.189832 0.189832 0.189832 0.189832 0.189832 0.189832 0.189832 0.189832 0.189832 0.189832 0.189832 0.189832 0.189832 0.189832 0.222222 0.222222 0.222222 0.222222 0.222222 0.222222 0.222222 0.222222 0.222222 0.222222 0.222222 0.222222 0.222222 0.222222 0.222222 0.222222 0.222222 0.222222 0.222222 0.222222 0.222222 0.222222 0.222222 0.222222 0.222222 0.222222 0.222222 0.222222 0.222222 0.222222 0.234082 0.234082 0.234082 0.234082 0.234082 0.234082 0.234082 0.234082 0.234082 0.234082 0.234082 0.234082 0.234082 0.234082 0.234082 0.234082 0.234082 0.234082 0.234082 0.234082 0.234082 0.234082 0.234082 0.234082 0.234082 0.240772 0.240772 0.240772 0.240772 0.240772 0.240772 0.240772 0.240772 0.240772 0.240772 0.240772 0.240772 0.240772 0.240772 0.240772 0.240772 0.240772 0.240772 0.240772 0.240772 0.240772 0.240772 0.248069 0.248069 0.248069 0.248069 0.248069 0.248069 0.248069 0.248069 0.248069 0.248069 0.248069 0.248069 0.248069 0.248069 0.248069 0.248069 0.248069 0.248069 0.248069 0.248069 0.248069 0.248069 0.248069 0.248069 0.248069 0.248069 0.248069 0.248069 0.248069 0.248069 0.248069 0.248069 0.248069 0.248069 0.248069 0.248069 0.248069 0.256074 0.256074 0.256074 0.256074 0.256074 0.256074 0.256074 0.256074 0.256074 0.256074 0.256074 0.256074 0.256074 0.256074 0.256074 0.256074 0.256074 0.256074 0.256074 0.256074 0.256074 0.256074 0.256074 0.256074 0.256074 0.256074 0.256074 0.256074 0.256074 0.256074 0.256074 0.256074 0.256074 0.256074 0.256074 0.256074 0.256074 0.256074 0.256074 0.256074 0.256074 0.256074 0.256074 0.256074 0.256074 0.251976 0.251976 0.251976 0.251976 0.251976 0.251976 0.251976 0.251976 0.251976 0.251976 0.251976 0.251976 0.251976 0.251976 0.256074 0.256074 0.256074 0.256074 0.256074 0.256074 0.256074 0.256074 0.256074 0.256074 0.256074 0.256074 0.256074 0.260378 0.260378 0.260378 0.260378 0.260378 0.260378 0.260378 0.260378 0.260378 0.260378 0.260378 0.260378 0.251976 0.251976 0.251976 0.251976 0.251976 0.251976 0.251976 0.251976 0.251976 0.251976 0.251976 0.251976 0.248069 0.248069 0.248069 0.248069 0.248069 0.248069 0.248069 0.248069 0.248069 0.248069 0.248069 0.248069 0.251976 0.251976 0.251976 0.251976 0.251976 0.251976 0.251976 0.251976 0.251976 0.251976 0.251976 0.260378 0.260378 0.260378 0.260378 0.260378 0.260378 0.260378 0.260378 0.260378 0.260378 0.244339 0.244339 0.244339 0.244339 0.244339 0.244339 0.244339 0.244339 0.244339 0.244339 0.244339 0.244339 0.244339 0.244339 0.244339
