# Output from CTFFind version 4.1.9, run on 2019-11-03 18:51:32
# Input file: stack2_ub_averaged_750.mrc ; Number of micrographs: 1
# Pixel size: 3.000 Angstroms ; acceleration voltage: 300.0 keV ; spherical aberration: 0.00 mm ; amplitude contrast: 0.07
# Box size: 512 pixels ; min. res.: 30.0 Angstroms ; max. res.: 5.0 Angstroms ; min. def.: 5000.0 um; max. def. 50000.0 um; num. frames averaged: 1
# 6 lines per micrograph: #1 - spatial frequency (1/Angstroms); #2 - 1D rotational average of spectrum (assuming no astigmatism); #3 - 1D rotational average of spectrum; #4 - CTF fit; #5 - cross-correlation between spectrum and CTF fit; #6 - 2sigma of expected cross correlation of noise
0.000000 0.000651 0.001302 0.001953 0.002604 0.003255 0.003906 0.004557 0.005208 0.005859 0.006510 0.007161 0.007812 0.008464 0.009115 0.009766 0.010417 0.011068 0.011719 0.012370 0.013021 0.013672 0.014323 0.014974 0.015625 0.016276 0.016927 0.017578 0.018229 0.018880 0.019531 0.020182 0.020833 0.021484 0.022135 0.022786 0.023438 0.024089 0.024740 0.025391 0.026042 0.026693 0.027344 0.027995 0.028646 0.029297 0.029948 0.030599 0.031250 0.031901 0.032552 0.033203 0.033854 0.034505 0.035156 0.035807 0.036458 0.037109 0.037760 0.038411 0.039062 0.039714 0.040365 0.041016 0.041667 0.042318 0.042969 0.043620 0.044271 0.044922 0.045573 0.046224 0.046875 0.047526 0.048177 0.048828 0.049479 0.050130 0.050781 0.051432 0.052083 0.052734 0.053385 0.054036 0.054688 0.055339 0.055990 0.056641 0.057292 0.057943 0.058594 0.059245 0.059896 0.060547 0.061198 0.061849 0.062500 0.063151 0.063802 0.064453 0.065104 0.065755 0.066406 0.067057 0.067708 0.068359 0.069010 0.069661 0.070312 0.070964 0.071615 0.072266 0.072917 0.073568 0.074219 0.074870 0.075521 0.076172 0.076823 0.077474 0.078125 0.078776 0.079427 0.080078 0.080729 0.081380 0.082031 0.082682 0.083333 0.083984 0.084635 0.085286 0.085938 0.086589 0.087240 0.087891 0.088542 0.089193 0.089844 0.090495 0.091146 0.091797 0.092448 0.093099 0.093750 0.094401 0.095052 0.095703 0.096354 0.097005 0.097656 0.098307 0.098958 0.099609 0.100260 0.100911 0.101562 0.102214 0.102865 0.103516 0.104167 0.104818 0.105469 0.106120 0.106771 0.107422 0.108073 0.108724 0.109375 0.110026 0.110677 0.111328 0.111979 0.112630 0.113281 0.113932 0.114583 0.115234 0.115885 0.116536 0.117188 0.117839 0.118490 0.119141 0.119792 0.120443 0.121094 0.121745 0.122396 0.123047 0.123698 0.124349 0.125000 0.125651 0.126302 0.126953 0.127604 0.128255 0.128906 0.129557 0.130208 0.130859 0.131510 0.132161 0.132812 0.133464 0.134115 0.134766 0.135417 0.136068 0.136719 0.137370 0.138021 0.138672 0.139323 0.139974 0.140625 0.141276 0.141927 0.142578 0.143229 0.143880 0.144531 0.145182 0.145833 0.146484 0.147135 0.147786 0.148438 0.149089 0.149740 0.150391 0.151042 0.151693 0.152344 0.152995 0.153646 0.154297 0.154948 0.155599 0.156250 0.156901 0.157552 0.158203 0.158854 0.159505 0.160156 0.160807 0.161458 0.162109 0.162760 0.163411 0.164062 0.164714 0.165365 0.166016 0.166667 0.167318 0.167969 0.168620 0.169271 0.169922 0.170573 0.171224 0.171875 0.172526 0.173177 0.173828 0.174479 0.175130 0.175781 0.176432 0.177083 0.177734 0.178385 0.179036 0.179688 0.180339 0.180990 0.181641 0.182292 0.182943 0.183594 0.184245 0.184896 0.185547 0.186198 0.186849 0.187500 0.188151 0.188802 0.189453 0.190104 0.190755 0.191406 0.192057 0.192708 0.193359 0.194010 0.194661 0.195312 0.195964 0.196615 0.197266 0.197917 0.198568 0.199219 0.199870 0.200521 0.201172 0.201823 0.202474 0.203125 0.203776 0.204427 0.205078 0.205729 0.206380 0.207031 0.207682 0.208333 0.208984 0.209635 0.210286 0.210938 0.211589 0.212240 0.212891 0.213542 0.214193 0.214844 0.215495 0.216146 0.216797 0.217448 0.218099 0.218750 0.219401 0.220052 0.220703 0.221354 0.222005 0.222656 0.223307 0.223958 0.224609 0.225260 0.225911 0.226562 0.227214 0.227865 0.228516 0.229167 0.229818 0.230469 0.231120 0.231771 0.232422 0.233073 0.233724 0.234375 0.235026 0.235677
       0.34256        0.34256        0.34256        0.34256        0.34256        0.34256        0.34256        0.34256        0.34256        0.34256        0.34256        0.34256        0.34256        0.34256        0.34256        0.34256        0.34256        0.34256        0.34256        0.34256        0.34256        0.34256        0.34256        0.34256        0.34256        0.34256        0.34256        0.34256        0.34256        0.34256        0.34256        0.34256        0.34256        0.34256        0.34256        0.34256        0.34256        0.34256        0.34256        0.34256        0.34256        0.34256        0.34256        0.34256        0.34256        0.34256        0.34256        0.34256        0.34256        0.34256        0.34256        0.56566        0.78705        0.37169        0.08897       -0.22607       -0.46984       -0.38240       -0.33256       -0.27237       -0.39230       -0.26759       -0.25643       -0.49313       -0.49408       -0.58318       -0.60836       -0.68229       -0.68518       -0.66301       -0.67259       -0.69641       -0.63395       -0.53947       -0.56247       -0.60098       -0.45015       -0.34454       -0.26246       -0.23744       -0.15231       -0.05843        0.12433        0.16750        0.26111        0.45029        0.41128        0.57771        0.69852        0.58822        0.74239        0.67868        0.61227        0.61609        0.58443        0.45117        0.48601        0.32927        0.22737        0.25634        0.11448       -0.01401       -0.01341       -0.00705        0.00431       -0.00791        0.03479        0.09949        0.13147        0.29339        0.35762        0.41450        0.53256        0.65558        0.72829        0.77612        0.80822        0.71707        0.64322        0.58689        0.56031        0.44426        0.33300        0.32460        0.14541        0.12634        0.05274        0.14676        0.10445        0.10604        0.14234        0.16601        0.37832        0.44153        0.49139        0.51027        0.61283        0.54455        0.61102        0.57371        0.56292        0.49679        0.45841        0.37234        0.31278        0.21297        0.17167        0.15912        0.11156        0.11907        0.24604        0.25184        0.35465        0.44129        0.48867        0.50231        0.55757        0.49813        0.47316        0.41759        0.38705        0.34042        0.24155        0.18081        0.20412        0.23134        0.23415        0.26133        0.32367        0.31393        0.35298        0.47239        0.42369        0.50076        0.47641        0.43789        0.41560        0.35412        0.30059        0.29363        0.26846        0.28958        0.26535        0.29172        0.33890        0.41532        0.41578        0.40795        0.41969        0.44629        0.39964        0.40799        0.36370        0.30123        0.29312        0.29291        0.28702        0.33672        0.37532        0.36091        0.38294        0.41459        0.41846        0.44974        0.41545        0.40714        0.32201        0.30326        0.27600        0.31804        0.35315        0.35528        0.35534        0.31774        0.40377        0.38935        0.37228        0.36518        0.33887        0.29961        0.27951        0.28789        0.32368        0.31251        0.31455        0.30896        0.36990        0.38517        0.37903        0.37107        0.34592        0.33740        0.32566        0.34517        0.33281        0.35719        0.34730        0.32992        0.32001        0.30638        0.35481        0.37127        0.36503        0.29820        0.31326        0.31557        0.30846        0.31388        0.29924        0.31943        0.30885        0.30740        0.30465        0.34095        0.30299        0.27863        0.28018        0.28448        0.28686        0.30814        0.33091        0.34639        0.35046        0.30775        0.30316        0.32247        0.31015        0.32840        0.30655        0.30759        0.32163        0.32924        0.34881        0.33174        0.35006        0.38068        0.34577        0.32018        0.31361        0.32611        0.28425        0.31640        0.31658        0.32402        0.27492        0.34505        0.32032        0.30003        0.29709        0.29730        0.34278        0.32979        0.32983        0.30797        0.29741        0.36619        0.30577        0.33762        0.29369        0.27929        0.36196        0.31878        0.33917        0.35392        0.34818        0.32913        0.31966        0.31711        0.33808        0.31304        0.33413        0.33366        0.31291        0.32724        0.31005        0.30777        0.27093        0.25773        0.28123        0.29308        0.25536        0.30130        0.28879        0.31151        0.28673        0.26086        0.23990        0.27111        0.33397        0.29757        0.23269        0.24076        0.26730        0.27774        0.29449        0.29720        0.23479        0.27005        0.28279        0.26233        0.26437        0.24583        0.24258        0.29347        0.29329        0.32161        0.27917        0.24125        0.26386        0.32933        0.20056        0.24116        0.27802        0.30272        0.26313        0.14998        0.31927        0.27119        0.23840        0.08722       -0.06228       -0.31475       -0.77433
2.514283 2.486786 2.459445 2.432259 2.405229 2.378355 2.351636 2.325073 2.298666 2.272414 2.246318 2.220377 2.194593 2.168963 2.143490 2.118172 2.093010 2.068003 2.043152 2.018457 1.993918 1.969534 1.945305 1.921233 1.897316 1.873555 1.849949 1.826499 1.803205 1.780066 1.757083 1.734255 1.711584 1.689068 1.666707 1.644502 1.622453 1.600560 1.578822 1.557240 1.535813 1.514543 1.493427 1.472468 1.451664 1.431016 1.410523 1.390186 1.370005 1.349979 1.330109 1.292613 1.908421 1.332794 1.032910 0.595478 0.287343 0.399200 0.462576 0.486131 0.258445 0.458349 0.450046 0.219379 0.100762 0.032866 0.011461 -0.130308 -0.125411 -0.154719 -0.136790 -0.220508 -0.159580 -0.048746 -0.111988 -0.185182 -0.061958 0.082295 0.238966 0.095426 0.257574 0.285554 0.529069 0.541090 0.637523 0.809900 0.785854 0.899104 1.124739 0.955415 1.017093 1.043974 0.998035 0.856959 0.988386 0.687155 0.757468 0.598229 0.434794 0.473237 0.347876 0.129186 0.128826 0.112726 0.095593 0.104246 0.073207 0.177378 0.177208 0.349651 0.410883 0.468106 0.570912 0.701033 0.764370 0.828862 0.910287 0.716883 0.716457 0.638368 0.593416 0.436100 0.308118 0.323295 0.101386 0.079068 -0.063307 0.033404 0.010666 -0.026383 0.026706 -0.012351 0.232481 0.264581 0.416412 0.354114 0.497422 0.393512 0.509363 0.512962 0.424162 0.406568 0.310270 0.246144 0.197826 0.097018 -0.049098 0.000100 -0.092797 -0.126235 -0.009175 0.076897 0.103573 0.190425 0.307432 0.298269 0.369754 0.343388 0.354650 0.287598 0.215389 0.205832 0.099547 0.005537 -0.058699 0.060797 -0.006263 0.035605 0.116912 0.104541 0.132397 0.210644 0.256324 0.251488 0.293906 0.212021 0.220629 0.151068 0.084633 0.075650 0.059428 -0.010730 0.040076 0.018213 0.056444 0.116451 0.195084 0.168618 0.146864 0.159144 0.150384 0.102439 0.143064 0.000419 0.012076 -0.026514 -0.027480 -0.010284 0.092183 0.038691 0.075329 0.081624 0.106155 0.119020 0.121165 0.109130 0.044224 -0.032872 -0.065451 -0.026901 0.009862 0.000388 0.061894 -0.002572 0.002521 0.106134 0.040907 0.030418 0.061523 -0.063273 -0.024759 -0.074511 -0.039665 -0.000766 -0.037974 -0.015148 -0.017568 0.065502 0.051794 0.058839 0.008844 0.028415 0.008507 -0.017923 0.035696 0.017904 0.039761 0.002884 0.005983 -0.015545 -0.007397 0.060665 0.078136 0.038766 -0.016625 0.038362 -0.010809 0.001175 0.006089 -0.007011 0.023968 -0.000023 0.009981 0.014507 0.057387 -0.015348 -0.021967 -0.024041 -0.015947 -0.006445 0.020137 0.038099 0.082873 0.019950 0.002542 0.015737 0.033238 0.019944 0.010881 0.008381 0.011407 0.033131 0.035881 0.066341 0.005196 0.045658 0.071090 0.033145 0.010711 0.001723 0.007514 -0.036747 0.026170 -0.025518 0.003173 -0.029294 0.024280 -0.004764 0.003063 -0.025792 -0.041769 0.045679 0.017488 0.017224 -0.007439 0.002962 0.052907 -0.006628 0.040396 -0.037567 -0.055850 0.054535 0.008809 0.046627 0.024561 0.053073 -0.015968 0.042342 0.006845 0.011876 0.024876 0.013449 0.026004 -0.003655 0.034663 0.014665 -0.001709 -0.042150 -0.017321 -0.021633 -0.031228 -0.052612 0.025537 -0.002432 0.027152 -0.010763 -0.028388 -0.024056 -0.063149 0.082241 0.019068 -0.046492 -0.051206 0.015796 0.037618 0.004673 0.066415 -0.038013 0.036511 0.048074 0.022100 0.025864 -0.005461 0.003008 0.058816 0.090844 0.097522 0.097860 -0.010702 0.111969 0.107181 0.055718 0.246014 0.329973 0.291380 0.334922 0.176022 0.403869 0.320710 0.265117 0.086637 -0.070371 -0.858810
0.072396 0.072964 0.074666 0.077503 0.081473 0.086576 0.092810 0.100172 0.108660 0.118271 0.128999 0.140839 0.153783 0.167822 0.182947 0.199144 0.216398 0.234691 0.254001 0.274306 0.295577 0.317781 0.340882 0.364839 0.389605 0.415128 0.441350 0.468206 0.495625 0.523529 0.551831 0.580439 0.609250 0.638155 0.667035 0.695764 0.724206 0.752216 0.779642 0.806322 0.832086 0.856756 0.880148 0.902068 0.922320 0.940698 0.956995 0.971000 0.982499 0.991278 0.997126 0.999831 0.999191 0.995006 0.987089 0.975264 0.959368 0.939256 0.914804 0.885908 0.852494 0.814513 0.771949 0.724823 0.673190 0.617148 0.556838 0.492446 0.424204 0.352396 0.277354 0.199464 0.119160 0.036930 0.046687 0.131106 0.215695 0.299778 0.382643 0.463542 0.541700 0.616325 0.686609 0.751742 0.810920 0.863356 0.908291 0.945008 0.972839 0.991183 0.999518 0.997413 0.984539 0.960684 0.925765 0.879834 0.823092 0.755893 0.678752 0.592347 0.497521 0.395277 0.286779 0.173338 0.056405 0.062445 0.181532 0.299092 0.413300 0.522302 0.624241 0.717292 0.799699 0.869811 0.926116 0.967280 0.992188 0.999972 0.990046 0.962134 0.916298 0.852949 0.772863 0.677190 0.567440 0.445482 0.313517 0.174047 0.029839 0.116127 0.260713 0.400689 0.532808 0.653879 0.760851 0.850894 0.921483 0.970481 0.996209 0.997515 0.973835 0.925232 0.852433 0.756834 0.640503 0.506148 0.357074 0.197118 0.030558 0.137988 0.303688 0.461628 0.606964 0.735077 0.841721 0.923184 0.976428 0.999222 0.990247 0.949188 0.876785 0.774856 0.646281 0.494949 0.325664 0.144011 0.043812 0.231191 0.411333 0.577506 0.723294 0.842867 0.931223 0.984423 0.999786 0.976053 0.913494 0.813959 0.680862 0.519108 0.334936 0.135709 0.070359 0.274532 0.467911 0.641833 0.788265 0.900196 0.972000 0.999743 0.981441 0.917220 0.809394 0.662428 0.482802 0.278768 0.059998 0.162855 0.378650 0.576330 0.745484 0.876926 0.963219 0.999134 0.982011 0.911990 0.792105 0.628213 0.428760 0.204397 0.032557 0.268765 0.490617 0.685013 0.840163 0.946330 0.996485 0.986825 0.917113 0.790807 0.614961 0.399900 0.158666 0.093727 0.341212 0.567682 0.758042 0.899254 0.981272 0.997810 0.946894 0.831124 0.657638 0.437750 0.186278 0.079405 0.340535 0.578284 0.775116 0.916127 0.990225 0.991068 0.917686 0.774709 0.572171 0.324905 0.051507 0.226988 0.488734 0.712765 0.880711 0.978370 0.996972 0.934058 0.793859 0.587131 0.330421 0.044838 0.245641 0.516151 0.743080 0.906158 0.990341 0.987287 0.896279 0.724500 0.486579 0.203463 0.099355 0.394086 0.653170 0.851893 0.970803 0.997698 0.928996 0.770298 0.536082 0.248503 0.064617 0.372401 0.643961 0.851516 0.973305 0.995961 0.916110 0.740965 0.487836 0.182545 0.143108 0.454591 0.718306 0.905243 0.994268 0.974627 0.847388 0.625604 0.333137 0.002215 0.330034 0.625705 0.850462 0.977619 0.991413 0.889116 0.681659 0.392647 0.055819 0.288776 0.599505 0.838188 0.974876 0.991728 0.885513 0.668338 0.366468 0.017306 0.335116 0.645673 0.873926 0.989488 0.976231 0.834707 0.582448 0.251987 0.113169 0.464164 0.753329 0.940692 0.999647 0.920907 0.714165 0.407143 0.042065 0.330003 0.656244 0.889611 0.995724 0.958121 0.781020 0.489121 0.124406 0.259740 0.606283 0.862985 0.990390 0.968093 0.798215 0.505541 0.134149 0.259048 0.612931 0.871688 0.993717 0.958533 0.770436 0.458322 0.071489 0.327967 0.675012 0.912337 0.999919 0.922025 0.690293
1.000000 1.000000 1.000000 1.000000 1.000000 1.000000 1.000000 1.000000 1.000000 1.000000 1.000000 1.000000 1.000000 1.000000 1.000000 1.000000 1.000000 1.000000 1.000000 1.000000 1.000000 1.000000 1.000000 1.000000 1.000000 1.000000 1.000000 1.000000 1.000000 1.000000 1.000000 1.000000 1.000000 1.000000 1.000000 1.000000 1.000000 1.000000 1.000000 1.000000 1.000000 1.000000 1.000000 1.000000 1.000000 1.000000 1.000000 1.000000 1.000000 1.000000 1.000000 1.000000 0.916427 0.916427 0.916427 0.916427 0.916427 0.916427 0.916427 0.916427 0.916427 0.916427 0.916427 0.916427 0.916427 0.916427 0.916427 0.916427 0.916427 0.916427 0.916427 0.916427 0.916427 0.916427 0.916427 0.916427 0.916427 0.916427 0.916427 0.916427 0.916427 0.916427 0.916427 0.916427 0.916427 0.916427 0.916427 0.916427 0.916427 0.916427 0.916427 0.890977 0.898829 0.902470 0.904693 0.901597 0.902864 0.902105 0.902798 0.901161 0.903127 0.906118 0.908335 0.921281 0.925467 0.928856 0.928310 0.929453 0.930201 0.950789 0.949750 0.945474 0.944659 0.947593 0.950728 0.951126 0.951456 0.951107 0.951660 0.951206 0.950336 0.949415 0.948159 0.947755 0.947639 0.947704 0.948364 0.948613 0.949517 0.949365 0.949465 0.949725 0.944181 0.934889 0.946155 0.946654 0.942325 0.938101 0.938765 0.936459 0.936880 0.937745 0.938939 0.937877 0.938770 0.933331 0.930984 0.923298 0.911030 0.906072 0.905913 0.908723 0.909610 0.912137 0.910645 0.909542 0.909736 0.911137 0.909311 0.908648 0.906893 0.899336 0.905654 0.906928 0.904196 0.900380 0.878660 0.873677 0.872710 0.877400 0.879870 0.863647 0.863282 0.863578 0.866722 0.869125 0.872354 0.866323 0.860680 0.849482 0.847066 0.851099 0.834934 0.833534 0.823640 0.815117 0.799667 0.798397 0.797526 0.796152 0.795742 0.798197 0.766178 0.779540 0.777061 0.774447 0.759870 0.763049 0.764191 0.758015 0.756314 0.757845 0.757778 0.738836 0.737442 0.742267 0.739240 0.734834 0.690468 0.668985 0.639893 0.635440 0.624256 0.575585 0.550006 0.558377 0.553946 0.541941 0.532103 0.518561 0.548148 0.555919 0.545260 0.505635 0.480677 0.486126 0.476176 0.471163 0.466965 0.480122 0.493144 0.488769 0.472556 0.460366 0.467104 0.489525 0.461270 0.421504 0.429122 0.432110 0.453554 0.456496 0.456858 0.448146 0.428395 0.408877 0.429335 0.450895 0.436990 0.436230 0.435758 0.403787 0.389169 0.389302 0.366066 0.363670 0.319156 0.294715 0.291597 0.270723 0.263565 0.238129 0.275351 0.319079 0.307006 0.328828 0.373607 0.395902 0.378235 0.359384 0.303454 0.287624 0.264379 0.239142 0.234935 0.216488 0.227099 0.233859 0.203580 0.248207 0.226402 0.227077 0.209781 0.250731 0.264716 0.247708 0.176718 0.120555 0.113905 0.110421 0.090160 0.052493 0.058158 0.090177 0.066867 0.039295 -0.007986 -0.070364 -0.066587 -0.068024 -0.081124 -0.142194 -0.114333 -0.086724 -0.038963 -0.029776 -0.020243 -0.034432 -0.010151 -0.035486 -0.016244 -0.013896 -0.020266 0.002157 -0.012690 0.010520 0.041388 0.046079 0.035164 0.065906 -0.000738 0.035167 0.011229 0.011001 0.027583 0.007085 0.034750 0.032863 0.032719 0.002054 -0.003892 -0.011147 -0.009194 -0.009194 -0.009194 -0.009194 -0.009194 -0.030757 -0.030757 -0.030757 -0.030757 -0.030757 -0.030757 -0.030757 -0.030757 -0.013392 -0.013392 -0.013392 -0.013392 -0.013392 -0.013392 -0.013392 -0.013392 0.002863 0.002863 0.002863 0.002863 0.002863 0.002863 0.002863 0.002863 0.002863 0.002863
0.000000 0.000000 0.000000 0.000000 0.000000 0.000000 0.000000 0.000000 0.000000 0.000000 0.000000 0.000000 0.000000 0.000000 0.000000 0.000000 0.000000 0.000000 0.000000 0.000000 0.000000 0.000000 0.000000 0.000000 0.000000 0.000000 0.000000 0.000000 0.000000 0.000000 0.000000 0.000000 0.000000 0.000000 0.000000 0.000000 0.000000 0.000000 0.000000 0.000000 0.000000 0.000000 0.000000 0.000000 0.000000 0.000000 0.000000 0.000000 0.000000 0.000000 0.000000 0.000000 0.203069 0.203069 0.203069 0.203069 0.203069 0.203069 0.203069 0.203069 0.203069 0.203069 0.203069 0.203069 0.203069 0.203069 0.203069 0.203069 0.203069 0.203069 0.203069 0.203069 0.203069 0.203069 0.203069 0.203069 0.203069 0.203069 0.203069 0.203069 0.203069 0.203069 0.203069 0.203069 0.203069 0.203069 0.203069 0.203069 0.203069 0.203069 0.203069 0.237356 0.237356 0.237356 0.237356 0.237356 0.237356 0.237356 0.237356 0.237356 0.237356 0.237356 0.237356 0.237356 0.237356 0.237356 0.237356 0.237356 0.237356 0.237356 0.237356 0.237356 0.237356 0.237356 0.237356 0.237356 0.237356 0.248069 0.248069 0.248069 0.248069 0.248069 0.248069 0.248069 0.248069 0.248069 0.248069 0.248069 0.248069 0.248069 0.248069 0.248069 0.248069 0.248069 0.248069 0.248069 0.248069 0.248069 0.248069 0.256074 0.256074 0.256074 0.256074 0.256074 0.256074 0.256074 0.256074 0.256074 0.256074 0.256074 0.256074 0.256074 0.256074 0.256074 0.256074 0.256074 0.256074 0.256074 0.269680 0.269680 0.269680 0.269680 0.269680 0.269680 0.269680 0.269680 0.269680 0.269680 0.269680 0.269680 0.269680 0.269680 0.269680 0.269680 0.264906 0.264906 0.264906 0.264906 0.264906 0.264906 0.264906 0.264906 0.264906 0.264906 0.264906 0.264906 0.264906 0.264906 0.264906 0.264906 0.269680 0.269680 0.269680 0.269680 0.269680 0.269680 0.269680 0.269680 0.269680 0.269680 0.269680 0.269680 0.269680 0.269680 0.274721 0.274721 0.274721 0.274721 0.274721 0.274721 0.274721 0.274721 0.274721 0.274721 0.274721 0.274721 0.274721 0.274721 0.274721 0.274721 0.274721 0.274721 0.274721 0.274721 0.274721 0.274721 0.274721 0.274721 0.274721 0.269680 0.269680 0.269680 0.269680 0.269680 0.269680 0.269680 0.269680 0.269680 0.269680 0.269680 0.269680 0.274721 0.274721 0.274721 0.274721 0.274721 0.274721 0.274721 0.274721 0.274721 0.274721 0.274721 0.269680 0.269680 0.269680 0.269680 0.269680 0.269680 0.269680 0.269680 0.269680 0.269680 0.269680 0.274721 0.274721 0.274721 0.274721 0.274721 0.274721 0.274721 0.274721 0.274721 0.274721 0.269680 0.269680 0.269680 0.269680 0.269680 0.269680 0.269680 0.269680 0.269680 0.269680 0.264906 0.264906 0.264906 0.264906 0.264906 0.264906 0.264906 0.264906 0.264906 0.264906 0.269680 0.269680 0.269680 0.269680 0.269680 0.269680 0.269680 0.269680 0.269680 0.264906 0.264906 0.264906 0.264906 0.264906 0.264906 0.264906 0.264906 0.264906 0.260378 0.260378 0.260378 0.260378 0.260378 0.260378 0.260378 0.260378 0.260378 0.269680 0.269680 0.269680 0.269680 0.269680 0.269680 0.269680 0.269680 0.251976 0.251976 0.251976 0.251976 0.251976 0.251976 0.251976 0.251976 0.251976 0.264906 0.264906 0.264906 0.264906 0.264906 0.264906 0.264906 0.264906 0.260378 0.260378 0.260378 0.260378 0.260378 0.260378 0.260378 0.260378 0.256074 0.256074 0.256074 0.256074 0.256074 0.256074 0.256074 0.256074 0.256074 0.256074
