# Output from CTFFind version 4.1.9, run on 2019-11-03 18:51:11
# Input file: stack4_ub_averaged_50.mrc ; Number of micrographs: 1
# Pixel size: 3.000 Angstroms ; acceleration voltage: 300.0 keV ; spherical aberration: 0.00 mm ; amplitude contrast: 0.07
# Box size: 512 pixels ; min. res.: 30.0 Angstroms ; max. res.: 5.0 Angstroms ; min. def.: 5000.0 um; max. def. 50000.0 um; num. frames averaged: 1
# 6 lines per micrograph: #1 - spatial frequency (1/Angstroms); #2 - 1D rotational average of spectrum (assuming no astigmatism); #3 - 1D rotational average of spectrum; #4 - CTF fit; #5 - cross-correlation between spectrum and CTF fit; #6 - 2sigma of expected cross correlation of noise
0.000000 0.000651 0.001302 0.001953 0.002604 0.003255 0.003906 0.004557 0.005208 0.005859 0.006510 0.007161 0.007812 0.008464 0.009115 0.009766 0.010417 0.011068 0.011719 0.012370 0.013021 0.013672 0.014323 0.014974 0.015625 0.016276 0.016927 0.017578 0.018229 0.018880 0.019531 0.020182 0.020833 0.021484 0.022135 0.022786 0.023438 0.024089 0.024740 0.025391 0.026042 0.026693 0.027344 0.027995 0.028646 0.029297 0.029948 0.030599 0.031250 0.031901 0.032552 0.033203 0.033854 0.034505 0.035156 0.035807 0.036458 0.037109 0.037760 0.038411 0.039062 0.039714 0.040365 0.041016 0.041667 0.042318 0.042969 0.043620 0.044271 0.044922 0.045573 0.046224 0.046875 0.047526 0.048177 0.048828 0.049479 0.050130 0.050781 0.051432 0.052083 0.052734 0.053385 0.054036 0.054688 0.055339 0.055990 0.056641 0.057292 0.057943 0.058594 0.059245 0.059896 0.060547 0.061198 0.061849 0.062500 0.063151 0.063802 0.064453 0.065104 0.065755 0.066406 0.067057 0.067708 0.068359 0.069010 0.069661 0.070312 0.070964 0.071615 0.072266 0.072917 0.073568 0.074219 0.074870 0.075521 0.076172 0.076823 0.077474 0.078125 0.078776 0.079427 0.080078 0.080729 0.081380 0.082031 0.082682 0.083333 0.083984 0.084635 0.085286 0.085938 0.086589 0.087240 0.087891 0.088542 0.089193 0.089844 0.090495 0.091146 0.091797 0.092448 0.093099 0.093750 0.094401 0.095052 0.095703 0.096354 0.097005 0.097656 0.098307 0.098958 0.099609 0.100260 0.100911 0.101562 0.102214 0.102865 0.103516 0.104167 0.104818 0.105469 0.106120 0.106771 0.107422 0.108073 0.108724 0.109375 0.110026 0.110677 0.111328 0.111979 0.112630 0.113281 0.113932 0.114583 0.115234 0.115885 0.116536 0.117188 0.117839 0.118490 0.119141 0.119792 0.120443 0.121094 0.121745 0.122396 0.123047 0.123698 0.124349 0.125000 0.125651 0.126302 0.126953 0.127604 0.128255 0.128906 0.129557 0.130208 0.130859 0.131510 0.132161 0.132812 0.133464 0.134115 0.134766 0.135417 0.136068 0.136719 0.137370 0.138021 0.138672 0.139323 0.139974 0.140625 0.141276 0.141927 0.142578 0.143229 0.143880 0.144531 0.145182 0.145833 0.146484 0.147135 0.147786 0.148438 0.149089 0.149740 0.150391 0.151042 0.151693 0.152344 0.152995 0.153646 0.154297 0.154948 0.155599 0.156250 0.156901 0.157552 0.158203 0.158854 0.159505 0.160156 0.160807 0.161458 0.162109 0.162760 0.163411 0.164062 0.164714 0.165365 0.166016 0.166667 0.167318 0.167969 0.168620 0.169271 0.169922 0.170573 0.171224 0.171875 0.172526 0.173177 0.173828 0.174479 0.175130 0.175781 0.176432 0.177083 0.177734 0.178385 0.179036 0.179688 0.180339 0.180990 0.181641 0.182292 0.182943 0.183594 0.184245 0.184896 0.185547 0.186198 0.186849 0.187500 0.188151 0.188802 0.189453 0.190104 0.190755 0.191406 0.192057 0.192708 0.193359 0.194010 0.194661 0.195312 0.195964 0.196615 0.197266 0.197917 0.198568 0.199219 0.199870 0.200521 0.201172 0.201823 0.202474 0.203125 0.203776 0.204427 0.205078 0.205729 0.206380 0.207031 0.207682 0.208333 0.208984 0.209635 0.210286 0.210938 0.211589 0.212240 0.212891 0.213542 0.214193 0.214844 0.215495 0.216146 0.216797 0.217448 0.218099 0.218750 0.219401 0.220052 0.220703 0.221354 0.222005 0.222656 0.223307 0.223958 0.224609 0.225260 0.225911 0.226562 0.227214 0.227865 0.228516 0.229167 0.229818 0.230469 0.231120 0.231771 0.232422 0.233073 0.233724 0.234375 0.235026 0.235677
       0.36608        0.36608        0.36608        0.36608        0.36608        0.36608        0.36608        0.36608        0.36608        0.36608        0.36608        0.36608        0.36608        0.36608        0.36608        0.36608        0.36608        0.36608        0.36608        0.36608        0.36608        0.36608        0.36608        0.36608        0.36608        0.36608        0.36608        0.36608        0.36608        0.36608        0.36608        0.36608        0.36608        0.36608        0.36608        0.36608        0.36608        0.36608        0.36608        0.36608        0.36608        0.36608        0.36608        0.36608        0.36608        0.36608        0.36608        0.36608        0.36608        0.36608        0.36608        0.70571        0.77380        0.45995        0.04009        0.06110       -0.15146       -0.30453       -0.07434       -0.04180       -0.10231       -0.17451       -0.12970       -0.15863       -0.36116       -0.43576       -0.29891       -0.33336       -0.38855       -0.45867       -0.43850       -0.39922       -0.53856       -0.42700       -0.51819       -0.56911       -0.48651       -0.39393       -0.43738       -0.29745       -0.19843       -0.17202       -0.11658       -0.06681        0.01248        0.05997        0.25318        0.43756        0.37517        0.57480        0.67850        0.65706        0.63175        0.64774        0.69716        0.65205        0.63933        0.71749        0.66969        0.60440        0.53195        0.44051        0.34657        0.26063        0.19991        0.10760        0.09644        0.03001        0.09378        0.05225        0.09016        0.09570        0.11674        0.26476        0.42150        0.44362        0.48303        0.52715        0.52291        0.60990        0.61859        0.68527        0.67310        0.62344        0.62415        0.59927        0.48865        0.39952        0.38717        0.26091        0.21742        0.18736        0.15877        0.11012        0.06972        0.11562        0.22586        0.31598        0.28623        0.49402        0.52833        0.53729        0.61159        0.63706        0.60205        0.62134        0.52119        0.49603        0.51757        0.46687        0.39551        0.24147        0.12959        0.21605        0.21707        0.20227        0.20155        0.29074        0.25704        0.40026        0.44921        0.45512        0.51608        0.52577        0.55319        0.51364        0.37481        0.39890        0.42690        0.30288        0.30225        0.25565        0.21512        0.26207        0.30964        0.30071        0.37293        0.40394        0.41776        0.46137        0.53864        0.53823        0.50915        0.41279        0.42085        0.38684        0.34585        0.32671        0.31360        0.27784        0.30744        0.34241        0.35783        0.40952        0.44353        0.43971        0.45784        0.42500        0.42057        0.39406        0.32973        0.34946        0.36065        0.33693        0.31355        0.30740        0.31103        0.38170        0.41802        0.38836        0.39404        0.43870        0.39844        0.40884        0.40536        0.39233        0.37313        0.33076        0.33662        0.32808        0.33881        0.37404        0.38481        0.38220        0.35666        0.35355        0.34596        0.34297        0.35872        0.35254        0.37326        0.36433        0.35914        0.37931        0.38647        0.35722        0.37118        0.37690        0.37122        0.36714        0.34274        0.37103        0.34063        0.32752        0.34120        0.32645        0.32539        0.38060        0.32602        0.36783        0.37716        0.34387        0.34207        0.31671        0.37376        0.29507        0.31465        0.30298        0.29835        0.34345        0.36283        0.35318        0.33070        0.35308        0.34148        0.34299        0.33929        0.35261        0.36527        0.31611        0.34997        0.34268        0.33018        0.31456        0.34593        0.37780        0.34596        0.35841        0.36708        0.34160        0.36317        0.34677        0.31990        0.37088        0.30149        0.35262        0.33133        0.33458        0.36428        0.36901        0.36941        0.36980        0.33418        0.31693        0.34111        0.33718        0.31392        0.32803        0.34627        0.35778        0.37507        0.37830        0.34655        0.35087        0.33679        0.32187        0.31126        0.35310        0.30931        0.28775        0.30924        0.35629        0.32427        0.34041        0.32527        0.31994        0.33194        0.33569        0.31381        0.29386        0.27323        0.28754        0.28616        0.26768        0.35567        0.35424        0.31243        0.30554        0.33531        0.32214        0.34263        0.32804        0.25659        0.28884        0.30582        0.25377        0.28890        0.31721        0.30262        0.31336        0.30644        0.30605        0.31967        0.27827        0.30566        0.19420        0.28101        0.29857        0.28722        0.33132        0.31076        0.30077        0.32199        0.24774        0.19108        0.23094        0.37424        0.36677        0.26862        0.05021        0.04178       -0.06354       -0.22962
2.168417 2.146512 2.124723 2.103049 2.081491 2.060048 2.038721 2.017508 1.996412 1.975430 1.954564 1.933814 1.913178 1.892659 1.872254 1.851965 1.831791 1.811733 1.791790 1.771963 1.752251 1.732654 1.713173 1.693807 1.674556 1.655421 1.636401 1.617497 1.598708 1.580035 1.561476 1.543034 1.524706 1.506494 1.488398 1.470416 1.452551 1.434800 1.417165 1.399645 1.382241 1.364952 1.347779 1.330721 1.313778 1.296951 1.280239 1.263642 1.247161 1.230796 1.214545 1.489161 1.708423 1.371146 0.710162 0.928693 0.529811 0.286741 0.597403 0.634219 0.497450 0.403752 0.504381 0.458341 0.171355 0.092958 0.167240 0.148382 0.149838 -0.008286 -0.043613 0.037331 -0.135558 -0.008002 -0.159764 -0.192185 -0.167265 -0.052182 -0.138574 0.005994 0.161211 0.154315 0.154175 0.232233 0.310866 0.358002 0.531516 0.704194 0.690222 0.907575 1.035037 0.963038 0.902913 0.944279 0.966511 0.951044 0.898742 0.961726 0.958032 0.801997 0.786327 0.677303 0.495288 0.410929 0.387179 0.205977 0.183907 0.110234 0.130138 0.141381 0.103350 0.162504 0.130150 0.196941 0.416642 0.543971 0.493461 0.551088 0.590726 0.577896 0.687240 0.682247 0.701603 0.621220 0.661971 0.572507 0.541232 0.343296 0.378055 0.172042 0.194277 0.039006 0.074684 0.000127 -0.083220 -0.097288 0.072905 0.160468 0.143006 0.291150 0.385711 0.426473 0.442147 0.529033 0.491037 0.468086 0.416731 0.333160 0.320293 0.308699 0.272272 0.076653 -0.032452 -0.116781 0.037871 -0.090128 -0.042033 0.021725 -0.002774 0.122099 0.210757 0.210451 0.237923 0.312882 0.370650 0.361457 0.211470 0.149619 0.247738 0.141994 0.076428 0.005298 0.002280 -0.022568 0.048843 0.032553 0.121677 0.096689 0.214264 0.176928 0.291938 0.285805 0.294652 0.174542 0.141588 0.153361 0.043055 0.048751 0.035507 -0.011426 -0.011938 -0.010081 0.100008 0.051586 0.129599 0.155667 0.157053 0.157538 0.148011 0.120800 0.084299 0.024965 0.060468 0.060280 0.015092 0.013322 -0.017446 0.021749 0.084039 0.132660 0.090911 0.117746 0.074335 0.037232 0.142284 0.029604 0.087625 -0.012148 -0.015029 -0.008206 -0.001981 -0.003396 0.019735 0.065857 0.014377 0.021551 -0.003785 0.052809 -0.012409 0.030922 0.003036 0.038978 0.014030 0.026109 0.050587 0.036888 -0.002217 0.051695 0.034601 0.010305 0.035953 -0.036878 0.066150 -0.046039 -0.019522 -0.003179 -0.046118 -0.025913 0.027708 -0.037196 0.044758 -0.000097 -0.015213 -0.015540 -0.012519 0.012791 -0.083892 -0.027964 -0.062698 -0.054602 0.009418 0.011100 0.002452 -0.022244 0.010702 -0.025014 0.009404 -0.016726 0.041196 -0.019896 -0.035578 -0.015735 0.000422 -0.045064 -0.041922 -0.001212 0.015658 -0.042024 0.014609 -0.033743 -0.029007 -0.001239 -0.041343 -0.025029 -0.016474 -0.065722 -0.025402 -0.024093 -0.069377 -0.000201 0.023176 -0.017752 -0.005595 -0.041661 -0.054431 -0.011328 -0.030887 -0.041633 -0.028879 -0.046062 0.046778 0.033645 0.017012 0.010328 -0.010886 -0.001228 -0.008819 -0.057694 0.019271 -0.033196 -0.067488 -0.003742 0.018858 -0.018486 -0.008119 -0.015298 -0.034966 0.019719 -0.011583 -0.016645 -0.032614 -0.070876 -0.017658 -0.042852 -0.029960 0.071322 0.083568 0.028333 0.003277 0.055583 0.048721 0.079385 0.046552 -0.028710 0.016307 0.014609 -0.063245 0.066969 0.067742 0.075375 0.020545 0.039513 0.145183 0.069213 0.031411 0.123022 -0.081868 0.099800 0.050701 0.105027 0.146824 0.362812 0.281038 0.361795 0.291230 0.226751 0.259998 0.540446 0.395544 0.294906 -0.013176 0.047865 -0.261681
0.072396 0.072919 0.074487 0.077099 0.080756 0.085456 0.091198 0.097979 0.105799 0.114653 0.124538 0.135449 0.147381 0.160325 0.174275 0.189218 0.205144 0.222038 0.239882 0.258659 0.278345 0.298916 0.320341 0.342588 0.365621 0.389397 0.413871 0.438992 0.464702 0.490939 0.517635 0.544716 0.572100 0.599700 0.627421 0.655160 0.682809 0.710251 0.737362 0.764011 0.790059 0.815360 0.839762 0.863106 0.885225 0.905949 0.925102 0.942502 0.957964 0.971304 0.982330 0.990856 0.996692 0.999653 0.999558 0.996231 0.989504 0.979217 0.965225 0.947393 0.925605 0.899762 0.869786 0.835622 0.797242 0.754645 0.707861 0.656953 0.602018 0.543192 0.480649 0.414603 0.345311 0.273073 0.198232 0.121175 0.042333 0.037822 0.118774 0.199970 0.280820 0.360699 0.438953 0.514906 0.587860 0.657105 0.721925 0.781606 0.835445 0.882756 0.922881 0.955203 0.979152 0.994216 0.999954 0.996004 0.982096 0.958057 0.923826 0.879459 0.825136 0.761168 0.688004 0.606228 0.516566 0.419881 0.317170 0.209561 0.098301 0.015254 0.129651 0.243359 0.354786 0.462304 0.564268 0.659045 0.745043 0.820736 0.884697 0.935630 0.972394 0.994041 0.999836 0.989288 0.962170 0.918542 0.858760 0.783492 0.693718 0.590730 0.476122 0.351777 0.219839 0.082687 0.057103 0.196805 0.333591 0.464588 0.586943 0.697880 0.794775 0.875219 0.937086 0.978599 0.998384 0.995531 0.969632 0.920822 0.849794 0.757815 0.646718 0.518881 0.377190 0.224989 0.066007 0.095723 0.255961 0.410373 0.554641 0.684596 0.796337 0.886362 0.951688 0.989963 0.999563 0.979675 0.930355 0.852567 0.748189 0.619991 0.471583 0.307335 0.132261 0.048122 0.227956 0.401234 0.561996 0.704543 0.823646 0.914749 0.974170 0.999255 0.988528 0.941788 0.860165 0.746128 0.603443 0.437081 0.253057 0.058248 0.139866 0.333469 0.514722 0.676084 0.810634 0.912388 0.976586 0.999941 0.980831 0.919436 0.817788 0.679749 0.510904 0.318366 0.110500 0.103416 0.313595 0.510185 0.683737 0.825672 0.928725 0.987351 0.998051 0.959618 0.873274 0.742685 0.573864 0.374922 0.155724 0.072576 0.298088 0.508796 0.693208 0.840997 0.943607 0.994788 0.991010 0.931756 0.819643 0.660366 0.462467 0.236924 0.003426 0.244592 0.472232 0.672505 0.832944 0.943246 0.995988 0.987171 0.916578 0.787892 0.608582 0.389527 0.144410 0.111103 0.360339 0.586700 0.774781 0.911458 0.986827 0.995000 0.934612 0.809047 0.626338 0.398719 0.141859 0.126150 0.386064 0.618855 0.807118 0.936417 0.996436 0.981880 0.893003 0.735743 0.521411 0.265956 0.011158 0.288405 0.543845 0.756872 0.909907 0.989915 0.989578 0.908049 0.751190 0.531251 0.265999 0.022643 0.310364 0.572503 0.786168 0.932277 0.997336 0.974758 0.865636 0.678815 0.430307 0.141987 0.160251 0.448783 0.696792 0.880763 0.982803 0.992453 0.907865 0.736185 0.493072 0.201387 0.110890 0.413286 0.675801 0.871908 0.981313 0.992134 0.902313 0.720052 0.463198 0.157614 0.165334 0.471968 0.729774 0.910920 0.995326 0.973003 0.845361 0.625314 0.336102 0.008969 0.320147 0.614528 0.840787 0.972732 0.994494 0.902577 0.706523 0.428094 0.098981 0.242692 0.556757 0.805702 0.959237 0.998080 0.916522 0.723405 0.441346 0.104240 0.246718 0.567988 0.819120 0.967900 0.994612 0.894800 0.680159 0.377340 0.024817 0.331914 0.646153 0.876134 0.990668 0.973525 0.825892 0.566576 0.229782 0.139229 0.490152 0.774484 0.952267 0.997855 0.903773 0.682137 0.363305
1.000000 1.000000 1.000000 1.000000 1.000000 1.000000 1.000000 1.000000 1.000000 1.000000 1.000000 1.000000 1.000000 1.000000 1.000000 1.000000 1.000000 1.000000 1.000000 1.000000 1.000000 1.000000 1.000000 1.000000 1.000000 1.000000 1.000000 1.000000 1.000000 1.000000 1.000000 1.000000 1.000000 1.000000 1.000000 1.000000 1.000000 1.000000 1.000000 1.000000 1.000000 1.000000 1.000000 1.000000 1.000000 1.000000 1.000000 1.000000 1.000000 1.000000 1.000000 1.000000 0.937499 0.937499 0.935462 0.935462 0.935462 0.935462 0.935462 0.935462 0.935462 0.935462 0.935462 0.935462 0.935462 0.935462 0.935462 0.935462 0.935462 0.935462 0.935462 0.935462 0.935462 0.935462 0.935462 0.935462 0.935462 0.935462 0.935462 0.935462 0.935462 0.935462 0.935462 0.935462 0.935462 0.935462 0.935462 0.935462 0.935462 0.935462 0.935462 0.935462 0.935462 0.935462 0.935462 0.927646 0.926278 0.928176 0.931086 0.932138 0.932487 0.933738 0.942159 0.942197 0.942652 0.945677 0.949792 0.953906 0.955988 0.961394 0.963253 0.962905 0.962579 0.962123 0.976799 0.975496 0.971674 0.969206 0.964601 0.965209 0.965153 0.961293 0.965380 0.965074 0.960899 0.960147 0.959172 0.958242 0.957767 0.957885 0.958264 0.958436 0.958919 0.957751 0.956069 0.954673 0.954606 0.954791 0.955403 0.956581 0.958059 0.958683 0.954303 0.953714 0.950037 0.954321 0.953981 0.952265 0.951706 0.951490 0.951735 0.951645 0.951726 0.940915 0.929013 0.924616 0.909681 0.906676 0.909558 0.914663 0.918291 0.916707 0.915847 0.907389 0.900878 0.891376 0.881910 0.883097 0.888044 0.888444 0.886240 0.875670 0.875247 0.870600 0.870364 0.869512 0.866312 0.861719 0.859238 0.857120 0.856229 0.853612 0.850995 0.853311 0.838993 0.813157 0.822646 0.812942 0.812153 0.815252 0.822606 0.826157 0.825539 0.816969 0.805262 0.800820 0.773068 0.775424 0.778677 0.738429 0.739892 0.699243 0.705881 0.704509 0.671587 0.648188 0.625969 0.588955 0.573507 0.546204 0.542901 0.547334 0.550808 0.533279 0.515108 0.524756 0.525027 0.509065 0.496610 0.475929 0.466329 0.439798 0.459214 0.462184 0.457487 0.453206 0.434761 0.399236 0.412361 0.401271 0.412417 0.411031 0.420882 0.419265 0.406398 0.360650 0.359374 0.350935 0.340414 0.320957 0.327738 0.254015 0.246230 0.251914 0.249776 0.239004 0.173651 0.124529 0.118794 0.115739 0.122068 0.088112 0.086854 0.097117 0.082936 0.108856 0.094632 0.084195 0.084213 0.077935 0.116903 0.085671 0.046037 0.061153 0.066040 0.038131 0.012176 -0.017177 -0.032369 -0.033199 -0.038060 -0.053436 -0.033997 -0.094960 -0.108099 -0.129158 -0.111630 -0.092682 -0.064078 -0.104913 -0.132707 -0.128027 -0.087733 -0.093669 -0.072084 -0.123105 -0.136925 -0.113374 -0.104725 -0.118317 -0.121681 -0.109035 -0.118800 -0.105019 -0.102012 -0.129438 -0.174444 -0.102291 -0.116368 -0.126225 -0.085624 -0.093182 -0.063703 -0.037621 -0.026509 -0.025677 -0.033933 -0.020757 -0.034798 -0.082589 -0.094011 -0.092114 -0.081304 -0.048501 -0.045942 -0.015567 -0.015585 -0.049468 0.027614 0.057853 0.057574 0.061226 0.069079 0.093612 0.081289 0.111691 0.169801 0.189037 0.192166 0.143791 0.169490 0.153740 0.148326 0.163396 0.163396 0.163396 0.163396 0.163396 0.163396 0.163396 0.163396 0.163396 0.148079 0.148079 0.148079 0.148079 0.148079 0.148079 0.148079 0.148079 0.148079 0.166563 0.166563 0.166563 0.166563 0.166563 0.166563 0.166563 0.166563 0.166563 0.166563 0.166563 0.166563
0.000000 0.000000 0.000000 0.000000 0.000000 0.000000 0.000000 0.000000 0.000000 0.000000 0.000000 0.000000 0.000000 0.000000 0.000000 0.000000 0.000000 0.000000 0.000000 0.000000 0.000000 0.000000 0.000000 0.000000 0.000000 0.000000 0.000000 0.000000 0.000000 0.000000 0.000000 0.000000 0.000000 0.000000 0.000000 0.000000 0.000000 0.000000 0.000000 0.000000 0.000000 0.000000 0.000000 0.000000 0.000000 0.000000 0.000000 0.000000 0.000000 0.000000 0.000000 0.000000 0.181818 0.181818 0.199007 0.199007 0.199007 0.199007 0.199007 0.199007 0.199007 0.199007 0.199007 0.199007 0.199007 0.199007 0.199007 0.199007 0.199007 0.199007 0.199007 0.199007 0.199007 0.199007 0.199007 0.199007 0.199007 0.199007 0.199007 0.199007 0.199007 0.199007 0.199007 0.199007 0.199007 0.199007 0.199007 0.199007 0.199007 0.199007 0.199007 0.199007 0.199007 0.199007 0.199007 0.234082 0.234082 0.234082 0.234082 0.234082 0.234082 0.234082 0.234082 0.234082 0.234082 0.234082 0.234082 0.234082 0.234082 0.234082 0.234082 0.234082 0.234082 0.234082 0.234082 0.234082 0.234082 0.234082 0.234082 0.234082 0.234082 0.234082 0.244339 0.244339 0.244339 0.244339 0.244339 0.244339 0.244339 0.244339 0.244339 0.244339 0.244339 0.244339 0.244339 0.244339 0.244339 0.244339 0.244339 0.244339 0.244339 0.244339 0.244339 0.244339 0.244339 0.256074 0.256074 0.256074 0.256074 0.256074 0.256074 0.256074 0.256074 0.256074 0.256074 0.256074 0.256074 0.256074 0.256074 0.256074 0.256074 0.256074 0.256074 0.256074 0.256074 0.256074 0.256074 0.256074 0.256074 0.256074 0.256074 0.256074 0.256074 0.256074 0.256074 0.256074 0.256074 0.256074 0.256074 0.256074 0.256074 0.256074 0.264906 0.264906 0.264906 0.264906 0.264906 0.264906 0.264906 0.264906 0.264906 0.264906 0.264906 0.264906 0.264906 0.264906 0.264906 0.264906 0.269680 0.269680 0.269680 0.269680 0.269680 0.269680 0.269680 0.269680 0.269680 0.269680 0.269680 0.269680 0.269680 0.269680 0.264906 0.264906 0.264906 0.264906 0.264906 0.264906 0.264906 0.264906 0.264906 0.264906 0.264906 0.264906 0.264906 0.264906 0.264906 0.264906 0.264906 0.264906 0.264906 0.264906 0.264906 0.264906 0.264906 0.264906 0.264906 0.264906 0.264906 0.269680 0.269680 0.269680 0.269680 0.269680 0.269680 0.269680 0.269680 0.269680 0.269680 0.269680 0.269680 0.264906 0.264906 0.264906 0.264906 0.264906 0.264906 0.264906 0.264906 0.264906 0.264906 0.264906 0.264906 0.269680 0.269680 0.269680 0.269680 0.269680 0.269680 0.269680 0.269680 0.269680 0.269680 0.269680 0.264906 0.264906 0.264906 0.264906 0.264906 0.264906 0.264906 0.264906 0.264906 0.264906 0.264906 0.269680 0.269680 0.269680 0.269680 0.269680 0.269680 0.269680 0.269680 0.269680 0.269680 0.264906 0.264906 0.264906 0.264906 0.264906 0.264906 0.264906 0.264906 0.264906 0.264906 0.260378 0.260378 0.260378 0.260378 0.260378 0.260378 0.260378 0.260378 0.260378 0.260378 0.264906 0.264906 0.264906 0.264906 0.264906 0.264906 0.264906 0.264906 0.264906 0.260378 0.260378 0.260378 0.260378 0.260378 0.260378 0.260378 0.260378 0.260378 0.256074 0.256074 0.256074 0.256074 0.256074 0.256074 0.256074 0.256074 0.256074 0.251976 0.251976 0.251976 0.251976 0.251976 0.251976 0.251976 0.251976 0.251976 0.264906 0.264906 0.264906 0.264906 0.264906 0.264906 0.264906 0.264906 0.264906 0.264906 0.264906 0.264906
