# Output from CTFFind version 4.1.9, run on 2019-11-02 12:27:19
# Input file: stack16_ub_averaged_1000.mrc ; Number of micrographs: 1
# Pixel size: 3.000 Angstroms ; acceleration voltage: 300.0 keV ; spherical aberration: 0.00 mm ; amplitude contrast: 0.07
# Box size: 512 pixels ; min. res.: 30.0 Angstroms ; max. res.: 5.0 Angstroms ; min. def.: 5000.0 um; max. def. 50000.0 um; num. frames averaged: 1
# 6 lines per micrograph: #1 - spatial frequency (1/Angstroms); #2 - 1D rotational average of spectrum (assuming no astigmatism); #3 - 1D rotational average of spectrum; #4 - CTF fit; #5 - cross-correlation between spectrum and CTF fit; #6 - 2sigma of expected cross correlation of noise
0.000000 0.000651 0.001302 0.001953 0.002604 0.003255 0.003906 0.004557 0.005208 0.005859 0.006510 0.007161 0.007812 0.008464 0.009115 0.009766 0.010417 0.011068 0.011719 0.012370 0.013021 0.013672 0.014323 0.014974 0.015625 0.016276 0.016927 0.017578 0.018229 0.018880 0.019531 0.020182 0.020833 0.021484 0.022135 0.022786 0.023438 0.024089 0.024740 0.025391 0.026042 0.026693 0.027344 0.027995 0.028646 0.029297 0.029948 0.030599 0.031250 0.031901 0.032552 0.033203 0.033854 0.034505 0.035156 0.035807 0.036458 0.037109 0.037760 0.038411 0.039062 0.039714 0.040365 0.041016 0.041667 0.042318 0.042969 0.043620 0.044271 0.044922 0.045573 0.046224 0.046875 0.047526 0.048177 0.048828 0.049479 0.050130 0.050781 0.051432 0.052083 0.052734 0.053385 0.054036 0.054688 0.055339 0.055990 0.056641 0.057292 0.057943 0.058594 0.059245 0.059896 0.060547 0.061198 0.061849 0.062500 0.063151 0.063802 0.064453 0.065104 0.065755 0.066406 0.067057 0.067708 0.068359 0.069010 0.069661 0.070312 0.070964 0.071615 0.072266 0.072917 0.073568 0.074219 0.074870 0.075521 0.076172 0.076823 0.077474 0.078125 0.078776 0.079427 0.080078 0.080729 0.081380 0.082031 0.082682 0.083333 0.083984 0.084635 0.085286 0.085938 0.086589 0.087240 0.087891 0.088542 0.089193 0.089844 0.090495 0.091146 0.091797 0.092448 0.093099 0.093750 0.094401 0.095052 0.095703 0.096354 0.097005 0.097656 0.098307 0.098958 0.099609 0.100260 0.100911 0.101562 0.102214 0.102865 0.103516 0.104167 0.104818 0.105469 0.106120 0.106771 0.107422 0.108073 0.108724 0.109375 0.110026 0.110677 0.111328 0.111979 0.112630 0.113281 0.113932 0.114583 0.115234 0.115885 0.116536 0.117188 0.117839 0.118490 0.119141 0.119792 0.120443 0.121094 0.121745 0.122396 0.123047 0.123698 0.124349 0.125000 0.125651 0.126302 0.126953 0.127604 0.128255 0.128906 0.129557 0.130208 0.130859 0.131510 0.132161 0.132812 0.133464 0.134115 0.134766 0.135417 0.136068 0.136719 0.137370 0.138021 0.138672 0.139323 0.139974 0.140625 0.141276 0.141927 0.142578 0.143229 0.143880 0.144531 0.145182 0.145833 0.146484 0.147135 0.147786 0.148438 0.149089 0.149740 0.150391 0.151042 0.151693 0.152344 0.152995 0.153646 0.154297 0.154948 0.155599 0.156250 0.156901 0.157552 0.158203 0.158854 0.159505 0.160156 0.160807 0.161458 0.162109 0.162760 0.163411 0.164062 0.164714 0.165365 0.166016 0.166667 0.167318 0.167969 0.168620 0.169271 0.169922 0.170573 0.171224 0.171875 0.172526 0.173177 0.173828 0.174479 0.175130 0.175781 0.176432 0.177083 0.177734 0.178385 0.179036 0.179688 0.180339 0.180990 0.181641 0.182292 0.182943 0.183594 0.184245 0.184896 0.185547 0.186198 0.186849 0.187500 0.188151 0.188802 0.189453 0.190104 0.190755 0.191406 0.192057 0.192708 0.193359 0.194010 0.194661 0.195312 0.195964 0.196615 0.197266 0.197917 0.198568 0.199219 0.199870 0.200521 0.201172 0.201823 0.202474 0.203125 0.203776 0.204427 0.205078 0.205729 0.206380 0.207031 0.207682 0.208333 0.208984 0.209635 0.210286 0.210938 0.211589 0.212240 0.212891 0.213542 0.214193 0.214844 0.215495 0.216146 0.216797 0.217448 0.218099 0.218750 0.219401 0.220052 0.220703 0.221354 0.222005 0.222656 0.223307 0.223958 0.224609 0.225260 0.225911 0.226562 0.227214 0.227865 0.228516 0.229167 0.229818 0.230469 0.231120 0.231771 0.232422 0.233073 0.233724 0.234375 0.235026 0.235677
       0.34253        0.34253        0.34253        0.34253        0.34253        0.34252        0.34253        0.34253        0.34253        0.34252        0.34253        0.34253        0.34253        0.34252        0.34253        0.34252        0.34253        0.34253        0.34253        0.34253        0.34253        0.34252        0.34252        0.34253        0.34252        0.34253        0.34253        0.34252        0.34252        0.34253        0.34252        0.34253        0.34252        0.34253        0.34252        0.34252        0.34253        0.34253        0.34253        0.34252        0.34253        0.34253        0.34253        0.34253        0.34252        0.34253        0.34253        0.34253        0.34252        0.34253        0.34252        0.48883        0.70311        0.45479       -0.11142       -0.41332       -0.57211       -0.66253       -0.74669       -0.76391       -0.86925       -0.91448       -0.76005       -0.92549       -0.87215       -1.02450       -1.09685       -0.98975       -0.96270       -0.88417       -0.86330       -0.75201       -0.64183       -0.50123       -0.42459       -0.21855       -0.11812       -0.02274        0.20373        0.24355        0.30790        0.38531        0.43924        0.51633        0.58055        0.59457        0.59166        0.50215        0.54564        0.48622        0.39063        0.32284        0.20634        0.17246        0.10306       -0.06187       -0.11135       -0.09295        0.00920       -0.01729        0.01080        0.02878        0.21003        0.21944        0.39100        0.45666        0.56143        0.69937        0.75970        0.72889        0.70613        0.70241        0.58419        0.54274        0.39973        0.27180        0.19250        0.14373        0.06558        0.02197        0.02257        0.06141        0.07698        0.27015        0.41732        0.50519        0.58747        0.63832        0.70476        0.66076        0.65093        0.67087        0.60953        0.47985        0.28356        0.23393        0.20581        0.13019        0.04633        0.09186        0.12303        0.25002        0.33844        0.41436        0.50004        0.53789        0.66283        0.61016        0.55549        0.50902        0.36609        0.21025        0.21194        0.15192        0.11197        0.12054        0.21576        0.25268        0.35897        0.44215        0.43985        0.56643        0.51032        0.44678        0.45225        0.38311        0.32351        0.27675        0.21844        0.23715        0.20929        0.21100        0.32438        0.44791        0.48540        0.47918        0.55003        0.49552        0.45601        0.39494        0.29333        0.22415        0.23175        0.24606        0.26665        0.27317        0.32337        0.44232        0.49838        0.48571        0.45951        0.41768        0.38690        0.36239        0.24808        0.22642        0.24624        0.29367        0.35322        0.36161        0.39145        0.40891        0.44298        0.36994        0.34807        0.31307        0.30331        0.26607        0.25836        0.30986        0.34520        0.41554        0.41603        0.39779        0.39385        0.40743        0.34959        0.28844        0.29059        0.27560        0.30966        0.35978        0.36592        0.41522        0.35903        0.36663        0.39022        0.34649        0.31607        0.27886        0.29669        0.33996        0.33111        0.32588        0.37612        0.39554        0.33441        0.35208        0.29469        0.30781        0.28819        0.28209        0.30025        0.33094        0.38302        0.36561        0.34687        0.32720        0.28466        0.27707        0.29618        0.28181        0.31306        0.36802        0.39386        0.33807        0.31766        0.31097        0.29693        0.28041        0.27816        0.29865        0.34074        0.33626        0.34302        0.31617        0.34691        0.32418        0.28680        0.31582        0.32186        0.33139        0.33601        0.31891        0.31614        0.30708        0.32697        0.31138        0.33482        0.38819        0.33580        0.36089        0.32139        0.31452        0.28952        0.31045        0.28973        0.31001        0.31572        0.35168        0.36161        0.31754        0.32208        0.31477        0.29197        0.29202        0.28982        0.33373        0.34273        0.35619        0.33398        0.32495        0.25820        0.26695        0.31294        0.34903        0.31734        0.29984        0.28481        0.28631        0.32504        0.30750        0.30749        0.33371        0.34467        0.31272        0.24177        0.28895        0.28173        0.28670        0.32110        0.31991        0.34473        0.34278        0.27829        0.26487        0.29159        0.26809        0.28772        0.27624        0.24732        0.26551        0.24747        0.27924        0.27930        0.27588        0.26430        0.31700        0.32684        0.31505        0.28926        0.30796        0.24443        0.26966        0.25455        0.33760        0.34292        0.23080        0.25580        0.26816        0.24414        0.25051        0.29720        0.22771        0.14579        0.17648        0.25254        0.27827        0.23034        0.14153        0.02863       -0.41325       -0.74362
3.055077 3.017126 2.979418 2.941955 2.904735 2.867759 2.831026 2.794537 2.758292 2.722291 2.686533 2.651020 2.615750 2.580723 2.545940 2.511401 2.477106 2.443055 2.409247 2.375683 2.342362 2.309286 2.276453 2.243864 2.211518 2.179417 2.147559 2.115945 2.084574 2.053447 2.022564 1.991925 1.961529 1.931377 1.901469 1.871804 1.842384 1.813207 1.784273 1.755584 1.727138 1.698936 1.670977 1.643263 1.615792 1.588565 1.561581 1.534841 1.508345 1.482093 1.456084 1.513012 1.703221 1.613416 0.966725 0.683622 0.476786 0.431136 0.320883 0.263983 0.200388 0.021325 0.197967 0.081108 -0.006282 -0.058112 -0.198150 -0.151588 -0.091630 -0.091300 -0.098840 0.010234 0.031050 0.234676 0.149236 0.365700 0.446882 0.478636 0.717478 0.701295 0.708951 0.840084 0.823674 0.856183 0.923894 0.892848 0.941295 0.753761 0.837820 0.842074 0.622164 0.608159 0.458167 0.436987 0.389053 0.210241 0.121604 0.101209 0.206038 0.147398 0.194624 0.111866 0.314632 0.289492 0.458470 0.417121 0.582081 0.644440 0.765625 0.694040 0.663670 0.669102 0.533353 0.507096 0.370573 0.293263 0.117913 0.146459 0.002512 -0.013577 -0.037812 -0.027405 -0.001407 0.033102 0.274878 0.333443 0.384602 0.400478 0.469255 0.532326 0.459108 0.506318 0.402167 0.390313 0.155232 0.068026 0.073925 -0.000326 -0.122580 -0.042290 -0.108483 0.018892 0.135309 0.156776 0.254048 0.256610 0.383895 0.463816 0.356245 0.390307 0.284380 0.128183 0.051106 0.052270 0.011984 0.002668 0.007866 0.108858 0.128808 0.263030 0.237324 0.307777 0.371879 0.235847 0.242957 0.218889 0.132693 0.081941 0.053423 0.027636 0.038928 -0.013421 0.029057 0.185982 0.222391 0.247111 0.279842 0.232475 0.240614 0.147859 0.106627 -0.021717 -0.016980 -0.004445 0.017345 0.009638 0.028505 0.104212 0.189579 0.201640 0.220382 0.138885 0.145924 0.080282 0.056717 -0.059478 -0.014582 -0.007118 0.055112 0.065847 0.076859 0.151440 0.091072 0.164817 0.069864 0.054450 0.045358 0.028634 0.001800 0.009906 0.055302 0.084170 0.133950 0.143170 0.067218 0.132552 0.102403 0.019872 0.009110 0.006790 -0.004571 0.059505 0.062573 0.099963 0.099403 0.076731 0.065325 0.083385 0.036135 0.014685 -0.013103 0.014762 0.060295 0.026791 0.042228 0.083252 0.085556 0.055302 0.034054 0.008060 0.015835 -0.006182 -0.011162 0.015182 0.054102 0.105715 0.060173 0.057602 0.040402 -0.014155 -0.000025 0.014885 0.011546 0.028357 0.104317 0.063107 0.025963 0.044409 0.003129 0.026701 -0.012208 -0.002285 0.023293 0.066165 0.034523 0.046586 0.031840 0.056954 0.029079 -0.004045 0.032459 0.044169 0.042145 0.032777 0.030495 0.006822 -0.005865 0.028657 0.008826 0.046307 0.078218 0.046001 0.031211 0.013911 0.004057 -0.003327 0.008423 0.003579 0.013626 -0.003762 0.084865 0.054062 0.036700 0.040366 0.005055 0.009133 0.010265 -0.004575 0.055119 0.062735 0.086172 0.046416 0.050364 -0.025697 0.014755 0.037177 0.075443 0.030431 0.034607 0.007701 0.004604 0.050996 0.046692 0.037612 0.060471 0.075862 0.058435 -0.023061 0.020930 0.041058 0.025485 0.045150 0.073655 0.076387 0.072251 0.016509 0.003585 0.016637 0.001263 0.019724 -0.014448 -0.028513 -0.007614 -0.048400 0.003494 -0.005715 0.009055 -0.073598 0.006580 0.015398 0.001081 -0.033310 0.031147 -0.090913 -0.020572 -0.041309 0.039160 0.068592 -0.105160 -0.018055 0.033971 0.016786 -0.039479 0.044976 0.030588 0.004529 -0.043367 0.083446 0.241533 0.201285 0.101713 0.028271 -0.653167
0.072396 0.073046 0.074995 0.078242 0.082787 0.088627 0.095762 0.104187 0.113900 0.124894 0.137163 0.150699 0.165492 0.181529 0.198795 0.217271 0.236936 0.257763 0.279721 0.302777 0.326887 0.352007 0.378082 0.405052 0.432848 0.461395 0.490608 0.520392 0.550644 0.581249 0.612085 0.643014 0.673892 0.704560 0.734850 0.764580 0.793560 0.821586 0.848445 0.873913 0.897759 0.919739 0.939607 0.957107 0.971981 0.983967 0.992805 0.998233 0.999997 0.997849 0.991550 0.980877 0.965622 0.945599 0.920646 0.890632 0.855456 0.815056 0.769411 0.718545 0.662532 0.601501 0.535635 0.465180 0.390444 0.311800 0.229688 0.144616 0.057159 0.032043 0.122282 0.212793 0.302752 0.391285 0.477475 0.560371 0.638995 0.712357 0.779466 0.839346 0.891047 0.933666 0.966363 0.988375 0.999039 0.997808 0.984268 0.958157 0.919381 0.868025 0.804370 0.728902 0.642315 0.545521 0.439646 0.326025 0.206194 0.081877 0.045034 0.172502 0.298377 0.420429 0.536384 0.643971 0.740969 0.825252 0.894847 0.947980 0.983134 0.999094 0.994997 0.970372 0.925180 0.859838 0.775237 0.672755 0.554248 0.422036 0.278870 0.127891 0.027432 0.183372 0.336030 0.481430 0.615622 0.734796 0.835400 0.914252 0.968655 0.996504 0.996384 0.967644 0.910466 0.825899 0.715877 0.583198 0.431485 0.265106 0.089068 0.091117 0.269599 0.440371 0.597476 0.735220 0.848389 0.932466 0.983832 0.999942 0.979478 0.922458 0.830296 0.705817 0.553207 0.377913 0.186472 0.013704 0.214598 0.407906 0.585375 0.739162 0.862209 0.948576 0.993768 0.995004 0.951416 0.864170 0.736509 0.573677 0.382757 0.172402 0.047530 0.266410 0.473348 0.657736 0.809815 0.921205 0.985415 0.998264 0.958195 0.866469 0.727206 0.547270 0.335984 0.104707 0.133753 0.365818 0.577914 0.757276 0.892743 0.975496 0.999687 0.962910 0.866482 0.715496 0.518634 0.287743 0.037174 0.217064 0.458314 0.670359 0.838535 0.950794 0.998622 0.977758 0.888646 0.736563 0.531407 0.287144 0.020924 0.248080 0.500021 0.715856 0.878818 0.975770 0.998344 0.943754 0.815194 0.621786 0.378035 0.102842 0.181909 0.453050 0.688008 0.866726 0.973431 0.998114 0.937576 0.795918 0.584405 0.320702 0.027486 0.269421 0.543313 0.768993 0.925160 0.996487 0.975250 0.862277 0.667128 0.407435 0.107428 0.204226 0.497129 0.742102 0.914155 0.995118 0.975686 0.856631 0.649004 0.373278 0.057477 0.265604 0.561727 0.798869 0.950754 0.999865 0.939626 0.775420 0.524329 0.213509 0.122588 0.445972 0.719393 0.910669 0.996589 0.965887 0.820889 0.577601 0.264132 0.082392 0.420117 0.707508 0.908491 0.997103 0.961010 0.803429 0.543101 0.212288 0.147061 0.488533 0.767239 0.945766 0.999357 0.919536 0.715661 0.414089 0.054981 0.312885 0.638669 0.876532 0.992192 0.968065 0.806167 0.528295 0.173356 0.207896 0.559998 0.830858 0.979550 0.982699 0.838398 0.567005 0.208543 0.182956 0.547500 0.828296 0.980707 0.979558 0.823561 0.536060 0.161849 0.239585 0.603387 0.869826 0.994223 0.954691 0.756275 0.430716 0.031660 0.373945 0.716999 0.938069 0.997885 0.884589 0.616407 0.239096 0.181594 0.571189 0.859660 0.994147 0.948915 0.730615 0.377753 0.045782 0.462011 0.793190 0.976398 0.975750 0.789777 0.452411 0.027180 0.404468 0.758684 0.965532 0.983088 0.806274 0.468622 0.036322 0.404448 0.764573 0.970110 0.977717 0.784184 0.427892 0.018358 0.461940 0.809505 0.986735 0.954543 0.718115 0.326653 0.136456 0.571081
1.000000 1.000000 1.000000 1.000000 1.000000 1.000000 1.000000 1.000000 1.000000 1.000000 1.000000 1.000000 1.000000 1.000000 1.000000 1.000000 1.000000 1.000000 1.000000 1.000000 1.000000 1.000000 1.000000 1.000000 1.000000 1.000000 1.000000 1.000000 1.000000 1.000000 1.000000 1.000000 1.000000 1.000000 1.000000 1.000000 1.000000 1.000000 1.000000 1.000000 1.000000 1.000000 1.000000 1.000000 1.000000 1.000000 1.000000 1.000000 1.000000 1.000000 1.000000 1.000000 0.932845 0.932845 0.932845 0.932845 0.932845 0.932845 0.932845 0.932845 0.932845 0.932845 0.932845 0.932845 0.932845 0.932845 0.932845 0.932845 0.932845 0.932845 0.932845 0.932845 0.932845 0.932845 0.932845 0.932845 0.932845 0.932845 0.932845 0.932845 0.932845 0.932845 0.932845 0.932845 0.932845 0.922273 0.923761 0.926749 0.927827 0.927787 0.927326 0.927006 0.927220 0.928936 0.931260 0.947890 0.950067 0.950639 0.951938 0.952182 0.954707 0.952951 0.952708 0.963281 0.962075 0.962773 0.955768 0.957373 0.956436 0.955491 0.956014 0.956280 0.954325 0.952154 0.950446 0.949795 0.949414 0.951186 0.951665 0.951618 0.953102 0.953056 0.952770 0.949372 0.947974 0.949450 0.951518 0.950675 0.956390 0.956211 0.964243 0.965016 0.963585 0.963495 0.963693 0.963892 0.953249 0.946563 0.940925 0.929088 0.919692 0.917592 0.920523 0.922519 0.921637 0.917193 0.916099 0.913473 0.907973 0.907101 0.907050 0.908717 0.904907 0.901328 0.884862 0.884115 0.886618 0.886092 0.884009 0.875745 0.870930 0.871674 0.874835 0.872239 0.868770 0.884879 0.880070 0.885143 0.888302 0.891513 0.895404 0.891634 0.890613 0.886746 0.883141 0.877844 0.879155 0.869729 0.872599 0.868004 0.859225 0.852085 0.855041 0.864417 0.872450 0.880600 0.879653 0.879564 0.878742 0.869481 0.870672 0.863283 0.864335 0.869517 0.875634 0.871589 0.868954 0.873102 0.871184 0.874463 0.876353 0.872084 0.870239 0.861318 0.861494 0.863262 0.880608 0.879822 0.867731 0.860327 0.852100 0.859141 0.862625 0.861770 0.863408 0.854682 0.856380 0.845971 0.834236 0.835921 0.840618 0.834876 0.835829 0.833550 0.836984 0.839338 0.837674 0.832975 0.831856 0.837183 0.815842 0.822771 0.825621 0.820511 0.824802 0.817374 0.811120 0.806258 0.806300 0.801986 0.814976 0.812926 0.780944 0.769896 0.777941 0.759407 0.750481 0.746841 0.747755 0.715289 0.696855 0.670775 0.665329 0.655397 0.658924 0.662544 0.653060 0.640930 0.627296 0.622226 0.637559 0.640042 0.605706 0.605614 0.598838 0.594225 0.589509 0.588656 0.585542 0.594108 0.599431 0.563874 0.559550 0.566497 0.542260 0.541155 0.538499 0.530947 0.502605 0.509565 0.504926 0.521455 0.547891 0.512043 0.505970 0.515284 0.528358 0.540181 0.540584 0.525921 0.504977 0.516524 0.490297 0.475916 0.492506 0.505304 0.495756 0.512817 0.500732 0.532119 0.525181 0.514187 0.537035 0.553577 0.552969 0.538404 0.550283 0.529334 0.532485 0.519379 0.469730 0.481740 0.466206 0.415942 0.410737 0.429803 0.416404 0.416416 0.389816 0.391232 0.367231 0.330691 0.343542 0.338027 0.303388 0.262438 0.263821 0.265933 0.234432 0.206413 0.226845 0.175852 0.168016 0.187392 0.198354 0.195570 0.189238 0.210512 0.210512 0.210512 0.210512 0.210512 0.210512 0.210512 0.210512 0.210512 0.210512 0.210512 0.210512 0.210512 0.210512 0.236550 0.236550 0.236550 0.236550 0.236550 0.236550 0.236550 0.236550 0.236550 0.236550 0.236550 0.236550
0.000000 0.000000 0.000000 0.000000 0.000000 0.000000 0.000000 0.000000 0.000000 0.000000 0.000000 0.000000 0.000000 0.000000 0.000000 0.000000 0.000000 0.000000 0.000000 0.000000 0.000000 0.000000 0.000000 0.000000 0.000000 0.000000 0.000000 0.000000 0.000000 0.000000 0.000000 0.000000 0.000000 0.000000 0.000000 0.000000 0.000000 0.000000 0.000000 0.000000 0.000000 0.000000 0.000000 0.000000 0.000000 0.000000 0.000000 0.000000 0.000000 0.000000 0.000000 0.000000 0.209657 0.209657 0.209657 0.209657 0.209657 0.209657 0.209657 0.209657 0.209657 0.209657 0.209657 0.209657 0.209657 0.209657 0.209657 0.209657 0.209657 0.209657 0.209657 0.209657 0.209657 0.209657 0.209657 0.209657 0.209657 0.209657 0.209657 0.209657 0.209657 0.209657 0.209657 0.209657 0.209657 0.244339 0.244339 0.244339 0.244339 0.244339 0.244339 0.244339 0.244339 0.244339 0.244339 0.244339 0.244339 0.244339 0.244339 0.244339 0.244339 0.244339 0.244339 0.244339 0.244339 0.244339 0.244339 0.244339 0.244339 0.244339 0.260378 0.260378 0.260378 0.260378 0.260378 0.260378 0.260378 0.260378 0.260378 0.260378 0.260378 0.260378 0.260378 0.260378 0.260378 0.260378 0.260378 0.260378 0.260378 0.260378 0.269680 0.269680 0.269680 0.269680 0.269680 0.269680 0.269680 0.269680 0.269680 0.269680 0.269680 0.269680 0.269680 0.269680 0.269680 0.269680 0.269680 0.269680 0.269680 0.269680 0.269680 0.269680 0.269680 0.269680 0.269680 0.269680 0.269680 0.269680 0.269680 0.269680 0.269680 0.269680 0.269680 0.280056 0.280056 0.280056 0.280056 0.280056 0.280056 0.280056 0.280056 0.280056 0.280056 0.280056 0.280056 0.280056 0.280056 0.280056 0.280056 0.280056 0.280056 0.280056 0.280056 0.280056 0.280056 0.280056 0.280056 0.280056 0.280056 0.280056 0.274721 0.274721 0.274721 0.274721 0.274721 0.274721 0.274721 0.274721 0.274721 0.274721 0.274721 0.274721 0.274721 0.285714 0.285714 0.285714 0.285714 0.285714 0.285714 0.285714 0.285714 0.285714 0.285714 0.285714 0.280056 0.280056 0.280056 0.280056 0.280056 0.280056 0.280056 0.280056 0.280056 0.280056 0.280056 0.274721 0.274721 0.274721 0.274721 0.274721 0.274721 0.274721 0.274721 0.274721 0.274721 0.274721 0.280056 0.280056 0.280056 0.280056 0.280056 0.280056 0.280056 0.280056 0.280056 0.280056 0.285714 0.285714 0.285714 0.285714 0.285714 0.285714 0.285714 0.285714 0.285714 0.269680 0.269680 0.269680 0.269680 0.269680 0.269680 0.269680 0.269680 0.269680 0.269680 0.274721 0.274721 0.274721 0.274721 0.274721 0.274721 0.274721 0.274721 0.274721 0.285714 0.285714 0.285714 0.285714 0.285714 0.285714 0.285714 0.285714 0.264906 0.264906 0.264906 0.264906 0.264906 0.264906 0.264906 0.264906 0.264906 0.274721 0.274721 0.274721 0.274721 0.274721 0.274721 0.274721 0.274721 0.269680 0.269680 0.269680 0.269680 0.269680 0.269680 0.269680 0.269680 0.269680 0.269680 0.269680 0.269680 0.269680 0.269680 0.269680 0.269680 0.280056 0.280056 0.280056 0.280056 0.280056 0.280056 0.280056 0.260378 0.260378 0.260378 0.260378 0.260378 0.260378 0.260378 0.260378 0.269680 0.269680 0.269680 0.269680 0.269680 0.269680 0.269680 0.264906 0.264906 0.264906 0.264906 0.264906 0.264906 0.264906 0.264906 0.264906 0.264906 0.264906 0.264906 0.264906 0.264906 0.260378 0.260378 0.260378 0.260378 0.260378 0.260378 0.260378 0.260378 0.260378 0.260378 0.260378 0.260378
