# Output from CTFFind version 4.1.9, run on 2019-11-02 12:27:30
# Input file: stack16_ub_averaged_2000.mrc ; Number of micrographs: 1
# Pixel size: 3.000 Angstroms ; acceleration voltage: 300.0 keV ; spherical aberration: 0.00 mm ; amplitude contrast: 0.07
# Box size: 512 pixels ; min. res.: 30.0 Angstroms ; max. res.: 5.0 Angstroms ; min. def.: 5000.0 um; max. def. 50000.0 um; num. frames averaged: 1
# 6 lines per micrograph: #1 - spatial frequency (1/Angstroms); #2 - 1D rotational average of spectrum (assuming no astigmatism); #3 - 1D rotational average of spectrum; #4 - CTF fit; #5 - cross-correlation between spectrum and CTF fit; #6 - 2sigma of expected cross correlation of noise
0.000000 0.000651 0.001302 0.001953 0.002604 0.003255 0.003906 0.004557 0.005208 0.005859 0.006510 0.007161 0.007812 0.008464 0.009115 0.009766 0.010417 0.011068 0.011719 0.012370 0.013021 0.013672 0.014323 0.014974 0.015625 0.016276 0.016927 0.017578 0.018229 0.018880 0.019531 0.020182 0.020833 0.021484 0.022135 0.022786 0.023438 0.024089 0.024740 0.025391 0.026042 0.026693 0.027344 0.027995 0.028646 0.029297 0.029948 0.030599 0.031250 0.031901 0.032552 0.033203 0.033854 0.034505 0.035156 0.035807 0.036458 0.037109 0.037760 0.038411 0.039062 0.039714 0.040365 0.041016 0.041667 0.042318 0.042969 0.043620 0.044271 0.044922 0.045573 0.046224 0.046875 0.047526 0.048177 0.048828 0.049479 0.050130 0.050781 0.051432 0.052083 0.052734 0.053385 0.054036 0.054688 0.055339 0.055990 0.056641 0.057292 0.057943 0.058594 0.059245 0.059896 0.060547 0.061198 0.061849 0.062500 0.063151 0.063802 0.064453 0.065104 0.065755 0.066406 0.067057 0.067708 0.068359 0.069010 0.069661 0.070312 0.070964 0.071615 0.072266 0.072917 0.073568 0.074219 0.074870 0.075521 0.076172 0.076823 0.077474 0.078125 0.078776 0.079427 0.080078 0.080729 0.081380 0.082031 0.082682 0.083333 0.083984 0.084635 0.085286 0.085938 0.086589 0.087240 0.087891 0.088542 0.089193 0.089844 0.090495 0.091146 0.091797 0.092448 0.093099 0.093750 0.094401 0.095052 0.095703 0.096354 0.097005 0.097656 0.098307 0.098958 0.099609 0.100260 0.100911 0.101562 0.102214 0.102865 0.103516 0.104167 0.104818 0.105469 0.106120 0.106771 0.107422 0.108073 0.108724 0.109375 0.110026 0.110677 0.111328 0.111979 0.112630 0.113281 0.113932 0.114583 0.115234 0.115885 0.116536 0.117188 0.117839 0.118490 0.119141 0.119792 0.120443 0.121094 0.121745 0.122396 0.123047 0.123698 0.124349 0.125000 0.125651 0.126302 0.126953 0.127604 0.128255 0.128906 0.129557 0.130208 0.130859 0.131510 0.132161 0.132812 0.133464 0.134115 0.134766 0.135417 0.136068 0.136719 0.137370 0.138021 0.138672 0.139323 0.139974 0.140625 0.141276 0.141927 0.142578 0.143229 0.143880 0.144531 0.145182 0.145833 0.146484 0.147135 0.147786 0.148438 0.149089 0.149740 0.150391 0.151042 0.151693 0.152344 0.152995 0.153646 0.154297 0.154948 0.155599 0.156250 0.156901 0.157552 0.158203 0.158854 0.159505 0.160156 0.160807 0.161458 0.162109 0.162760 0.163411 0.164062 0.164714 0.165365 0.166016 0.166667 0.167318 0.167969 0.168620 0.169271 0.169922 0.170573 0.171224 0.171875 0.172526 0.173177 0.173828 0.174479 0.175130 0.175781 0.176432 0.177083 0.177734 0.178385 0.179036 0.179688 0.180339 0.180990 0.181641 0.182292 0.182943 0.183594 0.184245 0.184896 0.185547 0.186198 0.186849 0.187500 0.188151 0.188802 0.189453 0.190104 0.190755 0.191406 0.192057 0.192708 0.193359 0.194010 0.194661 0.195312 0.195964 0.196615 0.197266 0.197917 0.198568 0.199219 0.199870 0.200521 0.201172 0.201823 0.202474 0.203125 0.203776 0.204427 0.205078 0.205729 0.206380 0.207031 0.207682 0.208333 0.208984 0.209635 0.210286 0.210938 0.211589 0.212240 0.212891 0.213542 0.214193 0.214844 0.215495 0.216146 0.216797 0.217448 0.218099 0.218750 0.219401 0.220052 0.220703 0.221354 0.222005 0.222656 0.223307 0.223958 0.224609 0.225260 0.225911 0.226562 0.227214 0.227865 0.228516 0.229167 0.229818 0.230469 0.231120 0.231771 0.232422 0.233073 0.233724 0.234375 0.235026 0.235677
       0.34334        0.34334        0.34334        0.34334        0.34334        0.34334        0.34334        0.34334        0.34334        0.34334        0.34334        0.34334        0.34334        0.34334        0.34334        0.34334        0.34334        0.34334        0.34334        0.34334        0.34334        0.34334        0.34334        0.34334        0.34334        0.34334        0.34334        0.34334        0.34334        0.34334        0.34334        0.34334        0.34334        0.34334        0.34334        0.34334        0.34334        0.34334        0.34334        0.34334        0.34334        0.34334        0.34334        0.34334        0.34334        0.34334        0.34334        0.34334        0.34334        0.34334        0.34334        0.48939        0.70460        0.45563       -0.10963       -0.41402       -0.57120       -0.66083       -0.74629       -0.76264       -0.86901       -0.91370       -0.76083       -0.92497       -0.87176       -1.02431       -1.09500       -0.98922       -0.96114       -0.88360       -0.86398       -0.75181       -0.64137       -0.50020       -0.42294       -0.21776       -0.11890       -0.02345        0.20390        0.24393        0.30870        0.38675        0.44035        0.51721        0.58190        0.59581        0.59369        0.50305        0.54643        0.48622        0.39029        0.32433        0.20791        0.17436        0.10331       -0.06299       -0.11254       -0.09282        0.00882       -0.01715        0.00900        0.03006        0.21159        0.22011        0.39069        0.45798        0.56329        0.70225        0.76136        0.72792        0.70844        0.70607        0.58661        0.54429        0.40029        0.27300        0.19331        0.14324        0.06565        0.02102        0.02369        0.06154        0.07893        0.27226        0.41763        0.50413        0.58678        0.63950        0.70681        0.66166        0.65140        0.67264        0.61102        0.47975        0.28381        0.23268        0.20542        0.13129        0.04901        0.09368        0.12353        0.24983        0.33895        0.41497        0.50128        0.54021        0.66472        0.61084        0.55590        0.50745        0.36700        0.21080        0.21178        0.15255        0.11192        0.11959        0.21458        0.25484        0.36219        0.44393        0.44061        0.56929        0.51263        0.44555        0.45182        0.38537        0.32408        0.27760        0.22035        0.23812        0.20988        0.21354        0.32669        0.44791        0.48777        0.47947        0.55095        0.49590        0.45684        0.39591        0.29197        0.22417        0.23254        0.24744        0.26785        0.27126        0.32446        0.44233        0.49761        0.48679        0.45915        0.41957        0.38634        0.36291        0.24896        0.23030        0.24790        0.29512        0.35348        0.36381        0.39466        0.40802        0.44496        0.37064        0.34823        0.31322        0.30271        0.26580        0.26028        0.31339        0.34614        0.41670        0.41729        0.39937        0.39465        0.40861        0.35098        0.28881        0.29032        0.27405        0.31023        0.36100        0.36473        0.41503        0.36115        0.36646        0.39027        0.34571        0.31485        0.27937        0.29774        0.34070        0.33404        0.32746        0.37754        0.39697        0.33701        0.35325        0.29403        0.30866        0.29098        0.28190        0.30090        0.33062        0.38282        0.36721        0.34825        0.32967        0.28687        0.27770        0.29701        0.28187        0.31367        0.36969        0.39437        0.33870        0.31817        0.31290        0.29713        0.28116        0.27859        0.29876        0.34197        0.33640        0.34611        0.31800        0.34482        0.32527        0.28873        0.31497        0.32141        0.32984        0.33310        0.31821        0.31721        0.30869        0.32879        0.31427        0.33496        0.39111        0.33976        0.36042        0.32325        0.31631        0.28882        0.31138        0.28950        0.31094        0.31765        0.35347        0.36463        0.31928        0.32134        0.31271        0.29357        0.29411        0.28999        0.33705        0.34080        0.35865        0.33752        0.32769        0.25768        0.26965        0.31236        0.35229        0.31428        0.30098        0.28943        0.28880        0.32455        0.30638        0.30488        0.33300        0.34565        0.31685        0.24473        0.28774        0.28140        0.28817        0.31986        0.32042        0.34787        0.34283        0.27885        0.26375        0.29090        0.26402        0.28668        0.27522        0.24591        0.26689        0.24467        0.27806        0.27641        0.27560        0.26799        0.31494        0.32928        0.31739        0.29693        0.31489        0.24756        0.27257        0.25421        0.33674        0.33934        0.23521        0.26237        0.27414        0.24746        0.25027        0.29755        0.22814        0.14513        0.17241        0.25622        0.28124        0.23401        0.15101        0.02916       -0.39909       -0.74136
3.055382 3.017440 2.979742 2.942287 2.905076 2.868108 2.831384 2.794903 2.758666 2.722673 2.686924 2.651417 2.616155 2.581136 2.546361 2.511829 2.477541 2.443496 2.409695 2.376138 2.342824 2.309754 2.276927 2.244344 2.212005 2.179909 2.148057 2.116448 2.085083 2.053961 2.023084 1.992449 1.962059 1.931912 1.902008 1.872348 1.842932 1.813759 1.784830 1.756144 1.727702 1.699504 1.671549 1.643838 1.616371 1.589146 1.562166 1.535429 1.508936 1.482686 1.456680 1.512569 1.704989 1.614041 0.968867 0.682392 0.477029 0.432942 0.320189 0.264827 0.200409 0.021917 0.196710 0.080980 -0.005719 -0.059263 -0.196618 -0.150988 -0.090983 -0.091040 -0.099590 0.010003 0.031228 0.234838 0.150372 0.366352 0.446517 0.477202 0.717607 0.701630 0.709895 0.840812 0.824690 0.856789 0.924893 0.893834 0.942959 0.754946 0.838083 0.842464 0.621080 0.609585 0.459175 0.438723 0.389846 0.208663 0.120221 0.101161 0.205421 0.147740 0.192336 0.111828 0.316655 0.290017 0.457944 0.418235 0.582511 0.646999 0.768513 0.692257 0.664307 0.672575 0.536377 0.507324 0.372219 0.293646 0.118099 0.146653 0.001670 -0.014303 -0.037702 -0.027685 -0.000522 0.035479 0.274247 0.333295 0.382974 0.400656 0.471093 0.533364 0.458220 0.507071 0.402696 0.389573 0.155696 0.065437 0.072292 0.000278 -0.121256 -0.041191 -0.108408 0.018355 0.134958 0.156801 0.253463 0.257830 0.385679 0.462741 0.357235 0.387977 0.284079 0.128511 0.049884 0.052370 0.010923 0.001848 0.005631 0.108213 0.131846 0.264187 0.237330 0.307821 0.374330 0.234563 0.241587 0.218899 0.133601 0.080858 0.055535 0.026831 0.039050 -0.013315 0.030385 0.186069 0.222126 0.249437 0.278481 0.233242 0.238994 0.149387 0.104743 -0.024365 -0.015587 -0.005702 0.018419 0.007708 0.028326 0.105068 0.186122 0.202195 0.219175 0.139639 0.145676 0.079881 0.055415 -0.057214 -0.012158 -0.007996 0.054487 0.065531 0.079771 0.152561 0.088353 0.166087 0.069206 0.054163 0.043931 0.027627 0.001003 0.011884 0.056968 0.083155 0.135716 0.143475 0.066857 0.132999 0.102345 0.020514 0.007549 0.005065 -0.006092 0.059381 0.062049 0.098019 0.099031 0.071871 0.069577 0.083483 0.034214 0.012561 -0.011473 0.014799 0.060878 0.028897 0.042305 0.083667 0.085684 0.056717 0.033385 0.005758 0.015725 -0.004948 -0.013397 0.015330 0.051979 0.104047 0.059981 0.058725 0.040947 -0.014214 -0.000191 0.013880 0.009622 0.026938 0.103811 0.062553 0.024551 0.044151 0.003208 0.025397 -0.012571 -0.004759 0.022794 0.066150 0.032361 0.046657 0.030789 0.053717 0.028591 -0.004329 0.028254 0.042859 0.037757 0.028531 0.027571 0.007492 -0.005358 0.027305 0.010053 0.043569 0.080388 0.046062 0.029657 0.016629 0.002558 -0.004498 0.008722 0.001881 0.012847 -0.002695 0.085684 0.055937 0.035066 0.037935 0.003429 0.009930 0.011685 -0.005461 0.056707 0.061689 0.087492 0.049830 0.051393 -0.026169 0.017928 0.036330 0.076264 0.030549 0.036544 0.012369 0.007237 0.049586 0.044645 0.036108 0.059870 0.078538 0.063301 -0.020457 0.019789 0.041673 0.027276 0.044788 0.075035 0.078420 0.074448 0.016914 0.002230 0.016167 -0.001141 0.017364 -0.013189 -0.031206 -0.004939 -0.048292 0.002427 -0.006522 0.007380 -0.068916 0.003071 0.019524 0.004091 -0.026207 0.037585 -0.088823 -0.017924 -0.039158 0.038084 0.066446 -0.098572 -0.011026 0.040022 0.020143 -0.040619 0.045801 0.031662 0.004698 -0.044076 0.084128 0.242979 0.207037 0.115543 0.028430 -0.651331
0.072396 0.073046 0.074995 0.078242 0.082787 0.088628 0.095762 0.104188 0.113900 0.124894 0.137164 0.150700 0.165493 0.181530 0.198796 0.217273 0.236937 0.257764 0.279723 0.302779 0.326890 0.352009 0.378084 0.405054 0.432851 0.461398 0.490611 0.520395 0.550647 0.581253 0.612089 0.643019 0.673896 0.704565 0.734854 0.764585 0.793564 0.821590 0.848449 0.873918 0.897762 0.919743 0.939610 0.957110 0.971983 0.983969 0.992806 0.998234 0.999997 0.997848 0.991548 0.980874 0.965618 0.945594 0.920640 0.890625 0.855447 0.815046 0.769399 0.718531 0.662517 0.601484 0.535617 0.465161 0.390423 0.311778 0.229665 0.144592 0.057133 0.032069 0.122309 0.212820 0.302779 0.391312 0.477502 0.560396 0.639019 0.712380 0.779487 0.839364 0.891063 0.933679 0.966372 0.988381 0.999040 0.997805 0.984260 0.958145 0.919364 0.868003 0.804343 0.728870 0.642279 0.545481 0.439602 0.325977 0.206144 0.081825 0.045087 0.172555 0.298430 0.420480 0.536432 0.644016 0.741009 0.825287 0.894874 0.948000 0.983146 0.999097 0.994990 0.970356 0.925154 0.859802 0.775191 0.672701 0.554186 0.421968 0.278796 0.127814 0.027512 0.183452 0.336109 0.481503 0.615689 0.734854 0.835448 0.914288 0.968677 0.996512 0.996376 0.967620 0.910426 0.825844 0.715807 0.583116 0.431393 0.265006 0.088964 0.091223 0.269703 0.440470 0.597565 0.735296 0.848450 0.932508 0.983853 0.999941 0.979454 0.922410 0.830226 0.705728 0.553101 0.377793 0.186344 0.013836 0.214730 0.408031 0.585486 0.739257 0.862280 0.948621 0.993784 0.994990 0.951370 0.864094 0.736407 0.573551 0.382612 0.172246 0.047690 0.266566 0.473491 0.657861 0.809913 0.921270 0.985444 0.998254 0.958145 0.866380 0.727082 0.547118 0.335812 0.104523 0.133938 0.365993 0.578070 0.757402 0.892831 0.975539 0.999682 0.962856 0.866380 0.715352 0.518457 0.287542 0.036961 0.217275 0.458508 0.670522 0.838656 0.950864 0.998634 0.977711 0.888541 0.736405 0.531208 0.286918 0.020684 0.248313 0.500232 0.716028 0.878936 0.975825 0.998330 0.943669 0.815045 0.621581 0.377793 0.102578 0.182173 0.453290 0.688205 0.866863 0.973494 0.998096 0.937477 0.795744 0.584173 0.320427 0.027197 0.269704 0.543562 0.769183 0.925274 0.996512 0.975182 0.862121 0.666895 0.407146 0.107113 0.204540 0.497410 0.742322 0.914288 0.995150 0.975612 0.856456 0.648746 0.372963 0.057131 0.265939 0.562017 0.799082 0.950864 0.999859 0.939502 0.775191 0.524014 0.213147 0.122959 0.446310 0.719658 0.910826 0.996620 0.965786 0.820667 0.577278 0.263749 0.082791 0.420481 0.707796 0.908662 0.997134 0.960895 0.803179 0.542745 0.211874 0.147483 0.488909 0.767518 0.945908 0.999341 0.919362 0.715349 0.413680 0.054528 0.313316 0.639021 0.876754 0.992250 0.967947 0.805887 0.527890 0.172886 0.208366 0.560399 0.831130 0.979649 0.982607 0.838128 0.566590 0.208051 0.183454 0.547928 0.828585 0.980809 0.979453 0.823262 0.535615 0.161322 0.240104 0.603816 0.870094 0.994282 0.954527 0.755916 0.430213 0.031104 0.374469 0.717393 0.938267 0.997848 0.884318 0.615950 0.238525 0.182172 0.571677 0.859964 0.994212 0.948725 0.730204 0.377188 0.046392 0.462559 0.793566 0.976531 0.975613 0.789389 0.451846 0.026539 0.405061 0.759101 0.965701 0.982968 0.805886 0.468036 0.035658 0.405055 0.765005 0.970275 0.977573 0.783758 0.427271 0.019052 0.462556 0.809917 0.986850 0.954334 0.717621 0.325975 0.137166 0.571676
1.000000 1.000000 1.000000 1.000000 1.000000 1.000000 1.000000 1.000000 1.000000 1.000000 1.000000 1.000000 1.000000 1.000000 1.000000 1.000000 1.000000 1.000000 1.000000 1.000000 1.000000 1.000000 1.000000 1.000000 1.000000 1.000000 1.000000 1.000000 1.000000 1.000000 1.000000 1.000000 1.000000 1.000000 1.000000 1.000000 1.000000 1.000000 1.000000 1.000000 1.000000 1.000000 1.000000 1.000000 1.000000 1.000000 1.000000 1.000000 1.000000 1.000000 1.000000 1.000000 0.932830 0.932830 0.932830 0.932830 0.932830 0.932830 0.932830 0.932830 0.932830 0.932830 0.932830 0.932830 0.932830 0.932830 0.932830 0.932830 0.932830 0.932830 0.932830 0.932830 0.932830 0.932830 0.932830 0.932830 0.932830 0.932830 0.932830 0.932830 0.932830 0.932830 0.932830 0.932830 0.932830 0.922235 0.923723 0.926712 0.927790 0.927750 0.927289 0.926969 0.927184 0.928900 0.931224 0.947853 0.950032 0.950605 0.951903 0.952147 0.954669 0.952912 0.952673 0.963243 0.962038 0.962738 0.955739 0.957343 0.956407 0.955465 0.955983 0.956248 0.954294 0.952124 0.950417 0.949767 0.949386 0.951158 0.951638 0.951591 0.953075 0.953030 0.952745 0.949351 0.947950 0.949426 0.951493 0.950648 0.956361 0.956181 0.964212 0.964986 0.963557 0.963467 0.963665 0.963864 0.952687 0.945578 0.939734 0.927932 0.918279 0.916343 0.919327 0.921393 0.920551 0.916267 0.915147 0.912423 0.906913 0.906038 0.906170 0.907854 0.904558 0.901019 0.884600 0.884193 0.886598 0.885713 0.883623 0.875592 0.871042 0.871728 0.874909 0.872281 0.868788 0.884794 0.880068 0.885103 0.888169 0.891448 0.895330 0.891483 0.890759 0.887013 0.883356 0.878437 0.879835 0.869057 0.871938 0.867041 0.858154 0.850788 0.853802 0.863267 0.871177 0.879261 0.878262 0.878066 0.877239 0.868405 0.869562 0.862937 0.864061 0.869458 0.875741 0.871595 0.868817 0.872805 0.870891 0.873319 0.875687 0.871411 0.869709 0.860545 0.860572 0.863176 0.880597 0.879874 0.867885 0.861704 0.853178 0.859831 0.863014 0.862376 0.864051 0.854189 0.855448 0.844861 0.834135 0.835536 0.840134 0.834734 0.836246 0.833579 0.836783 0.839381 0.837398 0.832157 0.830969 0.837365 0.815225 0.822442 0.825447 0.820959 0.825192 0.817261 0.811361 0.806497 0.806669 0.801956 0.814963 0.813154 0.781401 0.767682 0.775749 0.759429 0.750687 0.746309 0.746779 0.707739 0.686886 0.660302 0.655024 0.647368 0.649448 0.655799 0.648666 0.633400 0.619681 0.615087 0.631748 0.633337 0.600179 0.600075 0.593917 0.588926 0.583917 0.585541 0.584438 0.591270 0.596007 0.561795 0.557697 0.563746 0.539221 0.538834 0.536593 0.527841 0.498659 0.504929 0.499780 0.516054 0.542810 0.510293 0.504691 0.511910 0.523992 0.535788 0.535883 0.521849 0.504029 0.511843 0.487094 0.472639 0.489749 0.505058 0.496504 0.512036 0.499873 0.529402 0.523078 0.515663 0.541013 0.559297 0.557560 0.535450 0.547536 0.524141 0.527238 0.509390 0.462746 0.472214 0.459212 0.411719 0.405184 0.423193 0.408531 0.407197 0.380475 0.382550 0.358079 0.322179 0.335855 0.329612 0.295370 0.256650 0.258064 0.260140 0.228366 0.201219 0.221956 0.171707 0.164596 0.183346 0.193540 0.192124 0.184834 0.206460 0.206460 0.206460 0.206460 0.206460 0.206460 0.206460 0.206460 0.206460 0.206460 0.206460 0.206460 0.206460 0.206460 0.232160 0.232160 0.232160 0.232160 0.232160 0.232160 0.232160 0.232160 0.232160 0.232160 0.232160 0.232160
0.000000 0.000000 0.000000 0.000000 0.000000 0.000000 0.000000 0.000000 0.000000 0.000000 0.000000 0.000000 0.000000 0.000000 0.000000 0.000000 0.000000 0.000000 0.000000 0.000000 0.000000 0.000000 0.000000 0.000000 0.000000 0.000000 0.000000 0.000000 0.000000 0.000000 0.000000 0.000000 0.000000 0.000000 0.000000 0.000000 0.000000 0.000000 0.000000 0.000000 0.000000 0.000000 0.000000 0.000000 0.000000 0.000000 0.000000 0.000000 0.000000 0.000000 0.000000 0.000000 0.209657 0.209657 0.209657 0.209657 0.209657 0.209657 0.209657 0.209657 0.209657 0.209657 0.209657 0.209657 0.209657 0.209657 0.209657 0.209657 0.209657 0.209657 0.209657 0.209657 0.209657 0.209657 0.209657 0.209657 0.209657 0.209657 0.209657 0.209657 0.209657 0.209657 0.209657 0.209657 0.209657 0.244339 0.244339 0.244339 0.244339 0.244339 0.244339 0.244339 0.244339 0.244339 0.244339 0.244339 0.244339 0.244339 0.244339 0.244339 0.244339 0.244339 0.244339 0.244339 0.244339 0.244339 0.244339 0.244339 0.244339 0.244339 0.260378 0.260378 0.260378 0.260378 0.260378 0.260378 0.260378 0.260378 0.260378 0.260378 0.260378 0.260378 0.260378 0.260378 0.260378 0.260378 0.260378 0.260378 0.260378 0.260378 0.269680 0.269680 0.269680 0.269680 0.269680 0.269680 0.269680 0.269680 0.269680 0.269680 0.269680 0.269680 0.269680 0.269680 0.269680 0.269680 0.269680 0.269680 0.269680 0.269680 0.269680 0.269680 0.269680 0.269680 0.269680 0.269680 0.269680 0.269680 0.269680 0.269680 0.269680 0.269680 0.269680 0.280056 0.280056 0.280056 0.280056 0.280056 0.280056 0.280056 0.280056 0.280056 0.280056 0.280056 0.280056 0.280056 0.280056 0.280056 0.280056 0.280056 0.280056 0.280056 0.280056 0.280056 0.280056 0.280056 0.280056 0.280056 0.280056 0.280056 0.274721 0.274721 0.274721 0.274721 0.274721 0.274721 0.274721 0.274721 0.274721 0.274721 0.274721 0.274721 0.274721 0.285714 0.285714 0.285714 0.285714 0.285714 0.285714 0.285714 0.285714 0.285714 0.285714 0.285714 0.280056 0.280056 0.280056 0.280056 0.280056 0.280056 0.280056 0.280056 0.280056 0.280056 0.280056 0.274721 0.274721 0.274721 0.274721 0.274721 0.274721 0.274721 0.274721 0.274721 0.274721 0.274721 0.280056 0.280056 0.280056 0.280056 0.280056 0.280056 0.280056 0.280056 0.280056 0.280056 0.285714 0.285714 0.285714 0.285714 0.285714 0.285714 0.285714 0.285714 0.285714 0.269680 0.269680 0.269680 0.269680 0.269680 0.269680 0.269680 0.269680 0.269680 0.269680 0.274721 0.274721 0.274721 0.274721 0.274721 0.274721 0.274721 0.274721 0.274721 0.285714 0.285714 0.285714 0.285714 0.285714 0.285714 0.285714 0.285714 0.264906 0.264906 0.264906 0.264906 0.264906 0.264906 0.264906 0.264906 0.264906 0.274721 0.274721 0.274721 0.274721 0.274721 0.274721 0.274721 0.274721 0.269680 0.269680 0.269680 0.269680 0.269680 0.269680 0.269680 0.269680 0.269680 0.269680 0.269680 0.269680 0.269680 0.269680 0.269680 0.269680 0.280056 0.280056 0.280056 0.280056 0.280056 0.280056 0.280056 0.260378 0.260378 0.260378 0.260378 0.260378 0.260378 0.260378 0.260378 0.269680 0.269680 0.269680 0.269680 0.269680 0.269680 0.269680 0.264906 0.264906 0.264906 0.264906 0.264906 0.264906 0.264906 0.264906 0.264906 0.264906 0.264906 0.264906 0.264906 0.264906 0.260378 0.260378 0.260378 0.260378 0.260378 0.260378 0.260378 0.260378 0.260378 0.260378 0.260378 0.260378
