# Output from CTFFind version 4.1.9, run on 2019-11-02 12:27:24
# Input file: stack16_ub_averaged_1500.mrc ; Number of micrographs: 1
# Pixel size: 3.000 Angstroms ; acceleration voltage: 300.0 keV ; spherical aberration: 0.00 mm ; amplitude contrast: 0.07
# Box size: 512 pixels ; min. res.: 30.0 Angstroms ; max. res.: 5.0 Angstroms ; min. def.: 5000.0 um; max. def. 50000.0 um; num. frames averaged: 1
# 6 lines per micrograph: #1 - spatial frequency (1/Angstroms); #2 - 1D rotational average of spectrum (assuming no astigmatism); #3 - 1D rotational average of spectrum; #4 - CTF fit; #5 - cross-correlation between spectrum and CTF fit; #6 - 2sigma of expected cross correlation of noise
0.000000 0.000651 0.001302 0.001953 0.002604 0.003255 0.003906 0.004557 0.005208 0.005859 0.006510 0.007161 0.007812 0.008464 0.009115 0.009766 0.010417 0.011068 0.011719 0.012370 0.013021 0.013672 0.014323 0.014974 0.015625 0.016276 0.016927 0.017578 0.018229 0.018880 0.019531 0.020182 0.020833 0.021484 0.022135 0.022786 0.023438 0.024089 0.024740 0.025391 0.026042 0.026693 0.027344 0.027995 0.028646 0.029297 0.029948 0.030599 0.031250 0.031901 0.032552 0.033203 0.033854 0.034505 0.035156 0.035807 0.036458 0.037109 0.037760 0.038411 0.039062 0.039714 0.040365 0.041016 0.041667 0.042318 0.042969 0.043620 0.044271 0.044922 0.045573 0.046224 0.046875 0.047526 0.048177 0.048828 0.049479 0.050130 0.050781 0.051432 0.052083 0.052734 0.053385 0.054036 0.054688 0.055339 0.055990 0.056641 0.057292 0.057943 0.058594 0.059245 0.059896 0.060547 0.061198 0.061849 0.062500 0.063151 0.063802 0.064453 0.065104 0.065755 0.066406 0.067057 0.067708 0.068359 0.069010 0.069661 0.070312 0.070964 0.071615 0.072266 0.072917 0.073568 0.074219 0.074870 0.075521 0.076172 0.076823 0.077474 0.078125 0.078776 0.079427 0.080078 0.080729 0.081380 0.082031 0.082682 0.083333 0.083984 0.084635 0.085286 0.085938 0.086589 0.087240 0.087891 0.088542 0.089193 0.089844 0.090495 0.091146 0.091797 0.092448 0.093099 0.093750 0.094401 0.095052 0.095703 0.096354 0.097005 0.097656 0.098307 0.098958 0.099609 0.100260 0.100911 0.101562 0.102214 0.102865 0.103516 0.104167 0.104818 0.105469 0.106120 0.106771 0.107422 0.108073 0.108724 0.109375 0.110026 0.110677 0.111328 0.111979 0.112630 0.113281 0.113932 0.114583 0.115234 0.115885 0.116536 0.117188 0.117839 0.118490 0.119141 0.119792 0.120443 0.121094 0.121745 0.122396 0.123047 0.123698 0.124349 0.125000 0.125651 0.126302 0.126953 0.127604 0.128255 0.128906 0.129557 0.130208 0.130859 0.131510 0.132161 0.132812 0.133464 0.134115 0.134766 0.135417 0.136068 0.136719 0.137370 0.138021 0.138672 0.139323 0.139974 0.140625 0.141276 0.141927 0.142578 0.143229 0.143880 0.144531 0.145182 0.145833 0.146484 0.147135 0.147786 0.148438 0.149089 0.149740 0.150391 0.151042 0.151693 0.152344 0.152995 0.153646 0.154297 0.154948 0.155599 0.156250 0.156901 0.157552 0.158203 0.158854 0.159505 0.160156 0.160807 0.161458 0.162109 0.162760 0.163411 0.164062 0.164714 0.165365 0.166016 0.166667 0.167318 0.167969 0.168620 0.169271 0.169922 0.170573 0.171224 0.171875 0.172526 0.173177 0.173828 0.174479 0.175130 0.175781 0.176432 0.177083 0.177734 0.178385 0.179036 0.179688 0.180339 0.180990 0.181641 0.182292 0.182943 0.183594 0.184245 0.184896 0.185547 0.186198 0.186849 0.187500 0.188151 0.188802 0.189453 0.190104 0.190755 0.191406 0.192057 0.192708 0.193359 0.194010 0.194661 0.195312 0.195964 0.196615 0.197266 0.197917 0.198568 0.199219 0.199870 0.200521 0.201172 0.201823 0.202474 0.203125 0.203776 0.204427 0.205078 0.205729 0.206380 0.207031 0.207682 0.208333 0.208984 0.209635 0.210286 0.210938 0.211589 0.212240 0.212891 0.213542 0.214193 0.214844 0.215495 0.216146 0.216797 0.217448 0.218099 0.218750 0.219401 0.220052 0.220703 0.221354 0.222005 0.222656 0.223307 0.223958 0.224609 0.225260 0.225911 0.226562 0.227214 0.227865 0.228516 0.229167 0.229818 0.230469 0.231120 0.231771 0.232422 0.233073 0.233724 0.234375 0.235026 0.235677
       0.34304        0.34304        0.34304        0.34304        0.34304        0.34304        0.34304        0.34304        0.34304        0.34304        0.34304        0.34304        0.34304        0.34304        0.34304        0.34304        0.34304        0.34304        0.34304        0.34304        0.34304        0.34304        0.34304        0.34304        0.34304        0.34304        0.34304        0.34304        0.34304        0.34304        0.34304        0.34304        0.34304        0.34304        0.34304        0.34304        0.34304        0.34304        0.34304        0.34304        0.34304        0.34304        0.34304        0.34304        0.34304        0.34304        0.34304        0.34304        0.34304        0.34304        0.34304        0.48922        0.70402        0.45520       -0.11041       -0.41378       -0.57172       -0.66165       -0.74657       -0.76329       -0.86929       -0.91420       -0.76062       -0.92536       -0.87210       -1.02460       -1.09599       -0.98970       -0.96204       -0.88401       -0.86377       -0.75207       -0.64175       -0.50083       -0.42368       -0.21804       -0.11862       -0.02322        0.20385        0.24376        0.30842        0.38634        0.43994        0.51694        0.58155        0.59533        0.59282        0.50281        0.54632        0.48629        0.39056        0.32401        0.20734        0.17362        0.10323       -0.06250       -0.11212       -0.09282        0.00900       -0.01735        0.00975        0.02959        0.21092        0.21985        0.39084        0.45748        0.56260        0.70124        0.76086        0.72858        0.70763        0.70458        0.58567        0.54386        0.40009        0.27255        0.19310        0.14348        0.06554        0.02144        0.02318        0.06135        0.07809        0.27136        0.41756        0.50463        0.58713        0.63896        0.70598        0.66134        0.65139        0.67202        0.61041        0.47996        0.28369        0.23330        0.20552        0.13082        0.04792        0.09293        0.12321        0.24998        0.33877        0.41465        0.50073        0.53916        0.66391        0.61073        0.55573        0.50816        0.36663        0.21048        0.21171        0.15232        0.11193        0.11992        0.21513        0.25395        0.36090        0.44328        0.44037        0.56834        0.51166        0.44625        0.45210        0.38438        0.32387        0.27729        0.21956        0.23773        0.20971        0.21257        0.32581        0.44781        0.48679        0.47940        0.55053        0.49585        0.45652        0.39569        0.29267        0.22426        0.23227        0.24701        0.26746        0.27207        0.32400        0.44247        0.49805        0.48627        0.45942        0.41903        0.38680        0.36281        0.24852        0.22859        0.24722        0.29443        0.35335        0.36289        0.39332        0.40825        0.44399        0.37031        0.34825        0.31333        0.30312        0.26584        0.25936        0.31203        0.34576        0.41634        0.41698        0.39883        0.39429        0.40823        0.35033        0.28857        0.29035        0.27465        0.31025        0.36060        0.36517        0.41502        0.36030        0.36662        0.39038        0.34614        0.31536        0.27919        0.29727        0.34043        0.33284        0.32685        0.37708        0.39660        0.33595        0.35274        0.29422        0.30832        0.28977        0.28199        0.30075        0.33081        0.38291        0.36662        0.34768        0.32862        0.28597        0.27752        0.29669        0.28185        0.31350        0.36903        0.39422        0.33854        0.31795        0.31218        0.29714        0.28073        0.27820        0.29871        0.34152        0.33622        0.34485        0.31732        0.34606        0.32481        0.28769        0.31543        0.32185        0.33077        0.33416        0.31872        0.31674        0.30787        0.32805        0.31302        0.33508        0.39003        0.33819        0.36068        0.32242        0.31556        0.28905        0.31090        0.28965        0.31071        0.31685        0.35289        0.36346        0.31854        0.32172        0.31366        0.29299        0.29350        0.28997        0.33581        0.34167        0.35760        0.33599        0.32649        0.25798        0.26877        0.31236        0.35107        0.31534        0.30023        0.28723        0.28756        0.32507        0.30701        0.30588        0.33338        0.34536        0.31542        0.24343        0.28825        0.28164        0.28758        0.32051        0.32043        0.34677        0.34314        0.27840        0.26423        0.29123        0.26571        0.28695        0.27575        0.24655        0.26630        0.24636        0.27825        0.27807        0.27565        0.26627        0.31601        0.32825        0.31617        0.29362        0.31186        0.24590        0.27142        0.25450        0.33709        0.34098        0.23303        0.25939        0.27148        0.24626        0.25111        0.29771        0.22842        0.14565        0.17445        0.25451        0.28028        0.23174        0.14716        0.02874       -0.40447       -0.73938
3.054877 3.016934 2.979235 2.941780 2.904569 2.867601 2.830876 2.794396 2.758159 2.722165 2.686415 2.650909 2.615647 2.580628 2.545852 2.511321 2.477033 2.442988 2.409188 2.375631 2.342317 2.309247 2.276421 2.243839 2.211500 2.179404 2.147552 2.115944 2.084580 2.053459 2.022582 1.991949 1.961559 1.931413 1.901510 1.871851 1.842436 1.813264 1.784336 1.755651 1.727211 1.699013 1.671060 1.643350 1.615884 1.588661 1.561682 1.534947 1.508455 1.482207 1.456202 1.512549 1.703908 1.613376 0.967820 0.682847 0.476819 0.432160 0.320420 0.264509 0.200346 0.021658 0.197223 0.081059 -0.005979 -0.058782 -0.197256 -0.151246 -0.091298 -0.091135 -0.099197 0.010080 0.031120 0.234594 0.149834 0.366171 0.446563 0.477649 0.717454 0.701308 0.709335 0.840495 0.824154 0.856296 0.924463 0.893187 0.942003 0.754365 0.837901 0.842118 0.621428 0.609082 0.458729 0.437937 0.389477 0.209306 0.120651 0.101250 0.205652 0.147420 0.193270 0.111861 0.315645 0.289720 0.458050 0.417660 0.582172 0.645820 0.767200 0.693013 0.663957 0.670938 0.534920 0.507234 0.371450 0.293391 0.118039 0.146649 0.001843 -0.014013 -0.037745 -0.027715 -0.000971 0.034381 0.274390 0.333321 0.383517 0.400388 0.470121 0.532728 0.458601 0.506716 0.402271 0.389839 0.155483 0.066481 0.072918 -0.000027 -0.121762 -0.041601 -0.108563 0.018550 0.135166 0.156566 0.253605 0.257145 0.384710 0.463213 0.356602 0.388918 0.284108 0.128279 0.050161 0.052318 0.011362 0.002114 0.006517 0.108550 0.130415 0.263759 0.237226 0.307805 0.373348 0.235107 0.242143 0.218760 0.133115 0.081319 0.054629 0.027116 0.039021 -0.013312 0.029992 0.185938 0.222047 0.248391 0.278951 0.232922 0.239672 0.148757 0.105650 -0.023118 -0.016081 -0.005098 0.018029 0.008723 0.028332 0.104697 0.187811 0.201868 0.219647 0.139568 0.146030 0.080209 0.056076 -0.058262 -0.013205 -0.007450 0.054660 0.065723 0.078549 0.152016 0.085711 0.170172 0.069041 0.054407 0.044962 0.028094 0.001273 0.011177 0.056413 0.083672 0.135120 0.143586 0.067027 0.132858 0.102504 0.020219 0.008242 0.005775 -0.005274 0.059694 0.062381 0.098751 0.099164 0.077239 0.064618 0.083477 0.035121 0.013393 -0.012090 0.014758 0.057475 0.030778 0.042297 0.084034 0.085438 0.055945 0.033615 0.006633 0.015744 -0.005525 -0.012515 0.015389 0.052757 0.103871 0.060591 0.058197 0.040708 -0.014145 -0.000043 0.014307 0.010464 0.027597 0.107277 0.054655 0.025140 0.044158 0.003180 0.025945 -0.012565 -0.003923 0.023021 0.065504 0.034395 0.046375 0.031661 0.055522 0.028799 -0.004153 0.030386 0.043853 0.040095 0.030262 0.029314 0.007496 -0.005310 0.028071 0.009934 0.045169 0.079784 0.049056 0.024906 0.015787 0.003460 -0.002791 0.007803 0.002998 0.013556 -0.002834 0.087687 0.053614 0.036123 0.039093 0.004488 0.009947 0.011556 -0.004846 0.056373 0.062164 0.087237 0.048415 0.051076 -0.025728 0.016956 0.036474 0.077552 0.026512 0.037517 0.009997 0.005891 0.050531 0.045545 0.036439 0.060046 0.077414 0.061460 -0.021804 0.020201 0.041388 0.026384 0.045039 0.074428 0.077632 0.073594 0.016446 0.002796 0.016180 -0.000271 0.018036 -0.013780 -0.030231 -0.006243 -0.047921 0.002255 -0.005903 0.004494 -0.070012 0.004685 0.017439 0.002364 -0.029504 0.034743 -0.090263 -0.019270 -0.040063 0.038169 0.067277 -0.101992 -0.014128 0.036882 0.018829 -0.039480 0.045238 0.031488 0.004842 -0.044056 0.083836 0.242617 0.203189 0.110254 0.028193 -0.649307
0.072396 0.073046 0.074994 0.078242 0.082786 0.088627 0.095761 0.104186 0.113898 0.124891 0.137160 0.150696 0.165488 0.181524 0.198789 0.217265 0.236928 0.257754 0.279712 0.302766 0.326876 0.351994 0.378068 0.405037 0.432832 0.461378 0.490589 0.520373 0.550623 0.581228 0.612063 0.642992 0.673869 0.704537 0.734826 0.764556 0.793536 0.821562 0.848421 0.873891 0.897737 0.919719 0.939588 0.957090 0.971967 0.983956 0.992797 0.998229 0.999997 0.997853 0.991560 0.980892 0.965643 0.945627 0.920681 0.890674 0.855506 0.815114 0.769477 0.718619 0.662615 0.601592 0.535735 0.465289 0.390560 0.311924 0.229819 0.144753 0.057301 0.031896 0.122132 0.212641 0.302599 0.391134 0.477327 0.560227 0.638858 0.712228 0.779349 0.839241 0.890958 0.933594 0.966310 0.988343 0.999029 0.997822 0.984308 0.958224 0.919474 0.868145 0.804518 0.729076 0.642515 0.545745 0.439890 0.326287 0.206471 0.082165 0.044738 0.172205 0.298084 0.420144 0.536113 0.643721 0.740745 0.825060 0.894692 0.947868 0.983068 0.999078 0.995034 0.970464 0.925327 0.860038 0.775490 0.673056 0.554593 0.422418 0.279281 0.128323 0.026989 0.182930 0.335599 0.481022 0.615248 0.734469 0.835132 0.914051 0.968529 0.996462 0.996428 0.967777 0.910687 0.826206 0.716263 0.583654 0.431998 0.265663 0.089652 0.090525 0.269017 0.439821 0.596978 0.734793 0.848051 0.932232 0.983714 0.999949 0.979614 0.922721 0.830682 0.706314 0.553800 0.378580 0.187190 0.012964 0.213866 0.407214 0.584751 0.738638 0.861810 0.948322 0.993678 0.995086 0.951670 0.864592 0.737082 0.574380 0.383560 0.173268 0.046643 0.265542 0.472545 0.657042 0.809267 0.920837 0.985252 0.998320 0.958473 0.866961 0.727890 0.548112 0.336943 0.105731 0.132719 0.364836 0.577044 0.756572 0.892252 0.975253 0.999714 0.963213 0.867048 0.716296 0.519624 0.288864 0.038356 0.215899 0.457241 0.669454 0.837864 0.950408 0.998555 0.978024 0.889233 0.737437 0.532513 0.288407 0.022255 0.246776 0.498844 0.714898 0.878157 0.975463 0.998424 0.944223 0.816025 0.622921 0.379389 0.104310 0.180444 0.451708 0.686906 0.865962 0.973076 0.998208 0.938121 0.796877 0.585704 0.322230 0.029115 0.267837 0.541919 0.767924 0.924518 0.996343 0.975628 0.863151 0.668428 0.409040 0.109191 0.202475 0.495562 0.740884 0.913410 0.994934 0.976092 0.857598 0.650442 0.375051 0.059397 0.263732 0.560106 0.797681 0.950136 0.999896 0.940315 0.776705 0.526072 0.215528 0.120520 0.444093 0.717923 0.909786 0.996409 0.966444 0.822131 0.579391 0.266261 0.080171 0.418077 0.705910 0.907537 0.996926 0.961647 0.804812 0.545066 0.214595 0.144706 0.486441 0.765690 0.944974 0.999442 0.920503 0.717394 0.416362 0.057495 0.310474 0.636703 0.875292 0.991866 0.968715 0.807717 0.530537 0.175974 0.205276 0.557762 0.829344 0.978996 0.983205 0.839906 0.569300 0.211292 0.180176 0.545120 0.826688 0.980140 0.980138 0.825213 0.538540 0.164766 0.236691 0.600997 0.868334 0.993893 0.955595 0.758283 0.433502 0.034771 0.371035 0.714799 0.936965 0.998087 0.886082 0.618951 0.242250 0.178382 0.568487 0.857964 0.993783 0.949969 0.732919 0.380894 0.042368 0.458964 0.791081 0.975641 0.976509 0.791930 0.455565 0.030741 0.401193 0.756333 0.964583 0.983748 0.808440 0.471874 0.040027 0.401034 0.762153 0.969189 0.978506 0.786545 0.431357 0.014498 0.458493 0.807206 0.986090 0.955714 0.720870 0.330421 0.132479 0.567764
1.000000 1.000000 1.000000 1.000000 1.000000 1.000000 1.000000 1.000000 1.000000 1.000000 1.000000 1.000000 1.000000 1.000000 1.000000 1.000000 1.000000 1.000000 1.000000 1.000000 1.000000 1.000000 1.000000 1.000000 1.000000 1.000000 1.000000 1.000000 1.000000 1.000000 1.000000 1.000000 1.000000 1.000000 1.000000 1.000000 1.000000 1.000000 1.000000 1.000000 1.000000 1.000000 1.000000 1.000000 1.000000 1.000000 1.000000 1.000000 1.000000 1.000000 1.000000 1.000000 0.932709 0.932709 0.932709 0.932709 0.932709 0.932709 0.932709 0.932709 0.932709 0.932709 0.932709 0.932709 0.932709 0.932709 0.932709 0.932709 0.932709 0.932709 0.932709 0.932709 0.932709 0.932709 0.932709 0.932709 0.932709 0.932709 0.932709 0.932709 0.932709 0.932709 0.932709 0.932709 0.932709 0.922167 0.923656 0.926652 0.927733 0.927693 0.927231 0.926907 0.927120 0.928836 0.931162 0.947801 0.949978 0.950551 0.951854 0.952099 0.954625 0.952864 0.952591 0.963171 0.961953 0.962644 0.955613 0.957232 0.956282 0.955330 0.955859 0.956136 0.954168 0.951984 0.950264 0.949606 0.949222 0.950996 0.951478 0.951425 0.952915 0.952864 0.952573 0.949155 0.947771 0.949251 0.951334 0.950495 0.956210 0.956025 0.964052 0.964815 0.963373 0.963287 0.963485 0.963685 0.952721 0.945775 0.939972 0.928103 0.918504 0.916465 0.919428 0.921466 0.920672 0.916376 0.915261 0.912562 0.907037 0.906160 0.906226 0.907914 0.904396 0.900829 0.884322 0.883740 0.886209 0.885468 0.883412 0.875300 0.870649 0.871365 0.874541 0.871913 0.868424 0.884508 0.879775 0.884858 0.887981 0.891246 0.895110 0.891354 0.890464 0.886644 0.883023 0.877961 0.879313 0.866381 0.869368 0.863713 0.854414 0.846880 0.849997 0.859698 0.867864 0.876067 0.874992 0.875187 0.874335 0.865269 0.866591 0.859523 0.860595 0.866012 0.872308 0.868050 0.865278 0.869377 0.867380 0.870679 0.872483 0.868200 0.866386 0.857018 0.857023 0.859287 0.876672 0.875770 0.864976 0.859690 0.851429 0.858057 0.861336 0.860647 0.862322 0.852842 0.854335 0.843965 0.833096 0.834677 0.839344 0.834274 0.835749 0.833388 0.836731 0.838959 0.837247 0.832436 0.831187 0.835248 0.812954 0.820456 0.823600 0.819339 0.823584 0.815910 0.809735 0.804789 0.804269 0.800598 0.813604 0.811750 0.779777 0.767634 0.775758 0.758109 0.749335 0.745022 0.745778 0.709442 0.689012 0.663222 0.657791 0.649272 0.651806 0.649661 0.640593 0.626242 0.612267 0.610636 0.626024 0.626918 0.593531 0.593346 0.585682 0.580547 0.575619 0.576608 0.574606 0.581914 0.586728 0.552251 0.548031 0.553997 0.528336 0.528311 0.526455 0.517913 0.488149 0.494583 0.494183 0.510793 0.531165 0.496446 0.494542 0.502645 0.515814 0.528071 0.528083 0.513586 0.493961 0.502555 0.476764 0.461454 0.478371 0.492971 0.484209 0.501334 0.489453 0.520257 0.513530 0.504830 0.528987 0.546590 0.545080 0.526271 0.538663 0.516359 0.519534 0.501370 0.460872 0.472513 0.459029 0.411292 0.403081 0.420423 0.406267 0.406920 0.381006 0.382885 0.358902 0.322856 0.337497 0.331652 0.297467 0.256788 0.257937 0.260098 0.228624 0.201235 0.221322 0.170779 0.163213 0.181933 0.192573 0.195229 0.184832 0.206351 0.206351 0.206351 0.206351 0.206351 0.206351 0.206351 0.206351 0.206351 0.206351 0.206351 0.206351 0.206351 0.206351 0.232307 0.232307 0.232307 0.232307 0.232307 0.232307 0.232307 0.232307 0.232307 0.232307 0.232307 0.232307
0.000000 0.000000 0.000000 0.000000 0.000000 0.000000 0.000000 0.000000 0.000000 0.000000 0.000000 0.000000 0.000000 0.000000 0.000000 0.000000 0.000000 0.000000 0.000000 0.000000 0.000000 0.000000 0.000000 0.000000 0.000000 0.000000 0.000000 0.000000 0.000000 0.000000 0.000000 0.000000 0.000000 0.000000 0.000000 0.000000 0.000000 0.000000 0.000000 0.000000 0.000000 0.000000 0.000000 0.000000 0.000000 0.000000 0.000000 0.000000 0.000000 0.000000 0.000000 0.000000 0.209657 0.209657 0.209657 0.209657 0.209657 0.209657 0.209657 0.209657 0.209657 0.209657 0.209657 0.209657 0.209657 0.209657 0.209657 0.209657 0.209657 0.209657 0.209657 0.209657 0.209657 0.209657 0.209657 0.209657 0.209657 0.209657 0.209657 0.209657 0.209657 0.209657 0.209657 0.209657 0.209657 0.244339 0.244339 0.244339 0.244339 0.244339 0.244339 0.244339 0.244339 0.244339 0.244339 0.244339 0.244339 0.244339 0.244339 0.244339 0.244339 0.244339 0.244339 0.244339 0.244339 0.244339 0.244339 0.244339 0.244339 0.244339 0.260378 0.260378 0.260378 0.260378 0.260378 0.260378 0.260378 0.260378 0.260378 0.260378 0.260378 0.260378 0.260378 0.260378 0.260378 0.260378 0.260378 0.260378 0.260378 0.260378 0.269680 0.269680 0.269680 0.269680 0.269680 0.269680 0.269680 0.269680 0.269680 0.269680 0.269680 0.269680 0.269680 0.269680 0.269680 0.269680 0.269680 0.269680 0.269680 0.269680 0.269680 0.269680 0.269680 0.269680 0.269680 0.269680 0.269680 0.269680 0.269680 0.269680 0.269680 0.269680 0.269680 0.280056 0.280056 0.280056 0.280056 0.280056 0.280056 0.280056 0.280056 0.280056 0.280056 0.280056 0.280056 0.280056 0.280056 0.280056 0.280056 0.280056 0.280056 0.280056 0.280056 0.280056 0.280056 0.280056 0.280056 0.280056 0.280056 0.280056 0.274721 0.274721 0.274721 0.274721 0.274721 0.274721 0.274721 0.274721 0.274721 0.274721 0.274721 0.274721 0.274721 0.285714 0.285714 0.285714 0.285714 0.285714 0.285714 0.285714 0.285714 0.285714 0.285714 0.285714 0.280056 0.280056 0.280056 0.280056 0.280056 0.280056 0.280056 0.280056 0.280056 0.280056 0.280056 0.274721 0.274721 0.274721 0.274721 0.274721 0.274721 0.274721 0.274721 0.274721 0.274721 0.274721 0.280056 0.280056 0.280056 0.280056 0.280056 0.280056 0.280056 0.280056 0.280056 0.280056 0.285714 0.285714 0.285714 0.285714 0.285714 0.285714 0.285714 0.285714 0.285714 0.269680 0.269680 0.269680 0.269680 0.269680 0.269680 0.269680 0.269680 0.269680 0.269680 0.274721 0.274721 0.274721 0.274721 0.274721 0.274721 0.274721 0.274721 0.274721 0.285714 0.285714 0.285714 0.285714 0.285714 0.285714 0.285714 0.285714 0.264906 0.264906 0.264906 0.264906 0.264906 0.264906 0.264906 0.264906 0.264906 0.274721 0.274721 0.274721 0.274721 0.274721 0.274721 0.274721 0.274721 0.269680 0.269680 0.269680 0.269680 0.269680 0.269680 0.269680 0.269680 0.269680 0.269680 0.269680 0.269680 0.269680 0.269680 0.269680 0.269680 0.280056 0.280056 0.280056 0.280056 0.280056 0.280056 0.280056 0.260378 0.260378 0.260378 0.260378 0.260378 0.260378 0.260378 0.260378 0.269680 0.269680 0.269680 0.269680 0.269680 0.269680 0.269680 0.264906 0.264906 0.264906 0.264906 0.264906 0.264906 0.264906 0.264906 0.264906 0.264906 0.264906 0.264906 0.264906 0.264906 0.260378 0.260378 0.260378 0.260378 0.260378 0.260378 0.260378 0.260378 0.260378 0.260378 0.260378 0.260378
