# Output from CTFFind version 4.1.9, run on 2019-11-02 12:26:33
# Input file: stack11_ub_averaged_750.mrc ; Number of micrographs: 1
# Pixel size: 3.000 Angstroms ; acceleration voltage: 300.0 keV ; spherical aberration: 0.00 mm ; amplitude contrast: 0.07
# Box size: 512 pixels ; min. res.: 30.0 Angstroms ; max. res.: 5.0 Angstroms ; min. def.: 5000.0 um; max. def. 50000.0 um; num. frames averaged: 1
# 6 lines per micrograph: #1 - spatial frequency (1/Angstroms); #2 - 1D rotational average of spectrum (assuming no astigmatism); #3 - 1D rotational average of spectrum; #4 - CTF fit; #5 - cross-correlation between spectrum and CTF fit; #6 - 2sigma of expected cross correlation of noise
0.000000 0.000651 0.001302 0.001953 0.002604 0.003255 0.003906 0.004557 0.005208 0.005859 0.006510 0.007161 0.007812 0.008464 0.009115 0.009766 0.010417 0.011068 0.011719 0.012370 0.013021 0.013672 0.014323 0.014974 0.015625 0.016276 0.016927 0.017578 0.018229 0.018880 0.019531 0.020182 0.020833 0.021484 0.022135 0.022786 0.023438 0.024089 0.024740 0.025391 0.026042 0.026693 0.027344 0.027995 0.028646 0.029297 0.029948 0.030599 0.031250 0.031901 0.032552 0.033203 0.033854 0.034505 0.035156 0.035807 0.036458 0.037109 0.037760 0.038411 0.039062 0.039714 0.040365 0.041016 0.041667 0.042318 0.042969 0.043620 0.044271 0.044922 0.045573 0.046224 0.046875 0.047526 0.048177 0.048828 0.049479 0.050130 0.050781 0.051432 0.052083 0.052734 0.053385 0.054036 0.054688 0.055339 0.055990 0.056641 0.057292 0.057943 0.058594 0.059245 0.059896 0.060547 0.061198 0.061849 0.062500 0.063151 0.063802 0.064453 0.065104 0.065755 0.066406 0.067057 0.067708 0.068359 0.069010 0.069661 0.070312 0.070964 0.071615 0.072266 0.072917 0.073568 0.074219 0.074870 0.075521 0.076172 0.076823 0.077474 0.078125 0.078776 0.079427 0.080078 0.080729 0.081380 0.082031 0.082682 0.083333 0.083984 0.084635 0.085286 0.085938 0.086589 0.087240 0.087891 0.088542 0.089193 0.089844 0.090495 0.091146 0.091797 0.092448 0.093099 0.093750 0.094401 0.095052 0.095703 0.096354 0.097005 0.097656 0.098307 0.098958 0.099609 0.100260 0.100911 0.101562 0.102214 0.102865 0.103516 0.104167 0.104818 0.105469 0.106120 0.106771 0.107422 0.108073 0.108724 0.109375 0.110026 0.110677 0.111328 0.111979 0.112630 0.113281 0.113932 0.114583 0.115234 0.115885 0.116536 0.117188 0.117839 0.118490 0.119141 0.119792 0.120443 0.121094 0.121745 0.122396 0.123047 0.123698 0.124349 0.125000 0.125651 0.126302 0.126953 0.127604 0.128255 0.128906 0.129557 0.130208 0.130859 0.131510 0.132161 0.132812 0.133464 0.134115 0.134766 0.135417 0.136068 0.136719 0.137370 0.138021 0.138672 0.139323 0.139974 0.140625 0.141276 0.141927 0.142578 0.143229 0.143880 0.144531 0.145182 0.145833 0.146484 0.147135 0.147786 0.148438 0.149089 0.149740 0.150391 0.151042 0.151693 0.152344 0.152995 0.153646 0.154297 0.154948 0.155599 0.156250 0.156901 0.157552 0.158203 0.158854 0.159505 0.160156 0.160807 0.161458 0.162109 0.162760 0.163411 0.164062 0.164714 0.165365 0.166016 0.166667 0.167318 0.167969 0.168620 0.169271 0.169922 0.170573 0.171224 0.171875 0.172526 0.173177 0.173828 0.174479 0.175130 0.175781 0.176432 0.177083 0.177734 0.178385 0.179036 0.179688 0.180339 0.180990 0.181641 0.182292 0.182943 0.183594 0.184245 0.184896 0.185547 0.186198 0.186849 0.187500 0.188151 0.188802 0.189453 0.190104 0.190755 0.191406 0.192057 0.192708 0.193359 0.194010 0.194661 0.195312 0.195964 0.196615 0.197266 0.197917 0.198568 0.199219 0.199870 0.200521 0.201172 0.201823 0.202474 0.203125 0.203776 0.204427 0.205078 0.205729 0.206380 0.207031 0.207682 0.208333 0.208984 0.209635 0.210286 0.210938 0.211589 0.212240 0.212891 0.213542 0.214193 0.214844 0.215495 0.216146 0.216797 0.217448 0.218099 0.218750 0.219401 0.220052 0.220703 0.221354 0.222005 0.222656 0.223307 0.223958 0.224609 0.225260 0.225911 0.226562 0.227214 0.227865 0.228516 0.229167 0.229818 0.230469 0.231120 0.231771 0.232422 0.233073 0.233724 0.234375 0.235026 0.235677
       0.31715        0.31715        0.31715        0.31715        0.31715        0.31715        0.31715        0.31715        0.31715        0.31715        0.31715        0.31715        0.31715        0.31715        0.31715        0.31715        0.31715        0.31715        0.31715        0.31715        0.31715        0.31715        0.31715        0.31715        0.31715        0.31715        0.31715        0.31715        0.31715        0.31715        0.31715        0.31715        0.31715        0.31715        0.31715        0.31715        0.31715        0.31715        0.31715        0.31715        0.31715        0.31715        0.31715        0.31715        0.31715        0.31715        0.31715        0.31715        0.31715        0.31715        0.31715        0.68484        0.87200        0.52316        0.08766       -0.06638       -0.42495       -0.20949       -0.29728       -0.11663       -0.07808       -0.11778       -0.06804       -0.21008       -0.23630       -0.26070       -0.32884       -0.33571       -0.49054       -0.38332       -0.46752       -0.44987       -0.42139       -0.47122       -0.54911       -0.56349       -0.58964       -0.62921       -0.58017       -0.41864       -0.38034       -0.32930       -0.31539       -0.21439       -0.20131        0.01780        0.06917        0.10293        0.22472        0.37257        0.44166        0.51641        0.55928        0.55521        0.57065        0.69999        0.81480        0.74402        0.73471        0.67417        0.58512        0.48734        0.40878        0.49336        0.37489        0.20305        0.07654        0.04720        0.00926       -0.06150       -0.04023       -0.02740       -0.07455       -0.00715       -0.02004        0.20977        0.24858        0.29104        0.43265        0.46916        0.40500        0.53484        0.63187        0.70512        0.76757        0.69286        0.65876        0.70117        0.58827        0.50846        0.41889        0.28895        0.18324        0.15628        0.10515        0.03924        0.01258       -0.00289        0.07561        0.13114        0.20329        0.28503        0.40375        0.41680        0.51504        0.60525        0.63653        0.61560        0.63090        0.55486        0.44701        0.44400        0.35068        0.23150        0.18475        0.14918        0.10718        0.11855        0.06352        0.09717        0.22230        0.26182        0.33911        0.34765        0.45543        0.51472        0.53614        0.55127        0.46930        0.42934        0.39467        0.37435        0.30921        0.25087        0.19891        0.18482        0.15940        0.18798        0.17730        0.26910        0.33097        0.36259        0.42370        0.46251        0.47913        0.44782        0.39374        0.41819        0.37529        0.28868        0.27270        0.22757        0.21362        0.19516        0.21253        0.23072        0.32905        0.37321        0.36449        0.45900        0.44218        0.43938        0.43332        0.39582        0.34553        0.32958        0.27520        0.23512        0.23667        0.26825        0.26836        0.30155        0.30024        0.34115        0.32931        0.41055        0.41860        0.37432        0.34401        0.36422        0.27825        0.28002        0.26231        0.27654        0.26005        0.27947        0.29183        0.31547        0.35412        0.36107        0.36034        0.33101        0.35045        0.28344        0.31943        0.26779        0.25163        0.28535        0.27824        0.30594        0.31373        0.33551        0.32852        0.31390        0.31683        0.28902        0.28858        0.26171        0.28007        0.26513        0.31063        0.28324        0.26345        0.30821        0.31267        0.31937        0.29180        0.30042        0.29307        0.24456        0.23575        0.22116        0.28003        0.27194        0.30942        0.31901        0.31883        0.31495        0.30474        0.27682        0.28393        0.33143        0.27432        0.26805        0.29684        0.29612        0.33996        0.33511        0.36336        0.33088        0.31464        0.27929        0.26308        0.26519        0.22840        0.26931        0.29839        0.29481        0.27770        0.29530        0.27261        0.32186        0.32530        0.24984        0.21749        0.27432        0.33854        0.27856        0.31296        0.32483        0.32711        0.30209        0.32374        0.34404        0.29944        0.29555        0.26750        0.27886        0.35388        0.35037        0.25933        0.26862        0.25339        0.28063        0.22579        0.29033        0.21969        0.25398        0.32590        0.31949        0.34230        0.29527        0.24279        0.24482        0.24292        0.24539        0.18357        0.22274        0.25793        0.29534        0.28043        0.29890        0.29458        0.28419        0.27944        0.21122        0.17574        0.18575        0.23727        0.20582        0.21443        0.23071        0.21143        0.24307        0.33124        0.29579        0.30427        0.22292        0.25701        0.23951        0.28489        0.30763        0.15038        0.21001        0.22637        0.12926        0.23147        0.10765        0.15250        0.17139        0.10121       -0.09980       -0.57065
2.593520 2.566409 2.539445 2.512628 2.485958 2.459436 2.433060 2.406832 2.380751 2.354816 2.329029 2.303389 2.277897 2.252551 2.227352 2.202301 2.177396 2.152639 2.128029 2.103566 2.079250 2.055081 2.031060 2.007185 1.983458 1.959877 1.936444 1.913158 1.890019 1.867027 1.844182 1.821485 1.798934 1.776531 1.754275 1.732165 1.710203 1.688389 1.666721 1.645200 1.623826 1.602600 1.581521 1.560588 1.539803 1.519165 1.498674 1.478331 1.458134 1.438084 1.418182 1.639721 2.044856 1.618781 1.132340 0.988160 0.427755 0.811104 0.565560 0.837499 0.774804 0.789682 0.755686 0.710238 0.564184 0.514090 0.488686 0.449806 0.207420 0.383424 0.205865 0.305501 0.242096 0.181738 0.129457 0.006066 0.044594 -0.016058 -0.054931 0.104352 0.205963 0.199133 0.155983 0.330447 0.197967 0.496457 0.574484 0.547157 0.592533 0.877754 0.806774 0.945870 0.888555 0.972932 0.939874 1.079453 1.141379 1.076157 1.124526 0.952770 0.945921 0.784977 0.652971 0.769141 0.702876 0.463630 0.305550 0.253742 0.213185 0.147234 0.088168 0.124767 0.065349 0.151955 0.051995 0.260524 0.376233 0.355913 0.479863 0.585307 0.469279 0.542599 0.698009 0.747648 0.780823 0.733732 0.729905 0.715459 0.625885 0.572239 0.428926 0.284201 0.202895 0.075182 0.127531 -0.044625 -0.027550 -0.085020 -0.038291 0.003421 0.140030 0.092629 0.302483 0.276427 0.365229 0.458414 0.520860 0.505544 0.517778 0.505105 0.331303 0.306886 0.272983 0.101120 0.046601 -0.003860 -0.036901 -0.042218 -0.096602 -0.107614 -0.020028 0.056266 0.130392 0.133356 0.226858 0.334402 0.303811 0.419024 0.393481 0.276844 0.232016 0.248608 0.206869 0.101946 0.068802 0.013913 0.002570 -0.001682 -0.020990 0.058171 0.145198 0.139360 0.221953 0.252518 0.303290 0.263425 0.219836 0.192601 0.210246 0.149533 0.042356 0.045541 -0.008462 -0.010179 -0.030595 0.016934 0.015079 0.173467 0.121666 0.180905 0.238219 0.201084 0.192308 0.201056 0.135593 0.105547 0.064738 0.040974 -0.037663 0.005813 0.020465 0.051686 0.048366 0.080463 0.097664 0.118625 0.139004 0.188637 0.076421 0.098413 0.069596 -0.001494 0.006626 0.007876 -0.009850 0.019691 0.001508 0.029917 0.072304 0.084653 0.117839 0.049342 0.095878 0.053919 0.007715 0.060188 -0.035074 -0.010025 0.022281 -0.004533 0.050705 0.053121 0.054413 0.054354 0.050629 0.047769 0.019842 0.000950 0.004911 0.010477 -0.016301 0.069005 -0.016508 0.006148 0.052943 0.048006 0.033639 0.043728 0.035574 0.013341 -0.026688 -0.051989 -0.015992 0.013286 0.016243 0.057555 0.060093 0.054824 0.073206 0.052516 0.025703 0.058070 0.083249 0.019249 0.020710 0.056506 0.050227 0.098547 0.105983 0.108226 0.107475 0.060957 0.034552 0.024876 0.005662 -0.007334 0.043308 0.070591 0.036806 0.027669 0.031129 0.020327 0.080450 0.054365 -0.050264 -0.054156 0.029729 0.092813 0.005688 0.028877 0.059446 0.081517 0.026185 0.054358 0.081514 0.033805 0.040248 -0.031621 0.014202 0.112324 0.064837 -0.056618 -0.022047 -0.051769 0.019354 -0.106097 0.033510 -0.111709 -0.029663 0.048091 0.027750 0.027739 -0.042692 -0.058099 -0.079905 -0.078239 -0.061219 -0.123395 -0.097752 -0.038570 0.016187 -0.021627 0.032099 -0.013564 -0.034989 0.051076 -0.104073 -0.095010 -0.097044 -0.001977 -0.046928 -0.043932 0.003495 0.016393 0.007351 0.174489 -0.007998 0.142156 0.010010 0.263591 0.257313 0.324661 0.284853 0.118093 0.212674 0.270683 0.059569 0.252597 0.113534 0.114134 0.237385 0.102327 -0.588506
0.072396 0.072899 0.074406 0.076918 0.080433 0.084952 0.090472 0.096992 0.104511 0.113024 0.122529 0.133022 0.144497 0.156947 0.170366 0.184744 0.200069 0.216329 0.233510 0.251593 0.270559 0.290384 0.311044 0.332508 0.354743 0.377713 0.401375 0.425684 0.450590 0.476036 0.501962 0.528299 0.554976 0.581914 0.609028 0.636225 0.663408 0.690471 0.717303 0.743785 0.769791 0.795190 0.819842 0.843602 0.866319 0.887837 0.907992 0.926619 0.943546 0.958600 0.971604 0.982381 0.990752 0.996540 0.999571 0.999672 0.996678 0.990430 0.980777 0.967579 0.950708 0.930051 0.905513 0.877015 0.844501 0.807938 0.767319 0.722662 0.674018 0.621469 0.565130 0.505151 0.441721 0.375066 0.305450 0.233181 0.158603 0.082104 0.004110 0.074913 0.154464 0.234005 0.312963 0.390741 0.466711 0.540227 0.610629 0.677243 0.739395 0.796413 0.847638 0.892430 0.930178 0.960306 0.982288 0.995653 0.999996 0.994987 0.980381 0.956026 0.921872 0.877979 0.824521 0.761795 0.690222 0.610352 0.522864 0.428562 0.328379 0.223366 0.114685 0.003601 0.108528 0.220272 0.330141 0.436603 0.538110 0.633118 0.720113 0.797634 0.864304 0.918859 0.960166 0.987264 0.999376 0.995943 0.976643 0.941409 0.890444 0.824233 0.743552 0.649463 0.543317 0.426736 0.301600 0.170023 0.034320 0.103024 0.239399 0.372123 0.498485 0.615810 0.721513 0.813162 0.888538 0.945701 0.983037 0.999321 0.993760 0.966030 0.916310 0.845301 0.754231 0.644851 0.519415 0.380648 0.231696 0.076062 0.082462 0.239893 0.392146 0.535143 0.664930 0.777782 0.870328 0.939652 0.983406 0.999892 0.988151 0.948010 0.880133 0.786024 0.668026 0.529277 0.373644 0.205637 0.030281 0.147015 0.320629 0.484895 0.634299 0.763663 0.868338 0.944387 0.988744 0.999362 0.975323 0.916910 0.825648 0.704291 0.556767 0.388079 0.204151 0.011640 0.182298 0.370266 0.544904 0.699190 0.826723 0.922018 0.980751 0.999985 0.978339 0.916102 0.815277 0.679558 0.514226 0.325974 0.122661 0.086996 0.293793 0.488427 0.661927 0.806077 0.913827 0.979655 0.999886 0.972931 0.899421 0.782263 0.626558 0.439427 0.229714 0.007600 0.215878 0.429366 0.621767 0.782836 0.903743 0.977584 0.999818 0.968578 0.884862 0.752557 0.578322 0.371288 0.142624 0.095033 0.328273 0.543650 0.728474 0.871578 0.964022 0.999694 0.975762 0.892935 0.755531 0.571309 0.351083 0.108134 0.142556 0.385213 0.604265 0.785345 0.916271 0.987903 0.994829 0.935835 0.814097 0.637090 0.416189 0.166008 0.096547 0.353384 0.586460 0.779072 0.917080 0.989993 0.991827 0.921657 0.783816 0.587724 0.347297 0.080038 0.194204 0.454689 0.681351 0.856372 0.965615 0.999845 0.955564 0.835446 0.648272 0.408377 0.134621 0.151044 0.425290 0.665342 0.850865 0.965748 0.999574 0.948634 0.816421 0.613491 0.356717 0.067969 0.227697 0.504201 0.736721 0.903972 0.990207 0.986792 0.893150 0.717015 0.473899 0.185822 0.120609 0.416618 0.673954 0.867615 0.978328 0.994568 0.913847 0.743169 0.498547 0.203609 0.112608 0.418453 0.682842 0.878425 0.984496 0.989273 0.891325 0.699944 0.434400 0.122109 0.204106 0.509426 0.760769 0.930393 0.999062 0.958334 0.811728 0.574577 0.272572 0.060929 0.388503 0.672848 0.881064 0.988527 0.981921 0.861022 0.638997 0.341113 0.002001 0.338296 0.639020 0.863589 0.984142 0.985105 0.865343 0.638603 0.332093 0.016645 0.364244 0.666871 0.885791 0.992395 0.972093 0.826455 0.573327 0.244819 0.116635
1.000000 1.000000 1.000000 1.000000 1.000000 1.000000 1.000000 1.000000 1.000000 1.000000 1.000000 1.000000 1.000000 1.000000 1.000000 1.000000 1.000000 1.000000 1.000000 1.000000 1.000000 1.000000 1.000000 1.000000 1.000000 1.000000 1.000000 1.000000 1.000000 1.000000 1.000000 1.000000 1.000000 1.000000 1.000000 1.000000 1.000000 1.000000 1.000000 1.000000 1.000000 1.000000 1.000000 1.000000 1.000000 1.000000 1.000000 1.000000 1.000000 1.000000 1.000000 1.000000 0.933505 0.933505 0.933505 0.924336 0.924336 0.924336 0.924336 0.924336 0.924336 0.924336 0.924336 0.924336 0.924336 0.924336 0.924336 0.924336 0.924336 0.924336 0.924336 0.924336 0.924336 0.924336 0.924336 0.924336 0.924336 0.924336 0.924336 0.924336 0.924336 0.924336 0.924336 0.924336 0.924336 0.924336 0.924336 0.924336 0.924336 0.924336 0.924336 0.924336 0.924336 0.924336 0.924336 0.924336 0.950232 0.951429 0.959277 0.959111 0.958610 0.956522 0.955610 0.954496 0.954044 0.954317 0.954921 0.955750 0.967488 0.968501 0.970028 0.970829 0.971539 0.972199 0.972061 0.972863 0.972126 0.971604 0.971113 0.967198 0.967806 0.968401 0.968588 0.969637 0.969526 0.971757 0.971860 0.971299 0.970479 0.969800 0.969145 0.968759 0.968492 0.968978 0.969242 0.970496 0.973624 0.973053 0.972730 0.972889 0.972993 0.973165 0.973557 0.974319 0.970476 0.968964 0.967326 0.965172 0.969349 0.966524 0.966296 0.967657 0.968039 0.968437 0.967531 0.963581 0.958658 0.957635 0.955179 0.945522 0.944232 0.944955 0.947202 0.947558 0.946107 0.938506 0.939089 0.931958 0.934062 0.937288 0.931215 0.931018 0.932175 0.931542 0.930355 0.929800 0.926791 0.924191 0.922599 0.922522 0.925529 0.925881 0.927074 0.926839 0.921037 0.913058 0.900644 0.898250 0.893179 0.896271 0.884797 0.884632 0.884399 0.880095 0.883478 0.883319 0.884219 0.881035 0.864102 0.846465 0.840237 0.844529 0.849592 0.845386 0.844341 0.837497 0.848715 0.829566 0.842057 0.851879 0.848759 0.848458 0.847833 0.845890 0.841226 0.842155 0.843841 0.845358 0.843920 0.843509 0.842925 0.828152 0.830497 0.767003 0.750014 0.741570 0.747342 0.753976 0.756382 0.755262 0.760882 0.765591 0.752342 0.734324 0.726824 0.720524 0.724745 0.723660 0.724007 0.703812 0.677883 0.673017 0.642368 0.660386 0.672981 0.633551 0.658221 0.669600 0.668466 0.666439 0.660129 0.657137 0.652632 0.655412 0.663167 0.675885 0.692807 0.715423 0.711422 0.701961 0.698756 0.679960 0.674190 0.668141 0.680950 0.661359 0.659110 0.677148 0.677187 0.662396 0.639503 0.628464 0.620119 0.613658 0.620954 0.609977 0.604760 0.591833 0.566243 0.561297 0.595537 0.611725 0.633962 0.605992 0.592507 0.579681 0.556754 0.569907 0.511797 0.511712 0.534649 0.542852 0.520964 0.515480 0.527112 0.533452 0.532895 0.522328 0.507503 0.499035 0.520396 0.550905 0.540252 0.522934 0.525060 0.523292 0.512468 0.422734 0.416495 0.388527 0.353529 0.299411 0.275845 0.268212 0.252665 0.245249 0.210542 0.206387 0.218003 0.224468 0.235325 0.237648 0.219539 0.229491 0.225941 0.212081 0.149417 0.138955 0.131015 0.120087 0.119551 0.100138 0.126145 0.190228 0.192113 0.192113 0.192113 0.192113 0.192113 0.192113 0.199157 0.199157 0.199157 0.199157 0.199157 0.199157 0.199157 0.199157 0.199157 0.208178 0.208178 0.208178 0.208178 0.208178 0.208178 0.208178 0.208178 0.208178 0.208178 0.208178 0.208178 0.208178 0.208178
0.000000 0.000000 0.000000 0.000000 0.000000 0.000000 0.000000 0.000000 0.000000 0.000000 0.000000 0.000000 0.000000 0.000000 0.000000 0.000000 0.000000 0.000000 0.000000 0.000000 0.000000 9401.000000 0.000000 0.000000 0.000000 0.000000 0.000000 0.000000 0.000000 0.000000 0.000000 0.000000 0.000000 0.000000 0.000000 0.000000 0.000000 0.000000 0.000000 0.000000 0.000000 0.000000 0.000000 0.000000 0.000000 0.000000 0.000000 0.000000 0.000000 0.000000 0.000000 0.000000 0.180334 0.180334 0.180334 0.199007 0.199007 0.199007 0.199007 0.199007 0.199007 0.199007 0.199007 0.199007 0.199007 0.199007 0.199007 0.199007 0.199007 0.199007 0.199007 0.199007 0.199007 0.199007 0.199007 0.199007 0.199007 0.199007 0.199007 0.199007 0.199007 0.199007 0.199007 0.199007 0.199007 0.199007 0.199007 0.199007 0.199007 0.199007 0.199007 0.199007 0.199007 0.199007 0.199007 0.199007 0.225018 0.225018 0.225018 0.225018 0.225018 0.225018 0.225018 0.225018 0.225018 0.225018 0.225018 0.225018 0.225018 0.225018 0.225018 0.225018 0.225018 0.225018 0.225018 0.225018 0.225018 0.225018 0.225018 0.225018 0.225018 0.225018 0.225018 0.225018 0.225018 0.244339 0.244339 0.244339 0.244339 0.244339 0.244339 0.244339 0.244339 0.244339 0.244339 0.244339 0.244339 0.244339 0.244339 0.244339 0.244339 0.244339 0.244339 0.244339 0.244339 0.244339 0.244339 0.244339 0.251976 0.251976 0.251976 0.251976 0.251976 0.251976 0.251976 0.251976 0.251976 0.251976 0.251976 0.251976 0.251976 0.251976 0.251976 0.251976 0.251976 0.251976 0.251976 0.251976 0.264906 0.264906 0.264906 0.264906 0.264906 0.264906 0.264906 0.264906 0.264906 0.264906 0.264906 0.264906 0.264906 0.264906 0.264906 0.264906 0.264906 0.264906 0.264906 0.264906 0.264906 0.264906 0.264906 0.264906 0.264906 0.264906 0.264906 0.264906 0.264906 0.264906 0.264906 0.264906 0.264906 0.264906 0.264906 0.264906 0.264906 0.264906 0.264906 0.264906 0.264906 0.264906 0.264906 0.264906 0.264906 0.264906 0.264906 0.264906 0.264906 0.264906 0.264906 0.264906 0.264906 0.264906 0.264906 0.264906 0.264906 0.264906 0.264906 0.264906 0.264906 0.264906 0.256074 0.256074 0.256074 0.256074 0.256074 0.256074 0.256074 0.256074 0.256074 0.256074 0.256074 0.256074 0.256074 0.256074 0.269680 0.269680 0.269680 0.269680 0.269680 0.269680 0.269680 0.269680 0.269680 0.269680 0.269680 0.269680 0.264906 0.264906 0.264906 0.264906 0.264906 0.264906 0.264906 0.264906 0.264906 0.264906 0.264906 0.264906 0.269680 0.269680 0.269680 0.269680 0.269680 0.269680 0.269680 0.269680 0.269680 0.269680 0.269680 0.264906 0.264906 0.264906 0.264906 0.264906 0.264906 0.264906 0.264906 0.264906 0.264906 0.264906 0.256074 0.256074 0.256074 0.256074 0.256074 0.256074 0.256074 0.256074 0.256074 0.256074 0.256074 0.264906 0.264906 0.264906 0.264906 0.264906 0.264906 0.264906 0.264906 0.264906 0.264906 0.260378 0.260378 0.260378 0.260378 0.260378 0.260378 0.260378 0.260378 0.260378 0.260378 0.256074 0.256074 0.256074 0.256074 0.256074 0.256074 0.256074 0.256074 0.256074 0.256074 0.260378 0.260378 0.260378 0.260378 0.260378 0.260378 0.260378 0.260378 0.260378 0.256074 0.256074 0.256074 0.256074 0.256074 0.256074 0.256074 0.256074 0.256074 0.251976 0.251976 0.251976 0.251976 0.251976 0.251976 0.251976 0.251976 0.251976 0.251976 0.251976 0.251976 0.251976 0.251976
