# Output from CTFFind version 4.1.9, run on 2019-11-02 12:25:00
# Input file: stack1_ub_averaged_50.mrc ; Number of micrographs: 1
# Pixel size: 3.000 Angstroms ; acceleration voltage: 300.0 keV ; spherical aberration: 0.00 mm ; amplitude contrast: 0.07
# Box size: 512 pixels ; min. res.: 30.0 Angstroms ; max. res.: 5.0 Angstroms ; min. def.: 5000.0 um; max. def. 50000.0 um; num. frames averaged: 1
# 6 lines per micrograph: #1 - spatial frequency (1/Angstroms); #2 - 1D rotational average of spectrum (assuming no astigmatism); #3 - 1D rotational average of spectrum; #4 - CTF fit; #5 - cross-correlation between spectrum and CTF fit; #6 - 2sigma of expected cross correlation of noise
0.000000 0.000651 0.001302 0.001953 0.002604 0.003255 0.003906 0.004557 0.005208 0.005859 0.006510 0.007161 0.007812 0.008464 0.009115 0.009766 0.010417 0.011068 0.011719 0.012370 0.013021 0.013672 0.014323 0.014974 0.015625 0.016276 0.016927 0.017578 0.018229 0.018880 0.019531 0.020182 0.020833 0.021484 0.022135 0.022786 0.023438 0.024089 0.024740 0.025391 0.026042 0.026693 0.027344 0.027995 0.028646 0.029297 0.029948 0.030599 0.031250 0.031901 0.032552 0.033203 0.033854 0.034505 0.035156 0.035807 0.036458 0.037109 0.037760 0.038411 0.039062 0.039714 0.040365 0.041016 0.041667 0.042318 0.042969 0.043620 0.044271 0.044922 0.045573 0.046224 0.046875 0.047526 0.048177 0.048828 0.049479 0.050130 0.050781 0.051432 0.052083 0.052734 0.053385 0.054036 0.054688 0.055339 0.055990 0.056641 0.057292 0.057943 0.058594 0.059245 0.059896 0.060547 0.061198 0.061849 0.062500 0.063151 0.063802 0.064453 0.065104 0.065755 0.066406 0.067057 0.067708 0.068359 0.069010 0.069661 0.070312 0.070964 0.071615 0.072266 0.072917 0.073568 0.074219 0.074870 0.075521 0.076172 0.076823 0.077474 0.078125 0.078776 0.079427 0.080078 0.080729 0.081380 0.082031 0.082682 0.083333 0.083984 0.084635 0.085286 0.085938 0.086589 0.087240 0.087891 0.088542 0.089193 0.089844 0.090495 0.091146 0.091797 0.092448 0.093099 0.093750 0.094401 0.095052 0.095703 0.096354 0.097005 0.097656 0.098307 0.098958 0.099609 0.100260 0.100911 0.101562 0.102214 0.102865 0.103516 0.104167 0.104818 0.105469 0.106120 0.106771 0.107422 0.108073 0.108724 0.109375 0.110026 0.110677 0.111328 0.111979 0.112630 0.113281 0.113932 0.114583 0.115234 0.115885 0.116536 0.117188 0.117839 0.118490 0.119141 0.119792 0.120443 0.121094 0.121745 0.122396 0.123047 0.123698 0.124349 0.125000 0.125651 0.126302 0.126953 0.127604 0.128255 0.128906 0.129557 0.130208 0.130859 0.131510 0.132161 0.132812 0.133464 0.134115 0.134766 0.135417 0.136068 0.136719 0.137370 0.138021 0.138672 0.139323 0.139974 0.140625 0.141276 0.141927 0.142578 0.143229 0.143880 0.144531 0.145182 0.145833 0.146484 0.147135 0.147786 0.148438 0.149089 0.149740 0.150391 0.151042 0.151693 0.152344 0.152995 0.153646 0.154297 0.154948 0.155599 0.156250 0.156901 0.157552 0.158203 0.158854 0.159505 0.160156 0.160807 0.161458 0.162109 0.162760 0.163411 0.164062 0.164714 0.165365 0.166016 0.166667 0.167318 0.167969 0.168620 0.169271 0.169922 0.170573 0.171224 0.171875 0.172526 0.173177 0.173828 0.174479 0.175130 0.175781 0.176432 0.177083 0.177734 0.178385 0.179036 0.179688 0.180339 0.180990 0.181641 0.182292 0.182943 0.183594 0.184245 0.184896 0.185547 0.186198 0.186849 0.187500 0.188151 0.188802 0.189453 0.190104 0.190755 0.191406 0.192057 0.192708 0.193359 0.194010 0.194661 0.195312 0.195964 0.196615 0.197266 0.197917 0.198568 0.199219 0.199870 0.200521 0.201172 0.201823 0.202474 0.203125 0.203776 0.204427 0.205078 0.205729 0.206380 0.207031 0.207682 0.208333 0.208984 0.209635 0.210286 0.210938 0.211589 0.212240 0.212891 0.213542 0.214193 0.214844 0.215495 0.216146 0.216797 0.217448 0.218099 0.218750 0.219401 0.220052 0.220703 0.221354 0.222005 0.222656 0.223307 0.223958 0.224609 0.225260 0.225911 0.226562 0.227214 0.227865 0.228516 0.229167 0.229818 0.230469 0.231120 0.231771 0.232422 0.233073 0.233724 0.234375 0.235026 0.235677
       0.33130        0.33130        0.33130        0.33130        0.33130        0.33130        0.33130        0.33130        0.33130        0.33130        0.33130        0.33130        0.33130        0.33130        0.33130        0.33130        0.33130        0.33130        0.33130        0.33130        0.33130        0.33130        0.33130        0.33130        0.33130        0.33130        0.33130        0.33130        0.33130        0.33130        0.33130        0.33130        0.33130        0.33130        0.33130        0.33130        0.33130        0.33130        0.33130        0.33130        0.33130        0.33130        0.33130        0.33130        0.33130        0.33130        0.33130        0.33130        0.33130        0.33130        0.33130        0.50240        0.71881        0.42950        0.18726       -0.08278       -0.25964       -0.06808       -0.13513       -0.04982       -0.00553       -0.14983       -0.09059       -0.05855       -0.00700       -0.15586       -0.22439       -0.35008       -0.46013       -0.55318       -0.51409       -0.44299       -0.37067       -0.54432       -0.45323       -0.62309       -0.50539       -0.47478       -0.39000       -0.39038       -0.33951       -0.25489       -0.16306       -0.14160        0.03075       -0.01489        0.11577        0.16191        0.30659        0.41150        0.46009        0.50073        0.54259        0.55043        0.68310        0.64080        0.67347        0.58909        0.55385        0.65030        0.52555        0.42237        0.37883        0.32087        0.22711        0.25783        0.24879        0.10420        0.08058        0.00007       -0.00346        0.04040       -0.00932        0.07155        0.10437        0.23215        0.28364        0.29627        0.37538        0.56234        0.53183        0.57862        0.66498        0.70373        0.62874        0.63686        0.63090        0.55894        0.57560        0.40232        0.34235        0.26188        0.18386        0.07374        0.14252        0.11763        0.09026        0.10396        0.20796        0.21358        0.31658        0.36256        0.41041        0.49084        0.58074        0.54272        0.55627        0.60285        0.53157        0.45736        0.48390        0.32970        0.24258        0.25964        0.23720        0.14030        0.14054        0.15449        0.21720        0.23673        0.33038        0.36399        0.38729        0.46720        0.44166        0.48234        0.45278        0.46614        0.44781        0.40879        0.38522        0.35075        0.31309        0.29331        0.20320        0.18753        0.21776        0.26542        0.26495        0.34655        0.37108        0.35563        0.41139        0.44550        0.43964        0.42663        0.44426        0.38246        0.33498        0.28266        0.25780        0.29236        0.26614        0.29141        0.29904        0.34144        0.34090        0.38951        0.40196        0.43100        0.40688        0.43554        0.39982        0.35488        0.27873        0.29071        0.30537        0.26720        0.25226        0.31898        0.36891        0.34038        0.35062        0.35818        0.35797        0.40876        0.40782        0.36335        0.33668        0.30207        0.31207        0.31711        0.31831        0.30007        0.27833        0.33614        0.35864        0.37890        0.33148        0.32771        0.33516        0.34438        0.31030        0.28391        0.29997        0.30751        0.33854        0.31544        0.32252        0.35675        0.32529        0.31398        0.32303        0.29824        0.26470        0.25534        0.26657        0.30944        0.32155        0.35419        0.30373        0.30618        0.32607        0.29357        0.31303        0.28284        0.28228        0.29113        0.29264        0.30488        0.34253        0.33357        0.33194        0.34021        0.31204        0.33676        0.32074        0.32056        0.30697        0.27976        0.28993        0.30096        0.29180        0.32323        0.33036        0.33052        0.32906        0.33955        0.32024        0.28305        0.24549        0.26188        0.32567        0.35039        0.33739        0.30859        0.28858        0.29204        0.30871        0.25100        0.29992        0.31445        0.34388        0.29600        0.30432        0.28207        0.33184        0.33453        0.33767        0.31128        0.29225        0.31521        0.39647        0.32225        0.30561        0.31695        0.28281        0.28139        0.30556        0.27573        0.32470        0.23140        0.26812        0.29814        0.31215        0.29261        0.25720        0.28989        0.24155        0.22078        0.26616        0.29659        0.30856        0.26866        0.27899        0.32918        0.26563        0.22608        0.29704        0.26591        0.26327        0.28417        0.38235        0.28983        0.28312        0.24930        0.24503        0.27084        0.25189        0.23863        0.18497        0.26456        0.23338        0.24475        0.31661        0.25635        0.35931        0.31056        0.21978        0.21455        0.20891        0.23217        0.33165        0.24041        0.14082        0.17617        0.22124        0.24366        0.24141        0.20207        0.02581       -0.47622       -0.96133
2.676893 2.648571 2.620400 2.592382 2.564516 2.536802 2.509240 2.481830 2.454572 2.427466 2.400513 2.373711 2.347062 2.320565 2.294219 2.268026 2.241985 2.216097 2.190360 2.164775 2.139343 2.114062 2.088934 2.063958 2.039134 2.014462 1.989942 1.965574 1.941358 1.917295 1.893383 1.869624 1.846017 1.822561 1.799258 1.776108 1.753109 1.730262 1.707567 1.685025 1.662634 1.640396 1.618310 1.596376 1.574594 1.552964 1.531486 1.510160 1.488987 1.467965 1.447096 1.517917 1.818827 1.518227 1.147567 0.931538 0.543589 0.906837 0.626728 0.872154 0.917698 0.582823 0.709695 0.763528 0.810015 0.621948 0.528800 0.341352 0.102818 0.083168 0.046976 0.089305 0.301065 -0.035249 0.077813 -0.137250 -0.015264 -0.018044 0.083018 0.049622 0.103959 0.169114 0.276195 0.242085 0.475613 0.390538 0.541068 0.516191 0.760496 0.787134 0.869527 0.918520 0.934267 0.939530 1.071063 0.968501 1.128185 0.934021 0.844372 1.004486 0.839309 0.745080 0.608775 0.587386 0.456314 0.403094 0.503804 0.259935 0.189942 0.152967 0.014238 0.212165 -0.006111 0.108903 0.181543 0.259955 0.329964 0.335839 0.415999 0.538153 0.650097 0.536490 0.726372 0.867675 0.635570 0.688945 0.662017 0.592454 0.531328 0.467886 0.294083 0.207920 0.112658 -0.041845 -0.022625 0.054814 -0.101504 -0.059670 0.047502 0.050876 0.107173 0.222316 0.236220 0.305604 0.427972 0.433978 0.432192 0.476426 0.434105 0.311564 0.335475 0.245259 0.037897 0.060918 0.019544 -0.064726 -0.095227 -0.105163 -0.013677 -0.066149 0.065082 0.122253 0.120482 0.250718 0.219436 0.238279 0.289053 0.249207 0.242762 0.205958 0.179296 0.105659 0.100196 0.032347 0.013921 -0.128529 -0.059822 -0.004257 0.001897 0.012420 0.094802 0.079208 0.131961 0.177721 0.247180 0.164521 0.192979 0.113328 0.146784 0.013540 -0.029026 0.014462 -0.015811 -0.011544 -0.006042 0.029508 0.071346 0.055847 0.135443 0.119451 0.154227 0.069060 0.150645 0.082071 -0.018853 -0.058635 -0.017559 -0.034802 -0.081722 -0.065665 0.037975 0.066470 -0.011098 0.051382 0.058463 0.073131 0.146718 0.076084 0.063524 0.037461 -0.027140 0.029725 0.004636 0.011960 0.004397 -0.016514 0.045726 0.063516 0.070344 0.027761 0.045845 0.016461 0.065879 -0.007099 -0.019529 0.014768 0.006447 0.064334 0.026133 0.035900 0.072397 0.026960 0.013879 0.028805 -0.004949 -0.039164 -0.025927 -0.028182 0.028642 0.046883 0.097070 0.005518 0.046416 0.066368 -0.005845 0.066271 0.017375 0.020769 0.045963 0.049118 0.045813 0.102929 0.071343 0.079578 0.080353 0.090091 0.074886 0.070798 0.086326 0.032018 -0.001092 0.044704 0.027170 0.062394 0.058374 0.089893 0.001871 0.072337 0.063367 0.010612 0.016943 -0.078458 -0.030828 0.099791 0.065782 0.041504 0.024554 -0.020521 0.029743 0.017128 -0.061717 0.041866 0.052810 0.075470 0.022940 -0.001758 -0.002600 0.053186 0.039702 0.018615 0.032385 -0.032203 0.062275 0.117041 0.006550 -0.012512 0.014226 -0.029303 -0.029289 -0.009003 -0.047436 0.021198 -0.103399 -0.029908 -0.026726 0.020537 -0.036511 -0.060809 -0.004319 -0.061173 -0.061801 -0.054029 0.042238 0.013384 -0.002085 -0.003919 0.079223 -0.033372 -0.037182 0.029995 -0.017335 0.031544 0.009590 0.180090 -0.009498 0.010788 0.025268 -0.021049 -0.003495 -0.005551 -0.017034 -0.132935 0.027109 -0.031399 -0.000036 0.038934 -0.024589 0.153271 0.044280 -0.023233 -0.104340 -0.032183 -0.075904 0.104803 0.285063 0.162077 0.221807 0.200429 0.339383 0.271035 0.230673 0.033069 -1.120288
0.072396 0.072910 0.074450 0.077018 0.080611 0.085229 0.090872 0.097536 0.105220 0.113922 0.123636 0.134359 0.146086 0.158809 0.172520 0.187209 0.202865 0.219475 0.237022 0.255487 0.274850 0.295087 0.316169 0.338066 0.360742 0.384157 0.408269 0.433027 0.458378 0.484263 0.510617 0.537368 0.564440 0.591748 0.619202 0.646705 0.674153 0.701434 0.728430 0.755016 0.781058 0.806417 0.830947 0.854495 0.876901 0.898001 0.917626 0.935600 0.951745 0.965881 0.977823 0.987388 0.994393 0.998655 0.999995 0.998240 0.993221 0.984780 0.972768 0.957047 0.937495 0.914007 0.886496 0.854896 0.819165 0.779287 0.735273 0.687168 0.635045 0.579016 0.519226 0.455860 0.389144 0.319344 0.246766 0.171760 0.094718 0.016074 0.063697 0.144082 0.224529 0.304454 0.383238 0.460239 0.534789 0.606207 0.673798 0.736865 0.794713 0.846661 0.892046 0.930236 0.960638 0.982707 0.995957 0.999973 0.994416 0.979039 0.953691 0.918327 0.873020 0.817962 0.753472 0.680002 0.598136 0.508594 0.412230 0.310024 0.203085 0.092633 0.020004 0.133407 0.246083 0.356480 0.463010 0.564072 0.658075 0.743467 0.818761 0.882565 0.933610 0.970780 0.993139 0.999960 0.990747 0.965260 0.923531 0.865881 0.792928 0.705594 0.605101 0.492965 0.370982 0.241205 0.105920 0.032393 0.171101 0.307461 0.438682 0.561972 0.674610 0.773999 0.857741 0.923696 0.970042 0.995340 0.998581 0.979234 0.937280 0.873238 0.788177 0.683718 0.562015 0.425726 0.277968 0.122256 0.037574 0.197451 0.353175 0.500518 0.635350 0.753754 0.852150 0.927413 0.976981 0.998962 0.992212 0.956407 0.892085 0.800665 0.684444 0.546557 0.390914 0.222103 0.045272 0.134020 0.309975 0.476737 0.628594 0.760171 0.866645 0.943927 0.988839 0.999263 0.974259 0.914146 0.820540 0.696340 0.545665 0.373752 0.186787 0.008301 0.204077 0.392888 0.567159 0.719694 0.844002 0.934578 0.987176 0.999027 0.969020 0.897797 0.787795 0.643201 0.469827 0.274899 0.066796 0.145308 0.351826 0.543206 0.710359 0.845124 0.940675 0.991904 0.995721 0.951275 0.860070 0.725966 0.555065 0.355467 0.136926 0.089610 0.312522 0.520122 0.701264 0.845967 0.945983 0.995307 0.990578 0.931346 0.820186 0.662649 0.467035 0.244000 0.006014 0.233320 0.460027 0.660581 0.822724 0.936254 0.993698 0.990854 0.927148 0.805775 0.633610 0.420872 0.180576 0.072229 0.321378 0.550621 0.744685 0.890318 0.977245 0.998928 0.953131 0.842182 0.672945 0.456469 0.207315 0.057359 0.318972 0.558789 0.759301 0.905509 0.986114 0.994434 0.929040 0.793992 0.598684 0.357264 0.087671 0.189641 0.453248 0.682403 0.858694 0.967568 0.999598 0.951380 0.825956 0.632732 0.386863 0.108136 0.180566 0.455115 0.692155 0.871116 0.976050 0.997132 0.931658 0.784463 0.567677 0.299822 0.004296 0.292598 0.563988 0.784883 0.934494 0.998283 0.969459 0.849796 0.649669 0.387275 0.087055 0.222491 0.511507 0.751632 0.918850 0.995955 0.974412 0.855428 0.650034 0.378203 0.066999 0.252037 0.546056 0.784288 0.941304 0.999831 0.952755 0.804104 0.568863 0.271594 0.056026 0.378514 0.660402 0.870171 0.983839 0.987821 0.880675 0.673528 0.389075 0.059223 0.278418 0.584757 0.823776 0.966835 0.996195 0.907370 0.709931 0.426655 0.091021 0.256619 0.573872 0.821454 0.968147 0.994832 0.897145 0.686315 0.388064 0.039610 0.314873 0.629797 0.864066 0.986504 0.980149 0.844763 0.597198 0.269481 0.095181 0.448007 0.741145 0.934212 0.999972
1.000000 1.000000 1.000000 1.000000 1.000000 1.000000 1.000000 1.000000 1.000000 1.000000 1.000000 1.000000 1.000000 1.000000 1.000000 1.000000 1.000000 1.000000 1.000000 1.000000 1.000000 1.000000 1.000000 1.000000 1.000000 1.000000 1.000000 1.000000 1.000000 1.000000 1.000000 1.000000 1.000000 1.000000 1.000000 1.000000 1.000000 1.000000 1.000000 1.000000 1.000000 1.000000 1.000000 1.000000 1.000000 1.000000 1.000000 1.000000 1.000000 1.000000 1.000000 1.000000 0.920359 0.920359 0.907021 0.907021 0.907021 0.907021 0.907021 0.907021 0.907021 0.907021 0.907021 0.907021 0.907021 0.907021 0.907021 0.907021 0.907021 0.907021 0.907021 0.907021 0.907021 0.907021 0.907021 0.907021 0.907021 0.907021 0.907021 0.907021 0.907021 0.907021 0.907021 0.907021 0.907021 0.907021 0.907021 0.907021 0.907021 0.907021 0.907021 0.907021 0.907021 0.907021 0.907021 0.904179 0.908680 0.910503 0.908716 0.912284 0.912374 0.911679 0.912006 0.911629 0.911902 0.913253 0.923814 0.934918 0.946279 0.946380 0.951444 0.955939 0.958248 0.959301 0.960846 0.967034 0.965835 0.965267 0.965991 0.967623 0.969892 0.968414 0.968274 0.971387 0.972136 0.970324 0.968325 0.967695 0.967094 0.966814 0.966385 0.966535 0.966442 0.967072 0.967299 0.967531 0.967668 0.967694 0.968718 0.969871 0.972075 0.973028 0.972787 0.971553 0.969441 0.973480 0.974276 0.973911 0.973791 0.973239 0.973555 0.961335 0.956006 0.955964 0.951902 0.951128 0.948715 0.946521 0.943382 0.943351 0.942881 0.943632 0.938740 0.926021 0.911946 0.899849 0.922157 0.906690 0.894328 0.871888 0.871893 0.872188 0.872869 0.867663 0.860331 0.856356 0.853185 0.854324 0.850362 0.852636 0.850487 0.840831 0.843083 0.841689 0.815066 0.797932 0.780199 0.780562 0.778445 0.779784 0.779720 0.778916 0.786853 0.776426 0.775196 0.767524 0.749466 0.711451 0.698919 0.708651 0.718061 0.715033 0.711571 0.696229 0.660240 0.670671 0.691539 0.692403 0.695489 0.685140 0.676016 0.675123 0.678777 0.667627 0.657290 0.655731 0.653553 0.662863 0.667270 0.666261 0.653881 0.637555 0.624142 0.612654 0.624169 0.633138 0.599917 0.594560 0.579462 0.570743 0.554604 0.532675 0.529223 0.503993 0.495492 0.500721 0.505183 0.508497 0.516934 0.518981 0.499578 0.518408 0.529226 0.554716 0.534784 0.535619 0.535757 0.539094 0.526449 0.511352 0.509074 0.509749 0.519325 0.542932 0.584220 0.569697 0.557045 0.545244 0.552037 0.520636 0.524036 0.545668 0.523592 0.467428 0.403660 0.401355 0.363551 0.365829 0.345475 0.340209 0.345322 0.336123 0.325729 0.312610 0.298369 0.238613 0.199009 0.182039 0.167768 0.163025 0.179265 0.178482 0.171337 0.188102 0.235555 0.238811 0.231196 0.196067 0.188375 0.161047 0.162046 0.186193 0.141863 0.131757 0.122278 0.098638 0.074898 0.025713 0.047873 -0.040589 -0.060824 -0.067769 -0.046481 -0.034903 -0.036625 -0.037204 -0.073214 -0.056719 -0.011453 -0.007236 -0.016216 -0.083032 -0.067937 -0.058104 -0.057017 -0.069695 -0.076858 -0.073168 -0.083978 -0.085331 -0.074731 -0.018155 0.041510 0.043671 0.029644 0.061483 0.058003 0.042185 0.061203 0.044745 0.045942 0.024757 0.017300 -0.024780 -0.057453 -0.057453 -0.054787 -0.054787 -0.054787 -0.054787 -0.054787 -0.054787 -0.054787 -0.054787 -0.054787 -0.057810 -0.057810 -0.057810 -0.057810 -0.057810 -0.057810 -0.057810 -0.057810 -0.057810 -0.027420 -0.027420 -0.027420 -0.027420 -0.027420 -0.027420 -0.027420 -0.027420 -0.027420
0.000000 0.000000 0.000000 0.000000 0.000000 0.000000 0.000000 0.000000 0.000000 0.000000 0.000000 0.000000 0.000000 0.000000 0.000000 0.000000 0.000000 0.000000 0.000000 0.000000 0.000000 0.000000 0.000000 0.000000 0.000000 0.000000 0.000000 0.000000 0.000000 0.000000 0.000000 0.000000 0.000000 0.000000 0.000000 0.000000 0.000000 0.000000 0.000000 0.000000 0.000000 0.000000 0.000000 0.000000 0.000000 0.000000 0.000000 0.000000 0.000000 0.000000 0.000000 0.000000 0.181818 0.181818 0.199007 0.199007 0.199007 0.199007 0.199007 0.199007 0.199007 0.199007 0.199007 0.199007 0.199007 0.199007 0.199007 0.199007 0.199007 0.199007 0.199007 0.199007 0.199007 0.199007 0.199007 0.199007 0.199007 0.199007 0.199007 0.199007 0.199007 0.199007 0.199007 0.199007 0.199007 0.199007 0.199007 0.199007 0.199007 0.199007 0.199007 0.199007 0.199007 0.199007 0.199007 0.230940 0.230940 0.230940 0.230940 0.230940 0.230940 0.230940 0.230940 0.230940 0.230940 0.230940 0.230940 0.230940 0.230940 0.230940 0.230940 0.230940 0.230940 0.230940 0.230940 0.230940 0.230940 0.230940 0.230940 0.230940 0.230940 0.230940 0.230940 0.244339 0.244339 0.244339 0.244339 0.244339 0.244339 0.244339 0.244339 0.244339 0.244339 0.244339 0.244339 0.244339 0.244339 0.244339 0.244339 0.244339 0.244339 0.244339 0.244339 0.244339 0.244339 0.244339 0.251976 0.251976 0.251976 0.251976 0.251976 0.251976 0.251976 0.251976 0.251976 0.251976 0.251976 0.251976 0.251976 0.251976 0.251976 0.251976 0.251976 0.251976 0.251976 0.251976 0.264906 0.264906 0.264906 0.264906 0.264906 0.264906 0.264906 0.264906 0.264906 0.264906 0.264906 0.264906 0.264906 0.264906 0.264906 0.264906 0.264906 0.264906 0.264906 0.264906 0.264906 0.264906 0.264906 0.264906 0.264906 0.264906 0.264906 0.264906 0.264906 0.264906 0.264906 0.264906 0.264906 0.264906 0.264906 0.264906 0.264906 0.264906 0.264906 0.264906 0.264906 0.264906 0.264906 0.264906 0.264906 0.264906 0.264906 0.264906 0.264906 0.264906 0.264906 0.264906 0.264906 0.264906 0.264906 0.264906 0.264906 0.264906 0.264906 0.264906 0.264906 0.264906 0.264906 0.264906 0.264906 0.264906 0.264906 0.264906 0.264906 0.264906 0.264906 0.264906 0.264906 0.264906 0.264906 0.269680 0.269680 0.269680 0.269680 0.269680 0.269680 0.269680 0.269680 0.269680 0.269680 0.269680 0.269680 0.264906 0.264906 0.264906 0.264906 0.264906 0.264906 0.264906 0.264906 0.264906 0.264906 0.264906 0.264906 0.269680 0.269680 0.269680 0.269680 0.269680 0.269680 0.269680 0.269680 0.269680 0.269680 0.269680 0.264906 0.264906 0.264906 0.264906 0.264906 0.264906 0.264906 0.264906 0.264906 0.264906 0.264906 0.256074 0.256074 0.256074 0.256074 0.256074 0.256074 0.256074 0.256074 0.256074 0.256074 0.256074 0.264906 0.264906 0.264906 0.264906 0.264906 0.264906 0.264906 0.264906 0.264906 0.264906 0.260378 0.260378 0.260378 0.260378 0.260378 0.260378 0.260378 0.260378 0.260378 0.260378 0.264906 0.264906 0.264906 0.264906 0.264906 0.264906 0.264906 0.264906 0.264906 0.260378 0.260378 0.260378 0.260378 0.260378 0.260378 0.260378 0.260378 0.260378 0.256074 0.256074 0.256074 0.256074 0.256074 0.256074 0.256074 0.256074 0.256074 0.251976 0.251976 0.251976 0.251976 0.251976 0.251976 0.251976 0.251976 0.251976 0.264906 0.264906 0.264906 0.264906 0.264906 0.264906 0.264906 0.264906 0.264906
