# Output from CTFFind version 4.1.9, run on 2019-11-03 18:52:16
# Input file: stack5_ub_averaged_3000.mrc ; Number of micrographs: 1
# Pixel size: 3.000 Angstroms ; acceleration voltage: 300.0 keV ; spherical aberration: 0.00 mm ; amplitude contrast: 0.07
# Box size: 512 pixels ; min. res.: 30.0 Angstroms ; max. res.: 5.0 Angstroms ; min. def.: 5000.0 um; max. def. 50000.0 um; num. frames averaged: 1
# 6 lines per micrograph: #1 - spatial frequency (1/Angstroms); #2 - 1D rotational average of spectrum (assuming no astigmatism); #3 - 1D rotational average of spectrum; #4 - CTF fit; #5 - cross-correlation between spectrum and CTF fit; #6 - 2sigma of expected cross correlation of noise
0.000000 0.000651 0.001302 0.001953 0.002604 0.003255 0.003906 0.004557 0.005208 0.005859 0.006510 0.007161 0.007812 0.008464 0.009115 0.009766 0.010417 0.011068 0.011719 0.012370 0.013021 0.013672 0.014323 0.014974 0.015625 0.016276 0.016927 0.017578 0.018229 0.018880 0.019531 0.020182 0.020833 0.021484 0.022135 0.022786 0.023438 0.024089 0.024740 0.025391 0.026042 0.026693 0.027344 0.027995 0.028646 0.029297 0.029948 0.030599 0.031250 0.031901 0.032552 0.033203 0.033854 0.034505 0.035156 0.035807 0.036458 0.037109 0.037760 0.038411 0.039062 0.039714 0.040365 0.041016 0.041667 0.042318 0.042969 0.043620 0.044271 0.044922 0.045573 0.046224 0.046875 0.047526 0.048177 0.048828 0.049479 0.050130 0.050781 0.051432 0.052083 0.052734 0.053385 0.054036 0.054688 0.055339 0.055990 0.056641 0.057292 0.057943 0.058594 0.059245 0.059896 0.060547 0.061198 0.061849 0.062500 0.063151 0.063802 0.064453 0.065104 0.065755 0.066406 0.067057 0.067708 0.068359 0.069010 0.069661 0.070312 0.070964 0.071615 0.072266 0.072917 0.073568 0.074219 0.074870 0.075521 0.076172 0.076823 0.077474 0.078125 0.078776 0.079427 0.080078 0.080729 0.081380 0.082031 0.082682 0.083333 0.083984 0.084635 0.085286 0.085938 0.086589 0.087240 0.087891 0.088542 0.089193 0.089844 0.090495 0.091146 0.091797 0.092448 0.093099 0.093750 0.094401 0.095052 0.095703 0.096354 0.097005 0.097656 0.098307 0.098958 0.099609 0.100260 0.100911 0.101562 0.102214 0.102865 0.103516 0.104167 0.104818 0.105469 0.106120 0.106771 0.107422 0.108073 0.108724 0.109375 0.110026 0.110677 0.111328 0.111979 0.112630 0.113281 0.113932 0.114583 0.115234 0.115885 0.116536 0.117188 0.117839 0.118490 0.119141 0.119792 0.120443 0.121094 0.121745 0.122396 0.123047 0.123698 0.124349 0.125000 0.125651 0.126302 0.126953 0.127604 0.128255 0.128906 0.129557 0.130208 0.130859 0.131510 0.132161 0.132812 0.133464 0.134115 0.134766 0.135417 0.136068 0.136719 0.137370 0.138021 0.138672 0.139323 0.139974 0.140625 0.141276 0.141927 0.142578 0.143229 0.143880 0.144531 0.145182 0.145833 0.146484 0.147135 0.147786 0.148438 0.149089 0.149740 0.150391 0.151042 0.151693 0.152344 0.152995 0.153646 0.154297 0.154948 0.155599 0.156250 0.156901 0.157552 0.158203 0.158854 0.159505 0.160156 0.160807 0.161458 0.162109 0.162760 0.163411 0.164062 0.164714 0.165365 0.166016 0.166667 0.167318 0.167969 0.168620 0.169271 0.169922 0.170573 0.171224 0.171875 0.172526 0.173177 0.173828 0.174479 0.175130 0.175781 0.176432 0.177083 0.177734 0.178385 0.179036 0.179688 0.180339 0.180990 0.181641 0.182292 0.182943 0.183594 0.184245 0.184896 0.185547 0.186198 0.186849 0.187500 0.188151 0.188802 0.189453 0.190104 0.190755 0.191406 0.192057 0.192708 0.193359 0.194010 0.194661 0.195312 0.195964 0.196615 0.197266 0.197917 0.198568 0.199219 0.199870 0.200521 0.201172 0.201823 0.202474 0.203125 0.203776 0.204427 0.205078 0.205729 0.206380 0.207031 0.207682 0.208333 0.208984 0.209635 0.210286 0.210938 0.211589 0.212240 0.212891 0.213542 0.214193 0.214844 0.215495 0.216146 0.216797 0.217448 0.218099 0.218750 0.219401 0.220052 0.220703 0.221354 0.222005 0.222656 0.223307 0.223958 0.224609 0.225260 0.225911 0.226562 0.227214 0.227865 0.228516 0.229167 0.229818 0.230469 0.231120 0.231771 0.232422 0.233073 0.233724 0.234375 0.235026 0.235677
       0.35577        0.35577        0.35577        0.35577        0.35577        0.35577        0.35577        0.35577        0.35577        0.35577        0.35577        0.35577        0.35577        0.35577        0.35577        0.35577        0.35577        0.35577        0.35577        0.35577        0.35577        0.35577        0.35577        0.35577        0.35577        0.35577        0.35577        0.35577        0.35577        0.35577        0.35577        0.35577        0.35577        0.35577        0.35577        0.35577        0.35577        0.35577        0.35577        0.35577        0.35577        0.35577        0.35577        0.35577        0.35577        0.35577        0.35577        0.35577        0.35577        0.35577        0.35577        0.53831        0.89720        0.66865        0.19336        0.21779        0.03580        0.07880       -0.01478        0.04658        0.18397        0.44229        0.45388        0.24004        0.27007        0.06250        0.00810       -0.02426       -0.12646       -0.13312       -0.10433        0.03596       -0.08587       -0.05834       -0.11296       -0.20145       -0.19887       -0.30911       -0.25735       -0.26556       -0.22684       -0.26323       -0.25834       -0.29876       -0.37094       -0.29644       -0.24489       -0.12913       -0.10428       -0.00487        0.13037        0.17079        0.10412        0.28404        0.43723        0.35651        0.49257        0.65398        0.57244        0.59187        0.67754        0.59341        0.69737        0.71535        0.76395        0.63279        0.63220        0.68548        0.66858        0.50369        0.49140        0.50955        0.38329        0.29227        0.18539        0.14248        0.09464        0.02923        0.13587        0.07030        0.08811        0.07374        0.14063        0.11059        0.20654        0.27034        0.35257        0.38675        0.46447        0.57063        0.58377        0.67913        0.72854        0.63378        0.62990        0.68573        0.58091        0.48610        0.49781        0.40982        0.38146        0.32187        0.24370        0.19869        0.16513        0.17028        0.07188        0.15850        0.17583        0.14465        0.16444        0.29495        0.40552        0.42166        0.45721        0.48019        0.51850        0.59322        0.54688        0.57409        0.56321        0.49525        0.42689        0.35607        0.38461        0.29898        0.22464        0.27384        0.28632        0.23388        0.19133        0.27097        0.29702        0.31822        0.38178        0.42692        0.47714        0.47890        0.52627        0.54619        0.44782        0.42872        0.42026        0.46088        0.40838        0.28985        0.31189        0.28243        0.29469        0.29849        0.32932        0.30434        0.29941        0.35408        0.32775        0.38650        0.45079        0.47529        0.39960        0.37462        0.43994        0.42430        0.36247        0.35289        0.32983        0.34861        0.35175        0.33074        0.26803        0.33150        0.37697        0.32886        0.34915        0.41660        0.44526        0.43806        0.45116        0.40055        0.39222        0.36257        0.30423        0.30286        0.25082        0.26296        0.31968        0.30547        0.34850        0.34344        0.34878        0.36742        0.37537        0.37704        0.41200        0.40805        0.38151        0.36621        0.34500        0.33634        0.31014        0.34574        0.31063        0.30270        0.31121        0.35410        0.36471        0.38886        0.41017        0.37905        0.37332        0.34013        0.31745        0.29022        0.30178        0.28786        0.31413        0.30177        0.32052        0.32095        0.34280        0.31445        0.35943        0.34155        0.39319        0.34378        0.34815        0.29955        0.33162        0.29376        0.30067        0.28535        0.29554        0.32350        0.32463        0.32109        0.31253        0.32868        0.33981        0.37521        0.30925        0.32891        0.29584        0.32943        0.31745        0.32634        0.32622        0.33859        0.33993        0.33462        0.35211        0.37642        0.33711        0.32051        0.31103        0.34246        0.29895        0.35116        0.30869        0.33086        0.37396        0.41259        0.35079        0.38517        0.34017        0.33627        0.31348        0.33734        0.31666        0.31660        0.34687        0.30375        0.29068        0.32724        0.35419        0.30382        0.31303        0.34780        0.36164        0.27183        0.29739        0.35597        0.30073        0.22928        0.32675        0.31505        0.25485        0.27543        0.27115        0.30860        0.26941        0.24305        0.21771        0.27267        0.27092        0.25767        0.32661        0.40897        0.32548        0.27306        0.28535        0.27526        0.29599        0.26417        0.22938        0.24700        0.23519        0.27607        0.24725        0.28017        0.26508        0.28542        0.26346        0.29562        0.27098        0.18961        0.24453        0.20534        0.25364        0.21506        0.18718        0.07939        0.19957       -0.41207       -0.79524
2.942377 2.913379 2.884527 2.855820 2.827258 2.798841 2.770570 2.742444 2.714464 2.686629 2.658939 2.631395 2.603996 2.576742 2.549634 2.522671 2.495854 2.469182 2.442655 2.416273 2.390037 2.363946 2.338001 2.312201 2.286546 2.261037 2.235673 2.210455 2.185382 2.160454 2.135671 2.111034 2.086542 2.062196 2.037995 2.013939 1.990029 1.966264 1.942645 1.919170 1.895841 1.872658 1.849620 1.826727 1.803980 1.781378 1.758921 1.736609 1.714444 1.692423 1.670548 1.748832 2.492839 2.249901 1.290394 1.304364 1.148142 1.259549 0.955201 0.936711 1.132281 1.627053 1.494971 1.362050 1.171692 0.969772 0.812646 0.742952 0.575701 0.590986 0.522309 0.794008 0.610168 0.582346 0.494051 0.336788 0.295788 0.182007 0.189553 0.188081 0.190983 0.086311 0.165430 0.050704 -0.056636 0.030581 0.000584 0.210356 0.248013 0.321147 0.565181 0.636615 0.477774 0.689580 0.897030 0.900410 0.919860 1.273401 1.156143 1.035877 1.309077 1.160155 1.104226 1.273255 1.372627 1.073962 1.011613 1.174373 1.208286 0.830776 0.855249 0.849173 0.717694 0.495608 0.383197 0.238981 0.236923 -0.046843 0.175777 0.149085 0.101179 0.018306 0.204990 0.051373 0.178528 0.240354 0.476488 0.423727 0.483127 0.748928 0.658939 0.836806 0.966523 0.817438 0.676165 0.932061 0.747436 0.483485 0.552697 0.390360 0.435483 0.247878 0.088406 0.125968 -0.072717 0.021099 -0.177858 -0.083258 -0.036018 -0.065779 -0.142135 0.032084 0.269739 0.275697 0.324709 0.329038 0.412234 0.472081 0.493839 0.453000 0.426892 0.458190 0.243541 0.117204 0.249555 0.097686 -0.060392 -0.091311 0.019478 -0.035181 -0.174749 -0.067291 0.008616 -0.025619 0.099816 0.129723 0.265407 0.256370 0.263691 0.377315 0.264625 0.253627 0.159651 0.275629 0.230286 0.060358 0.012540 -0.015435 0.002851 -0.028980 0.092143 0.017851 -0.007978 0.005261 0.115486 0.032299 0.157307 0.279375 0.176643 0.047798 0.202401 0.131164 0.136805 0.021051 -0.001270 0.061786 0.044430 0.026265 -0.062454 -0.072288 0.063864 0.046828 -0.049621 0.086996 0.128242 0.203571 0.125744 0.200075 0.098493 0.084290 0.006336 -0.055372 -0.048598 -0.167716 -0.020248 -0.027919 -0.009028 0.024522 0.052929 0.043899 0.108360 0.056941 0.124217 0.125820 0.152645 0.091479 0.049952 0.086566 -0.000745 0.043657 0.023921 0.047078 -0.057785 0.044598 0.065566 0.113345 0.148230 0.155653 0.101481 0.095892 0.022327 -0.011671 -0.013014 -0.004130 -0.019618 0.032854 -0.030470 0.027540 0.042490 0.022751 0.024311 0.085127 0.077714 0.170207 -0.022132 0.083165 -0.017226 0.064974 -0.045885 0.012887 -0.043882 -0.024802 0.046471 0.039247 0.020546 -0.075558 0.036931 0.080861 0.081482 -0.020524 0.013651 -0.038684 0.018701 0.043685 -0.020553 0.051669 0.014515 0.041051 0.049445 0.064739 0.084550 -0.018130 0.024443 -0.020882 0.058706 -0.048279 0.060339 -0.037133 0.015998 0.099149 0.207478 0.042390 0.112662 -0.002838 0.050844 -0.005443 0.029091 0.052134 -0.054401 0.086413 -0.043993 -0.020237 0.143079 0.082042 0.019525 0.025151 0.128241 0.080755 -0.039320 0.097401 0.099544 0.027064 -0.121641 0.056721 0.041369 -0.091965 -0.011410 0.015871 0.063068 -0.050439 -0.047475 -0.076751 0.066804 0.011624 -0.036182 0.098442 0.265962 0.055540 0.076881 0.091425 0.000329 0.096307 0.053290 0.041357 0.028835 0.138168 0.108773 0.084698 0.229797 0.146698 0.188913 0.207807 0.182853 0.269463 0.135429 0.343373 0.315236 0.405965 0.330212 0.231388 -0.033736 0.309246 -1.196010
0.072396 0.072830 0.074132 0.076302 0.079339 0.083243 0.088013 0.093648 0.100145 0.107504 0.115721 0.124794 0.134719 0.145492 0.157107 0.169559 0.182839 0.196940 0.211851 0.227560 0.244054 0.261319 0.279336 0.298086 0.317547 0.337695 0.358502 0.379938 0.401968 0.424557 0.447663 0.471242 0.495245 0.519619 0.544308 0.569251 0.594380 0.619625 0.644910 0.670154 0.695272 0.720172 0.744759 0.768930 0.792581 0.815599 0.837869 0.859271 0.879679 0.898966 0.916998 0.933641 0.948755 0.962200 0.973835 0.983516 0.991100 0.996446 0.999412 0.999862 0.997660 0.992678 0.984793 0.973890 0.959861 0.942610 0.922053 0.898116 0.870744 0.839895 0.805545 0.767691 0.726349 0.681558 0.633380 0.581903 0.527240 0.469533 0.408951 0.345692 0.279984 0.212085 0.142284 0.070899 0.001722 0.075202 0.149135 0.223092 0.296616 0.369230 0.440435 0.509717 0.576550 0.640396 0.700715 0.756964 0.808606 0.855116 0.895984 0.930721 0.958868 0.980000 0.993736 0.999741 0.997735 0.987500 0.968885 0.941813 0.906287 0.862391 0.810299 0.750277 0.682683 0.607973 0.526699 0.439506 0.347135 0.250417 0.150265 0.047673 0.056295 0.160514 0.263808 0.364964 0.462747 0.555912 0.643221 0.723463 0.795471 0.858139 0.910443 0.951460 0.980385 0.996553 0.999451 0.988739 0.964261 0.926057 0.874374 0.809670 0.732622 0.644120 0.545266 0.437369 0.321928 0.200618 0.075271 0.052151 0.179583 0.304887 0.425893 0.540429 0.646369 0.741670 0.824414 0.892855 0.945458 0.980936 0.998290 0.996843 0.976265 0.936595 0.878260 0.802079 0.709263 0.601413 0.480489 0.348797 0.208941 0.063782 0.083614 0.230040 0.372217 0.506865 0.630784 0.740929 0.834493 0.908984 0.962301 0.992799 0.999346 0.981382 0.938943 0.872695 0.783930 0.674567 0.547115 0.404636 0.250674 0.089183 0.075572 0.239120 0.396909 0.544425 0.677332 0.791603 0.883646 0.950436 0.989613 0.999593 0.979632 0.929885 0.851433 0.746277 0.617310 0.468258 0.303579 0.128349 0.051885 0.231280 0.403873 0.563792 0.705456 0.823771 0.914336 0.973615 0.999091 0.989390 0.944372 0.865172 0.754200 0.615095 0.452626 0.272546 0.081409 0.113666 0.305241 0.485856 0.648311 0.785966 0.893023 0.964792 0.997911 0.990530 0.942429 0.855081 0.731638 0.576850 0.396904 0.199204 0.007922 0.215552 0.414566 0.596026 0.751605 0.873969 0.957151 0.996862 0.990740 0.938515 0.842083 0.705474 0.534723 0.337630 0.123431 0.097621 0.314727 0.517079 0.694386 0.837435 0.938564 0.992122 0.994801 0.945881 0.847332 0.703787 0.522360 0.312334 0.084709 0.148349 0.374148 0.580163 0.754732 0.887752 0.971267 0.999999 0.971709 0.887406 0.751378 0.571007 0.356435 0.120008 0.124405 0.362197 0.578908 0.761110 0.897262 0.978469 0.999103 0.957245 0.854889 0.697911 0.495794 0.261088 0.008682 0.245134 0.483695 0.691057 0.853101 0.958508 0.999597 0.972936 0.879677 0.725583 0.520729 0.278915 0.016748 0.247439 0.494878 0.707686 0.870204 0.970158 0.999656 0.955859 0.841303 0.663840 0.436155 0.174927 0.100358 0.368836 0.609838 0.804497 0.937253 0.997157 0.978823 0.882983 0.716558 0.492242 0.227587 0.056306 0.336445 0.589805 0.795214 0.935184 0.997428 0.976023 0.872034 0.693581 0.455275 0.177103 0.117197 0.402134 0.652664 0.846416 0.965721 0.999305 0.943419 0.802332 0.588110 0.319665 0.021163 0.280120 0.556256 0.781269 0.933622 0.998328 0.968516 0.846242 0.642469 0.376180 0.072686 0.238708 0.527534
1.000000 1.000000 1.000000 1.000000 1.000000 1.000000 1.000000 1.000000 1.000000 1.000000 1.000000 1.000000 1.000000 1.000000 1.000000 1.000000 1.000000 1.000000 1.000000 1.000000 1.000000 1.000000 1.000000 1.000000 1.000000 1.000000 1.000000 1.000000 1.000000 1.000000 1.000000 1.000000 1.000000 1.000000 1.000000 1.000000 1.000000 1.000000 1.000000 1.000000 1.000000 1.000000 1.000000 1.000000 1.000000 1.000000 1.000000 1.000000 1.000000 1.000000 1.000000 1.000000 0.830358 0.830358 0.830358 0.830358 0.830358 0.830358 0.830358 0.823736 0.823736 0.823736 0.823736 0.823736 0.823736 0.823736 0.823736 0.823736 0.823736 0.823736 0.823736 0.823736 0.823736 0.823736 0.823736 0.823736 0.823736 0.823736 0.823736 0.823736 0.823736 0.823736 0.823736 0.823736 0.823736 0.823736 0.823736 0.823736 0.823736 0.823736 0.823736 0.823736 0.823736 0.823736 0.823736 0.823736 0.823736 0.823736 0.823736 0.823736 0.823736 0.823736 0.823736 0.823736 0.938122 0.936924 0.938599 0.937511 0.934409 0.938962 0.935669 0.939175 0.940256 0.940436 0.941041 0.941813 0.943016 0.944260 0.949790 0.951832 0.951844 0.952094 0.950673 0.952769 0.949729 0.946576 0.938366 0.930621 0.926679 0.924285 0.926127 0.927641 0.925511 0.926101 0.928225 0.928499 0.924958 0.923925 0.922213 0.920942 0.919330 0.918535 0.918985 0.920158 0.920243 0.920305 0.919917 0.919875 0.920182 0.919108 0.918364 0.915459 0.917367 0.920058 0.900293 0.892209 0.886184 0.886659 0.881284 0.887076 0.887091 0.885506 0.884779 0.885218 0.885791 0.881027 0.849797 0.848940 0.842808 0.838854 0.822543 0.812065 0.810774 0.811386 0.811198 0.820069 0.823359 0.823790 0.821924 0.798905 0.785042 0.785166 0.781521 0.785436 0.785929 0.790359 0.789385 0.787959 0.782438 0.775937 0.773371 0.774007 0.762471 0.754619 0.749304 0.746660 0.746245 0.746145 0.748328 0.747123 0.752407 0.758385 0.759473 0.750728 0.744895 0.747787 0.750576 0.746587 0.741336 0.736312 0.729415 0.723753 0.715936 0.711309 0.710835 0.715667 0.714399 0.712317 0.712095 0.707436 0.670129 0.682343 0.690237 0.692636 0.706695 0.709530 0.714058 0.711930 0.704264 0.686251 0.686019 0.678966 0.673410 0.676830 0.656093 0.660271 0.659163 0.652817 0.671687 0.658178 0.651004 0.649514 0.647797 0.655139 0.637737 0.582798 0.578682 0.574055 0.555910 0.549881 0.535717 0.542924 0.520643 0.499673 0.486184 0.494005 0.496942 0.499766 0.510230 0.520280 0.523206 0.513755 0.519585 0.466838 0.469973 0.445377 0.418083 0.408312 0.424881 0.446694 0.434188 0.445825 0.447035 0.457060 0.457034 0.456319 0.407830 0.407270 0.397739 0.404831 0.417303 0.418549 0.379983 0.357817 0.379580 0.372583 0.371148 0.371469 0.315067 0.297827 0.262826 0.282286 0.307972 0.301777 0.298210 0.290405 0.232712 0.267175 0.275265 0.269563 0.278429 0.198674 0.219858 0.233913 0.287520 0.272542 0.210204 0.199900 0.214080 0.213947 0.196591 0.217279 0.209578 0.222381 0.202250 0.207534 0.212122 0.210624 0.187963 0.176167 0.174077 0.168987 0.125498 0.093549 0.098100 0.068570 0.095139 0.065870 0.088728 0.133698 0.149169 0.129971 0.153323 0.153323 0.153323 0.096312 0.096312 0.096312 0.096312 0.096312 0.096312 0.096312 0.096312 0.096312 0.096312 0.159614 0.159614 0.159614 0.159614 0.159614 0.159614 0.159614 0.159614 0.159614 0.159614 0.159614 0.159614 0.159614 0.159614 0.159614 0.159614 0.159614 0.159614
0.000000 0.000000 0.000000 0.000000 0.000000 0.000000 0.000000 0.000000 0.000000 0.000000 0.000000 0.000000 0.000000 0.000000 0.000000 0.000000 0.000000 0.000000 0.000000 0.000000 0.000000 9401.000000 0.000000 0.000000 0.000000 0.000000 0.000000 0.000000 0.000000 0.000000 0.000000 0.000000 0.000000 0.000000 0.000000 0.000000 0.000000 0.000000 0.000000 0.000000 0.000000 0.000000 0.000000 0.000000 0.000000 0.000000 0.000000 0.000000 0.000000 0.000000 0.000000 0.000000 0.173422 0.173422 0.173422 0.173422 0.173422 0.173422 0.173422 0.189832 0.189832 0.189832 0.189832 0.189832 0.189832 0.189832 0.189832 0.189832 0.189832 0.189832 0.189832 0.189832 0.189832 0.189832 0.189832 0.189832 0.189832 0.189832 0.189832 0.189832 0.189832 0.189832 0.189832 0.189832 0.189832 0.189832 0.189832 0.189832 0.189832 0.189832 0.189832 0.189832 0.189832 0.189832 0.189832 0.189832 0.189832 0.189832 0.189832 0.189832 0.189832 0.189832 0.189832 0.189832 0.222222 0.222222 0.222222 0.222222 0.222222 0.222222 0.222222 0.222222 0.222222 0.222222 0.222222 0.222222 0.222222 0.222222 0.222222 0.222222 0.222222 0.222222 0.222222 0.222222 0.222222 0.222222 0.222222 0.222222 0.222222 0.222222 0.222222 0.222222 0.222222 0.222222 0.234082 0.234082 0.234082 0.234082 0.234082 0.234082 0.234082 0.234082 0.234082 0.234082 0.234082 0.234082 0.234082 0.234082 0.234082 0.234082 0.234082 0.234082 0.234082 0.234082 0.234082 0.234082 0.234082 0.234082 0.234082 0.244339 0.244339 0.244339 0.244339 0.244339 0.244339 0.244339 0.244339 0.244339 0.244339 0.244339 0.244339 0.244339 0.244339 0.244339 0.244339 0.244339 0.244339 0.244339 0.244339 0.244339 0.248069 0.248069 0.248069 0.248069 0.248069 0.248069 0.248069 0.248069 0.248069 0.248069 0.248069 0.248069 0.248069 0.248069 0.248069 0.248069 0.248069 0.248069 0.248069 0.248069 0.248069 0.248069 0.248069 0.248069 0.248069 0.248069 0.248069 0.248069 0.248069 0.248069 0.248069 0.248069 0.248069 0.248069 0.248069 0.248069 0.248069 0.256074 0.256074 0.256074 0.256074 0.256074 0.256074 0.256074 0.256074 0.256074 0.256074 0.256074 0.256074 0.256074 0.256074 0.256074 0.256074 0.256074 0.256074 0.256074 0.256074 0.256074 0.256074 0.256074 0.256074 0.256074 0.256074 0.256074 0.256074 0.256074 0.256074 0.256074 0.256074 0.256074 0.256074 0.256074 0.256074 0.256074 0.256074 0.256074 0.256074 0.256074 0.256074 0.256074 0.256074 0.256074 0.251976 0.251976 0.251976 0.251976 0.251976 0.251976 0.251976 0.251976 0.251976 0.251976 0.251976 0.251976 0.251976 0.251976 0.264906 0.264906 0.264906 0.264906 0.264906 0.264906 0.264906 0.264906 0.264906 0.264906 0.264906 0.264906 0.248069 0.248069 0.248069 0.248069 0.248069 0.248069 0.248069 0.248069 0.248069 0.248069 0.248069 0.248069 0.248069 0.264906 0.264906 0.264906 0.264906 0.264906 0.264906 0.264906 0.264906 0.264906 0.264906 0.264906 0.248069 0.248069 0.248069 0.248069 0.248069 0.248069 0.248069 0.248069 0.248069 0.248069 0.248069 0.248069 0.251976 0.251976 0.251976 0.251976 0.251976 0.251976 0.251976 0.251976 0.251976 0.251976 0.251976 0.260378 0.260378 0.260378 0.260378 0.260378 0.260378 0.260378 0.260378 0.260378 0.260378 0.244339 0.244339 0.244339 0.244339 0.244339 0.244339 0.244339 0.244339 0.244339 0.244339 0.244339 0.244339 0.244339 0.244339 0.244339 0.244339 0.244339 0.244339
