# Output from CTFFind version 4.1.9, run on 2019-11-03 18:51:24
# Input file: stack8_ub_averaged_250.mrc ; Number of micrographs: 1
# Pixel size: 3.000 Angstroms ; acceleration voltage: 300.0 keV ; spherical aberration: 0.00 mm ; amplitude contrast: 0.07
# Box size: 512 pixels ; min. res.: 30.0 Angstroms ; max. res.: 5.0 Angstroms ; min. def.: 5000.0 um; max. def. 50000.0 um; num. frames averaged: 1
# 6 lines per micrograph: #1 - spatial frequency (1/Angstroms); #2 - 1D rotational average of spectrum (assuming no astigmatism); #3 - 1D rotational average of spectrum; #4 - CTF fit; #5 - cross-correlation between spectrum and CTF fit; #6 - 2sigma of expected cross correlation of noise
0.000000 0.000651 0.001302 0.001953 0.002604 0.003255 0.003906 0.004557 0.005208 0.005859 0.006510 0.007161 0.007812 0.008464 0.009115 0.009766 0.010417 0.011068 0.011719 0.012370 0.013021 0.013672 0.014323 0.014974 0.015625 0.016276 0.016927 0.017578 0.018229 0.018880 0.019531 0.020182 0.020833 0.021484 0.022135 0.022786 0.023438 0.024089 0.024740 0.025391 0.026042 0.026693 0.027344 0.027995 0.028646 0.029297 0.029948 0.030599 0.031250 0.031901 0.032552 0.033203 0.033854 0.034505 0.035156 0.035807 0.036458 0.037109 0.037760 0.038411 0.039062 0.039714 0.040365 0.041016 0.041667 0.042318 0.042969 0.043620 0.044271 0.044922 0.045573 0.046224 0.046875 0.047526 0.048177 0.048828 0.049479 0.050130 0.050781 0.051432 0.052083 0.052734 0.053385 0.054036 0.054688 0.055339 0.055990 0.056641 0.057292 0.057943 0.058594 0.059245 0.059896 0.060547 0.061198 0.061849 0.062500 0.063151 0.063802 0.064453 0.065104 0.065755 0.066406 0.067057 0.067708 0.068359 0.069010 0.069661 0.070312 0.070964 0.071615 0.072266 0.072917 0.073568 0.074219 0.074870 0.075521 0.076172 0.076823 0.077474 0.078125 0.078776 0.079427 0.080078 0.080729 0.081380 0.082031 0.082682 0.083333 0.083984 0.084635 0.085286 0.085938 0.086589 0.087240 0.087891 0.088542 0.089193 0.089844 0.090495 0.091146 0.091797 0.092448 0.093099 0.093750 0.094401 0.095052 0.095703 0.096354 0.097005 0.097656 0.098307 0.098958 0.099609 0.100260 0.100911 0.101562 0.102214 0.102865 0.103516 0.104167 0.104818 0.105469 0.106120 0.106771 0.107422 0.108073 0.108724 0.109375 0.110026 0.110677 0.111328 0.111979 0.112630 0.113281 0.113932 0.114583 0.115234 0.115885 0.116536 0.117188 0.117839 0.118490 0.119141 0.119792 0.120443 0.121094 0.121745 0.122396 0.123047 0.123698 0.124349 0.125000 0.125651 0.126302 0.126953 0.127604 0.128255 0.128906 0.129557 0.130208 0.130859 0.131510 0.132161 0.132812 0.133464 0.134115 0.134766 0.135417 0.136068 0.136719 0.137370 0.138021 0.138672 0.139323 0.139974 0.140625 0.141276 0.141927 0.142578 0.143229 0.143880 0.144531 0.145182 0.145833 0.146484 0.147135 0.147786 0.148438 0.149089 0.149740 0.150391 0.151042 0.151693 0.152344 0.152995 0.153646 0.154297 0.154948 0.155599 0.156250 0.156901 0.157552 0.158203 0.158854 0.159505 0.160156 0.160807 0.161458 0.162109 0.162760 0.163411 0.164062 0.164714 0.165365 0.166016 0.166667 0.167318 0.167969 0.168620 0.169271 0.169922 0.170573 0.171224 0.171875 0.172526 0.173177 0.173828 0.174479 0.175130 0.175781 0.176432 0.177083 0.177734 0.178385 0.179036 0.179688 0.180339 0.180990 0.181641 0.182292 0.182943 0.183594 0.184245 0.184896 0.185547 0.186198 0.186849 0.187500 0.188151 0.188802 0.189453 0.190104 0.190755 0.191406 0.192057 0.192708 0.193359 0.194010 0.194661 0.195312 0.195964 0.196615 0.197266 0.197917 0.198568 0.199219 0.199870 0.200521 0.201172 0.201823 0.202474 0.203125 0.203776 0.204427 0.205078 0.205729 0.206380 0.207031 0.207682 0.208333 0.208984 0.209635 0.210286 0.210938 0.211589 0.212240 0.212891 0.213542 0.214193 0.214844 0.215495 0.216146 0.216797 0.217448 0.218099 0.218750 0.219401 0.220052 0.220703 0.221354 0.222005 0.222656 0.223307 0.223958 0.224609 0.225260 0.225911 0.226562 0.227214 0.227865 0.228516 0.229167 0.229818 0.230469 0.231120 0.231771 0.232422 0.233073 0.233724 0.234375 0.235026 0.235677
       0.33466        0.33466        0.33466        0.33466        0.33466        0.33466        0.33466        0.33466        0.33466        0.33466        0.33466        0.33466        0.33466        0.33466        0.33466        0.33466        0.33466        0.33466        0.33466        0.33466        0.33466        0.33466        0.33466        0.33466        0.33466        0.33466        0.33466        0.33466        0.33466        0.33466        0.33466        0.33466        0.33466        0.33466        0.33466        0.33466        0.33466        0.33466        0.33466        0.33466        0.33466        0.33466        0.33466        0.33466        0.33466        0.33466        0.33466        0.33466        0.33466        0.33466        0.33466        0.72784        0.89602        0.73303        0.37320        0.15879        0.07430        0.01646        0.06358        0.17996        0.19767        0.24958        0.36013        0.22009        0.09801        0.16074        0.08097       -0.24515       -0.04185        0.05596       -0.08535       -0.05063       -0.03061       -0.04909       -0.17166       -0.19225       -0.23237       -0.32589       -0.27795       -0.33364       -0.41027       -0.39208       -0.42533       -0.41812       -0.38268       -0.42712       -0.38761       -0.30800       -0.22711       -0.11496        0.01369        0.02426        0.04306        0.15283        0.26585        0.30583        0.35501        0.46717        0.60481        0.52346        0.62402        0.79804        0.75053        0.61831        0.67019        0.78034        0.75527        0.67492        0.63000        0.64602        0.50233        0.56251        0.48407        0.44981        0.27713        0.14687        0.03449        0.01994        0.02370       -0.04660       -0.08149       -0.10024        0.03818        0.08589        0.09199        0.16677        0.21482        0.32139        0.44922        0.50232        0.49718        0.62227        0.69220        0.76296        0.78250        0.73191        0.66680        0.54724        0.56220        0.54619        0.44716        0.31992        0.31074        0.18432        0.09322        0.12078        0.12294        0.13833        0.08759        0.08755        0.17874        0.23280        0.28251        0.35710        0.39376        0.39651        0.41573        0.48743        0.58559        0.58455        0.54004        0.51794        0.50609        0.41660        0.42630        0.30552        0.28019        0.24988        0.19334        0.16254        0.19718        0.14168        0.17036        0.23674        0.29364        0.28911        0.36246        0.47165        0.45635        0.46054        0.55028        0.55973        0.47583        0.51801        0.42243        0.36556        0.34167        0.31439        0.26041        0.21360        0.20473        0.22737        0.27986        0.27023        0.31040        0.36180        0.37359        0.42542        0.42655        0.44532        0.50044        0.42816        0.36810        0.41513        0.31118        0.29656        0.29277        0.29165        0.27297        0.27827        0.20514        0.24328        0.28944        0.28262        0.36611        0.38539        0.39751        0.44057        0.41555        0.39755        0.37711        0.32370        0.30866        0.28072        0.25931        0.23034        0.28897        0.29337        0.32843        0.31172        0.33647        0.37549        0.39215        0.36846        0.35858        0.39160        0.40278        0.37725        0.31267        0.31996        0.27305        0.26137        0.27934        0.28457        0.29274        0.34291        0.34761        0.28517        0.31468        0.33403        0.32344        0.31874        0.35769        0.29198        0.28758        0.26513        0.23715        0.25841        0.28263        0.29074        0.28868        0.35666        0.37416        0.33686        0.32878        0.31576        0.33218        0.32407        0.32925        0.29993        0.30668        0.32750        0.26579        0.32831        0.33030        0.38071        0.37140        0.31004        0.33781        0.33256        0.29106        0.30390        0.21428        0.28350        0.27015        0.29634        0.32878        0.32796        0.36938        0.32187        0.34570        0.31885        0.26722        0.34547        0.32816        0.30449        0.31691        0.29731        0.25026        0.25733        0.33802        0.35598        0.33341        0.26742        0.30158        0.27954        0.31574        0.27863        0.27566        0.29579        0.35686        0.35100        0.25747        0.22976        0.29245        0.30763        0.30697        0.30259        0.28846        0.29249        0.32186        0.31225        0.24965        0.30120        0.34485        0.32909        0.24098        0.29615        0.28130        0.26980        0.21799        0.20466        0.23277        0.21760        0.26722        0.24333        0.29997        0.28415        0.22551        0.25134        0.23280        0.20140        0.16370        0.22039        0.17347        0.29951        0.34859        0.23343        0.25525        0.18298        0.18470        0.27824        0.27886        0.20247        0.25742        0.36809        0.23333        0.12887        0.27692        0.25857       -0.07702       -0.26743       -0.43100
2.529499 2.505733 2.482085 2.458554 2.435141 2.411844 2.388665 2.365603 2.342658 2.319831 2.297120 2.274527 2.252051 2.229693 2.207452 2.185327 2.163320 2.141431 2.119658 2.098003 2.076465 2.055044 2.033741 2.012555 1.991486 1.970534 1.949699 1.928982 1.908382 1.887899 1.867533 1.847284 1.827153 1.807139 1.787242 1.767463 1.747801 1.728256 1.708828 1.689517 1.670324 1.651248 1.632289 1.613447 1.594722 1.576115 1.557625 1.539252 1.520997 1.502859 1.484838 1.892021 2.168342 1.922819 1.462095 1.289774 1.065404 0.952377 1.033976 1.148034 1.084524 1.215745 1.265013 1.225138 0.899819 1.031026 0.939488 0.457426 0.648041 0.892217 0.660593 0.594881 0.661178 0.636593 0.520986 0.399364 0.365369 0.236675 0.273735 0.174381 0.175362 0.021576 0.057675 0.038268 0.029063 -0.003633 -0.018357 0.054075 0.208137 0.264573 0.465449 0.412357 0.476495 0.548491 0.701123 0.767596 0.793625 0.845701 1.086599 1.049721 1.045330 1.112802 1.382382 1.093891 0.971247 1.171826 1.253747 1.091469 0.994476 1.031926 0.850245 0.894474 0.771866 0.753979 0.633563 0.353320 0.172068 0.199994 0.140232 0.101336 -0.015105 -0.005217 0.049393 0.189360 0.155798 0.229313 0.279526 0.372556 0.582917 0.592712 0.595432 0.706538 0.827151 0.883168 0.978128 0.826003 0.827054 0.623929 0.628199 0.659824 0.552078 0.353873 0.312988 0.150318 0.076998 0.022476 0.054631 0.010776 0.051884 -0.081555 0.062858 0.117138 0.188668 0.238195 0.310826 0.302579 0.359443 0.334858 0.461889 0.553667 0.512714 0.446095 0.493465 0.313497 0.363671 0.238947 0.103158 0.128702 0.052262 0.005002 -0.040077 -0.015306 -0.077603 0.060738 0.048595 0.125427 0.162606 0.203666 0.408435 0.244723 0.382062 0.503953 0.365525 0.376371 0.283334 0.256743 0.170376 0.149703 0.087151 0.025230 0.021015 -0.073302 0.069102 0.051620 0.068051 0.169805 0.137859 0.229222 0.243922 0.216619 0.323038 0.339566 0.191715 0.193743 0.205285 0.091184 0.091323 0.065880 0.093185 0.067576 0.028029 -0.024264 0.030957 0.094665 0.082495 0.187184 0.188879 0.215533 0.279381 0.201631 0.216740 0.121830 0.076925 0.108587 0.040689 0.004334 -0.036286 0.099047 0.056829 0.101395 0.072172 0.108435 0.179681 0.155279 0.164293 0.131539 0.165076 0.187365 0.120459 0.017688 0.077401 -0.013750 0.010739 0.018316 0.031085 0.055176 0.100579 0.085441 -0.013937 0.074660 0.101938 0.082082 0.088544 0.115935 0.013952 0.061940 -0.022751 -0.008638 -0.011999 0.026885 0.023357 0.041812 0.163496 0.093775 0.099534 -0.011269 0.077396 0.039258 0.039074 0.057362 0.004990 -0.001344 0.057239 -0.059668 0.060084 0.060192 0.125153 0.067643 0.025263 0.087254 0.004670 -0.002068 0.031534 -0.118143 -0.002125 -0.035709 0.003485 0.066085 0.018516 0.125319 0.036345 0.053612 -0.020526 -0.023382 0.070460 -0.029734 0.030004 0.031292 -0.045480 -0.057417 -0.060792 0.048494 0.068122 0.061065 -0.069580 -0.018525 0.021365 0.040532 -0.016348 -0.040064 0.049403 0.064881 0.100422 -0.047447 -0.028758 0.045366 0.056911 0.051562 0.079056 0.053066 0.045781 0.065449 0.090810 -0.005766 0.089711 0.173083 0.060338 0.035997 0.089348 -0.000153 0.063384 -0.066580 -0.029531 -0.009684 -0.059158 0.056206 -0.024435 0.061368 0.070573 -0.037975 0.028939 -0.033829 -0.071458 -0.123383 -0.026493 -0.098537 0.095548 0.100713 0.247970 0.334058 0.183195 0.243712 0.353779 0.382732 0.254306 0.304232 0.457706 0.238732 0.077446 0.331974 0.400937 -0.093542 -0.532951
0.072396 0.072823 0.074103 0.076237 0.079224 0.083062 0.087753 0.093293 0.099682 0.106919 0.114999 0.123922 0.133683 0.144277 0.155701 0.167948 0.181011 0.194881 0.209550 0.225005 0.241235 0.258225 0.275958 0.294415 0.313577 0.333418 0.353913 0.375034 0.396747 0.419018 0.441807 0.465073 0.488768 0.512844 0.537244 0.561912 0.586782 0.611788 0.636858 0.661913 0.686871 0.711646 0.736146 0.760274 0.783927 0.806999 0.829379 0.850952 0.871597 0.891190 0.909603 0.926706 0.942365 0.956443 0.968803 0.979305 0.987811 0.994181 0.998276 0.999963 0.999107 0.995580 0.989260 0.980030 0.967780 0.952413 0.933837 0.911977 0.886768 0.858161 0.826122 0.790638 0.751712 0.709368 0.663654 0.614640 0.562420 0.507114 0.448871 0.387865 0.324299 0.258405 0.190445 0.120709 0.049517 0.022784 0.095818 0.169183 0.242451 0.315172 0.386875 0.457070 0.525253 0.590907 0.653508 0.712526 0.767434 0.817711 0.862846 0.902345 0.935736 0.962577 0.982461 0.995021 0.999937 0.996945 0.985840 0.966483 0.938806 0.902820 0.858616 0.806369 0.746346 0.678902 0.604488 0.523644 0.437005 0.345297 0.249329 0.149996 0.048266 0.054823 0.158175 0.260644 0.361049 0.458184 0.550836 0.637798 0.717887 0.789961 0.852936 0.905806 0.947661 0.977704 0.995270 0.999841 0.991063 0.968759 0.932938 0.883812 0.821793 0.747505 0.661778 0.565652 0.460362 0.347333 0.228166 0.104613 0.021438 0.147994 0.272986 0.394303 0.509820 0.617453 0.715179 0.801091 0.873432 0.930639 0.971376 0.994578 0.999477 0.985634 0.952962 0.901740 0.832630 0.746673 0.645284 0.530244 0.403671 0.267991 0.125899 0.019695 0.165714 0.308984 0.446296 0.574485 0.690504 0.791494 0.874872 0.938393 0.980222 0.999000 0.993888 0.964614 0.911501 0.835481 0.738092 0.621467 0.488294 0.341769 0.185525 0.023556 0.139886 0.300394 0.453529 0.594941 0.720498 0.826412 0.909360 0.966606 0.996095 0.996541 0.967496 0.909390 0.823550 0.712188 0.578366 0.425923 0.259384 0.083831 0.095236 0.272072 0.440870 0.595947 0.731949 0.844038 0.928076 0.980799 0.999949 0.984396 0.934210 0.850699 0.736399 0.595025 0.431365 0.251138 0.060815 0.132617 0.321889 0.499738 0.659177 0.793785 0.897976 0.967245 0.998387 0.989663 0.940917 0.853627 0.730897 0.577369 0.399083 0.203247 0.002024 0.208049 0.405925 0.586925 0.742891 0.866604 0.952148 0.995210 0.993322 0.946032 0.854978 0.723870 0.558375 0.365900 0.155289 0.063575 0.280207 0.484034 0.664903 0.813605 0.922358 0.985247 0.998567 0.961075 0.874122 0.741652 0.570060 0.367919 0.145588 0.085309 0.312465 0.523556 0.706899 0.852133 0.950813 0.996937 0.987352 0.921999 0.804000 0.639548 0.437645 0.209620 0.031453 0.271511 0.496290 0.692200 0.847153 0.951332 0.997856 0.983275 0.907861 0.775686 0.594462 0.375130 0.131239 0.121851 0.367930 0.590975 0.776194 0.911041 0.986098 0.995774 0.938778 0.818299 0.641898 0.421082 0.170611 0.092459 0.349926 0.583674 0.776983 0.915732 0.989485 0.992318 0.923356 0.786943 0.592446 0.353668 0.087919 0.185206 0.445248 0.672424 0.849143 0.961414 1.000000 0.961236 0.847441 0.666858 0.433134 0.164347 0.118355 0.392383 0.635503 0.827678 0.952734 0.999786 0.964253 0.848365 0.661121 0.417671 0.138151 0.153936 0.433662 0.676799 0.861957 0.972489 0.998059 0.935689 0.790159 0.573750 0.305279 0.008527 0.289813 0.562532 0.784393 0.934497 0.998320 0.969192 0.849077 0.648555 0.385988
1.000000 1.000000 1.000000 1.000000 1.000000 1.000000 1.000000 1.000000 1.000000 1.000000 1.000000 1.000000 1.000000 1.000000 1.000000 1.000000 1.000000 1.000000 1.000000 1.000000 1.000000 1.000000 1.000000 1.000000 1.000000 1.000000 1.000000 1.000000 1.000000 1.000000 1.000000 1.000000 1.000000 1.000000 1.000000 1.000000 1.000000 1.000000 1.000000 1.000000 1.000000 1.000000 1.000000 1.000000 1.000000 1.000000 1.000000 1.000000 1.000000 1.000000 1.000000 1.000000 0.832075 0.832075 0.832075 0.832075 0.832075 0.832075 0.832075 0.832075 0.806913 0.806913 0.806913 0.806913 0.806913 0.806913 0.806913 0.806913 0.806913 0.806913 0.806913 0.806913 0.806913 0.806913 0.806913 0.806913 0.806913 0.806913 0.806913 0.806913 0.806913 0.806913 0.806913 0.806913 0.806913 0.806913 0.806913 0.806913 0.806913 0.806913 0.806913 0.806913 0.806913 0.806913 0.806913 0.806913 0.806913 0.806913 0.806913 0.806913 0.806913 0.806913 0.806913 0.806913 0.806913 0.956444 0.956722 0.957609 0.956513 0.958636 0.958987 0.958979 0.959267 0.959568 0.959412 0.959433 0.959599 0.960115 0.961328 0.961991 0.962836 0.962804 0.966311 0.965136 0.964090 0.963675 0.960485 0.958254 0.957149 0.957043 0.957538 0.958865 0.960116 0.959095 0.958327 0.958734 0.959800 0.958310 0.956834 0.956059 0.955231 0.956889 0.955801 0.955262 0.955146 0.955479 0.955690 0.956758 0.957267 0.957498 0.957618 0.957694 0.957845 0.959383 0.960191 0.961480 0.958534 0.956313 0.954641 0.951565 0.954934 0.953132 0.953030 0.952729 0.953001 0.952517 0.952667 0.952900 0.941606 0.933678 0.930117 0.917551 0.913228 0.911378 0.911459 0.910747 0.913232 0.911459 0.908208 0.905342 0.899609 0.895368 0.904114 0.899986 0.894656 0.891728 0.894574 0.895060 0.895230 0.889135 0.880423 0.878497 0.876719 0.877432 0.881154 0.868992 0.868508 0.867827 0.863954 0.860881 0.863983 0.861510 0.862428 0.855277 0.853313 0.845972 0.849145 0.840498 0.840446 0.847671 0.851028 0.855617 0.854657 0.850968 0.847847 0.841196 0.787826 0.781235 0.778512 0.781179 0.778900 0.769046 0.755139 0.758656 0.750602 0.751143 0.772742 0.781434 0.790717 0.792594 0.783955 0.773332 0.768182 0.770233 0.775134 0.748516 0.755314 0.755831 0.752348 0.737928 0.733833 0.722068 0.694011 0.684347 0.684002 0.691420 0.694405 0.698765 0.693631 0.690837 0.684287 0.678402 0.670108 0.685937 0.664719 0.663097 0.653584 0.632569 0.643642 0.647708 0.649835 0.658894 0.646543 0.635396 0.617400 0.580414 0.536735 0.537936 0.518424 0.484981 0.492366 0.509699 0.523027 0.464549 0.437614 0.422754 0.403632 0.410645 0.409405 0.468028 0.452187 0.444251 0.450642 0.412418 0.372914 0.357519 0.349129 0.315977 0.284455 0.267722 0.275369 0.283695 0.269583 0.261310 0.232705 0.255652 0.271774 0.288143 0.294212 0.312337 0.303127 0.273395 0.317105 0.320398 0.336850 0.318033 0.328842 0.337416 0.315134 0.303659 0.304940 0.307863 0.334738 0.335107 0.333182 0.357863 0.315777 0.324635 0.302328 0.305394 0.293908 0.256605 0.246606 0.239779 0.229474 0.220952 0.196337 0.197222 0.209670 0.232872 0.216746 0.239460 0.241282 0.241282 0.241282 0.241282 0.241282 0.241282 0.220171 0.220171 0.220171 0.220171 0.220171 0.220171 0.220171 0.220171 0.220171 0.220171 0.202402 0.202402 0.202402 0.202402 0.202402 0.202402 0.202402 0.202402 0.202402 0.202402 0.202402 0.202402 0.202402 0.202402 0.202402
0.000000 0.000000 0.000000 0.000000 0.000000 0.000000 0.000000 0.000000 0.000000 0.000000 0.000000 0.000000 0.000000 0.000000 0.000000 0.000000 0.000000 0.000000 0.000000 0.000000 0.000000 0.000000 0.000000 0.000000 0.000000 0.000000 0.000000 0.000000 0.000000 0.000000 0.000000 0.000000 0.000000 0.000000 0.000000 0.000000 0.000000 0.000000 0.000000 0.000000 0.000000 0.000000 0.000000 0.000000 0.000000 0.000000 0.000000 0.000000 0.000000 0.000000 0.000000 0.000000 0.172133 0.172133 0.172133 0.172133 0.172133 0.172133 0.172133 0.172133 0.189832 0.189832 0.189832 0.189832 0.189832 0.189832 0.189832 0.189832 0.189832 0.189832 0.189832 0.189832 0.189832 0.189832 0.189832 0.189832 0.189832 0.189832 0.189832 0.189832 0.189832 0.189832 0.189832 0.189832 0.189832 0.189832 0.189832 0.189832 0.189832 0.189832 0.189832 0.189832 0.189832 0.189832 0.189832 0.189832 0.189832 0.189832 0.189832 0.189832 0.189832 0.189832 0.189832 0.189832 0.189832 0.222222 0.222222 0.222222 0.222222 0.222222 0.222222 0.222222 0.222222 0.222222 0.222222 0.222222 0.222222 0.222222 0.222222 0.222222 0.222222 0.222222 0.222222 0.222222 0.222222 0.222222 0.222222 0.222222 0.222222 0.222222 0.222222 0.222222 0.222222 0.222222 0.222222 0.234082 0.234082 0.234082 0.234082 0.234082 0.234082 0.234082 0.234082 0.234082 0.234082 0.234082 0.234082 0.234082 0.234082 0.234082 0.234082 0.234082 0.234082 0.234082 0.234082 0.234082 0.234082 0.234082 0.234082 0.234082 0.240772 0.240772 0.240772 0.240772 0.240772 0.240772 0.240772 0.240772 0.240772 0.240772 0.240772 0.240772 0.240772 0.240772 0.240772 0.240772 0.240772 0.240772 0.240772 0.240772 0.240772 0.240772 0.248069 0.248069 0.248069 0.248069 0.248069 0.248069 0.248069 0.248069 0.248069 0.248069 0.248069 0.248069 0.248069 0.248069 0.248069 0.248069 0.248069 0.248069 0.248069 0.248069 0.248069 0.248069 0.248069 0.248069 0.248069 0.248069 0.248069 0.248069 0.248069 0.248069 0.248069 0.248069 0.248069 0.248069 0.248069 0.248069 0.248069 0.256074 0.256074 0.256074 0.256074 0.256074 0.256074 0.256074 0.256074 0.256074 0.256074 0.256074 0.256074 0.256074 0.256074 0.256074 0.256074 0.256074 0.256074 0.256074 0.256074 0.256074 0.256074 0.256074 0.256074 0.256074 0.256074 0.256074 0.256074 0.256074 0.256074 0.256074 0.256074 0.256074 0.256074 0.256074 0.256074 0.256074 0.256074 0.256074 0.256074 0.256074 0.256074 0.256074 0.256074 0.256074 0.251976 0.251976 0.251976 0.251976 0.251976 0.251976 0.251976 0.251976 0.251976 0.251976 0.251976 0.251976 0.251976 0.251976 0.256074 0.256074 0.256074 0.256074 0.256074 0.256074 0.256074 0.256074 0.256074 0.256074 0.256074 0.256074 0.256074 0.260378 0.260378 0.260378 0.260378 0.260378 0.260378 0.260378 0.260378 0.260378 0.260378 0.260378 0.260378 0.251976 0.251976 0.251976 0.251976 0.251976 0.251976 0.251976 0.251976 0.251976 0.251976 0.251976 0.251976 0.248069 0.248069 0.248069 0.248069 0.248069 0.248069 0.248069 0.248069 0.248069 0.248069 0.248069 0.248069 0.251976 0.251976 0.251976 0.251976 0.251976 0.251976 0.251976 0.251976 0.251976 0.251976 0.251976 0.260378 0.260378 0.260378 0.260378 0.260378 0.260378 0.260378 0.260378 0.260378 0.260378 0.244339 0.244339 0.244339 0.244339 0.244339 0.244339 0.244339 0.244339 0.244339 0.244339 0.244339 0.244339 0.244339 0.244339 0.244339
