# Output from CTFFind version 4.1.9, run on 2019-11-03 18:51:21
# Input file: stack12_ub_averaged_250.mrc ; Number of micrographs: 1
# Pixel size: 3.000 Angstroms ; acceleration voltage: 300.0 keV ; spherical aberration: 0.00 mm ; amplitude contrast: 0.07
# Box size: 512 pixels ; min. res.: 30.0 Angstroms ; max. res.: 5.0 Angstroms ; min. def.: 5000.0 um; max. def. 50000.0 um; num. frames averaged: 1
# 6 lines per micrograph: #1 - spatial frequency (1/Angstroms); #2 - 1D rotational average of spectrum (assuming no astigmatism); #3 - 1D rotational average of spectrum; #4 - CTF fit; #5 - cross-correlation between spectrum and CTF fit; #6 - 2sigma of expected cross correlation of noise
0.000000 0.000651 0.001302 0.001953 0.002604 0.003255 0.003906 0.004557 0.005208 0.005859 0.006510 0.007161 0.007812 0.008464 0.009115 0.009766 0.010417 0.011068 0.011719 0.012370 0.013021 0.013672 0.014323 0.014974 0.015625 0.016276 0.016927 0.017578 0.018229 0.018880 0.019531 0.020182 0.020833 0.021484 0.022135 0.022786 0.023438 0.024089 0.024740 0.025391 0.026042 0.026693 0.027344 0.027995 0.028646 0.029297 0.029948 0.030599 0.031250 0.031901 0.032552 0.033203 0.033854 0.034505 0.035156 0.035807 0.036458 0.037109 0.037760 0.038411 0.039062 0.039714 0.040365 0.041016 0.041667 0.042318 0.042969 0.043620 0.044271 0.044922 0.045573 0.046224 0.046875 0.047526 0.048177 0.048828 0.049479 0.050130 0.050781 0.051432 0.052083 0.052734 0.053385 0.054036 0.054688 0.055339 0.055990 0.056641 0.057292 0.057943 0.058594 0.059245 0.059896 0.060547 0.061198 0.061849 0.062500 0.063151 0.063802 0.064453 0.065104 0.065755 0.066406 0.067057 0.067708 0.068359 0.069010 0.069661 0.070312 0.070964 0.071615 0.072266 0.072917 0.073568 0.074219 0.074870 0.075521 0.076172 0.076823 0.077474 0.078125 0.078776 0.079427 0.080078 0.080729 0.081380 0.082031 0.082682 0.083333 0.083984 0.084635 0.085286 0.085938 0.086589 0.087240 0.087891 0.088542 0.089193 0.089844 0.090495 0.091146 0.091797 0.092448 0.093099 0.093750 0.094401 0.095052 0.095703 0.096354 0.097005 0.097656 0.098307 0.098958 0.099609 0.100260 0.100911 0.101562 0.102214 0.102865 0.103516 0.104167 0.104818 0.105469 0.106120 0.106771 0.107422 0.108073 0.108724 0.109375 0.110026 0.110677 0.111328 0.111979 0.112630 0.113281 0.113932 0.114583 0.115234 0.115885 0.116536 0.117188 0.117839 0.118490 0.119141 0.119792 0.120443 0.121094 0.121745 0.122396 0.123047 0.123698 0.124349 0.125000 0.125651 0.126302 0.126953 0.127604 0.128255 0.128906 0.129557 0.130208 0.130859 0.131510 0.132161 0.132812 0.133464 0.134115 0.134766 0.135417 0.136068 0.136719 0.137370 0.138021 0.138672 0.139323 0.139974 0.140625 0.141276 0.141927 0.142578 0.143229 0.143880 0.144531 0.145182 0.145833 0.146484 0.147135 0.147786 0.148438 0.149089 0.149740 0.150391 0.151042 0.151693 0.152344 0.152995 0.153646 0.154297 0.154948 0.155599 0.156250 0.156901 0.157552 0.158203 0.158854 0.159505 0.160156 0.160807 0.161458 0.162109 0.162760 0.163411 0.164062 0.164714 0.165365 0.166016 0.166667 0.167318 0.167969 0.168620 0.169271 0.169922 0.170573 0.171224 0.171875 0.172526 0.173177 0.173828 0.174479 0.175130 0.175781 0.176432 0.177083 0.177734 0.178385 0.179036 0.179688 0.180339 0.180990 0.181641 0.182292 0.182943 0.183594 0.184245 0.184896 0.185547 0.186198 0.186849 0.187500 0.188151 0.188802 0.189453 0.190104 0.190755 0.191406 0.192057 0.192708 0.193359 0.194010 0.194661 0.195312 0.195964 0.196615 0.197266 0.197917 0.198568 0.199219 0.199870 0.200521 0.201172 0.201823 0.202474 0.203125 0.203776 0.204427 0.205078 0.205729 0.206380 0.207031 0.207682 0.208333 0.208984 0.209635 0.210286 0.210938 0.211589 0.212240 0.212891 0.213542 0.214193 0.214844 0.215495 0.216146 0.216797 0.217448 0.218099 0.218750 0.219401 0.220052 0.220703 0.221354 0.222005 0.222656 0.223307 0.223958 0.224609 0.225260 0.225911 0.226562 0.227214 0.227865 0.228516 0.229167 0.229818 0.230469 0.231120 0.231771 0.232422 0.233073 0.233724 0.234375 0.235026 0.235677
       0.33659        0.33659        0.33659        0.33659        0.33659        0.33659        0.33659        0.33659        0.33659        0.33659        0.33659        0.33659        0.33659        0.33659        0.33659        0.33659        0.33659        0.33659        0.33659        0.33659        0.33659        0.33659        0.33659        0.33659        0.33659        0.33659        0.33659        0.33659        0.33659        0.33659        0.33659        0.33659        0.33659        0.33659        0.33659        0.33659        0.33659        0.33659        0.33659        0.33659        0.33659        0.33659        0.33659        0.33659        0.33659        0.33659        0.33659        0.33659        0.33659        0.33659        0.33659        0.63586        0.67159        0.30117        0.20777       -0.02184       -0.24492       -0.30902       -0.27021       -0.09860       -0.30626       -0.14822       -0.17263       -0.23274       -0.25765       -0.42411       -0.52303       -0.61365       -0.62955       -0.56325       -0.53207       -0.49582       -0.52866       -0.54993       -0.62459       -0.60090       -0.50669       -0.48297       -0.37142       -0.32751       -0.29762       -0.13630       -0.10103       -0.02025        0.09086        0.19567        0.19444        0.46792        0.54104        0.49901        0.58775        0.60034        0.64556        0.75766        0.72469        0.71627        0.70897        0.65780        0.61616        0.50149        0.43051        0.29118        0.11769        0.03070        0.07990        0.09710       -0.05177        0.02064       -0.02418       -0.02098        0.06893        0.03825        0.17144        0.29285        0.36885        0.41682        0.44690        0.66129        0.66010        0.65186        0.68046        0.67270        0.66570        0.58000        0.63803        0.54438        0.44993        0.36604        0.27164        0.18486        0.02528        0.08999        0.03963        0.07679        0.09123        0.15619        0.29223        0.27645        0.43149        0.49964        0.53688        0.58314        0.57345        0.63556        0.61684        0.53658        0.48184        0.49838        0.33185        0.25238        0.15879        0.11425        0.11001        0.09310        0.13168        0.16456        0.20706        0.29212        0.39293        0.46707        0.53962        0.51514        0.49667        0.52445        0.45481        0.43401        0.41353        0.35826        0.27027        0.20834        0.19910        0.17580        0.17474        0.28401        0.32277        0.38812        0.39340        0.42578        0.50114        0.51333        0.50523        0.53399        0.41035        0.37557        0.37158        0.32156        0.25513        0.21137        0.21836        0.26941        0.34649        0.39453        0.38790        0.47496        0.42255        0.46549        0.44392        0.40130        0.33845        0.28270        0.31045        0.27587        0.27373        0.23429        0.24754        0.34459        0.39974        0.38412        0.38436        0.40012        0.36025        0.38876        0.41320        0.33953        0.33701        0.26864        0.24173        0.25954        0.29693        0.30040        0.34252        0.38494        0.38723        0.36423        0.37691        0.35346        0.33305        0.28450        0.27449        0.25445        0.29508        0.31716        0.33811        0.31757        0.36823        0.41235        0.39545        0.35884        0.32056        0.31890        0.31534        0.28981        0.27388        0.28297        0.31272        0.33368        0.36624        0.34813        0.35786        0.35760        0.33519        0.30734        0.27758        0.26637        0.26376        0.29793        0.26582        0.33885        0.36442        0.35576        0.36962        0.33624        0.33064        0.29095        0.30117        0.31099        0.27879        0.30189        0.29802        0.33492        0.35884        0.32101        0.30541        0.29089        0.31613        0.26413        0.26886        0.30516        0.31251        0.29273        0.32080        0.32810        0.30290        0.31446        0.30616        0.30693        0.27459        0.27674        0.30218        0.35053        0.35542        0.34761        0.35964        0.36276        0.30791        0.25251        0.23710        0.27662        0.26708        0.33252        0.35932        0.30958        0.31284        0.31262        0.31098        0.31051        0.28136        0.27890        0.30641        0.30941        0.35375        0.30683        0.31927        0.26821        0.26116        0.25930        0.29689        0.34726        0.32900        0.28547        0.32470        0.28646        0.30494        0.30688        0.22328        0.28828        0.29128        0.31600        0.37202        0.24595        0.30067        0.25149        0.21995        0.28670        0.24026        0.28888        0.22675        0.19792        0.27530        0.25137        0.27046        0.31514        0.21882        0.27684        0.26197        0.24779        0.26426        0.28117        0.22980        0.24756        0.24785        0.19258        0.21615        0.21190        0.17904        0.21683        0.29771        0.22264        0.23211        0.15403        0.15211       -0.03322       -0.35349
2.408397 2.383047 2.357838 2.332769 2.307842 2.283056 2.258410 2.233906 2.209542 2.185320 2.161238 2.137297 2.113498 2.089839 2.066321 2.042944 2.019708 1.996612 1.973658 1.950845 1.928172 1.905641 1.883251 1.861001 1.838892 1.816925 1.795098 1.773412 1.751867 1.730463 1.709200 1.688078 1.667097 1.646257 1.625557 1.604999 1.584581 1.564305 1.544169 1.524175 1.504321 1.484608 1.465036 1.445605 1.426315 1.407166 1.388158 1.369291 1.350565 1.331979 1.313535 1.452994 1.859566 1.328674 1.141556 0.871243 0.545916 0.510243 0.449071 0.813710 0.371827 0.633664 0.546770 0.391197 0.516140 0.250859 0.153029 0.027079 -0.096154 0.047844 0.022179 0.083409 -0.021697 -0.011331 -0.121891 -0.071961 -0.051385 -0.031458 0.084799 0.139246 0.090669 0.244577 0.366925 0.386939 0.441149 0.564165 0.605233 0.834222 0.923581 0.847456 0.981967 0.953676 0.976034 0.990717 1.131331 0.940435 1.083181 0.976027 0.925833 0.744064 0.732218 0.545838 0.355448 0.193590 0.262900 0.244929 0.136781 0.132176 0.124947 0.078931 0.162758 0.164474 0.135711 0.411340 0.396490 0.544310 0.476289 0.675698 0.739228 0.742890 0.740279 0.703732 0.758032 0.635802 0.616322 0.589123 0.505290 0.315638 0.307326 0.182943 -0.013500 -0.000729 -0.043775 0.021729 0.001472 0.004199 0.158048 0.190845 0.307470 0.347632 0.456108 0.479515 0.440928 0.530762 0.539425 0.449192 0.354066 0.409895 0.293541 0.090051 0.053611 -0.023991 -0.103795 -0.023338 -0.145001 0.027829 -0.037334 0.091274 0.155945 0.304064 0.290110 0.400814 0.384344 0.370496 0.344881 0.330245 0.260027 0.231494 0.154743 0.068659 0.033231 0.001230 0.007070 0.037856 0.147800 0.174136 0.256156 0.189363 0.310927 0.322663 0.358365 0.327049 0.312578 0.162977 0.170169 0.159001 0.083793 0.010682 -0.015234 0.007818 0.093671 0.177037 0.137152 0.236048 0.253850 0.223474 0.273536 0.194090 0.166224 0.076941 0.077532 0.075037 0.039848 0.022587 0.022245 0.026023 0.180512 0.173828 0.136617 0.182375 0.099846 0.142243 0.167756 0.137864 0.089985 0.064530 -0.011695 -0.016468 0.020437 0.047687 0.077603 0.081092 0.151539 0.112072 0.135349 0.094320 0.090955 0.058008 0.013600 -0.011013 -0.009992 0.032101 0.081644 0.074152 0.031308 0.140145 0.160988 0.127510 0.047149 0.066856 0.041890 0.022380 0.028757 -0.010127 0.034981 0.043138 0.075894 0.109788 0.072819 0.067352 0.103897 0.051620 0.009653 0.015544 -0.018773 -0.027197 0.024103 -0.011924 0.104946 0.073133 0.143669 0.086790 0.064253 0.039955 0.028881 0.057121 0.005987 0.014968 0.037650 0.048646 0.087976 0.110899 0.086791 0.012365 0.062594 0.081508 0.001552 0.027317 0.062474 0.053106 0.066537 0.083426 0.091538 0.037963 0.109364 0.039375 0.091259 0.002667 0.030345 0.101797 0.110115 0.107901 0.104975 0.112989 0.117599 0.073141 -0.001028 -0.026395 0.066531 0.006547 0.109549 0.090271 0.124049 0.077321 0.070465 0.089586 0.064574 0.023609 0.057894 0.077843 0.061022 0.139782 0.046587 0.054807 0.022244 0.017805 0.011851 0.049957 0.102096 0.101543 0.071876 0.051601 0.072261 0.059512 0.100433 -0.037986 0.081551 0.022540 0.085023 0.129984 -0.026654 0.136398 -0.019783 0.008760 0.043293 0.013059 0.075076 -0.001625 -0.018348 0.069726 0.002361 0.069433 0.138006 -0.049132 0.054824 0.073865 0.029594 0.090808 0.108026 0.047193 -0.013705 0.069630 0.016810 0.020106 0.038999 -0.032905 0.226075 0.427841 0.227882 0.253928 0.145735 0.162740 -0.379861
0.072396 0.072928 0.074524 0.077183 0.080905 0.085689 0.091534 0.098436 0.106395 0.115407 0.125468 0.136573 0.148715 0.161888 0.176083 0.191288 0.207491 0.224677 0.242829 0.261925 0.281943 0.302856 0.324634 0.347241 0.370639 0.394785 0.419629 0.445119 0.471194 0.497789 0.524832 0.552245 0.579943 0.607834 0.635818 0.663788 0.691630 0.719222 0.746434 0.773128 0.799160 0.824378 0.848621 0.871725 0.893517 0.913819 0.932448 0.949216 0.963934 0.976408 0.986444 0.993849 0.998431 1.000000 0.998373 0.993373 0.984831 0.972590 0.956507 0.936451 0.912314 0.884004 0.851453 0.814621 0.773493 0.728086 0.678450 0.624670 0.566869 0.505209 0.439895 0.371174 0.299336 0.224718 0.147702 0.068714 0.011775 0.093249 0.175153 0.256892 0.337835 0.417318 0.494654 0.569130 0.640020 0.706591 0.768107 0.823843 0.873089 0.915164 0.949423 0.975270 0.992167 0.999647 0.997324 0.984902 0.962189 0.929104 0.885686 0.832104 0.768660 0.695798 0.614105 0.524310 0.427288 0.324053 0.215753 0.103663 0.010831 0.126241 0.240997 0.353466 0.461976 0.564837 0.660375 0.746952 0.823005 0.887071 0.937825 0.974105 0.994945 0.999609 0.987610 0.958740 0.913085 0.851044 0.773337 0.681008 0.575424 0.458262 0.331496 0.197367 0.058355 0.082867 0.223477 0.360556 0.491154 0.612353 0.721328 0.815428 0.892242 0.949667 0.985976 0.999877 0.990571 0.957790 0.901834 0.823589 0.724533 0.606727 0.472787 0.325838 0.169457 0.007593 0.155527 0.315497 0.467860 0.608224 0.732401 0.836535 0.917235 0.971695 0.997809 0.994265 0.960620 0.897354 0.805893 0.688603 0.548754 0.390447 0.218518 0.038397 0.144046 0.322692 0.491369 0.644077 0.775205 0.879747 0.953513 0.993316 0.997128 0.964207 0.895171 0.792028 0.658156 0.498219 0.318031 0.124372 0.075260 0.272914 0.460518 0.630194 0.774608 0.887298 0.962988 0.997861 0.989774 0.938423 0.845417 0.714274 0.550331 0.360560 0.153301 0.062078 0.275597 0.477117 0.656823 0.805721 0.916103 0.981982 0.999443 0.966918 0.885343 0.758193 0.591387 0.393053 0.173177 0.056876 0.284932 0.498641 0.686156 0.836804 0.941723 0.994417 0.991207 0.931527 0.818058 0.656673 0.456183 0.227918 0.014890 0.257842 0.486214 0.685857 0.844096 0.950562 0.997919 0.982422 0.904266 0.767689 0.580816 0.355235 0.105338 0.152565 0.401294 0.623929 0.804990 0.931540 0.994158 0.987707 0.911810 0.771020 0.574619 0.336102 0.072276 0.197846 0.454423 0.678236 0.852140 0.962433 0.999998 0.961121 0.847929 0.668383 0.435804 0.167962 0.114222 0.388288 0.632006 0.825212 0.951500 0.999708 0.964965 0.849274 0.661519 0.416877 0.135683 0.158197 0.439376 0.683104 0.867511 0.975595 0.996888 0.928557 0.775856 0.551840 0.276352 0.025638 0.326259 0.597286 0.812805 0.951740 1.000000 0.952007 0.811445 0.591123 0.311918 0.000908 0.311208 0.593099 0.815971 0.956565 0.999667 0.939876 0.782389 0.542704 0.245221 0.079142 0.396101 0.671604 0.875536 0.985071 0.987339 0.881073 0.677004 0.396937 0.071542 0.262909 0.568554 0.810214 0.959539 0.998406 0.921276 0.736110 0.463726 0.135605 0.209653 0.530787 0.788831 0.951890 0.999198 0.923904 0.734219 0.452713 0.113784 0.240436 0.565240 0.819019 0.968652 0.993950 0.890554 0.670823 0.362554 0.005628 0.353038 0.665622 0.889800 0.994571 0.964708 0.803143 0.530935 0.184728 0.188056 0.535608 0.808937 0.968845 0.991694 0.873093 0.628896 0.293309 0.085723 0.453253 0.755262
1.000000 1.000000 1.000000 1.000000 1.000000 1.000000 1.000000 1.000000 1.000000 1.000000 1.000000 1.000000 1.000000 1.000000 1.000000 1.000000 1.000000 1.000000 1.000000 1.000000 1.000000 1.000000 1.000000 1.000000 1.000000 1.000000 1.000000 1.000000 1.000000 1.000000 1.000000 1.000000 1.000000 1.000000 1.000000 1.000000 1.000000 1.000000 1.000000 1.000000 1.000000 1.000000 1.000000 1.000000 1.000000 1.000000 1.000000 1.000000 1.000000 1.000000 1.000000 1.000000 0.918898 0.918898 0.907538 0.907538 0.907538 0.907538 0.907538 0.907538 0.907538 0.907538 0.907538 0.907538 0.907538 0.907538 0.907538 0.907538 0.907538 0.907538 0.907538 0.907538 0.907538 0.907538 0.907538 0.907538 0.907538 0.907538 0.907538 0.907538 0.907538 0.907538 0.907538 0.907538 0.907538 0.907538 0.907538 0.907538 0.907538 0.907538 0.907538 0.907538 0.907538 0.907538 0.887461 0.891026 0.894618 0.890192 0.891184 0.890844 0.889868 0.890490 0.890671 0.892232 0.909260 0.932803 0.934354 0.936350 0.941377 0.941519 0.943750 0.942334 0.940958 0.958015 0.956088 0.953563 0.954368 0.948069 0.949570 0.947486 0.946886 0.949443 0.947098 0.945901 0.944986 0.944046 0.942654 0.942174 0.942029 0.943613 0.943724 0.943823 0.943718 0.943532 0.943292 0.943234 0.943699 0.948112 0.950915 0.952148 0.953930 0.951894 0.952538 0.949270 0.957739 0.957577 0.957034 0.957038 0.957353 0.956007 0.956122 0.955735 0.955387 0.946008 0.943256 0.942875 0.943647 0.946184 0.949005 0.948230 0.947399 0.948436 0.940209 0.953535 0.944364 0.943336 0.942119 0.941518 0.942606 0.938287 0.932643 0.912845 0.904839 0.903888 0.906112 0.910097 0.910059 0.900786 0.900488 0.900652 0.890733 0.889115 0.890898 0.890095 0.896378 0.894245 0.895245 0.894984 0.901060 0.904551 0.904366 0.902187 0.899318 0.894571 0.894904 0.894398 0.894860 0.897288 0.893746 0.888284 0.887116 0.889533 0.897762 0.903995 0.907589 0.900772 0.899837 0.882686 0.880902 0.881084 0.868267 0.865059 0.866377 0.868211 0.866055 0.870523 0.867910 0.860793 0.855694 0.856391 0.859230 0.862468 0.859652 0.857747 0.853844 0.850083 0.853132 0.858466 0.868560 0.857299 0.852613 0.841983 0.838901 0.831282 0.829022 0.826902 0.827911 0.829244 0.824194 0.828017 0.829058 0.826126 0.816107 0.817847 0.815461 0.810832 0.782915 0.781956 0.761040 0.757010 0.762833 0.755634 0.746229 0.743669 0.744129 0.748963 0.747318 0.720103 0.710260 0.720261 0.670218 0.666931 0.680088 0.688064 0.705105 0.697514 0.685161 0.685197 0.712497 0.700704 0.698448 0.696370 0.680079 0.679260 0.678753 0.676850 0.684502 0.673073 0.669687 0.666353 0.661164 0.664120 0.658751 0.650432 0.637994 0.629818 0.632914 0.633805 0.637828 0.637237 0.649004 0.639581 0.645989 0.625977 0.627222 0.631519 0.650715 0.657277 0.617598 0.632196 0.624560 0.625337 0.558430 0.563102 0.566646 0.574061 0.564876 0.554801 0.531328 0.507722 0.511015 0.492385 0.497947 0.496172 0.463174 0.514867 0.486089 0.478938 0.476830 0.483983 0.485019 0.482690 0.452388 0.450965 0.445783 0.440135 0.403829 0.349753 0.358084 0.356512 0.383504 0.383002 0.340142 0.349276 0.349276 0.349276 0.349276 0.349276 0.349276 0.355999 0.355999 0.355999 0.355999 0.355999 0.355999 0.355999 0.355999 0.355999 0.315693 0.315693 0.315693 0.315693 0.315693 0.315693 0.315693 0.315693 0.315693 0.315693 0.315693 0.315693 0.315693 0.315693 0.315693
0.000000 0.000000 0.000000 0.000000 0.000000 0.000000 0.000000 0.000000 0.000000 0.000000 0.000000 0.000000 0.000000 0.000000 0.000000 0.000000 0.000000 0.000000 0.000000 0.000000 0.000000 9401.000000 0.000000 0.000000 0.000000 0.000000 0.000000 0.000000 0.000000 0.000000 0.000000 0.000000 0.000000 0.000000 0.000000 0.000000 0.000000 0.000000 0.000000 0.000000 0.000000 0.000000 0.000000 0.000000 0.000000 0.000000 0.000000 0.000000 0.000000 0.000000 0.000000 0.000000 0.181818 0.181818 0.201008 0.201008 0.201008 0.201008 0.201008 0.201008 0.201008 0.201008 0.201008 0.201008 0.201008 0.201008 0.201008 0.201008 0.201008 0.201008 0.201008 0.201008 0.201008 0.201008 0.201008 0.201008 0.201008 0.201008 0.201008 0.201008 0.201008 0.201008 0.201008 0.201008 0.201008 0.201008 0.201008 0.201008 0.201008 0.201008 0.201008 0.201008 0.201008 0.201008 0.234082 0.234082 0.234082 0.234082 0.234082 0.234082 0.234082 0.234082 0.234082 0.234082 0.234082 0.234082 0.234082 0.234082 0.234082 0.234082 0.234082 0.234082 0.234082 0.234082 0.234082 0.234082 0.234082 0.234082 0.234082 0.234082 0.234082 0.244339 0.244339 0.244339 0.244339 0.244339 0.244339 0.244339 0.244339 0.244339 0.244339 0.244339 0.244339 0.244339 0.244339 0.244339 0.244339 0.244339 0.244339 0.244339 0.244339 0.244339 0.244339 0.244339 0.256074 0.256074 0.256074 0.256074 0.256074 0.256074 0.256074 0.256074 0.256074 0.256074 0.256074 0.256074 0.256074 0.256074 0.256074 0.256074 0.256074 0.256074 0.256074 0.264906 0.264906 0.264906 0.264906 0.264906 0.264906 0.264906 0.264906 0.264906 0.264906 0.264906 0.264906 0.264906 0.264906 0.264906 0.264906 0.264906 0.264906 0.264906 0.264906 0.264906 0.264906 0.264906 0.264906 0.264906 0.264906 0.264906 0.264906 0.264906 0.264906 0.264906 0.264906 0.264906 0.269680 0.269680 0.269680 0.269680 0.269680 0.269680 0.269680 0.269680 0.269680 0.269680 0.269680 0.269680 0.269680 0.269680 0.264906 0.264906 0.264906 0.264906 0.264906 0.264906 0.264906 0.264906 0.264906 0.264906 0.264906 0.264906 0.264906 0.264906 0.264906 0.264906 0.264906 0.264906 0.264906 0.264906 0.264906 0.264906 0.264906 0.264906 0.264906 0.264906 0.264906 0.269680 0.269680 0.269680 0.269680 0.269680 0.269680 0.269680 0.269680 0.269680 0.269680 0.269680 0.269680 0.274721 0.274721 0.274721 0.274721 0.274721 0.274721 0.274721 0.274721 0.274721 0.274721 0.274721 0.260378 0.260378 0.260378 0.260378 0.260378 0.260378 0.260378 0.260378 0.260378 0.260378 0.260378 0.260378 0.274721 0.274721 0.274721 0.274721 0.274721 0.274721 0.274721 0.274721 0.274721 0.274721 0.256074 0.256074 0.256074 0.256074 0.256074 0.256074 0.256074 0.256074 0.256074 0.256074 0.256074 0.274721 0.274721 0.274721 0.274721 0.274721 0.274721 0.274721 0.274721 0.274721 0.260378 0.260378 0.260378 0.260378 0.260378 0.260378 0.260378 0.260378 0.260378 0.260378 0.264906 0.264906 0.264906 0.264906 0.264906 0.264906 0.264906 0.264906 0.264906 0.260378 0.260378 0.260378 0.260378 0.260378 0.260378 0.260378 0.260378 0.260378 0.256074 0.256074 0.256074 0.256074 0.256074 0.256074 0.256074 0.256074 0.256074 0.251976 0.251976 0.251976 0.251976 0.251976 0.251976 0.251976 0.251976 0.251976 0.264906 0.264906 0.264906 0.264906 0.264906 0.264906 0.264906 0.264906 0.264906 0.264906 0.264906 0.264906 0.264906 0.264906 0.264906
