# Output from CTFFind version 4.1.9, run on 2019-11-03 18:51:54
# Input file: stack5_ub_averaged_1500.mrc ; Number of micrographs: 1
# Pixel size: 3.000 Angstroms ; acceleration voltage: 300.0 keV ; spherical aberration: 0.00 mm ; amplitude contrast: 0.07
# Box size: 512 pixels ; min. res.: 30.0 Angstroms ; max. res.: 5.0 Angstroms ; min. def.: 5000.0 um; max. def. 50000.0 um; num. frames averaged: 1
# 6 lines per micrograph: #1 - spatial frequency (1/Angstroms); #2 - 1D rotational average of spectrum (assuming no astigmatism); #3 - 1D rotational average of spectrum; #4 - CTF fit; #5 - cross-correlation between spectrum and CTF fit; #6 - 2sigma of expected cross correlation of noise
0.000000 0.000651 0.001302 0.001953 0.002604 0.003255 0.003906 0.004557 0.005208 0.005859 0.006510 0.007161 0.007812 0.008464 0.009115 0.009766 0.010417 0.011068 0.011719 0.012370 0.013021 0.013672 0.014323 0.014974 0.015625 0.016276 0.016927 0.017578 0.018229 0.018880 0.019531 0.020182 0.020833 0.021484 0.022135 0.022786 0.023438 0.024089 0.024740 0.025391 0.026042 0.026693 0.027344 0.027995 0.028646 0.029297 0.029948 0.030599 0.031250 0.031901 0.032552 0.033203 0.033854 0.034505 0.035156 0.035807 0.036458 0.037109 0.037760 0.038411 0.039062 0.039714 0.040365 0.041016 0.041667 0.042318 0.042969 0.043620 0.044271 0.044922 0.045573 0.046224 0.046875 0.047526 0.048177 0.048828 0.049479 0.050130 0.050781 0.051432 0.052083 0.052734 0.053385 0.054036 0.054688 0.055339 0.055990 0.056641 0.057292 0.057943 0.058594 0.059245 0.059896 0.060547 0.061198 0.061849 0.062500 0.063151 0.063802 0.064453 0.065104 0.065755 0.066406 0.067057 0.067708 0.068359 0.069010 0.069661 0.070312 0.070964 0.071615 0.072266 0.072917 0.073568 0.074219 0.074870 0.075521 0.076172 0.076823 0.077474 0.078125 0.078776 0.079427 0.080078 0.080729 0.081380 0.082031 0.082682 0.083333 0.083984 0.084635 0.085286 0.085938 0.086589 0.087240 0.087891 0.088542 0.089193 0.089844 0.090495 0.091146 0.091797 0.092448 0.093099 0.093750 0.094401 0.095052 0.095703 0.096354 0.097005 0.097656 0.098307 0.098958 0.099609 0.100260 0.100911 0.101562 0.102214 0.102865 0.103516 0.104167 0.104818 0.105469 0.106120 0.106771 0.107422 0.108073 0.108724 0.109375 0.110026 0.110677 0.111328 0.111979 0.112630 0.113281 0.113932 0.114583 0.115234 0.115885 0.116536 0.117188 0.117839 0.118490 0.119141 0.119792 0.120443 0.121094 0.121745 0.122396 0.123047 0.123698 0.124349 0.125000 0.125651 0.126302 0.126953 0.127604 0.128255 0.128906 0.129557 0.130208 0.130859 0.131510 0.132161 0.132812 0.133464 0.134115 0.134766 0.135417 0.136068 0.136719 0.137370 0.138021 0.138672 0.139323 0.139974 0.140625 0.141276 0.141927 0.142578 0.143229 0.143880 0.144531 0.145182 0.145833 0.146484 0.147135 0.147786 0.148438 0.149089 0.149740 0.150391 0.151042 0.151693 0.152344 0.152995 0.153646 0.154297 0.154948 0.155599 0.156250 0.156901 0.157552 0.158203 0.158854 0.159505 0.160156 0.160807 0.161458 0.162109 0.162760 0.163411 0.164062 0.164714 0.165365 0.166016 0.166667 0.167318 0.167969 0.168620 0.169271 0.169922 0.170573 0.171224 0.171875 0.172526 0.173177 0.173828 0.174479 0.175130 0.175781 0.176432 0.177083 0.177734 0.178385 0.179036 0.179688 0.180339 0.180990 0.181641 0.182292 0.182943 0.183594 0.184245 0.184896 0.185547 0.186198 0.186849 0.187500 0.188151 0.188802 0.189453 0.190104 0.190755 0.191406 0.192057 0.192708 0.193359 0.194010 0.194661 0.195312 0.195964 0.196615 0.197266 0.197917 0.198568 0.199219 0.199870 0.200521 0.201172 0.201823 0.202474 0.203125 0.203776 0.204427 0.205078 0.205729 0.206380 0.207031 0.207682 0.208333 0.208984 0.209635 0.210286 0.210938 0.211589 0.212240 0.212891 0.213542 0.214193 0.214844 0.215495 0.216146 0.216797 0.217448 0.218099 0.218750 0.219401 0.220052 0.220703 0.221354 0.222005 0.222656 0.223307 0.223958 0.224609 0.225260 0.225911 0.226562 0.227214 0.227865 0.228516 0.229167 0.229818 0.230469 0.231120 0.231771 0.232422 0.233073 0.233724 0.234375 0.235026 0.235677
       0.35397        0.35397        0.35397        0.35397        0.35397        0.35397        0.35397        0.35397        0.35397        0.35397        0.35397        0.35397        0.35397        0.35397        0.35397        0.35397        0.35397        0.35397        0.35397        0.35397        0.35397        0.35397        0.35397        0.35397        0.35397        0.35397        0.35397        0.35397        0.35397        0.35397        0.35397        0.35397        0.35397        0.35397        0.35397        0.35397        0.35397        0.35397        0.35397        0.35397        0.35397        0.35397        0.35397        0.35397        0.35397        0.35397        0.35397        0.35397        0.35397        0.35397        0.35397        0.53529        0.89440        0.66653        0.19037        0.21580        0.03531        0.07874       -0.01821        0.04310        0.17866        0.43934        0.45268        0.23971        0.26699        0.05935        0.00560       -0.02583       -0.13064       -0.13502       -0.10721        0.03305       -0.08717       -0.06000       -0.11411       -0.20410       -0.20091       -0.31095       -0.25956       -0.26800       -0.22807       -0.26311       -0.25821       -0.30078       -0.37434       -0.29925       -0.24695       -0.12913       -0.10242       -0.00732        0.12779        0.17115        0.10234        0.28435        0.43513        0.35669        0.48990        0.65211        0.57465        0.59010        0.67433        0.59175        0.69297        0.71197        0.76117        0.62980        0.63105        0.68495        0.66856        0.50123        0.48858        0.50777        0.38295        0.29203        0.18444        0.14058        0.09491        0.02612        0.13342        0.06632        0.08485        0.07370        0.13905        0.10848        0.20440        0.26819        0.34923        0.38618        0.46544        0.56589        0.57997        0.67764        0.72789        0.63518        0.62834        0.68409        0.58112        0.48305        0.49325        0.40771        0.38121        0.32150        0.24222        0.19395        0.16445        0.16903        0.07025        0.15600        0.17603        0.14360        0.16363        0.29143        0.40407        0.42348        0.45391        0.47514        0.51717        0.59165        0.54297        0.57516        0.56187        0.49314        0.42685        0.35429        0.38564        0.29865        0.22404        0.27208        0.28472        0.23033        0.18948        0.27019        0.29719        0.31828        0.38014        0.42220        0.47303        0.47546        0.52439        0.54302        0.44569        0.42186        0.41686        0.45833        0.40444        0.28737        0.31243        0.28156        0.29355        0.29851        0.32726        0.30580        0.29904        0.35028        0.32770        0.38328        0.44675        0.47284        0.40240        0.37445        0.44108        0.42467        0.35824        0.34594        0.32699        0.34912        0.35045        0.33111        0.26691        0.33110        0.37523        0.32686        0.34384        0.41563        0.44390        0.43485        0.45352        0.39909        0.39254        0.36518        0.30340        0.29979        0.24794        0.26168        0.31699        0.30333        0.34710        0.33862        0.34823        0.36565        0.36988        0.37837        0.40684        0.40609        0.37646        0.36127        0.33848        0.33275        0.30590        0.34327        0.30587        0.30093        0.31183        0.35133        0.36694        0.38627        0.40889        0.37706        0.37199        0.34167        0.31612        0.28869        0.30209        0.28869        0.31149        0.30026        0.31914        0.31854        0.34477        0.31649        0.35406        0.33713        0.38928        0.34473        0.34443        0.29795        0.32400        0.28964        0.29674        0.28736        0.29829        0.32335        0.32148        0.32228        0.31083        0.32279        0.33466        0.37413        0.30606        0.32435        0.29171        0.33224        0.31267        0.33022        0.32795        0.33474        0.33827        0.32934        0.34996        0.37378        0.34255        0.31757        0.31117        0.34077        0.29745        0.34897        0.30723        0.32936        0.37288        0.40962        0.35297        0.38692        0.34219        0.33168        0.31125        0.33915        0.31625        0.31698        0.34280        0.29711        0.28618        0.32214        0.35300        0.30401        0.31419        0.34903        0.35107        0.26646        0.29436        0.35375        0.30021        0.22262        0.32453        0.31480        0.25368        0.27600        0.26993        0.30716        0.27368        0.23781        0.20809        0.26656        0.26920        0.25810        0.32408        0.40206        0.32983        0.27731        0.27922        0.27040        0.29832        0.25709        0.23976        0.25467        0.23394        0.27131        0.24821        0.26640        0.26380        0.27989        0.27183        0.29400        0.26636        0.18695        0.23313        0.22189        0.25671        0.21429        0.19164        0.08512        0.17402       -0.42520       -0.80157
3.001172 2.971681 2.942338 2.913142 2.884093 2.855193 2.826440 2.797834 2.769376 2.741065 2.712902 2.684887 2.657019 2.629299 2.601726 2.574300 2.547022 2.519892 2.492909 2.466074 2.439386 2.412846 2.386454 2.360208 2.334111 2.308161 2.282358 2.256703 2.231196 2.205836 2.180623 2.155559 2.130641 2.105871 2.081249 2.056774 2.032447 2.008268 1.984235 1.960351 1.936614 1.913024 1.889582 1.866288 1.843141 1.820141 1.797289 1.774585 1.752028 1.729619 1.707357 1.785431 2.547111 2.300212 1.316472 1.333049 1.176139 1.291160 0.970224 0.939200 1.167878 1.662464 1.527993 1.397515 1.197667 0.988790 0.830219 0.761806 0.585686 0.603843 0.535128 0.808714 0.624908 0.598938 0.507542 0.344128 0.302009 0.189118 0.192838 0.194199 0.196661 0.093354 0.173394 0.054039 -0.058117 0.032150 0.000115 0.219526 0.263361 0.330096 0.577211 0.658693 0.491492 0.708636 0.922186 0.925355 0.943692 1.302919 1.188676 1.070087 1.332931 1.192690 1.127633 1.244865 1.436474 1.100621 1.037494 1.205395 1.243391 0.852428 0.876366 0.870340 0.739759 0.511364 0.398966 0.247743 0.249130 -0.045734 0.182089 0.153088 0.105576 0.025360 0.213261 0.056673 0.184904 0.247636 0.489774 0.437530 0.500801 0.772387 0.671935 0.858805 0.992538 0.851845 0.694031 0.956607 0.771095 0.501672 0.563352 0.401056 0.448585 0.265449 0.092696 0.130816 -0.072825 0.027613 -0.174314 -0.085532 -0.029733 -0.062202 -0.135192 0.033530 0.277017 0.291752 0.336051 0.335824 0.420464 0.495428 0.515333 0.463137 0.442565 0.470210 0.259982 0.123846 0.260815 0.107005 -0.053242 -0.090702 0.027117 -0.038116 -0.169022 -0.070474 0.017686 -0.018626 0.108566 0.134556 0.268388 0.263863 0.275757 0.378332 0.293456 0.252739 0.150788 0.294639 0.237203 0.061055 0.018161 -0.006900 0.005285 -0.024603 0.095333 0.024985 0.002118 0.005384 0.119759 0.039877 0.158533 0.287099 0.190713 0.053675 0.209686 0.145671 0.139385 0.015788 -0.004633 0.066840 0.048583 0.032451 -0.062813 -0.067559 0.066675 0.050431 -0.050489 0.082273 0.137660 0.210948 0.137919 0.203528 0.100514 0.090878 0.013102 -0.054393 -0.051913 -0.168855 -0.020297 -0.031014 -0.006813 0.025026 0.053265 0.047595 0.107734 0.063418 0.124042 0.126499 0.157085 0.090966 0.048401 0.081868 -0.001711 0.045370 0.023405 0.045837 -0.054727 0.051864 0.073108 0.117212 0.152063 0.166895 0.106071 0.103364 0.030906 -0.005633 -0.008574 0.005113 -0.015331 0.034170 -0.022851 0.031221 0.046106 0.032793 0.030128 0.091993 0.066826 0.182084 -0.013952 0.080603 -0.011516 0.056884 -0.047015 0.016015 -0.038471 -0.013127 0.045474 0.039400 0.005654 0.027818 0.003486 0.080855 0.084531 -0.024303 0.007968 -0.044039 0.027206 0.036930 -0.010550 0.051797 0.010151 0.041296 0.040194 0.068540 0.082453 -0.007331 0.020639 -0.019814 0.066905 -0.068176 0.066319 -0.037430 0.011315 0.103294 0.200850 0.048769 0.110777 -0.004638 0.043038 -0.010770 0.028574 0.046836 -0.056812 0.079904 -0.062191 -0.030972 0.123086 0.073054 0.014798 0.024408 0.122209 0.058886 -0.049149 0.090189 0.089508 0.022090 -0.139819 0.090080 0.016996 -0.091226 -0.013985 0.012764 0.067796 -0.035557 -0.060326 -0.089829 0.058635 0.008729 -0.031831 0.090461 0.266203 0.071111 0.076561 0.088895 -0.004755 0.106918 0.045057 0.063940 0.057056 0.094036 0.103715 0.086424 0.203941 0.146334 0.179042 0.231267 0.173193 0.273500 0.130896 0.318983 0.349443 0.400497 0.334220 0.265286 -0.017863 0.276753 -1.233047
0.072396 0.072830 0.074133 0.076304 0.079342 0.083248 0.088019 0.093656 0.100156 0.107517 0.115737 0.124814 0.134743 0.145520 0.157140 0.169596 0.182881 0.196987 0.211904 0.227619 0.244119 0.261390 0.279413 0.298170 0.317638 0.337793 0.358608 0.380050 0.402088 0.424684 0.447798 0.471383 0.495393 0.519775 0.544470 0.569419 0.594554 0.619804 0.645094 0.670343 0.695464 0.720367 0.744955 0.769128 0.792778 0.815795 0.838062 0.859460 0.879862 0.899142 0.917165 0.933796 0.948898 0.962328 0.973946 0.983607 0.991170 0.996492 0.999431 0.999852 0.997619 0.992603 0.984681 0.973739 0.959669 0.942374 0.921771 0.897786 0.870364 0.839463 0.805060 0.767151 0.725753 0.680906 0.632671 0.581138 0.526420 0.468658 0.408023 0.344713 0.278957 0.211013 0.141171 0.069751 0.002901 0.076406 0.150358 0.224325 0.297852 0.370460 0.441650 0.510908 0.577705 0.641506 0.701768 0.757949 0.809512 0.855931 0.896695 0.931319 0.959341 0.980338 0.993929 0.999780 0.997611 0.987208 0.968418 0.941169 0.905461 0.861384 0.809112 0.748914 0.681150 0.606278 0.524851 0.437520 0.345026 0.248201 0.147963 0.045308 0.058698 0.162929 0.266206 0.367317 0.465024 0.558081 0.645251 0.725322 0.797128 0.859564 0.911608 0.952339 0.980955 0.996793 0.999347 0.988279 0.963437 0.924869 0.872825 0.807771 0.730388 0.641574 0.542438 0.434293 0.318645 0.197174 0.071718 0.055757 0.183183 0.308419 0.429293 0.543632 0.649311 0.744289 0.826651 0.894657 0.946775 0.981728 0.998525 0.996499 0.975330 0.935068 0.876154 0.799418 0.706087 0.597771 0.476446 0.344425 0.204325 0.059017 0.088427 0.234794 0.376802 0.511171 0.634702 0.744356 0.837334 0.911155 0.963729 0.993426 0.999136 0.980315 0.937024 0.869948 0.780405 0.670333 0.542266 0.399284 0.244950 0.083234 0.081587 0.245037 0.402556 0.549636 0.681946 0.795470 0.886634 0.952432 0.990534 0.999382 0.978268 0.927381 0.847837 0.741675 0.611823 0.462039 0.296813 0.121243 0.059107 0.238377 0.410604 0.569924 0.710759 0.828046 0.917409 0.975349 0.999393 0.988216 0.941730 0.861124 0.748863 0.608638 0.445265 0.264541 0.073048 0.122068 0.313360 0.493367 0.654902 0.791354 0.896966 0.967099 0.998452 0.989244 0.939329 0.850259 0.725260 0.569156 0.388196 0.189838 0.017547 0.225022 0.423454 0.603923 0.758131 0.878800 0.960031 0.997618 0.989292 0.934887 0.836402 0.697972 0.525724 0.327541 0.112723 0.108431 0.325106 0.526496 0.702350 0.843510 0.942404 0.993484 0.993567 0.942066 0.841089 0.695400 0.512240 0.300993 0.072742 0.160298 0.385419 0.590114 0.762787 0.893417 0.974177 0.999936 0.968623 0.881423 0.742790 0.560280 0.344162 0.106894 0.137581 0.374641 0.589847 0.769846 0.903214 0.981217 0.998420 0.953113 0.847512 0.687705 0.483368 0.247212 0.005768 0.259209 0.496457 0.701639 0.860751 0.962661 0.999911 0.969326 0.872326 0.714937 0.507482 0.263950 0.001097 0.262672 0.508591 0.718872 0.878004 0.973951 0.999097 0.950919 0.832281 0.651345 0.421077 0.158366 0.117157 0.384593 0.623313 0.814605 0.943155 0.998320 0.975081 0.874557 0.704056 0.476604 0.210041 0.074360 0.353531 0.604492 0.806250 0.941586 0.998591 0.971768 0.862645 0.679782 0.438191 0.158164 0.136363 0.419852 0.667351 0.856723 0.970666 0.998367 0.936595 0.790157 0.571618 0.300309 0.000688 0.299827 0.573345 0.794100 0.940921 0.999324 0.963025 0.834702 0.625906 0.356135 0.051068 0.259802 0.546014
1.000000 1.000000 1.000000 1.000000 1.000000 1.000000 1.000000 1.000000 1.000000 1.000000 1.000000 1.000000 1.000000 1.000000 1.000000 1.000000 1.000000 1.000000 1.000000 1.000000 1.000000 1.000000 1.000000 1.000000 1.000000 1.000000 1.000000 1.000000 1.000000 1.000000 1.000000 1.000000 1.000000 1.000000 1.000000 1.000000 1.000000 1.000000 1.000000 1.000000 1.000000 1.000000 1.000000 1.000000 1.000000 1.000000 1.000000 1.000000 1.000000 1.000000 1.000000 1.000000 0.830302 0.830302 0.830302 0.830302 0.830302 0.830302 0.830302 0.823374 0.823374 0.823374 0.823374 0.823374 0.823374 0.823374 0.823374 0.823374 0.823374 0.823374 0.823374 0.823374 0.823374 0.823374 0.823374 0.823374 0.823374 0.823374 0.823374 0.823374 0.823374 0.823374 0.823374 0.823374 0.823374 0.823374 0.823374 0.823374 0.823374 0.823374 0.823374 0.823374 0.823374 0.823374 0.823374 0.823374 0.823374 0.823374 0.823374 0.823374 0.823374 0.823374 0.823374 0.823374 0.938063 0.936814 0.938531 0.937521 0.934521 0.939047 0.935619 0.939112 0.940206 0.940399 0.941018 0.941800 0.943001 0.944239 0.949731 0.951750 0.951760 0.952004 0.950593 0.952779 0.949674 0.946554 0.938537 0.931024 0.926956 0.924440 0.926301 0.927830 0.925805 0.926376 0.928335 0.928722 0.925300 0.924230 0.922557 0.921692 0.920357 0.919572 0.920036 0.921205 0.921265 0.921351 0.920984 0.920871 0.921160 0.920154 0.919486 0.916747 0.918596 0.921333 0.901976 0.894131 0.887959 0.888291 0.883105 0.889001 0.888817 0.887345 0.886562 0.887008 0.887587 0.883473 0.852097 0.851217 0.846144 0.841921 0.823502 0.811896 0.810659 0.811316 0.810847 0.819800 0.822822 0.823568 0.821334 0.796896 0.783030 0.781815 0.778505 0.782459 0.783803 0.788225 0.787291 0.786157 0.781285 0.775180 0.772715 0.773776 0.761843 0.754703 0.749332 0.746779 0.746355 0.746455 0.748447 0.747487 0.751792 0.757739 0.759114 0.750286 0.744301 0.748035 0.751145 0.747035 0.743184 0.739413 0.732189 0.726555 0.719090 0.714568 0.714185 0.718930 0.716294 0.715866 0.713633 0.708569 0.671999 0.684997 0.693377 0.696200 0.710715 0.716133 0.720017 0.717531 0.709101 0.691224 0.689591 0.682819 0.672085 0.675383 0.660318 0.664878 0.665192 0.661793 0.681403 0.667215 0.660332 0.659869 0.657595 0.665838 0.644781 0.638972 0.619449 0.612988 0.593332 0.585799 0.579253 0.596890 0.576407 0.562881 0.549669 0.560824 0.559090 0.565908 0.574962 0.584313 0.585101 0.579634 0.566367 0.549720 0.540852 0.464317 0.478667 0.467723 0.455581 0.464190 0.487500 0.513049 0.500458 0.504811 0.499727 0.507108 0.493516 0.476861 0.459504 0.451863 0.413811 0.425598 0.455633 0.466806 0.460696 0.437392 0.399014 0.346963 0.340716 0.325924 0.288705 0.310393 0.327055 0.324460 0.320382 0.319619 0.268542 0.294476 0.303619 0.295559 0.299850 0.226562 0.249820 0.266457 0.271432 0.274859 0.212745 0.201607 0.214784 0.208165 0.170608 0.189912 0.227792 0.225066 0.189590 0.193220 0.189235 0.183081 0.155917 0.135939 0.132128 0.133929 0.088283 0.055279 0.057888 0.032240 0.062046 0.032251 0.056672 0.104529 0.121293 0.100386 0.124693 0.124693 0.124693 0.062451 0.062451 0.062451 0.062451 0.062451 0.062451 0.062451 0.062451 0.062451 0.062451 0.133385 0.133385 0.133385 0.133385 0.133385 0.133385 0.133385 0.133385 0.133385 0.133385 0.133385 0.133385 0.133385 0.133385 0.133385 0.133385 0.133385 0.133385
0.000000 0.000000 0.000000 0.000000 0.000000 0.000000 0.000000 0.000000 0.000000 0.000000 0.000000 0.000000 0.000000 0.000000 0.000000 0.000000 0.000000 0.000000 0.000000 0.000000 0.000000 9401.000000 0.000000 0.000000 0.000000 0.000000 0.000000 0.000000 0.000000 0.000000 0.000000 0.000000 0.000000 0.000000 0.000000 0.000000 0.000000 0.000000 0.000000 0.000000 0.000000 0.000000 0.000000 0.000000 0.000000 0.000000 0.000000 0.000000 0.000000 0.000000 0.000000 0.000000 0.173422 0.173422 0.173422 0.173422 0.173422 0.173422 0.173422 0.189832 0.189832 0.189832 0.189832 0.189832 0.189832 0.189832 0.189832 0.189832 0.189832 0.189832 0.189832 0.189832 0.189832 0.189832 0.189832 0.189832 0.189832 0.189832 0.189832 0.189832 0.189832 0.189832 0.189832 0.189832 0.189832 0.189832 0.189832 0.189832 0.189832 0.189832 0.189832 0.189832 0.189832 0.189832 0.189832 0.189832 0.189832 0.189832 0.189832 0.189832 0.189832 0.189832 0.189832 0.189832 0.222222 0.222222 0.222222 0.222222 0.222222 0.222222 0.222222 0.222222 0.222222 0.222222 0.222222 0.222222 0.222222 0.222222 0.222222 0.222222 0.222222 0.222222 0.222222 0.222222 0.222222 0.222222 0.222222 0.222222 0.222222 0.222222 0.222222 0.222222 0.222222 0.222222 0.234082 0.234082 0.234082 0.234082 0.234082 0.234082 0.234082 0.234082 0.234082 0.234082 0.234082 0.234082 0.234082 0.234082 0.234082 0.234082 0.234082 0.234082 0.234082 0.234082 0.234082 0.234082 0.234082 0.234082 0.234082 0.244339 0.244339 0.244339 0.244339 0.244339 0.244339 0.244339 0.244339 0.244339 0.244339 0.244339 0.244339 0.244339 0.244339 0.244339 0.244339 0.244339 0.244339 0.244339 0.244339 0.244339 0.248069 0.248069 0.248069 0.248069 0.248069 0.248069 0.248069 0.248069 0.248069 0.248069 0.248069 0.248069 0.248069 0.248069 0.248069 0.248069 0.248069 0.248069 0.248069 0.248069 0.248069 0.248069 0.248069 0.248069 0.248069 0.248069 0.248069 0.248069 0.248069 0.248069 0.248069 0.248069 0.248069 0.248069 0.248069 0.248069 0.248069 0.256074 0.256074 0.256074 0.256074 0.256074 0.256074 0.256074 0.256074 0.256074 0.256074 0.256074 0.256074 0.256074 0.256074 0.256074 0.256074 0.256074 0.256074 0.256074 0.256074 0.256074 0.256074 0.256074 0.256074 0.256074 0.256074 0.256074 0.256074 0.256074 0.256074 0.256074 0.256074 0.256074 0.256074 0.256074 0.256074 0.256074 0.256074 0.256074 0.256074 0.256074 0.256074 0.256074 0.256074 0.256074 0.260378 0.260378 0.260378 0.260378 0.260378 0.260378 0.260378 0.260378 0.260378 0.260378 0.260378 0.260378 0.260378 0.256074 0.256074 0.256074 0.256074 0.256074 0.256074 0.256074 0.256074 0.256074 0.256074 0.256074 0.256074 0.256074 0.248069 0.248069 0.248069 0.248069 0.248069 0.248069 0.248069 0.248069 0.248069 0.248069 0.248069 0.248069 0.248069 0.264906 0.264906 0.264906 0.264906 0.264906 0.264906 0.264906 0.264906 0.264906 0.264906 0.264906 0.248069 0.248069 0.248069 0.248069 0.248069 0.248069 0.248069 0.248069 0.248069 0.248069 0.248069 0.248069 0.251976 0.251976 0.251976 0.251976 0.251976 0.251976 0.251976 0.251976 0.251976 0.251976 0.251976 0.260378 0.260378 0.260378 0.260378 0.260378 0.260378 0.260378 0.260378 0.260378 0.260378 0.244339 0.244339 0.244339 0.244339 0.244339 0.244339 0.244339 0.244339 0.244339 0.244339 0.244339 0.244339 0.244339 0.244339 0.244339 0.244339 0.244339 0.244339
