# Output from CTFFind version 4.1.9, run on 2019-11-03 18:51:18
# Input file: stack9_ub_averaged_250.mrc ; Number of micrographs: 1
# Pixel size: 3.000 Angstroms ; acceleration voltage: 300.0 keV ; spherical aberration: 0.00 mm ; amplitude contrast: 0.07
# Box size: 512 pixels ; min. res.: 30.0 Angstroms ; max. res.: 5.0 Angstroms ; min. def.: 5000.0 um; max. def. 50000.0 um; num. frames averaged: 1
# 6 lines per micrograph: #1 - spatial frequency (1/Angstroms); #2 - 1D rotational average of spectrum (assuming no astigmatism); #3 - 1D rotational average of spectrum; #4 - CTF fit; #5 - cross-correlation between spectrum and CTF fit; #6 - 2sigma of expected cross correlation of noise
0.000000 0.000651 0.001302 0.001953 0.002604 0.003255 0.003906 0.004557 0.005208 0.005859 0.006510 0.007161 0.007812 0.008464 0.009115 0.009766 0.010417 0.011068 0.011719 0.012370 0.013021 0.013672 0.014323 0.014974 0.015625 0.016276 0.016927 0.017578 0.018229 0.018880 0.019531 0.020182 0.020833 0.021484 0.022135 0.022786 0.023438 0.024089 0.024740 0.025391 0.026042 0.026693 0.027344 0.027995 0.028646 0.029297 0.029948 0.030599 0.031250 0.031901 0.032552 0.033203 0.033854 0.034505 0.035156 0.035807 0.036458 0.037109 0.037760 0.038411 0.039062 0.039714 0.040365 0.041016 0.041667 0.042318 0.042969 0.043620 0.044271 0.044922 0.045573 0.046224 0.046875 0.047526 0.048177 0.048828 0.049479 0.050130 0.050781 0.051432 0.052083 0.052734 0.053385 0.054036 0.054688 0.055339 0.055990 0.056641 0.057292 0.057943 0.058594 0.059245 0.059896 0.060547 0.061198 0.061849 0.062500 0.063151 0.063802 0.064453 0.065104 0.065755 0.066406 0.067057 0.067708 0.068359 0.069010 0.069661 0.070312 0.070964 0.071615 0.072266 0.072917 0.073568 0.074219 0.074870 0.075521 0.076172 0.076823 0.077474 0.078125 0.078776 0.079427 0.080078 0.080729 0.081380 0.082031 0.082682 0.083333 0.083984 0.084635 0.085286 0.085938 0.086589 0.087240 0.087891 0.088542 0.089193 0.089844 0.090495 0.091146 0.091797 0.092448 0.093099 0.093750 0.094401 0.095052 0.095703 0.096354 0.097005 0.097656 0.098307 0.098958 0.099609 0.100260 0.100911 0.101562 0.102214 0.102865 0.103516 0.104167 0.104818 0.105469 0.106120 0.106771 0.107422 0.108073 0.108724 0.109375 0.110026 0.110677 0.111328 0.111979 0.112630 0.113281 0.113932 0.114583 0.115234 0.115885 0.116536 0.117188 0.117839 0.118490 0.119141 0.119792 0.120443 0.121094 0.121745 0.122396 0.123047 0.123698 0.124349 0.125000 0.125651 0.126302 0.126953 0.127604 0.128255 0.128906 0.129557 0.130208 0.130859 0.131510 0.132161 0.132812 0.133464 0.134115 0.134766 0.135417 0.136068 0.136719 0.137370 0.138021 0.138672 0.139323 0.139974 0.140625 0.141276 0.141927 0.142578 0.143229 0.143880 0.144531 0.145182 0.145833 0.146484 0.147135 0.147786 0.148438 0.149089 0.149740 0.150391 0.151042 0.151693 0.152344 0.152995 0.153646 0.154297 0.154948 0.155599 0.156250 0.156901 0.157552 0.158203 0.158854 0.159505 0.160156 0.160807 0.161458 0.162109 0.162760 0.163411 0.164062 0.164714 0.165365 0.166016 0.166667 0.167318 0.167969 0.168620 0.169271 0.169922 0.170573 0.171224 0.171875 0.172526 0.173177 0.173828 0.174479 0.175130 0.175781 0.176432 0.177083 0.177734 0.178385 0.179036 0.179688 0.180339 0.180990 0.181641 0.182292 0.182943 0.183594 0.184245 0.184896 0.185547 0.186198 0.186849 0.187500 0.188151 0.188802 0.189453 0.190104 0.190755 0.191406 0.192057 0.192708 0.193359 0.194010 0.194661 0.195312 0.195964 0.196615 0.197266 0.197917 0.198568 0.199219 0.199870 0.200521 0.201172 0.201823 0.202474 0.203125 0.203776 0.204427 0.205078 0.205729 0.206380 0.207031 0.207682 0.208333 0.208984 0.209635 0.210286 0.210938 0.211589 0.212240 0.212891 0.213542 0.214193 0.214844 0.215495 0.216146 0.216797 0.217448 0.218099 0.218750 0.219401 0.220052 0.220703 0.221354 0.222005 0.222656 0.223307 0.223958 0.224609 0.225260 0.225911 0.226562 0.227214 0.227865 0.228516 0.229167 0.229818 0.230469 0.231120 0.231771 0.232422 0.233073 0.233724 0.234375 0.235026 0.235677
       0.32770        0.32770        0.32770        0.32770        0.32770        0.32770        0.32770        0.32770        0.32770        0.32770        0.32770        0.32770        0.32770        0.32770        0.32770        0.32770        0.32770        0.32770        0.32770        0.32770        0.32770        0.32770        0.32770        0.32770        0.32770        0.32770        0.32770        0.32770        0.32770        0.32770        0.32770        0.32770        0.32770        0.32770        0.32770        0.32770        0.32770        0.32770        0.32770        0.32770        0.32770        0.32770        0.32770        0.32770        0.32770        0.32770        0.32770        0.32770        0.32770        0.32770        0.32770        0.67461        0.97169        0.37218        0.08640       -0.21585       -0.23469       -0.41025       -0.56239       -0.49334       -0.51883       -0.42991       -0.50564       -0.44386       -0.49536       -0.61620       -0.70601       -0.79044       -0.83105       -0.78514       -0.77825       -0.72610       -0.81640       -0.69786       -0.70037       -0.59906       -0.47720       -0.42969       -0.42993       -0.19919       -0.07329       -0.04572        0.10650        0.20657        0.30731        0.45600        0.58025        0.57363        0.62228        0.63246        0.57295        0.62642        0.66380        0.59058        0.47037        0.47043        0.42487        0.39324        0.29805        0.13056        0.11429       -0.01144       -0.00517       -0.06459       -0.07734       -0.01607        0.04504        0.16030        0.14999        0.24449        0.35291        0.49581        0.53318        0.55869        0.72250        0.75671        0.77221        0.68627        0.62048        0.57476        0.44958        0.36979        0.34752        0.20638        0.16928        0.06915       -0.01485        0.00595        0.03470        0.07349        0.19323        0.24368        0.32443        0.39984        0.46768        0.59277        0.65034        0.63353        0.55329        0.63256        0.53615        0.42719        0.40606        0.33779        0.15742        0.16104        0.09692        0.08521        0.06998        0.13799        0.22698        0.34853        0.45569        0.50082        0.53289        0.55794        0.50058        0.56894        0.55049        0.44266        0.35969        0.25221        0.14019        0.16383        0.14466        0.13880        0.20176        0.26362        0.30437        0.37013        0.47365        0.52111        0.52353        0.47524        0.48062        0.42006        0.40955        0.30980        0.23503        0.20637        0.17699        0.18547        0.17481        0.33250        0.40696        0.40236        0.47520        0.45687        0.46213        0.34821        0.34876        0.31678        0.27720        0.27936        0.23672        0.25489        0.31064        0.27287        0.34753        0.42339        0.46354        0.50909        0.43878        0.36684        0.34183        0.27227        0.27900        0.26324        0.24697        0.26435        0.31787        0.34760        0.36109        0.42482        0.40670        0.37664        0.36562        0.33012        0.29314        0.27802        0.24864        0.27706        0.31120        0.33047        0.34215        0.36689        0.39041        0.41313        0.36326        0.32330        0.28185        0.25163        0.27624        0.26386        0.28266        0.28333        0.35046        0.37193        0.36971        0.36094        0.31568        0.31531        0.29583        0.27865        0.30074        0.27436        0.28964        0.32607        0.37208        0.35727        0.34174        0.31398        0.30360        0.27713        0.28171        0.29139        0.28282        0.29291        0.30384        0.32783        0.35510        0.30209        0.26674        0.27983        0.26443        0.27498        0.26297        0.31510        0.31396        0.32572        0.37264        0.33282        0.36030        0.31066        0.27322        0.25660        0.27881        0.29156        0.28727        0.27575        0.29781        0.32226        0.29561        0.30027        0.30157        0.28751        0.31178        0.32530        0.34771        0.35029        0.30816        0.31558        0.30522        0.26724        0.28174        0.31508        0.30367        0.34666        0.36643        0.30778        0.32615        0.28354        0.29021        0.22967        0.24870        0.27633        0.29622        0.30023        0.35202        0.33392        0.27868        0.25563        0.28928        0.27833        0.34967        0.28575        0.30241        0.32969        0.35370        0.29195        0.22060        0.28978        0.29616        0.30706        0.25204        0.26456        0.24349        0.26153        0.23183        0.23090        0.30810        0.21870        0.27739        0.30568        0.22686        0.23299        0.26924        0.29332        0.26248        0.30834        0.25099        0.28751        0.25074        0.26176        0.24399        0.26884        0.25847        0.16035        0.23211        0.21426        0.24056        0.23619        0.22275        0.29907        0.24255        0.28682        0.27569        0.24873        0.15278        0.12221       -0.05430       -0.44544       -0.40044
2.155331 2.132820 2.110434 2.088173 2.066037 2.044026 2.022139 2.000377 1.978740 1.957228 1.935841 1.914578 1.893440 1.872427 1.851539 1.830775 1.810137 1.789623 1.769234 1.748970 1.728830 1.708816 1.688926 1.669161 1.649521 1.630006 1.610615 1.591349 1.572208 1.553192 1.534301 1.515534 1.496893 1.478376 1.459983 1.441716 1.423574 1.405556 1.387663 1.369895 1.352252 1.334733 1.317339 1.300070 1.282926 1.265907 1.249012 1.232243 1.215598 1.199078 1.182682 1.518577 1.779584 1.209682 0.922794 0.642440 0.543295 0.490412 0.281359 0.297216 0.294852 0.348608 0.262003 0.279832 0.271010 0.150109 0.022134 -0.036308 -0.144741 -0.065384 -0.126102 -0.023183 -0.177515 -0.047917 -0.103395 -0.000870 0.074517 0.126925 0.021266 0.299638 0.434787 0.351528 0.472782 0.634120 0.675595 0.700075 0.931984 0.839108 0.945905 0.878984 0.828811 0.920548 0.919282 0.804258 0.765003 0.679503 0.676978 0.590508 0.588912 0.330641 0.369649 0.202338 0.242192 0.123844 0.119892 0.163008 0.194436 0.323202 0.277607 0.302172 0.450215 0.508719 0.606909 0.587317 0.664406 0.744717 0.793278 0.729101 0.595434 0.604836 0.488460 0.384803 0.395496 0.239709 0.160476 0.122310 0.035976 -0.046520 0.086003 0.006793 0.138295 0.156386 0.245763 0.321485 0.321078 0.423740 0.552506 0.489802 0.458987 0.525407 0.427530 0.319959 0.270126 0.309420 0.083973 0.028734 0.050663 -0.042774 -0.019881 -0.013502 0.038017 0.154196 0.283813 0.261787 0.384915 0.348380 0.354683 0.366432 0.447113 0.313030 0.279996 0.126936 0.077739 0.011198 0.038634 0.001884 0.032828 0.095355 0.117813 0.186168 0.236272 0.313489 0.319108 0.278031 0.259074 0.234051 0.215183 0.159896 0.044835 0.050751 -0.030391 0.015686 -0.057201 0.031314 0.160812 0.200854 0.212309 0.195564 0.255715 0.142240 0.121397 0.121293 0.061090 0.032184 0.050865 0.013841 0.048956 0.054083 0.084921 0.125113 0.170842 0.233627 0.236616 0.121232 0.128120 0.061814 0.043493 0.032832 0.006705 0.020744 0.037256 0.102907 0.073036 0.127193 0.177766 0.123550 0.095679 0.100925 0.059603 0.034109 0.016666 -0.015568 0.045319 0.062196 0.064947 0.083275 0.115284 0.124232 0.137647 0.089011 0.061013 -0.002104 0.020620 0.006944 0.030853 0.017331 0.032571 0.117696 0.097009 0.109431 0.077075 0.032019 0.063617 0.023450 -0.002689 0.053330 0.017704 0.023592 0.072932 0.099593 0.071567 0.074075 0.047225 0.015555 0.018437 0.003385 0.022808 0.024877 0.031559 0.023030 0.063992 0.074233 0.019970 -0.013731 0.003704 -0.001059 0.000566 -0.000411 0.049348 0.027704 0.059618 0.053770 0.046118 0.087271 -0.027368 -0.009002 -0.018165 -0.012600 0.027110 -0.015567 -0.005214 0.032698 0.023893 0.009801 0.016894 0.019364 0.007019 0.039221 0.047628 0.065912 0.061189 0.007619 0.038200 0.013552 -0.013366 0.020974 -0.002418 0.029093 0.055678 0.104773 0.020694 0.051898 0.000821 0.024495 -0.053336 -0.005076 0.000605 0.048094 -0.000040 0.109712 0.072053 0.015938 0.009752 0.055237 0.042386 0.101032 0.065116 0.015590 0.098200 0.111587 0.047610 -0.023399 0.055515 0.053161 0.085769 0.009720 0.005875 -0.032068 0.019411 -0.036552 -0.039165 0.063535 -0.030246 0.014582 -0.015167 -0.058074 -0.041939 -0.028119 0.022681 -0.007474 0.017745 -0.014499 0.022868 -0.040983 0.042348 -0.055707 0.041298 0.019845 -0.068185 0.024708 0.000160 0.063897 0.024846 0.064110 0.136751 0.065205 0.161090 0.246825 0.223353 0.042065 0.119258 -0.041012 -0.352123
0.072396 0.072973 0.074702 0.077584 0.081617 0.086801 0.093134 0.100613 0.109236 0.118998 0.129896 0.141922 0.155069 0.169329 0.184690 0.201138 0.218658 0.237231 0.256835 0.277444 0.299031 0.321560 0.344994 0.369289 0.394398 0.420264 0.446828 0.474022 0.501771 0.529994 0.558601 0.587494 0.616568 0.645707 0.674788 0.703679 0.732239 0.760317 0.787754 0.814382 0.840025 0.864498 0.887609 0.909159 0.928944 0.946753 0.962371 0.975582 0.986167 0.993906 0.998584 0.999987 0.997908 0.992149 0.982522 0.968852 0.950980 0.928767 0.902093 0.870868 0.835025 0.794531 0.749387 0.699631 0.645340 0.586638 0.523691 0.456714 0.385973 0.311784 0.234517 0.154596 0.072494 0.011258 0.096082 0.181350 0.266388 0.350480 0.432876 0.512792 0.589421 0.661942 0.729526 0.791345 0.846586 0.894463 0.934223 0.965165 0.986653 0.998125 0.999109 0.989238 0.968259 0.936050 0.892626 0.838153 0.772952 0.697511 0.612485 0.518697 0.417139 0.308969 0.195498 0.078187 0.041376 0.161488 0.280357 0.396122 0.506886 0.610747 0.705831 0.790327 0.862529 0.920870 0.963964 0.990643 0.999994 0.991391 0.964527 0.919439 0.856525 0.776561 0.680706 0.570492 0.447823 0.314942 0.174411 0.029058 0.118063 0.263739 0.404662 0.537507 0.659011 0.766058 0.855762 0.925562 0.973293 0.997276 0.996378 0.970075 0.918499 0.842462 0.743474 0.623732 0.486090 0.334011 0.171494 0.002979 0.166761 0.332754 0.489972 0.633485 0.758622 0.861135 0.937355 0.984337 0.999997 0.983216 0.933924 0.853152 0.743040 0.606817 0.448728 0.273931 0.088342 0.101543 0.288875 0.466685 0.628157 0.766892 0.877172 0.954223 0.994443 0.995590 0.956938 0.879365 0.765382 0.619092 0.446079 0.253232 0.048483 0.159488 0.361616 0.548850 0.712552 0.844927 0.939402 0.990995 0.996602 0.955223 0.868087 0.738674 0.572629 0.377564 0.162733 0.061360 0.283471 0.492172 0.676434 0.826237 0.933134 0.990771 0.995301 0.945688 0.843862 0.694714 0.505918 0.287595 0.051804 0.188090 0.418158 0.624720 0.795169 0.918770 0.987383 0.996045 0.943387 0.831834 0.667582 0.460316 0.222707 0.030322 0.282501 0.517245 0.718757 0.873115 0.969272 0.999911 0.962066 0.857460 0.692530 0.478118 0.228832 0.037903 0.303019 0.547154 0.752085 0.902109 0.985314 0.994583 0.928287 0.790571 0.591201 0.344961 0.070629 0.210390 0.475731 0.703825 0.875708 0.976632 0.997421 0.935391 0.794756 0.586470 0.327471 0.039392 0.253191 0.524828 0.751415 0.912376 0.992599 0.983947 0.886190 0.707240 0.462627 0.174279 0.131388 0.425819 0.680995 0.872126 0.980126 0.993620 0.910255 0.737166 0.490512 0.194093 0.122860 0.428496 0.691555 0.884589 0.986897 0.986871 0.883430 0.686411 0.415771 0.099718 0.228152 0.532370 0.779441 0.941584 0.999961 0.946998 0.787511 0.538458 0.227289 0.110944 0.437484 0.714267 0.908430 0.996288 0.966376 0.821101 0.576777 0.261969 0.085705 0.423983 0.711072 0.910861 0.997555 0.959178 0.799384 0.537362 0.205705 0.153482 0.493862 0.770810 0.947351 0.999202 0.918304 0.714257 0.413406 0.055638 0.310781 0.635651 0.873743 0.991195 0.970499 0.813314 0.540650 0.190267 0.188362 0.540963 0.816213 0.973306 0.988168 0.857351 0.598989 0.250518 0.136539 0.504067 0.796079 0.967319 0.990432 0.860573 0.596615 0.238681 0.157760 0.530342 0.819618 0.978621 0.980677 0.824144 0.533155 0.154184 0.251156 0.616038 0.879443 0.996478 0.946256 0.735900 0.399879 0.005387 0.410780
1.000000 1.000000 1.000000 1.000000 1.000000 1.000000 1.000000 1.000000 1.000000 1.000000 1.000000 1.000000 1.000000 1.000000 1.000000 1.000000 1.000000 1.000000 1.000000 1.000000 1.000000 1.000000 1.000000 1.000000 1.000000 1.000000 1.000000 1.000000 1.000000 1.000000 1.000000 1.000000 1.000000 1.000000 1.000000 1.000000 1.000000 1.000000 1.000000 1.000000 1.000000 1.000000 1.000000 1.000000 1.000000 1.000000 1.000000 1.000000 1.000000 1.000000 1.000000 1.000000 0.939991 0.939991 0.939991 0.939991 0.939991 0.939991 0.939991 0.939991 0.939991 0.939991 0.939991 0.939991 0.939991 0.939991 0.939991 0.939991 0.939991 0.939991 0.939991 0.939991 0.939991 0.939991 0.939991 0.939991 0.939991 0.939991 0.939991 0.939991 0.939991 0.939991 0.939991 0.939991 0.939991 0.939991 0.939991 0.939991 0.939991 0.939991 0.925901 0.928563 0.926128 0.925972 0.925015 0.931656 0.935333 0.936063 0.936450 0.937743 0.939224 0.942288 0.943479 0.946559 0.948948 0.958328 0.956793 0.956200 0.958973 0.955303 0.968500 0.969031 0.969013 0.969745 0.970357 0.971073 0.969374 0.971532 0.971935 0.971437 0.970448 0.969976 0.967214 0.966697 0.966634 0.967106 0.966712 0.967151 0.968478 0.968267 0.968347 0.967911 0.967365 0.963720 0.962461 0.961508 0.959645 0.958057 0.964637 0.963968 0.963252 0.962952 0.963078 0.963045 0.963075 0.961788 0.960280 0.959310 0.958819 0.958377 0.957277 0.958580 0.960794 0.961679 0.952154 0.944619 0.940704 0.943163 0.940602 0.936655 0.938540 0.923961 0.910306 0.904447 0.895008 0.891256 0.892269 0.895721 0.895581 0.890245 0.882828 0.878477 0.880196 0.878596 0.883830 0.880344 0.865512 0.861561 0.854086 0.855234 0.864423 0.870104 0.873216 0.870705 0.867159 0.852941 0.848022 0.850100 0.851094 0.848731 0.848768 0.843651 0.844824 0.848944 0.860214 0.862992 0.867467 0.870134 0.870734 0.873141 0.875063 0.871583 0.867519 0.870197 0.872438 0.866110 0.870598 0.869832 0.871800 0.868399 0.861249 0.862259 0.864997 0.863959 0.863260 0.854444 0.854061 0.859731 0.865537 0.847723 0.846823 0.839000 0.834330 0.833713 0.834697 0.839105 0.838073 0.835882 0.840172 0.838183 0.834744 0.834809 0.815258 0.826595 0.830625 0.818816 0.789939 0.785014 0.784951 0.791996 0.793362 0.790474 0.780722 0.780267 0.779944 0.784178 0.784824 0.768268 0.754564 0.761732 0.770723 0.771614 0.743593 0.696420 0.684525 0.667903 0.652778 0.650872 0.643561 0.651255 0.640831 0.629882 0.631080 0.644125 0.649663 0.625806 0.615480 0.608748 0.626736 0.610366 0.610942 0.619683 0.617001 0.633977 0.633478 0.637480 0.619994 0.624971 0.618948 0.608445 0.612284 0.591162 0.595846 0.589472 0.586465 0.566592 0.566229 0.568464 0.589111 0.559710 0.554987 0.575960 0.563606 0.547720 0.561467 0.541055 0.542962 0.549227 0.524257 0.508813 0.484650 0.496529 0.516662 0.491775 0.464633 0.454125 0.453329 0.427868 0.449205 0.503168 0.509996 0.506045 0.427129 0.407757 0.415750 0.417786 0.420245 0.375649 0.354537 0.342827 0.291216 0.271897 0.287150 0.288077 0.245182 0.219175 0.245132 0.172522 0.171931 0.184383 0.168775 0.158574 0.110662 0.117386 0.187202 0.191845 0.191845 0.191845 0.191845 0.191845 0.191845 0.191845 0.214822 0.214822 0.214822 0.214822 0.214822 0.214822 0.214822 0.214822 0.220591 0.220591 0.220591 0.220591 0.220591 0.220591 0.220591 0.220591 0.220591 0.220591 0.220591 0.220591 0.220591
0.000000 0.000000 0.000000 0.000000 0.000000 0.000000 0.000000 0.000000 0.000000 0.000000 0.000000 0.000000 0.000000 0.000000 0.000000 0.000000 0.000000 0.000000 0.000000 0.000000 0.000000 0.000000 0.000000 0.000000 0.000000 0.000000 0.000000 0.000000 0.000000 0.000000 0.000000 0.000000 0.000000 0.000000 0.000000 0.000000 0.000000 0.000000 0.000000 0.000000 0.000000 0.000000 0.000000 0.000000 0.000000 0.000000 0.000000 0.000000 0.000000 0.000000 0.000000 0.000000 0.203069 0.203069 0.203069 0.203069 0.203069 0.203069 0.203069 0.203069 0.203069 0.203069 0.203069 0.203069 0.203069 0.203069 0.203069 0.203069 0.203069 0.203069 0.203069 0.203069 0.203069 0.203069 0.203069 0.203069 0.203069 0.203069 0.203069 0.203069 0.203069 0.203069 0.203069 0.203069 0.203069 0.203069 0.203069 0.203069 0.203069 0.203069 0.234082 0.234082 0.234082 0.234082 0.234082 0.234082 0.234082 0.234082 0.234082 0.234082 0.234082 0.234082 0.234082 0.234082 0.234082 0.234082 0.234082 0.234082 0.234082 0.234082 0.234082 0.234082 0.234082 0.234082 0.234082 0.234082 0.234082 0.256074 0.256074 0.256074 0.256074 0.256074 0.256074 0.256074 0.256074 0.256074 0.256074 0.256074 0.256074 0.256074 0.256074 0.256074 0.256074 0.256074 0.256074 0.256074 0.256074 0.256074 0.264906 0.264906 0.264906 0.264906 0.264906 0.264906 0.264906 0.264906 0.264906 0.264906 0.264906 0.264906 0.264906 0.264906 0.264906 0.264906 0.264906 0.264906 0.264906 0.264906 0.264906 0.264906 0.264906 0.264906 0.264906 0.264906 0.264906 0.264906 0.264906 0.264906 0.264906 0.264906 0.264906 0.264906 0.264906 0.269680 0.269680 0.269680 0.269680 0.269680 0.269680 0.269680 0.269680 0.269680 0.269680 0.269680 0.269680 0.269680 0.269680 0.269680 0.269680 0.269680 0.269680 0.269680 0.269680 0.269680 0.269680 0.269680 0.269680 0.269680 0.269680 0.269680 0.269680 0.269680 0.274721 0.274721 0.274721 0.274721 0.274721 0.274721 0.274721 0.274721 0.274721 0.274721 0.274721 0.274721 0.274721 0.274721 0.274721 0.274721 0.274721 0.274721 0.274721 0.274721 0.274721 0.274721 0.274721 0.274721 0.274721 0.269680 0.269680 0.269680 0.269680 0.269680 0.269680 0.269680 0.269680 0.269680 0.269680 0.269680 0.269680 0.274721 0.274721 0.274721 0.274721 0.274721 0.274721 0.274721 0.274721 0.274721 0.274721 0.274721 0.269680 0.269680 0.269680 0.269680 0.269680 0.269680 0.269680 0.269680 0.269680 0.269680 0.269680 0.274721 0.274721 0.274721 0.274721 0.274721 0.274721 0.274721 0.274721 0.274721 0.274721 0.269680 0.269680 0.269680 0.269680 0.269680 0.269680 0.269680 0.269680 0.269680 0.269680 0.264906 0.264906 0.264906 0.264906 0.264906 0.264906 0.264906 0.264906 0.264906 0.264906 0.269680 0.269680 0.269680 0.269680 0.269680 0.269680 0.269680 0.269680 0.269680 0.264906 0.264906 0.264906 0.264906 0.264906 0.264906 0.264906 0.264906 0.264906 0.274721 0.274721 0.274721 0.274721 0.274721 0.274721 0.274721 0.274721 0.256074 0.256074 0.256074 0.256074 0.256074 0.256074 0.256074 0.256074 0.256074 0.269680 0.269680 0.269680 0.269680 0.269680 0.269680 0.269680 0.269680 0.264906 0.264906 0.264906 0.264906 0.264906 0.264906 0.264906 0.264906 0.260378 0.260378 0.260378 0.260378 0.260378 0.260378 0.260378 0.260378 0.256074 0.256074 0.256074 0.256074 0.256074 0.256074 0.256074 0.256074 0.256074 0.256074 0.256074 0.256074 0.256074
