# Output from CTFFind version 4.1.9, run on 2019-11-03 18:51:34
# Input file: stack13_ub_averaged_750.mrc ; Number of micrographs: 1
# Pixel size: 3.000 Angstroms ; acceleration voltage: 300.0 keV ; spherical aberration: 0.00 mm ; amplitude contrast: 0.07
# Box size: 512 pixels ; min. res.: 30.0 Angstroms ; max. res.: 5.0 Angstroms ; min. def.: 5000.0 um; max. def. 50000.0 um; num. frames averaged: 1
# 6 lines per micrograph: #1 - spatial frequency (1/Angstroms); #2 - 1D rotational average of spectrum (assuming no astigmatism); #3 - 1D rotational average of spectrum; #4 - CTF fit; #5 - cross-correlation between spectrum and CTF fit; #6 - 2sigma of expected cross correlation of noise
0.000000 0.000651 0.001302 0.001953 0.002604 0.003255 0.003906 0.004557 0.005208 0.005859 0.006510 0.007161 0.007812 0.008464 0.009115 0.009766 0.010417 0.011068 0.011719 0.012370 0.013021 0.013672 0.014323 0.014974 0.015625 0.016276 0.016927 0.017578 0.018229 0.018880 0.019531 0.020182 0.020833 0.021484 0.022135 0.022786 0.023438 0.024089 0.024740 0.025391 0.026042 0.026693 0.027344 0.027995 0.028646 0.029297 0.029948 0.030599 0.031250 0.031901 0.032552 0.033203 0.033854 0.034505 0.035156 0.035807 0.036458 0.037109 0.037760 0.038411 0.039062 0.039714 0.040365 0.041016 0.041667 0.042318 0.042969 0.043620 0.044271 0.044922 0.045573 0.046224 0.046875 0.047526 0.048177 0.048828 0.049479 0.050130 0.050781 0.051432 0.052083 0.052734 0.053385 0.054036 0.054688 0.055339 0.055990 0.056641 0.057292 0.057943 0.058594 0.059245 0.059896 0.060547 0.061198 0.061849 0.062500 0.063151 0.063802 0.064453 0.065104 0.065755 0.066406 0.067057 0.067708 0.068359 0.069010 0.069661 0.070312 0.070964 0.071615 0.072266 0.072917 0.073568 0.074219 0.074870 0.075521 0.076172 0.076823 0.077474 0.078125 0.078776 0.079427 0.080078 0.080729 0.081380 0.082031 0.082682 0.083333 0.083984 0.084635 0.085286 0.085938 0.086589 0.087240 0.087891 0.088542 0.089193 0.089844 0.090495 0.091146 0.091797 0.092448 0.093099 0.093750 0.094401 0.095052 0.095703 0.096354 0.097005 0.097656 0.098307 0.098958 0.099609 0.100260 0.100911 0.101562 0.102214 0.102865 0.103516 0.104167 0.104818 0.105469 0.106120 0.106771 0.107422 0.108073 0.108724 0.109375 0.110026 0.110677 0.111328 0.111979 0.112630 0.113281 0.113932 0.114583 0.115234 0.115885 0.116536 0.117188 0.117839 0.118490 0.119141 0.119792 0.120443 0.121094 0.121745 0.122396 0.123047 0.123698 0.124349 0.125000 0.125651 0.126302 0.126953 0.127604 0.128255 0.128906 0.129557 0.130208 0.130859 0.131510 0.132161 0.132812 0.133464 0.134115 0.134766 0.135417 0.136068 0.136719 0.137370 0.138021 0.138672 0.139323 0.139974 0.140625 0.141276 0.141927 0.142578 0.143229 0.143880 0.144531 0.145182 0.145833 0.146484 0.147135 0.147786 0.148438 0.149089 0.149740 0.150391 0.151042 0.151693 0.152344 0.152995 0.153646 0.154297 0.154948 0.155599 0.156250 0.156901 0.157552 0.158203 0.158854 0.159505 0.160156 0.160807 0.161458 0.162109 0.162760 0.163411 0.164062 0.164714 0.165365 0.166016 0.166667 0.167318 0.167969 0.168620 0.169271 0.169922 0.170573 0.171224 0.171875 0.172526 0.173177 0.173828 0.174479 0.175130 0.175781 0.176432 0.177083 0.177734 0.178385 0.179036 0.179688 0.180339 0.180990 0.181641 0.182292 0.182943 0.183594 0.184245 0.184896 0.185547 0.186198 0.186849 0.187500 0.188151 0.188802 0.189453 0.190104 0.190755 0.191406 0.192057 0.192708 0.193359 0.194010 0.194661 0.195312 0.195964 0.196615 0.197266 0.197917 0.198568 0.199219 0.199870 0.200521 0.201172 0.201823 0.202474 0.203125 0.203776 0.204427 0.205078 0.205729 0.206380 0.207031 0.207682 0.208333 0.208984 0.209635 0.210286 0.210938 0.211589 0.212240 0.212891 0.213542 0.214193 0.214844 0.215495 0.216146 0.216797 0.217448 0.218099 0.218750 0.219401 0.220052 0.220703 0.221354 0.222005 0.222656 0.223307 0.223958 0.224609 0.225260 0.225911 0.226562 0.227214 0.227865 0.228516 0.229167 0.229818 0.230469 0.231120 0.231771 0.232422 0.233073 0.233724 0.234375 0.235026 0.235677
       0.36324        0.36324        0.36324        0.36324        0.36324        0.36324        0.36324        0.36324        0.36324        0.36324        0.36324        0.36324        0.36324        0.36324        0.36324        0.36324        0.36324        0.36324        0.36324        0.36324        0.36324        0.36324        0.36324        0.36324        0.36324        0.36324        0.36324        0.36324        0.36324        0.36324        0.36324        0.36324        0.36324        0.36324        0.36324        0.36324        0.36324        0.36324        0.36324        0.36324        0.36324        0.36324        0.36324        0.36324        0.36324        0.36324        0.36324        0.36324        0.36324        0.36324        0.36324        0.58150        1.00077        0.80542        0.07180       -0.24058       -0.19366       -0.34516       -0.34980       -0.30760       -0.35922       -0.08001       -0.30998       -0.27868       -0.49852       -0.52083       -0.61639       -0.65676       -0.67840       -0.80285       -0.72731       -0.72956       -0.64089       -0.65004       -0.59091       -0.55401       -0.57186       -0.45568       -0.32688       -0.29176       -0.16914       -0.02848        0.07961        0.26767        0.37480        0.41666        0.45570        0.56567        0.69571        0.60416        0.61635        0.55014        0.70225        0.65601        0.62117        0.67509        0.61336        0.55204        0.36003        0.31717        0.23309        0.15471        0.05383        0.04682       -0.07560        0.01925        0.01614        0.06616        0.13552        0.17855        0.22967        0.41070        0.49347        0.60909        0.62687        0.69194        0.68175        0.75001        0.72383        0.63124        0.60406        0.63502        0.53784        0.41383        0.35643        0.27108        0.15615        0.15162        0.07077        0.09230        0.02865        0.12284        0.19027        0.36678        0.45497        0.44574        0.51450        0.59050        0.58953        0.55456        0.64813        0.58000        0.51094        0.48240        0.42483        0.29258        0.26739        0.18738        0.13672        0.12024        0.16491        0.18155        0.29128        0.35172        0.46920        0.46094        0.53621        0.56231        0.56045        0.56442        0.55514        0.47005        0.40412        0.32485        0.26986        0.21872        0.19693        0.19591        0.23417        0.29387        0.29000        0.38223        0.46947        0.49807        0.52935        0.51605        0.52480        0.46908        0.41168        0.34298        0.27756        0.26075        0.23896        0.22286        0.25527        0.33641        0.38004        0.42960        0.51835        0.49153        0.49115        0.45457        0.40357        0.39567        0.35861        0.33546        0.24944        0.24700        0.29265        0.34400        0.35312        0.40237        0.43346        0.48643        0.43466        0.43079        0.39896        0.41022        0.36216        0.32669        0.30549        0.34724        0.32876        0.32731        0.35756        0.39756        0.37814        0.41814        0.44535        0.39225        0.33617        0.28572        0.27261        0.30295        0.29272        0.33396        0.36546        0.40166        0.46182        0.42455        0.43006        0.41302        0.35090        0.36155        0.35695        0.29873        0.31609        0.34250        0.35512        0.38001        0.40011        0.40228        0.38855        0.36702        0.36612        0.31533        0.30592        0.27153        0.29601        0.31701        0.32693        0.35774        0.37952        0.39406        0.36240        0.31639        0.30261        0.28661        0.27214        0.28159        0.34373        0.33845        0.35884        0.34443        0.36772        0.35687        0.31502        0.30119        0.32768        0.32181        0.31859        0.36430        0.34274        0.34880        0.41581        0.34701        0.38049        0.33445        0.28076        0.32127        0.35249        0.36480        0.32883        0.34915        0.39111        0.38409        0.39160        0.38028        0.31023        0.28678        0.35792        0.28114        0.35919        0.36284        0.37170        0.33316        0.34142        0.34810        0.33642        0.33120        0.32295        0.32671        0.35295        0.40941        0.33112        0.38356        0.32490        0.30692        0.27623        0.32545        0.34739        0.32847        0.35266        0.34515        0.28665        0.26289        0.37362        0.28994        0.28060        0.31091        0.36069        0.33767        0.29994        0.26453        0.29034        0.32260        0.33620        0.33678        0.34862        0.29192        0.31742        0.27158        0.23538        0.24043        0.28449        0.34300        0.33283        0.33738        0.28166        0.31277        0.28699        0.24637        0.29044        0.34276        0.23122        0.26052        0.26878        0.29763        0.24319        0.26867        0.19936        0.27054        0.20753        0.20821        0.30292        0.29780        0.21521        0.22613        0.21959        0.22149        0.08490       -0.48505       -0.68564
2.387686 2.361247 2.334962 2.308831 2.282855 2.257033 2.231365 2.205851 2.180492 2.155287 2.130236 2.105339 2.080597 2.056008 2.031575 2.007295 1.983170 1.959198 1.935381 1.911719 1.888210 1.864856 1.841656 1.818611 1.795719 1.772982 1.750399 1.727971 1.705696 1.683576 1.661610 1.639799 1.618141 1.596638 1.575289 1.554095 1.533055 1.512168 1.491436 1.470859 1.450436 1.430167 1.410052 1.390091 1.370285 1.350633 1.331135 1.311791 1.292602 1.273567 1.254686 1.378465 1.779205 1.652365 1.009451 0.579569 0.637554 0.492575 0.389060 0.522349 0.353351 0.635108 0.472364 0.440491 0.234315 0.111730 0.091115 0.031788 -0.027776 -0.159908 -0.067684 -0.214669 -0.047607 -0.095705 -0.050870 0.027014 -0.090555 0.034895 0.122970 0.128831 0.216216 0.401932 0.397625 0.654489 0.642920 0.771022 0.735313 0.849310 0.910522 0.922312 0.833573 0.750916 0.902225 0.894045 0.825800 0.861871 0.780905 0.783882 0.531371 0.455716 0.421895 0.305212 0.232360 0.192008 0.075623 0.099430 0.096757 0.152923 0.193147 0.250072 0.215193 0.443760 0.441826 0.597718 0.593497 0.686505 0.657305 0.650088 0.728264 0.573315 0.457272 0.661279 0.472709 0.355762 0.302720 0.236380 0.092890 0.062586 0.005524 0.011133 -0.118949 0.043718 0.009705 0.195670 0.272187 0.294101 0.315863 0.403989 0.412977 0.424107 0.404028 0.452855 0.356820 0.290990 0.324205 0.121712 0.111434 0.068353 -0.015243 -0.096568 -0.023570 0.015579 0.021546 0.097530 0.258226 0.206683 0.278882 0.357382 0.378961 0.392074 0.409969 0.329400 0.246124 0.227170 0.074980 0.099236 0.016466 0.023189 0.036654 0.086182 0.129618 0.133447 0.224054 0.267041 0.327641 0.276532 0.355931 0.273204 0.212615 0.152638 0.128513 0.020992 0.069910 -0.000488 0.027976 0.067067 0.111060 0.180094 0.246806 0.280672 0.222254 0.219574 0.197084 0.099290 0.128442 0.102966 0.018015 -0.025147 -0.015214 0.074705 0.031578 0.144983 0.106237 0.175820 0.194740 0.144816 0.112902 0.112846 0.117199 0.051447 0.022428 0.038313 0.072317 0.022882 0.068839 0.052327 0.097585 0.091201 0.143070 0.116615 0.073886 0.026407 -0.055822 0.003313 -0.014005 0.019706 0.035754 0.071235 0.131500 0.146642 0.108136 0.122107 0.122470 0.056989 0.052925 0.050203 0.009546 0.044704 0.038317 0.070736 0.095721 0.091413 0.112013 0.088036 0.072328 0.072244 0.007321 0.025723 -0.022740 0.010914 0.039483 0.040386 0.078888 0.101944 0.095969 0.052002 0.018167 0.009415 -0.002504 -0.009689 0.005264 0.048353 0.062403 0.053533 0.062371 0.092285 0.065583 0.028034 0.023841 0.056451 0.031904 0.042261 0.088481 0.054986 0.050714 0.103884 0.052097 0.112947 0.044072 -0.044544 0.045832 0.063228 0.075526 0.030060 0.058771 0.124666 0.081355 0.102509 0.100541 -0.003813 0.017458 0.078589 -0.033857 0.087619 0.077464 0.067418 0.016129 0.058790 0.035221 0.023424 0.014423 0.027158 0.011553 0.026981 0.039062 0.006660 0.043098 -0.042491 -0.043808 -0.054656 -0.010672 -0.025059 -0.039302 0.021282 -0.040313 -0.073679 -0.084127 0.048130 -0.074615 -0.075987 -0.011725 0.014193 -0.006474 -0.016122 -0.069422 -0.002359 0.024946 -0.006279 0.015764 0.015924 0.023367 0.015016 -0.023943 -0.053121 -0.045147 0.002211 0.052625 0.051326 0.067737 -0.016149 0.099935 -0.005572 -0.043507 0.028979 0.073444 -0.012764 -0.045090 -0.001628 0.066017 -0.010625 0.017109 -0.043009 -0.002832 -0.105465 0.198024 0.314489 0.270741 0.201969 0.251952 0.193375 0.166901 0.085813 -0.639269
0.072396 0.072957 0.074639 0.077443 0.081367 0.086411 0.092572 0.099848 0.108238 0.117737 0.128340 0.140043 0.152838 0.166716 0.181667 0.197680 0.214738 0.232825 0.251920 0.272000 0.293038 0.315003 0.337859 0.361566 0.386080 0.411349 0.437318 0.463923 0.491097 0.518763 0.546838 0.575231 0.603844 0.632571 0.661297 0.689898 0.718245 0.746195 0.773602 0.800307 0.826146 0.850946 0.874527 0.896702 0.917276 0.936052 0.952825 0.967389 0.979534 0.989051 0.995730 0.999365 0.999752 0.996695 0.990005 0.979507 0.965035 0.946441 0.923597 0.896392 0.864745 0.828597 0.787922 0.742726 0.693051 0.638977 0.580627 0.518166 0.451804 0.381800 0.308462 0.232146 0.153260 0.072261 0.010343 0.093995 0.178095 0.261997 0.345017 0.426434 0.505501 0.581444 0.653475 0.720800 0.782624 0.838164 0.886660 0.927384 0.959655 0.982847 0.996405 0.999856 0.992824 0.975037 0.946343 0.906720 0.856283 0.795295 0.724172 0.643490 0.553982 0.456543 0.352224 0.242229 0.127903 0.010722 0.107726 0.225755 0.341606 0.453472 0.559526 0.657951 0.746975 0.824903 0.890156 0.941302 0.977099 0.996525 0.998811 0.983477 0.950349 0.899588 0.831706 0.747569 0.648408 0.535808 0.411694 0.278312 0.138191 0.005892 0.150963 0.293913 0.431557 0.560710 0.678261 0.781251 0.866958 0.932975 0.977283 0.998331 0.995092 0.967122 0.914598 0.838345 0.739847 0.621238 0.485272 0.335281 0.175101 0.008987 0.158487 0.322555 0.478392 0.621254 0.746633 0.850405 0.928981 0.979440 0.999662 0.988428 0.945499 0.871673 0.768801 0.639768 0.488444 0.319584 0.138700 0.048098 0.234308 0.413250 0.578313 0.723200 0.842181 0.930336 0.983784 0.999873 0.977333 0.916388 0.818805 0.687880 0.528368 0.346339 0.148972 0.055702 0.259126 0.452554 0.627441 0.775826 0.890711 0.966421 0.998908 0.986003 0.927587 0.825672 0.684385 0.509843 0.309930 0.093974 0.127669 0.344096 0.544385 0.718165 0.856161 0.950719 0.996273 0.989702 0.930593 0.821352 0.667166 0.475819 0.257338 0.023511 0.212726 0.437994 0.639228 0.804448 0.923506 0.988745 0.995543 0.942687 0.832562 0.671118 0.467616 0.234147 0.015031 0.264351 0.497882 0.700361 0.858212 0.960495 0.999714 0.972433 0.879626 0.726751 0.523503 0.283279 0.022339 0.241252 0.488854 0.702582 0.866621 0.968437 0.999806 0.957540 0.843881 0.666484 0.437994 0.175213 0.102066 0.372535 0.614976 0.809968 0.941469 0.998210 0.974733 0.872005 0.697509 0.464818 0.192602 0.096776 0.379069 0.630175 0.828204 0.955436 0.999995 0.957038 0.829381 0.627439 0.368503 0.075340 0.225738 0.507201 0.742836 0.910206 0.992880 0.982131 0.877971 0.689372 0.433627 0.134866 0.178124 0.474647 0.725094 0.903943 0.992441 0.980669 0.868786 0.667250 0.396001 0.082582 0.240549 0.539346 0.781779 0.941311 0.999899 0.950165 0.796454 0.554641 0.250628 0.082309 0.407077 0.686911 0.889538 0.991004 0.978628 0.852737 0.626927 0.326762 0.012972 0.352227 0.650353 0.871019 0.986717 0.982324 0.857245 0.625813 0.315822 0.034642 0.381803 0.681617 0.895393 0.994903 0.966239 0.811952 0.551065 0.216934 0.146891 0.492227 0.772640 0.949757 0.998635 0.911461 0.698985 0.389424 0.024912 0.344121 0.665862 0.894411 0.996466 0.956329 0.778536 0.487623 0.124943 0.257027 0.602223 0.859223 0.989000 0.971038 0.806791 0.519899 0.153039 0.238254 0.593908 0.858516 0.990098 0.966936 0.791395 0.490030 0.109818 0.288992 0.642310 0.892548 0.998125
1.000000 1.000000 1.000000 1.000000 1.000000 1.000000 1.000000 1.000000 1.000000 1.000000 1.000000 1.000000 1.000000 1.000000 1.000000 1.000000 1.000000 1.000000 1.000000 1.000000 1.000000 1.000000 1.000000 1.000000 1.000000 1.000000 1.000000 1.000000 1.000000 1.000000 1.000000 1.000000 1.000000 1.000000 1.000000 1.000000 1.000000 1.000000 1.000000 1.000000 1.000000 1.000000 1.000000 1.000000 1.000000 1.000000 1.000000 1.000000 1.000000 1.000000 1.000000 1.000000 0.941618 0.941618 0.941618 0.941618 0.941618 0.941618 0.941618 0.941618 0.941618 0.941618 0.941618 0.941618 0.941618 0.941618 0.941618 0.941618 0.941618 0.941618 0.941618 0.941618 0.941618 0.941618 0.941618 0.941618 0.941618 0.941618 0.941618 0.941618 0.941618 0.941618 0.941618 0.941618 0.941618 0.941618 0.941618 0.941618 0.941618 0.941618 0.941618 0.923510 0.926875 0.927536 0.930851 0.931520 0.930175 0.932154 0.932407 0.933203 0.934425 0.935788 0.937410 0.938961 0.940687 0.945157 0.951450 0.951706 0.954587 0.955020 0.955716 0.969669 0.970363 0.971480 0.971920 0.972077 0.972137 0.972238 0.972957 0.973070 0.972809 0.972317 0.970688 0.972665 0.978115 0.978088 0.977723 0.977810 0.978042 0.978054 0.979034 0.979243 0.978021 0.975722 0.975549 0.975060 0.975128 0.975429 0.974647 0.973387 0.974735 0.974752 0.974894 0.975250 0.975042 0.970322 0.970592 0.968468 0.963844 0.957486 0.955046 0.951326 0.952454 0.954731 0.954380 0.951453 0.946727 0.943723 0.942502 0.944868 0.941544 0.941423 0.942204 0.943621 0.944444 0.944495 0.936398 0.934893 0.932913 0.932938 0.935575 0.938627 0.937349 0.933733 0.933192 0.931690 0.932790 0.927034 0.912103 0.905112 0.904504 0.902989 0.906673 0.910786 0.908578 0.901418 0.894784 0.871740 0.859234 0.855568 0.858133 0.859399 0.861545 0.869292 0.861315 0.857360 0.854404 0.850968 0.849878 0.851611 0.852255 0.850229 0.848602 0.850514 0.850440 0.848377 0.848797 0.845695 0.844053 0.840315 0.840225 0.833858 0.833546 0.835501 0.837931 0.839703 0.840570 0.839178 0.843760 0.835116 0.839194 0.838046 0.841125 0.836343 0.839777 0.841028 0.836291 0.826697 0.822648 0.823746 0.832520 0.817453 0.824180 0.832820 0.840654 0.843268 0.839237 0.836283 0.833820 0.828953 0.834650 0.855186 0.800830 0.804274 0.814538 0.815437 0.811208 0.810828 0.806559 0.794252 0.791563 0.806485 0.786169 0.776701 0.777613 0.776705 0.767474 0.754466 0.755253 0.751044 0.742674 0.718559 0.725789 0.726883 0.702613 0.698319 0.662483 0.664527 0.667406 0.663395 0.622887 0.613417 0.614904 0.621047 0.625529 0.586451 0.553603 0.558560 0.559083 0.549100 0.555720 0.558581 0.554301 0.553687 0.546662 0.537886 0.525746 0.504097 0.494259 0.405994 0.416790 0.403235 0.400568 0.419214 0.406787 0.410122 0.397534 0.408782 0.375282 0.328999 0.324885 0.331640 0.344523 0.340374 0.343249 0.353651 0.381585 0.381361 0.352448 0.377708 0.395230 0.373898 0.379464 0.407660 0.404559 0.384374 0.363547 0.353676 0.377147 0.368101 0.361481 0.341028 0.355710 0.313257 0.337522 0.341563 0.311745 0.273719 0.250463 0.246396 0.275362 0.178372 0.192354 0.192354 0.192354 0.192354 0.192354 0.192354 0.192354 0.165984 0.165984 0.165984 0.165984 0.165984 0.165984 0.165984 0.165984 0.185155 0.185155 0.185155 0.185155 0.185155 0.185155 0.185155 0.185155 0.185155 0.185155 0.185155 0.185155 0.185155 0.185155 0.185155 0.185155
0.000000 0.000000 0.000000 0.000000 0.000000 0.000000 0.000000 0.000000 0.000000 0.000000 0.000000 0.000000 0.000000 0.000000 0.000000 0.000000 0.000000 0.000000 0.000000 0.000000 0.000000 9401.000000 0.000000 0.000000 0.000000 0.000000 0.000000 0.000000 0.000000 0.000000 0.000000 0.000000 0.000000 0.000000 0.000000 0.000000 0.000000 0.000000 0.000000 0.000000 0.000000 0.000000 0.000000 0.000000 0.000000 0.000000 0.000000 0.000000 0.000000 0.000000 0.000000 0.000000 0.203069 0.203069 0.203069 0.203069 0.203069 0.203069 0.203069 0.203069 0.203069 0.203069 0.203069 0.203069 0.203069 0.203069 0.203069 0.203069 0.203069 0.203069 0.203069 0.203069 0.203069 0.203069 0.203069 0.203069 0.203069 0.203069 0.203069 0.203069 0.203069 0.203069 0.203069 0.203069 0.203069 0.203069 0.203069 0.203069 0.203069 0.203069 0.203069 0.234082 0.234082 0.234082 0.234082 0.234082 0.234082 0.234082 0.234082 0.234082 0.234082 0.234082 0.234082 0.234082 0.234082 0.234082 0.234082 0.234082 0.234082 0.234082 0.234082 0.234082 0.234082 0.234082 0.234082 0.234082 0.234082 0.234082 0.248069 0.248069 0.248069 0.248069 0.248069 0.248069 0.248069 0.248069 0.248069 0.248069 0.248069 0.248069 0.248069 0.248069 0.248069 0.248069 0.248069 0.248069 0.248069 0.248069 0.248069 0.248069 0.256074 0.256074 0.256074 0.256074 0.256074 0.256074 0.256074 0.256074 0.256074 0.256074 0.256074 0.256074 0.256074 0.256074 0.256074 0.256074 0.256074 0.256074 0.256074 0.269680 0.269680 0.269680 0.269680 0.269680 0.269680 0.269680 0.269680 0.269680 0.269680 0.269680 0.269680 0.269680 0.269680 0.269680 0.269680 0.264906 0.264906 0.264906 0.264906 0.264906 0.264906 0.264906 0.264906 0.264906 0.264906 0.264906 0.264906 0.264906 0.264906 0.264906 0.264906 0.269680 0.269680 0.269680 0.269680 0.269680 0.269680 0.269680 0.269680 0.269680 0.269680 0.269680 0.269680 0.269680 0.269680 0.274721 0.274721 0.274721 0.274721 0.274721 0.274721 0.274721 0.274721 0.274721 0.274721 0.274721 0.274721 0.274721 0.264906 0.264906 0.264906 0.264906 0.264906 0.264906 0.264906 0.264906 0.264906 0.264906 0.264906 0.264906 0.264906 0.280056 0.280056 0.280056 0.280056 0.280056 0.280056 0.280056 0.280056 0.280056 0.280056 0.280056 0.264906 0.264906 0.264906 0.264906 0.264906 0.264906 0.264906 0.264906 0.264906 0.264906 0.264906 0.264906 0.269680 0.269680 0.269680 0.269680 0.269680 0.269680 0.269680 0.269680 0.269680 0.269680 0.269680 0.274721 0.274721 0.274721 0.274721 0.274721 0.274721 0.274721 0.274721 0.274721 0.274721 0.269680 0.269680 0.269680 0.269680 0.269680 0.269680 0.269680 0.269680 0.269680 0.269680 0.264906 0.264906 0.264906 0.264906 0.264906 0.264906 0.264906 0.264906 0.264906 0.264906 0.269680 0.269680 0.269680 0.269680 0.269680 0.269680 0.269680 0.269680 0.269680 0.264906 0.264906 0.264906 0.264906 0.264906 0.264906 0.264906 0.264906 0.264906 0.260378 0.260378 0.260378 0.260378 0.260378 0.260378 0.260378 0.260378 0.260378 0.269680 0.269680 0.269680 0.269680 0.269680 0.269680 0.269680 0.269680 0.251976 0.251976 0.251976 0.251976 0.251976 0.251976 0.251976 0.251976 0.251976 0.264906 0.264906 0.264906 0.264906 0.264906 0.264906 0.264906 0.264906 0.260378 0.260378 0.260378 0.260378 0.260378 0.260378 0.260378 0.260378 0.260378 0.260378 0.260378 0.260378 0.260378 0.260378 0.260378 0.260378
