# Output from CTFFind version 4.1.9, run on 2019-11-03 18:52:17
# Input file: stack8_ub_averaged_3000.mrc ; Number of micrographs: 1
# Pixel size: 3.000 Angstroms ; acceleration voltage: 300.0 keV ; spherical aberration: 0.00 mm ; amplitude contrast: 0.07
# Box size: 512 pixels ; min. res.: 30.0 Angstroms ; max. res.: 5.0 Angstroms ; min. def.: 5000.0 um; max. def. 50000.0 um; num. frames averaged: 1
# 6 lines per micrograph: #1 - spatial frequency (1/Angstroms); #2 - 1D rotational average of spectrum (assuming no astigmatism); #3 - 1D rotational average of spectrum; #4 - CTF fit; #5 - cross-correlation between spectrum and CTF fit; #6 - 2sigma of expected cross correlation of noise
0.000000 0.000651 0.001302 0.001953 0.002604 0.003255 0.003906 0.004557 0.005208 0.005859 0.006510 0.007161 0.007812 0.008464 0.009115 0.009766 0.010417 0.011068 0.011719 0.012370 0.013021 0.013672 0.014323 0.014974 0.015625 0.016276 0.016927 0.017578 0.018229 0.018880 0.019531 0.020182 0.020833 0.021484 0.022135 0.022786 0.023438 0.024089 0.024740 0.025391 0.026042 0.026693 0.027344 0.027995 0.028646 0.029297 0.029948 0.030599 0.031250 0.031901 0.032552 0.033203 0.033854 0.034505 0.035156 0.035807 0.036458 0.037109 0.037760 0.038411 0.039062 0.039714 0.040365 0.041016 0.041667 0.042318 0.042969 0.043620 0.044271 0.044922 0.045573 0.046224 0.046875 0.047526 0.048177 0.048828 0.049479 0.050130 0.050781 0.051432 0.052083 0.052734 0.053385 0.054036 0.054688 0.055339 0.055990 0.056641 0.057292 0.057943 0.058594 0.059245 0.059896 0.060547 0.061198 0.061849 0.062500 0.063151 0.063802 0.064453 0.065104 0.065755 0.066406 0.067057 0.067708 0.068359 0.069010 0.069661 0.070312 0.070964 0.071615 0.072266 0.072917 0.073568 0.074219 0.074870 0.075521 0.076172 0.076823 0.077474 0.078125 0.078776 0.079427 0.080078 0.080729 0.081380 0.082031 0.082682 0.083333 0.083984 0.084635 0.085286 0.085938 0.086589 0.087240 0.087891 0.088542 0.089193 0.089844 0.090495 0.091146 0.091797 0.092448 0.093099 0.093750 0.094401 0.095052 0.095703 0.096354 0.097005 0.097656 0.098307 0.098958 0.099609 0.100260 0.100911 0.101562 0.102214 0.102865 0.103516 0.104167 0.104818 0.105469 0.106120 0.106771 0.107422 0.108073 0.108724 0.109375 0.110026 0.110677 0.111328 0.111979 0.112630 0.113281 0.113932 0.114583 0.115234 0.115885 0.116536 0.117188 0.117839 0.118490 0.119141 0.119792 0.120443 0.121094 0.121745 0.122396 0.123047 0.123698 0.124349 0.125000 0.125651 0.126302 0.126953 0.127604 0.128255 0.128906 0.129557 0.130208 0.130859 0.131510 0.132161 0.132812 0.133464 0.134115 0.134766 0.135417 0.136068 0.136719 0.137370 0.138021 0.138672 0.139323 0.139974 0.140625 0.141276 0.141927 0.142578 0.143229 0.143880 0.144531 0.145182 0.145833 0.146484 0.147135 0.147786 0.148438 0.149089 0.149740 0.150391 0.151042 0.151693 0.152344 0.152995 0.153646 0.154297 0.154948 0.155599 0.156250 0.156901 0.157552 0.158203 0.158854 0.159505 0.160156 0.160807 0.161458 0.162109 0.162760 0.163411 0.164062 0.164714 0.165365 0.166016 0.166667 0.167318 0.167969 0.168620 0.169271 0.169922 0.170573 0.171224 0.171875 0.172526 0.173177 0.173828 0.174479 0.175130 0.175781 0.176432 0.177083 0.177734 0.178385 0.179036 0.179688 0.180339 0.180990 0.181641 0.182292 0.182943 0.183594 0.184245 0.184896 0.185547 0.186198 0.186849 0.187500 0.188151 0.188802 0.189453 0.190104 0.190755 0.191406 0.192057 0.192708 0.193359 0.194010 0.194661 0.195312 0.195964 0.196615 0.197266 0.197917 0.198568 0.199219 0.199870 0.200521 0.201172 0.201823 0.202474 0.203125 0.203776 0.204427 0.205078 0.205729 0.206380 0.207031 0.207682 0.208333 0.208984 0.209635 0.210286 0.210938 0.211589 0.212240 0.212891 0.213542 0.214193 0.214844 0.215495 0.216146 0.216797 0.217448 0.218099 0.218750 0.219401 0.220052 0.220703 0.221354 0.222005 0.222656 0.223307 0.223958 0.224609 0.225260 0.225911 0.226562 0.227214 0.227865 0.228516 0.229167 0.229818 0.230469 0.231120 0.231771 0.232422 0.233073 0.233724 0.234375 0.235026 0.235677
       0.33618        0.33618        0.33618        0.33618        0.33618        0.33618        0.33618        0.33618        0.33618        0.33618        0.33618        0.33618        0.33618        0.33618        0.33618        0.33618        0.33618        0.33618        0.33618        0.33618        0.33618        0.33618        0.33618        0.33618        0.33618        0.33618        0.33618        0.33618        0.33618        0.33618        0.33618        0.33618        0.33618        0.33618        0.33618        0.33618        0.33618        0.33618        0.33618        0.33618        0.33618        0.33618        0.33618        0.33618        0.33618        0.33618        0.33618        0.33618        0.33618        0.33618        0.33618        0.72924        0.89668        0.73519        0.37675        0.15836        0.07314        0.01333        0.07153        0.18315        0.20678        0.25369        0.36372        0.22700        0.10057        0.15845        0.07707       -0.25051       -0.04848        0.05508       -0.09383       -0.04941       -0.02755       -0.04671       -0.16933       -0.19021       -0.23606       -0.33305       -0.28601       -0.33359       -0.41132       -0.39905       -0.43069       -0.42177       -0.37638       -0.42701       -0.39316       -0.30580       -0.21781       -0.10928        0.01637        0.01685        0.04464        0.15673        0.27533        0.30303        0.36153        0.46794        0.61204        0.53204        0.62324        0.80258        0.75111        0.62914        0.67608        0.78454        0.75850        0.67793        0.62614        0.64511        0.49680        0.55866        0.48027        0.44411        0.28060        0.14916        0.04949        0.02251        0.02288       -0.05224       -0.08216       -0.11069        0.03053        0.08318        0.08698        0.15904        0.21630        0.32292        0.45904        0.50728        0.49390        0.62537        0.70102        0.77520        0.79268        0.73233        0.66621        0.55030        0.56870        0.55753        0.44872        0.31235        0.31149        0.17655        0.08449        0.12117        0.13016        0.14030        0.09124        0.08084        0.18133        0.23380        0.29754        0.36478        0.38755        0.39448        0.42228        0.50124        0.59695        0.59494        0.54135        0.51920        0.50223        0.41409        0.43667        0.31382        0.29768        0.24284        0.18987        0.15309        0.18849        0.13757        0.17922        0.24261        0.30276        0.29286        0.35205        0.46930        0.44502        0.44924        0.55183        0.56554        0.46974        0.50721        0.42489        0.37457        0.35331        0.31351        0.26364        0.22009        0.21271        0.22589        0.28921        0.27628        0.30517        0.36300        0.37519        0.43332        0.43384        0.44802        0.49797        0.43519        0.37218        0.41818        0.30745        0.29893        0.29242        0.29272        0.27116        0.28674        0.20711        0.24771        0.27747        0.27521        0.36869        0.38578        0.38996        0.45041        0.42397        0.38854        0.37703        0.32296        0.30536        0.27901        0.26791        0.24736        0.29860        0.29140        0.32526        0.30719        0.33641        0.37452        0.39346        0.36940        0.35929        0.39316        0.40423        0.38590        0.32122        0.33048        0.27649        0.26872        0.28018        0.28514        0.30200        0.34346        0.34236        0.28178        0.31702        0.32825        0.31091        0.32549        0.35614        0.29907        0.29354        0.27007        0.24154        0.26298        0.28531        0.29272        0.29290        0.35499        0.36850        0.33130        0.32478        0.30778        0.33062        0.31424        0.32723        0.29976        0.31113        0.32443        0.26693        0.32717        0.33035        0.37849        0.36070        0.30843        0.35685        0.32650        0.30981        0.30509        0.21181        0.28917        0.28640        0.29644        0.33088        0.32403        0.36646        0.32534        0.34225        0.33159        0.26768        0.33145        0.32907        0.31097        0.31302        0.31393        0.25849        0.26979        0.35906        0.37084        0.32371        0.27222        0.30375        0.28095        0.30463        0.27998        0.27578        0.29591        0.35445        0.35054        0.26556        0.23515        0.29499        0.30001        0.29178        0.31440        0.28697        0.28658        0.31841        0.32029        0.26153        0.31846        0.35825        0.32662        0.24791        0.29662        0.25944        0.24763        0.21564        0.19959        0.23189        0.22768        0.28163        0.26980        0.31016        0.27364        0.24295        0.24542        0.22489        0.19262        0.16553        0.20946        0.17839        0.28703        0.35618        0.23853        0.25862        0.19778        0.15767        0.26385        0.28716        0.23601        0.25053        0.36571        0.22294        0.16753        0.33864        0.21197       -0.10811       -0.26005       -0.32121
2.517268 2.493918 2.470681 2.447558 2.424548 2.401651 2.378869 2.356199 2.333643 2.311201 2.288872 2.266657 2.244556 2.222568 2.200693 2.178932 2.157284 2.135750 2.114330 2.093023 2.071830 2.050750 2.029783 2.008931 1.988191 1.967565 1.947053 1.926655 1.906369 1.886198 1.866140 1.846195 1.826364 1.806647 1.787043 1.767552 1.748175 1.728912 1.709762 1.690726 1.671803 1.652993 1.634298 1.615716 1.597247 1.578892 1.560650 1.542522 1.524507 1.506606 1.488819 1.897410 2.181889 1.935755 1.466718 1.292538 1.066605 0.945050 1.046667 1.110090 1.117958 1.225040 1.274869 1.238362 0.902891 1.036222 0.933213 0.455936 0.634483 0.896505 0.648449 0.597347 0.661356 0.650218 0.524534 0.401397 0.360178 0.228732 0.260663 0.170653 0.175649 0.010227 0.054551 0.031428 0.029880 -0.000514 -0.026781 0.050035 0.223210 0.278033 0.473969 0.403863 0.489308 0.553744 0.723907 0.770313 0.809341 0.860568 1.103157 1.074118 1.057118 1.136918 1.390521 1.134835 0.976830 1.201485 1.257781 1.106638 1.003507 1.044756 0.858348 0.901049 0.779712 0.755131 0.639786 0.367415 0.192821 0.212828 0.150258 0.101817 -0.022473 -0.000195 0.042031 0.182969 0.158649 0.233896 0.279765 0.380747 0.598639 0.621324 0.601889 0.716420 0.849805 0.907573 1.008772 0.836760 0.842676 0.640213 0.638738 0.687937 0.572514 0.348721 0.317930 0.152959 0.069194 0.021746 0.070387 0.020092 0.055007 -0.072678 0.057858 0.125359 0.202069 0.267639 0.315470 0.304233 0.366217 0.352687 0.487764 0.574237 0.526839 0.463630 0.500105 0.306960 0.388417 0.248787 0.128845 0.143405 0.039711 -0.002416 -0.042668 -0.017278 -0.088775 0.080668 0.060215 0.141109 0.156870 0.191299 0.417277 0.223848 0.375859 0.506257 0.375194 0.355917 0.268782 0.270521 0.177334 0.154040 0.074144 0.029362 0.023203 -0.071132 0.060510 0.058572 0.062794 0.153471 0.135276 0.229395 0.246584 0.207833 0.326604 0.331437 0.200868 0.183182 0.202208 0.076641 0.089961 0.044415 0.089442 0.063177 0.025155 -0.040423 0.027352 0.066871 0.059822 0.191849 0.174606 0.199848 0.271510 0.205790 0.193416 0.115620 0.060739 0.090063 0.030526 0.009857 -0.024265 0.093297 0.037001 0.086267 0.056248 0.102049 0.159421 0.149225 0.157851 0.118059 0.162329 0.183007 0.117456 0.024291 0.079752 -0.023760 0.003811 0.011859 0.022942 0.046697 0.092620 0.069112 -0.031344 0.073064 0.070017 0.061264 0.092366 0.093532 0.013571 0.057672 -0.031284 -0.016241 -0.018768 0.012641 0.012575 0.038952 0.136327 0.076573 0.088131 -0.038801 0.058807 0.023237 0.012225 0.045527 -0.014591 0.004994 0.026485 -0.066003 0.043786 0.045025 0.113884 0.047975 0.007887 0.097390 -0.014271 0.002281 0.016476 -0.134922 0.002284 -0.035873 -0.010435 0.058883 -0.000100 0.111739 0.004898 0.043611 -0.004817 -0.041707 0.050158 -0.031408 0.031069 0.020134 -0.022292 -0.066540 -0.055195 0.082394 0.076503 0.050486 -0.058363 -0.006585 0.019905 0.032458 -0.003210 -0.047556 0.059564 0.066936 0.099048 -0.018446 -0.009816 0.048778 0.057375 0.048255 0.117398 0.055969 0.051601 0.069981 0.123189 0.012669 0.130355 0.133683 0.188421 -0.031581 0.104664 -0.021578 0.052839 -0.043926 -0.031892 0.007429 -0.028862 0.079474 0.033880 0.085718 0.081910 -0.010644 0.034472 -0.027355 -0.068696 -0.118609 -0.026101 -0.081566 0.077955 0.124203 0.266374 0.339000 0.205220 0.210667 0.340891 0.376981 0.299973 0.293629 0.462934 0.184740 0.159157 0.408040 0.269708 -0.132499 -0.401061
0.072396 0.072823 0.074104 0.076238 0.079225 0.083064 0.087755 0.093297 0.099687 0.106924 0.115007 0.123931 0.133693 0.144290 0.155715 0.167964 0.181029 0.194902 0.209573 0.225031 0.241264 0.258256 0.275992 0.294453 0.313617 0.333461 0.353960 0.375084 0.396800 0.419074 0.441867 0.465136 0.488834 0.512913 0.537316 0.561986 0.586860 0.611868 0.636940 0.661997 0.686957 0.711734 0.736234 0.760362 0.784015 0.807087 0.829467 0.851038 0.871680 0.891270 0.909680 0.926778 0.942432 0.956504 0.968856 0.979351 0.987847 0.994206 0.998291 0.999965 0.999095 0.995554 0.989218 0.979971 0.967704 0.952318 0.933722 0.911841 0.886610 0.857980 0.825919 0.790410 0.751460 0.709091 0.663352 0.614312 0.562067 0.506737 0.448470 0.387440 0.323852 0.257937 0.189958 0.120204 0.048996 0.023317 0.096361 0.169733 0.243005 0.315727 0.387426 0.457614 0.525785 0.591422 0.654001 0.712993 0.767870 0.818111 0.863204 0.902656 0.935996 0.962781 0.982604 0.995098 0.999945 0.996881 0.985700 0.966265 0.938509 0.902443 0.858158 0.805831 0.745729 0.678210 0.603723 0.522812 0.436112 0.344348 0.248333 0.148962 0.047204 0.055903 0.159260 0.261722 0.362107 0.459209 0.551814 0.638715 0.718729 0.790714 0.853587 0.906342 0.948071 0.977977 0.995398 0.999816 0.990880 0.968414 0.932431 0.883144 0.820968 0.746529 0.660662 0.564407 0.459003 0.345878 0.226633 0.103026 0.023055 0.149615 0.274584 0.395849 0.511287 0.618811 0.716401 0.802151 0.874306 0.931303 0.971812 0.994771 0.999414 0.985309 0.952372 0.900891 0.831529 0.745334 0.643728 0.528497 0.401764 0.265959 0.123782 0.021853 0.167868 0.311084 0.448295 0.576335 0.692156 0.792906 0.876003 0.939207 0.980693 0.999105 0.993615 0.963959 0.910470 0.834089 0.736367 0.619443 0.486015 0.339288 0.182905 0.020863 0.142580 0.303016 0.456004 0.597196 0.722462 0.828021 0.910560 0.967351 0.996351 0.996289 0.966730 0.908120 0.821803 0.710007 0.575808 0.423059 0.256297 0.080618 0.098477 0.275234 0.443845 0.598634 0.734249 0.845863 0.929353 0.981471 0.999978 0.983767 0.932930 0.848799 0.733934 0.592070 0.428021 0.247519 0.057051 0.136385 0.325520 0.503088 0.662108 0.796175 0.899717 0.968255 0.998609 0.989071 0.939516 0.851459 0.728035 0.573921 0.395181 0.199047 0.006348 0.212310 0.409937 0.590508 0.745874 0.868842 0.953527 0.995647 0.992780 0.944515 0.852537 0.720602 0.554418 0.361429 0.150507 0.068439 0.284922 0.488362 0.668623 0.816517 0.924304 0.986108 0.998278 0.959630 0.871574 0.738112 0.565696 0.362948 0.140263 0.090708 0.317649 0.528234 0.710808 0.855042 0.952540 0.997364 0.986431 0.919759 0.800543 0.635056 0.432358 0.203835 0.037405 0.277277 0.501524 0.696576 0.850390 0.953213 0.998244 0.982117 0.905204 0.771672 0.589321 0.369167 0.124826 0.128311 0.374016 0.596286 0.780365 0.913779 0.987194 0.995129 0.936406 0.814333 0.636582 0.414761 0.163706 0.099476 0.356564 0.589458 0.781488 0.918613 0.990511 0.991385 0.920500 0.782346 0.586415 0.346632 0.080385 0.192676 0.452090 0.678105 0.853210 0.963530 0.999970 0.959030 0.843198 0.660884 0.425876 0.156361 0.126431 0.399896 0.641840 0.832299 0.955232 0.999924 0.961984 0.843843 0.654694 0.409857 0.129592 0.162512 0.441517 0.683243 0.866404 0.974521 0.997463 0.932477 0.784584 0.566278 0.296555 0.000670 0.298655 0.570200 0.790160 0.937804 0.998824 0.966805 0.843984 0.641202 0.377049
1.000000 1.000000 1.000000 1.000000 1.000000 1.000000 1.000000 1.000000 1.000000 1.000000 1.000000 1.000000 1.000000 1.000000 1.000000 1.000000 1.000000 1.000000 1.000000 1.000000 1.000000 1.000000 1.000000 1.000000 1.000000 1.000000 1.000000 1.000000 1.000000 1.000000 1.000000 1.000000 1.000000 1.000000 1.000000 1.000000 1.000000 1.000000 1.000000 1.000000 1.000000 1.000000 1.000000 1.000000 1.000000 1.000000 1.000000 1.000000 1.000000 1.000000 1.000000 1.000000 0.830634 0.830634 0.830634 0.830634 0.830634 0.830634 0.830634 0.830634 0.805597 0.805597 0.805597 0.805597 0.805597 0.805597 0.805597 0.805597 0.805597 0.805597 0.805597 0.805597 0.805597 0.805597 0.805597 0.805597 0.805597 0.805597 0.805597 0.805597 0.805597 0.805597 0.805597 0.805597 0.805597 0.805597 0.805597 0.805597 0.805597 0.805597 0.805597 0.805597 0.805597 0.805597 0.805597 0.805597 0.805597 0.805597 0.805597 0.805597 0.805597 0.805597 0.805597 0.805597 0.805597 0.952121 0.948549 0.949634 0.953971 0.957022 0.957371 0.957367 0.957274 0.957266 0.957620 0.957644 0.957845 0.958385 0.959621 0.960314 0.961169 0.961149 0.964605 0.963220 0.962108 0.962941 0.959746 0.957464 0.956350 0.956251 0.956815 0.958192 0.959457 0.958477 0.957677 0.958033 0.959042 0.957823 0.956304 0.955521 0.954688 0.956348 0.955277 0.954730 0.954613 0.954949 0.955393 0.956388 0.956079 0.956253 0.956377 0.956457 0.956615 0.958150 0.959002 0.960332 0.960273 0.958888 0.957327 0.954374 0.957752 0.955997 0.955862 0.955561 0.956397 0.955824 0.956174 0.956387 0.948127 0.940372 0.937521 0.924928 0.921820 0.919588 0.919065 0.917185 0.918958 0.916751 0.914128 0.911824 0.904699 0.906488 0.907799 0.904860 0.899001 0.895364 0.898070 0.899086 0.897845 0.890270 0.877702 0.874833 0.872184 0.872979 0.876793 0.866526 0.866738 0.866235 0.859972 0.856016 0.858198 0.855587 0.856651 0.848086 0.846396 0.839151 0.842452 0.837582 0.835554 0.843116 0.845783 0.849974 0.848928 0.845100 0.841816 0.833688 0.776345 0.773883 0.769202 0.775399 0.769992 0.759670 0.748116 0.740827 0.740348 0.736803 0.758797 0.767194 0.776123 0.777363 0.768803 0.761307 0.756257 0.754679 0.759841 0.722981 0.729718 0.729652 0.727215 0.714170 0.716459 0.698842 0.679567 0.670162 0.670665 0.678511 0.681066 0.685089 0.680433 0.676261 0.668816 0.662569 0.654264 0.673542 0.642816 0.637908 0.627386 0.604542 0.611633 0.613735 0.609487 0.619949 0.617164 0.601725 0.594414 0.556891 0.522844 0.522628 0.500037 0.470108 0.480656 0.498169 0.510212 0.450912 0.424662 0.410343 0.396946 0.403114 0.403572 0.475195 0.453655 0.451637 0.459874 0.424775 0.393605 0.382315 0.380868 0.348235 0.306263 0.287932 0.290557 0.296941 0.275538 0.251602 0.222495 0.268989 0.276980 0.301782 0.263680 0.272393 0.251696 0.248729 0.285612 0.314166 0.317977 0.303500 0.321140 0.333689 0.317320 0.306952 0.307076 0.306156 0.331964 0.331539 0.331772 0.327078 0.337402 0.352185 0.336212 0.336176 0.306554 0.307413 0.284768 0.252496 0.261178 0.265915 0.200543 0.197505 0.197477 0.212152 0.217026 0.217026 0.217026 0.217026 0.217026 0.217026 0.217026 0.217026 0.225513 0.225513 0.225513 0.225513 0.225513 0.225513 0.225513 0.225513 0.225513 0.225513 0.217026 0.217026 0.217026 0.217026 0.217026 0.217026 0.217026 0.217026 0.217026 0.217026 0.217026 0.217026 0.217026 0.217026 0.217026
0.000000 0.000000 0.000000 0.000000 0.000000 0.000000 0.000000 0.000000 0.000000 0.000000 0.000000 0.000000 0.000000 0.000000 0.000000 0.000000 0.000000 0.000000 0.000000 0.000000 0.000000 9401.000000 0.000000 0.000000 0.000000 0.000000 0.000000 0.000000 0.000000 0.000000 0.000000 0.000000 0.000000 0.000000 0.000000 0.000000 0.000000 0.000000 0.000000 0.000000 0.000000 0.000000 0.000000 0.000000 0.000000 0.000000 0.000000 0.000000 0.000000 0.000000 0.000000 0.000000 0.172133 0.172133 0.172133 0.172133 0.172133 0.172133 0.172133 0.172133 0.189832 0.189832 0.189832 0.189832 0.189832 0.189832 0.189832 0.189832 0.189832 0.189832 0.189832 0.189832 0.189832 0.189832 0.189832 0.189832 0.189832 0.189832 0.189832 0.189832 0.189832 0.189832 0.189832 0.189832 0.189832 0.189832 0.189832 0.189832 0.189832 0.189832 0.189832 0.189832 0.189832 0.189832 0.189832 0.189832 0.189832 0.189832 0.189832 0.189832 0.189832 0.189832 0.189832 0.189832 0.189832 0.222222 0.222222 0.222222 0.222222 0.222222 0.222222 0.222222 0.222222 0.222222 0.222222 0.222222 0.222222 0.222222 0.222222 0.222222 0.222222 0.222222 0.222222 0.222222 0.222222 0.222222 0.222222 0.222222 0.222222 0.222222 0.222222 0.222222 0.222222 0.222222 0.222222 0.234082 0.234082 0.234082 0.234082 0.234082 0.234082 0.234082 0.234082 0.234082 0.234082 0.234082 0.234082 0.234082 0.234082 0.234082 0.234082 0.234082 0.234082 0.234082 0.234082 0.234082 0.234082 0.234082 0.234082 0.234082 0.240772 0.240772 0.240772 0.240772 0.240772 0.240772 0.240772 0.240772 0.240772 0.240772 0.240772 0.240772 0.240772 0.240772 0.240772 0.240772 0.240772 0.240772 0.240772 0.240772 0.240772 0.240772 0.248069 0.248069 0.248069 0.248069 0.248069 0.248069 0.248069 0.248069 0.248069 0.248069 0.248069 0.248069 0.248069 0.248069 0.248069 0.248069 0.248069 0.248069 0.248069 0.248069 0.248069 0.248069 0.248069 0.248069 0.248069 0.248069 0.248069 0.248069 0.248069 0.248069 0.248069 0.248069 0.248069 0.248069 0.248069 0.248069 0.248069 0.256074 0.256074 0.256074 0.256074 0.256074 0.256074 0.256074 0.256074 0.256074 0.256074 0.256074 0.256074 0.256074 0.256074 0.256074 0.256074 0.256074 0.256074 0.256074 0.256074 0.256074 0.256074 0.256074 0.256074 0.256074 0.256074 0.256074 0.256074 0.256074 0.256074 0.256074 0.256074 0.256074 0.256074 0.256074 0.256074 0.256074 0.256074 0.256074 0.256074 0.256074 0.256074 0.256074 0.256074 0.256074 0.251976 0.251976 0.251976 0.251976 0.251976 0.251976 0.251976 0.251976 0.251976 0.251976 0.251976 0.251976 0.251976 0.251976 0.256074 0.256074 0.256074 0.256074 0.256074 0.256074 0.256074 0.256074 0.256074 0.256074 0.256074 0.256074 0.256074 0.260378 0.260378 0.260378 0.260378 0.260378 0.260378 0.260378 0.260378 0.260378 0.260378 0.260378 0.260378 0.251976 0.251976 0.251976 0.251976 0.251976 0.251976 0.251976 0.251976 0.251976 0.251976 0.251976 0.251976 0.256074 0.256074 0.256074 0.256074 0.256074 0.256074 0.256074 0.256074 0.256074 0.256074 0.256074 0.244339 0.244339 0.244339 0.244339 0.244339 0.244339 0.244339 0.244339 0.244339 0.244339 0.244339 0.244339 0.260378 0.260378 0.260378 0.260378 0.260378 0.260378 0.260378 0.260378 0.260378 0.260378 0.244339 0.244339 0.244339 0.244339 0.244339 0.244339 0.244339 0.244339 0.244339 0.244339 0.244339 0.244339 0.244339 0.244339 0.244339
