# Output from CTFFind version 4.1.9, run on 2019-11-03 18:51:55
# Input file: stack14_ub_averaged_1500.mrc ; Number of micrographs: 1
# Pixel size: 3.000 Angstroms ; acceleration voltage: 300.0 keV ; spherical aberration: 0.00 mm ; amplitude contrast: 0.07
# Box size: 512 pixels ; min. res.: 30.0 Angstroms ; max. res.: 5.0 Angstroms ; min. def.: 5000.0 um; max. def. 50000.0 um; num. frames averaged: 1
# 6 lines per micrograph: #1 - spatial frequency (1/Angstroms); #2 - 1D rotational average of spectrum (assuming no astigmatism); #3 - 1D rotational average of spectrum; #4 - CTF fit; #5 - cross-correlation between spectrum and CTF fit; #6 - 2sigma of expected cross correlation of noise
0.000000 0.000651 0.001302 0.001953 0.002604 0.003255 0.003906 0.004557 0.005208 0.005859 0.006510 0.007161 0.007812 0.008464 0.009115 0.009766 0.010417 0.011068 0.011719 0.012370 0.013021 0.013672 0.014323 0.014974 0.015625 0.016276 0.016927 0.017578 0.018229 0.018880 0.019531 0.020182 0.020833 0.021484 0.022135 0.022786 0.023438 0.024089 0.024740 0.025391 0.026042 0.026693 0.027344 0.027995 0.028646 0.029297 0.029948 0.030599 0.031250 0.031901 0.032552 0.033203 0.033854 0.034505 0.035156 0.035807 0.036458 0.037109 0.037760 0.038411 0.039062 0.039714 0.040365 0.041016 0.041667 0.042318 0.042969 0.043620 0.044271 0.044922 0.045573 0.046224 0.046875 0.047526 0.048177 0.048828 0.049479 0.050130 0.050781 0.051432 0.052083 0.052734 0.053385 0.054036 0.054688 0.055339 0.055990 0.056641 0.057292 0.057943 0.058594 0.059245 0.059896 0.060547 0.061198 0.061849 0.062500 0.063151 0.063802 0.064453 0.065104 0.065755 0.066406 0.067057 0.067708 0.068359 0.069010 0.069661 0.070312 0.070964 0.071615 0.072266 0.072917 0.073568 0.074219 0.074870 0.075521 0.076172 0.076823 0.077474 0.078125 0.078776 0.079427 0.080078 0.080729 0.081380 0.082031 0.082682 0.083333 0.083984 0.084635 0.085286 0.085938 0.086589 0.087240 0.087891 0.088542 0.089193 0.089844 0.090495 0.091146 0.091797 0.092448 0.093099 0.093750 0.094401 0.095052 0.095703 0.096354 0.097005 0.097656 0.098307 0.098958 0.099609 0.100260 0.100911 0.101562 0.102214 0.102865 0.103516 0.104167 0.104818 0.105469 0.106120 0.106771 0.107422 0.108073 0.108724 0.109375 0.110026 0.110677 0.111328 0.111979 0.112630 0.113281 0.113932 0.114583 0.115234 0.115885 0.116536 0.117188 0.117839 0.118490 0.119141 0.119792 0.120443 0.121094 0.121745 0.122396 0.123047 0.123698 0.124349 0.125000 0.125651 0.126302 0.126953 0.127604 0.128255 0.128906 0.129557 0.130208 0.130859 0.131510 0.132161 0.132812 0.133464 0.134115 0.134766 0.135417 0.136068 0.136719 0.137370 0.138021 0.138672 0.139323 0.139974 0.140625 0.141276 0.141927 0.142578 0.143229 0.143880 0.144531 0.145182 0.145833 0.146484 0.147135 0.147786 0.148438 0.149089 0.149740 0.150391 0.151042 0.151693 0.152344 0.152995 0.153646 0.154297 0.154948 0.155599 0.156250 0.156901 0.157552 0.158203 0.158854 0.159505 0.160156 0.160807 0.161458 0.162109 0.162760 0.163411 0.164062 0.164714 0.165365 0.166016 0.166667 0.167318 0.167969 0.168620 0.169271 0.169922 0.170573 0.171224 0.171875 0.172526 0.173177 0.173828 0.174479 0.175130 0.175781 0.176432 0.177083 0.177734 0.178385 0.179036 0.179688 0.180339 0.180990 0.181641 0.182292 0.182943 0.183594 0.184245 0.184896 0.185547 0.186198 0.186849 0.187500 0.188151 0.188802 0.189453 0.190104 0.190755 0.191406 0.192057 0.192708 0.193359 0.194010 0.194661 0.195312 0.195964 0.196615 0.197266 0.197917 0.198568 0.199219 0.199870 0.200521 0.201172 0.201823 0.202474 0.203125 0.203776 0.204427 0.205078 0.205729 0.206380 0.207031 0.207682 0.208333 0.208984 0.209635 0.210286 0.210938 0.211589 0.212240 0.212891 0.213542 0.214193 0.214844 0.215495 0.216146 0.216797 0.217448 0.218099 0.218750 0.219401 0.220052 0.220703 0.221354 0.222005 0.222656 0.223307 0.223958 0.224609 0.225260 0.225911 0.226562 0.227214 0.227865 0.228516 0.229167 0.229818 0.230469 0.231120 0.231771 0.232422 0.233073 0.233724 0.234375 0.235026 0.235677
       0.30811        0.30811        0.30811        0.30811        0.30811        0.30811        0.30811        0.30811        0.30811        0.30811        0.30811        0.30811        0.30811        0.30811        0.30811        0.30811        0.30811        0.30811        0.30811        0.30811        0.30811        0.30811        0.30811        0.30811        0.30811        0.30811        0.30811        0.30811        0.30811        0.30811        0.30811        0.30811        0.30811        0.30811        0.30811        0.30811        0.30811        0.30811        0.30811        0.30811        0.30811        0.30811        0.30811        0.30811        0.30811        0.30811        0.30811        0.30811        0.30811        0.30811        0.30811        0.43357        0.54328        0.19515       -0.14236       -0.34795       -0.39306       -0.47159       -0.60562       -0.61090       -0.61021       -0.58326       -0.57144       -0.58493       -0.71360       -0.80933       -0.81001       -0.83485       -0.78138       -0.85325       -0.69375       -0.79777       -0.74643       -0.56458       -0.47673       -0.36664       -0.22785       -0.12066       -0.13951        0.09933        0.25510        0.24002        0.33257        0.45402        0.47489        0.58100        0.49308        0.62814        0.61208        0.62039        0.51664        0.41445        0.33088        0.27674        0.25422        0.17804        0.09199        0.06919       -0.05882       -0.03840       -0.06538       -0.07789       -0.01544        0.04570        0.13530        0.18512        0.36759        0.45508        0.53397        0.58742        0.55535        0.64960        0.70361        0.63185        0.53802        0.49109        0.49906        0.38825        0.29580        0.17277        0.09176        0.03098       -0.01953       -0.05044        0.05799        0.12262        0.22830        0.34837        0.44486        0.55643        0.54991        0.61253        0.64340        0.58402        0.53017        0.54519        0.43363        0.35291        0.25467        0.17051        0.10295        0.03177        0.07016        0.09467        0.18104        0.28562        0.31320        0.42154        0.47220        0.46710        0.50277        0.53922        0.43292        0.43637        0.32078        0.19320        0.21144        0.10266        0.13180        0.13465        0.15774        0.25769        0.33411        0.44116        0.44011        0.42321        0.48467        0.46840        0.44575        0.41380        0.34861        0.21777        0.14450        0.23902        0.24795        0.21293        0.22757        0.34709        0.41425        0.48067        0.49319        0.44197        0.39182        0.35647        0.27595        0.27991        0.23361        0.23782        0.18838        0.24477        0.27022        0.35395        0.37756        0.43706        0.41956        0.37179        0.34214        0.34075        0.27072        0.23646        0.23180        0.25371        0.27040        0.33730        0.36502        0.35288        0.36226        0.39072        0.38198        0.36473        0.25998        0.26206        0.24964        0.24291        0.25805        0.23378        0.32030        0.40845        0.36769        0.33699        0.35244        0.30139        0.27741        0.26768        0.23534        0.27162        0.31982        0.30822        0.33311        0.32747        0.35124        0.34831        0.32195        0.31544        0.26290        0.28681        0.26551        0.28135        0.31163        0.31616        0.29463        0.31455        0.32547        0.29748        0.28306        0.25252        0.28127        0.27434        0.27092        0.33193        0.31698        0.26517        0.29726        0.27868        0.26888        0.23025        0.24022        0.30638        0.28932        0.30274        0.28887        0.31743        0.28449        0.23892        0.27285        0.28348        0.27059        0.26140        0.31445        0.35987        0.35696        0.31752        0.31171        0.27281        0.29045        0.27239        0.27340        0.29600        0.30215        0.30986        0.26646        0.25918        0.26844        0.28159        0.26578        0.27796        0.29577        0.33483        0.31482        0.28636        0.29431        0.28762        0.26249        0.26006        0.25107        0.29216        0.29237        0.29986        0.25669        0.20176        0.24104        0.24128        0.24316        0.28759        0.30744        0.28971        0.24798        0.25284        0.26639        0.25773        0.23186        0.23205        0.27729        0.27466        0.35593        0.31117        0.24946        0.26491        0.24164        0.23795        0.29666        0.30675        0.30029        0.24539        0.31563        0.27793        0.24937        0.27515        0.28349        0.27649        0.29372        0.23509        0.24397        0.28029        0.26675        0.24623        0.22267        0.22809        0.24374        0.22995        0.19289        0.16189        0.23547        0.26463        0.20918        0.25784        0.30567        0.22496        0.26503        0.26888        0.33929        0.29273        0.18870        0.29214        0.22013        0.20212        0.29428        0.18137        0.09832        0.03854        0.01380       -0.29131       -0.15903
2.497349 2.469683 2.442178 2.414837 2.387657 2.360639 2.333783 2.307089 2.280557 2.254187 2.227980 2.201934 2.176051 2.150329 2.124770 2.099372 2.074137 2.049063 2.024152 1.999403 1.974816 1.950391 1.926127 1.902026 1.878087 1.854310 1.830695 1.807243 1.783952 1.760823 1.737856 1.715052 1.692409 1.669928 1.647610 1.625453 1.603459 1.581627 1.559956 1.538448 1.517102 1.495917 1.474895 1.454035 1.433337 1.412801 1.392427 1.372215 1.352165 1.332277 1.312552 1.423214 1.542313 1.189634 0.789057 0.458940 0.541243 0.357900 0.134612 0.206239 0.149597 0.091450 0.179594 0.129616 0.038945 -0.197259 -0.194122 -0.207740 -0.182163 -0.305148 -0.049271 -0.296667 -0.225967 -0.026785 0.006332 0.123862 0.290613 0.367570 0.348187 0.465777 0.752386 0.709815 0.773742 0.855870 0.911471 1.019822 0.973810 0.944309 1.033850 0.981587 0.972560 0.683869 0.767219 0.554080 0.577823 0.484282 0.349618 0.329473 0.158035 0.211005 0.110302 0.089943 0.192104 0.194496 0.244294 0.343833 0.467378 0.642559 0.643895 0.656879 0.786435 0.717795 0.792116 0.739979 0.669564 0.595752 0.602198 0.454282 0.389919 0.208828 0.164830 0.026320 -0.017148 -0.070330 -0.063930 0.129878 0.129186 0.329418 0.359026 0.452488 0.557178 0.549250 0.610888 0.612223 0.466411 0.528360 0.341772 0.365394 0.216733 0.092930 0.012811 -0.050471 -0.069659 -0.045621 -0.005889 0.147227 0.190561 0.237665 0.358187 0.338633 0.421390 0.502829 0.389657 0.349986 0.299960 0.100877 0.077040 0.036986 -0.020365 0.016370 -0.007602 0.090081 0.153316 0.304313 0.282804 0.314558 0.342309 0.336217 0.309894 0.300763 0.227099 0.103910 -0.039330 0.028463 0.086967 0.040488 0.021250 0.102253 0.197637 0.287127 0.262508 0.312042 0.172045 0.215631 0.100794 0.073690 0.018721 -0.007786 0.020471 -0.025999 0.008211 0.111122 0.143939 0.189125 0.206782 0.159119 0.141431 0.100808 0.100150 -0.029015 0.003850 -0.019331 0.016015 0.056393 0.096332 0.130874 0.115258 0.133656 0.148773 0.161244 0.083022 -0.004649 0.002832 0.003543 -0.000248 -0.007602 -0.005774 0.116176 0.164469 0.096540 0.110534 0.090257 0.010090 0.012995 -0.017948 -0.015248 0.032186 0.059638 0.039159 0.073965 0.087985 0.074194 0.102546 0.069389 0.005818 0.010545 0.040638 -0.020457 0.028993 0.054213 0.031611 0.043003 0.056469 0.043728 0.022359 0.011091 -0.032798 0.020496 -0.013827 0.019659 0.078349 0.030132 0.001864 0.003482 0.027703 -0.019761 -0.065401 -0.007206 0.035709 0.030670 0.022507 0.033614 0.053719 -0.005106 -0.025881 0.017264 0.024622 0.010644 -0.016556 0.075477 0.098346 0.070818 0.061769 0.043353 -0.012342 0.039070 -0.015133 0.030481 0.046772 0.023694 0.057865 -0.014759 0.023802 0.001284 0.009983 0.037729 -0.001861 0.046653 0.098630 0.023357 0.063052 0.035239 0.023778 -0.001677 0.003702 0.011153 0.048442 0.018560 0.049455 -0.059642 -0.045404 0.000500 -0.056325 -0.032541 0.031086 0.068880 0.031373 -0.048228 -0.012840 0.027596 -0.004336 -0.033944 -0.034839 0.068965 -0.033770 0.132371 0.021632 0.016931 0.017531 -0.031609 0.007010 0.055788 0.048292 0.074922 -0.016325 0.078678 0.062307 -0.025662 0.058503 0.027153 0.079990 0.056514 -0.000385 -0.003037 0.040510 0.020625 -0.019248 -0.088719 -0.024304 -0.065284 -0.035432 -0.088240 -0.133498 -0.033230 -0.021693 -0.121803 -0.033640 0.067039 -0.042038 0.003084 0.019866 0.129440 0.050451 -0.075417 0.096595 0.034531 -0.034683 0.180376 0.148202 0.216784 -0.066936 0.021526 -0.169700
0.072396 0.073021 0.074895 0.078017 0.082387 0.088004 0.094865 0.102967 0.112308 0.122882 0.134683 0.147704 0.161936 0.177367 0.193984 0.211770 0.230705 0.250766 0.271926 0.294152 0.317408 0.341653 0.366838 0.392909 0.419805 0.447458 0.475792 0.504723 0.534156 0.563991 0.594115 0.624406 0.654734 0.684956 0.714918 0.744459 0.773405 0.801571 0.828763 0.854777 0.879401 0.902412 0.923582 0.942676 0.959452 0.973666 0.985072 0.993423 0.998474 0.999985 0.997722 0.991462 0.980993 0.966120 0.946667 0.922481 0.893435 0.859432 0.820411 0.776346 0.727254 0.673199 0.614290 0.550693 0.482624 0.410362 0.334242 0.254661 0.172081 0.087023 0.000072 0.088127 0.176873 0.265408 0.352929 0.438585 0.521494 0.600743 0.675405 0.744542 0.807226 0.862544 0.909621 0.947625 0.975792 0.993437 0.999972 0.994921 0.977939 0.948825 0.907536 0.854201 0.789131 0.712826 0.625985 0.529504 0.424478 0.312195 0.194126 0.071915 0.052640 0.177611 0.300966 0.420598 0.534365 0.640126 0.735781 0.819323 0.888879 0.942759 0.979502 0.997927 0.997168 0.976720 0.936466 0.876713 0.798200 0.702116 0.590093 0.464201 0.326915 0.181084 0.029885 0.123250 0.274692 0.420710 0.557556 0.681568 0.789270 0.877483 0.943425 0.984812 0.999952 0.987826 0.948152 0.881431 0.788979 0.672924 0.536185 0.382422 0.215952 0.041654 0.135173 0.308956 0.474023 0.624793 0.755968 0.862732 0.940948 0.987330 0.999610 0.976666 0.918617 0.826878 0.704166 0.554456 0.382886 0.195605 0.000423 0.197662 0.388289 0.564502 0.718843 0.844535 0.935796 0.988131 0.998591 0.965960 0.890891 0.775956 0.625599 0.446024 0.244966 0.031392 0.184874 0.393592 0.584594 0.748288 0.876156 0.961231 0.998515 0.985313 0.921465 0.809455 0.654376 0.463763 0.247273 0.016241 0.216899 0.439253 0.638194 0.802088 0.921012 0.987388 0.996524 0.946993 0.840846 0.683606 0.484060 0.253823 0.006723 0.242014 0.476664 0.682020 0.844399 0.952583 0.998661 0.978668 0.892990 0.746482 0.548295 0.311372 0.051672 0.212858 0.463505 0.682110 0.852421 0.961333 0.999979 0.964521 0.856609 0.683425 0.457317 0.194998 0.083621 0.356897 0.603134 0.802309 0.937765 0.997660 0.976100 0.873811 0.698278 0.463322 0.188113 0.104320 0.388972 0.640982 0.837824 0.961401 0.999774 0.948433 0.810928 0.598766 0.330594 0.030650 0.273354 0.552752 0.780648 0.934550 0.998686 0.965735 0.837784 0.626390 0.351674 0.040542 0.275883 0.565319 0.797647 0.948098 0.999999 0.946753 0.792822 0.553528 0.253713 0.074747 0.396228 0.675206 0.880224 0.987525 0.983937 0.868648 0.653628 0.362557 0.028400 0.310250 0.613566 0.845198 0.976710 0.991218 0.885721 0.671825 0.374669 0.030153 0.319286 0.629853 0.861899 0.985089 0.982521 0.853235 0.612726 0.291316 0.069496 0.422282 0.719875 0.921736 0.999605 0.941640 0.754440 0.462557 0.105501 0.267434 0.603924 0.855931 0.986703 0.976293 0.824842 0.553015 0.199431 0.184609 0.542472 0.820526 0.976277 0.985037 0.844094 0.573610 0.214019 0.179802 0.546776 0.829096 0.981418 0.978362 0.818992 0.527511 0.149858 0.253280 0.616126 0.878550 0.996154 0.948041 0.740801 0.407991 0.004992 0.400009 0.737457 0.948451 0.995223 0.868157 0.588095 0.203241 0.218833 0.602919 0.879563 0.997769 0.934664 0.700262 0.336280 0.090962 0.502416 0.820881 0.985579 0.964029 0.758787 0.407653 0.022941 0.450220 0.790938 0.977638 0.972290 0.774393 0.421786 0.016176 0.452012
1.000000 1.000000 1.000000 1.000000 1.000000 1.000000 1.000000 1.000000 1.000000 1.000000 1.000000 1.000000 1.000000 1.000000 1.000000 1.000000 1.000000 1.000000 1.000000 1.000000 1.000000 1.000000 1.000000 1.000000 1.000000 1.000000 1.000000 1.000000 1.000000 1.000000 1.000000 1.000000 1.000000 1.000000 1.000000 1.000000 1.000000 1.000000 1.000000 1.000000 1.000000 1.000000 1.000000 1.000000 1.000000 1.000000 1.000000 1.000000 1.000000 1.000000 1.000000 1.000000 0.942234 0.942234 0.942234 0.942234 0.942234 0.942234 0.942234 0.942234 0.942234 0.942234 0.942234 0.942234 0.942234 0.942234 0.942234 0.942234 0.942234 0.942234 0.942234 0.942234 0.942234 0.942234 0.942234 0.942234 0.942234 0.942234 0.942234 0.942234 0.942234 0.942234 0.942234 0.942234 0.942234 0.942234 0.942234 0.920938 0.922468 0.926248 0.927499 0.927839 0.944110 0.944171 0.945452 0.950969 0.952936 0.954577 0.955307 0.963939 0.967039 0.966419 0.966330 0.963543 0.984785 0.983875 0.983375 0.983533 0.984447 0.984686 0.984507 0.984909 0.986261 0.985792 0.985006 0.984115 0.983341 0.983232 0.984075 0.982527 0.982592 0.983225 0.983834 0.983735 0.984096 0.984447 0.984494 0.984883 0.985617 0.981339 0.980688 0.979336 0.978295 0.978260 0.977925 0.977496 0.976029 0.975823 0.974884 0.975089 0.974966 0.974639 0.972875 0.973578 0.973385 0.969942 0.968744 0.966685 0.964864 0.951248 0.938891 0.933818 0.933847 0.932015 0.933531 0.923272 0.922722 0.915997 0.914136 0.915123 0.917824 0.918290 0.906458 0.887480 0.879925 0.873154 0.876064 0.878464 0.875954 0.868748 0.865422 0.863858 0.870402 0.873159 0.877968 0.876658 0.871792 0.867289 0.863912 0.858640 0.858826 0.855125 0.857049 0.855229 0.838167 0.847198 0.848381 0.857095 0.863947 0.862008 0.837666 0.796356 0.793387 0.794704 0.795489 0.793096 0.797469 0.804573 0.812398 0.809265 0.813493 0.821925 0.806522 0.812112 0.817404 0.817531 0.798955 0.777701 0.772258 0.768854 0.760327 0.746668 0.741229 0.742917 0.738575 0.738439 0.732767 0.727274 0.715099 0.711132 0.675164 0.678382 0.672197 0.657855 0.661747 0.662434 0.657541 0.641520 0.638102 0.622985 0.617975 0.611208 0.614752 0.606552 0.612747 0.622914 0.612827 0.599611 0.581101 0.577983 0.579568 0.535442 0.538858 0.567832 0.607775 0.601345 0.585304 0.608908 0.603211 0.587434 0.575973 0.556627 0.546009 0.556543 0.561065 0.541274 0.544941 0.529586 0.536964 0.537213 0.510417 0.535225 0.505761 0.492762 0.498789 0.524147 0.535847 0.505116 0.467450 0.474094 0.477832 0.497748 0.514383 0.501468 0.521564 0.522346 0.513369 0.480188 0.481257 0.501020 0.500177 0.503702 0.494529 0.496428 0.460713 0.420255 0.421414 0.386864 0.372415 0.371780 0.362256 0.332683 0.325368 0.318657 0.343511 0.336347 0.357324 0.320088 0.332311 0.281710 0.283195 0.227155 0.246011 0.239202 0.245134 0.266288 0.258766 0.258183 0.260801 0.292780 0.296422 0.273508 0.253738 0.225305 0.239582 0.214396 0.193644 0.208588 0.201494 0.196443 0.125151 0.129408 0.118064 0.147462 0.168135 0.159595 0.122843 0.116754 0.090992 0.080421 0.076248 0.054276 0.002140 -0.011714 0.001706 0.036341 0.100054 0.100054 0.100054 0.100054 0.100054 0.100054 0.100054 0.100054 0.102994 0.102994 0.102994 0.102994 0.102994 0.102994 0.102994 0.102994 0.102994 0.102994 0.102994 0.102994 0.102994 0.102994 0.102994 0.102994 0.102994 0.102994 0.102994
0.000000 0.000000 0.000000 0.000000 0.000000 0.000000 0.000000 0.000000 0.000000 0.000000 0.000000 0.000000 0.000000 0.000000 0.000000 0.000000 0.000000 0.000000 0.000000 0.000000 0.000000 0.000000 0.000000 0.000000 0.000000 0.000000 0.000000 0.000000 0.000000 0.000000 0.000000 0.000000 0.000000 0.000000 0.000000 0.000000 0.000000 0.000000 0.000000 0.000000 0.000000 0.000000 0.000000 0.000000 0.000000 0.000000 0.000000 0.000000 0.000000 0.000000 0.000000 0.000000 0.207390 0.207390 0.207390 0.207390 0.207390 0.207390 0.207390 0.207390 0.207390 0.207390 0.207390 0.207390 0.207390 0.207390 0.207390 0.207390 0.207390 0.207390 0.207390 0.207390 0.207390 0.207390 0.207390 0.207390 0.207390 0.207390 0.207390 0.207390 0.207390 0.207390 0.207390 0.207390 0.207390 0.207390 0.207390 0.244339 0.244339 0.244339 0.244339 0.244339 0.244339 0.244339 0.244339 0.244339 0.244339 0.244339 0.244339 0.244339 0.244339 0.244339 0.244339 0.244339 0.244339 0.244339 0.244339 0.244339 0.244339 0.244339 0.244339 0.244339 0.256074 0.256074 0.256074 0.256074 0.256074 0.256074 0.256074 0.256074 0.256074 0.256074 0.256074 0.256074 0.256074 0.256074 0.256074 0.256074 0.256074 0.256074 0.256074 0.256074 0.256074 0.269680 0.269680 0.269680 0.269680 0.269680 0.269680 0.269680 0.269680 0.269680 0.269680 0.269680 0.269680 0.269680 0.269680 0.269680 0.269680 0.269680 0.269680 0.269680 0.269680 0.269680 0.269680 0.269680 0.269680 0.269680 0.269680 0.269680 0.269680 0.269680 0.269680 0.269680 0.269680 0.269680 0.269680 0.269680 0.269680 0.269680 0.269680 0.269680 0.269680 0.269680 0.269680 0.269680 0.269680 0.269680 0.269680 0.269680 0.269680 0.280056 0.280056 0.280056 0.280056 0.280056 0.280056 0.280056 0.280056 0.280056 0.280056 0.280056 0.280056 0.280056 0.274721 0.274721 0.274721 0.274721 0.274721 0.274721 0.274721 0.274721 0.274721 0.274721 0.274721 0.274721 0.274721 0.274721 0.274721 0.274721 0.274721 0.274721 0.274721 0.274721 0.274721 0.274721 0.274721 0.274721 0.274721 0.280056 0.280056 0.280056 0.280056 0.280056 0.280056 0.280056 0.280056 0.280056 0.280056 0.280056 0.285714 0.285714 0.285714 0.285714 0.285714 0.285714 0.285714 0.285714 0.285714 0.285714 0.269680 0.269680 0.269680 0.269680 0.269680 0.269680 0.269680 0.269680 0.269680 0.269680 0.269680 0.285714 0.285714 0.285714 0.285714 0.285714 0.285714 0.285714 0.285714 0.285714 0.269680 0.269680 0.269680 0.269680 0.269680 0.269680 0.269680 0.269680 0.269680 0.269680 0.274721 0.274721 0.274721 0.274721 0.274721 0.274721 0.274721 0.274721 0.274721 0.269680 0.269680 0.269680 0.269680 0.269680 0.269680 0.269680 0.269680 0.269680 0.264906 0.264906 0.264906 0.264906 0.264906 0.264906 0.264906 0.264906 0.264906 0.274721 0.274721 0.274721 0.274721 0.274721 0.274721 0.274721 0.274721 0.269680 0.269680 0.269680 0.269680 0.269680 0.269680 0.269680 0.269680 0.269680 0.269680 0.269680 0.269680 0.269680 0.269680 0.269680 0.269680 0.264906 0.264906 0.264906 0.264906 0.264906 0.264906 0.264906 0.264906 0.274721 0.274721 0.274721 0.274721 0.274721 0.274721 0.274721 0.256074 0.256074 0.256074 0.256074 0.256074 0.256074 0.256074 0.256074 0.264906 0.264906 0.264906 0.264906 0.264906 0.264906 0.264906 0.264906 0.264906 0.264906 0.264906 0.264906 0.264906 0.264906 0.264906 0.264906 0.264906 0.264906 0.264906
