# Output from CTFFind version 4.1.9, run on 2019-11-03 18:51:56
# Input file: stack12_ub_averaged_1500.mrc ; Number of micrographs: 1
# Pixel size: 3.000 Angstroms ; acceleration voltage: 300.0 keV ; spherical aberration: 0.00 mm ; amplitude contrast: 0.07
# Box size: 512 pixels ; min. res.: 30.0 Angstroms ; max. res.: 5.0 Angstroms ; min. def.: 5000.0 um; max. def. 50000.0 um; num. frames averaged: 1
# 6 lines per micrograph: #1 - spatial frequency (1/Angstroms); #2 - 1D rotational average of spectrum (assuming no astigmatism); #3 - 1D rotational average of spectrum; #4 - CTF fit; #5 - cross-correlation between spectrum and CTF fit; #6 - 2sigma of expected cross correlation of noise
0.000000 0.000651 0.001302 0.001953 0.002604 0.003255 0.003906 0.004557 0.005208 0.005859 0.006510 0.007161 0.007812 0.008464 0.009115 0.009766 0.010417 0.011068 0.011719 0.012370 0.013021 0.013672 0.014323 0.014974 0.015625 0.016276 0.016927 0.017578 0.018229 0.018880 0.019531 0.020182 0.020833 0.021484 0.022135 0.022786 0.023438 0.024089 0.024740 0.025391 0.026042 0.026693 0.027344 0.027995 0.028646 0.029297 0.029948 0.030599 0.031250 0.031901 0.032552 0.033203 0.033854 0.034505 0.035156 0.035807 0.036458 0.037109 0.037760 0.038411 0.039062 0.039714 0.040365 0.041016 0.041667 0.042318 0.042969 0.043620 0.044271 0.044922 0.045573 0.046224 0.046875 0.047526 0.048177 0.048828 0.049479 0.050130 0.050781 0.051432 0.052083 0.052734 0.053385 0.054036 0.054688 0.055339 0.055990 0.056641 0.057292 0.057943 0.058594 0.059245 0.059896 0.060547 0.061198 0.061849 0.062500 0.063151 0.063802 0.064453 0.065104 0.065755 0.066406 0.067057 0.067708 0.068359 0.069010 0.069661 0.070312 0.070964 0.071615 0.072266 0.072917 0.073568 0.074219 0.074870 0.075521 0.076172 0.076823 0.077474 0.078125 0.078776 0.079427 0.080078 0.080729 0.081380 0.082031 0.082682 0.083333 0.083984 0.084635 0.085286 0.085938 0.086589 0.087240 0.087891 0.088542 0.089193 0.089844 0.090495 0.091146 0.091797 0.092448 0.093099 0.093750 0.094401 0.095052 0.095703 0.096354 0.097005 0.097656 0.098307 0.098958 0.099609 0.100260 0.100911 0.101562 0.102214 0.102865 0.103516 0.104167 0.104818 0.105469 0.106120 0.106771 0.107422 0.108073 0.108724 0.109375 0.110026 0.110677 0.111328 0.111979 0.112630 0.113281 0.113932 0.114583 0.115234 0.115885 0.116536 0.117188 0.117839 0.118490 0.119141 0.119792 0.120443 0.121094 0.121745 0.122396 0.123047 0.123698 0.124349 0.125000 0.125651 0.126302 0.126953 0.127604 0.128255 0.128906 0.129557 0.130208 0.130859 0.131510 0.132161 0.132812 0.133464 0.134115 0.134766 0.135417 0.136068 0.136719 0.137370 0.138021 0.138672 0.139323 0.139974 0.140625 0.141276 0.141927 0.142578 0.143229 0.143880 0.144531 0.145182 0.145833 0.146484 0.147135 0.147786 0.148438 0.149089 0.149740 0.150391 0.151042 0.151693 0.152344 0.152995 0.153646 0.154297 0.154948 0.155599 0.156250 0.156901 0.157552 0.158203 0.158854 0.159505 0.160156 0.160807 0.161458 0.162109 0.162760 0.163411 0.164062 0.164714 0.165365 0.166016 0.166667 0.167318 0.167969 0.168620 0.169271 0.169922 0.170573 0.171224 0.171875 0.172526 0.173177 0.173828 0.174479 0.175130 0.175781 0.176432 0.177083 0.177734 0.178385 0.179036 0.179688 0.180339 0.180990 0.181641 0.182292 0.182943 0.183594 0.184245 0.184896 0.185547 0.186198 0.186849 0.187500 0.188151 0.188802 0.189453 0.190104 0.190755 0.191406 0.192057 0.192708 0.193359 0.194010 0.194661 0.195312 0.195964 0.196615 0.197266 0.197917 0.198568 0.199219 0.199870 0.200521 0.201172 0.201823 0.202474 0.203125 0.203776 0.204427 0.205078 0.205729 0.206380 0.207031 0.207682 0.208333 0.208984 0.209635 0.210286 0.210938 0.211589 0.212240 0.212891 0.213542 0.214193 0.214844 0.215495 0.216146 0.216797 0.217448 0.218099 0.218750 0.219401 0.220052 0.220703 0.221354 0.222005 0.222656 0.223307 0.223958 0.224609 0.225260 0.225911 0.226562 0.227214 0.227865 0.228516 0.229167 0.229818 0.230469 0.231120 0.231771 0.232422 0.233073 0.233724 0.234375 0.235026 0.235677
       0.33820        0.33820        0.33820        0.33820        0.33820        0.33820        0.33820        0.33820        0.33820        0.33820        0.33820        0.33820        0.33820        0.33820        0.33820        0.33820        0.33820        0.33820        0.33820        0.33820        0.33820        0.33820        0.33820        0.33820        0.33820        0.33820        0.33820        0.33820        0.33820        0.33820        0.33820        0.33820        0.33820        0.33820        0.33820        0.33820        0.33820        0.33820        0.33820        0.33820        0.33820        0.33820        0.33820        0.33820        0.33820        0.33820        0.33820        0.33820        0.33820        0.33820        0.33820        0.63772        0.67486        0.30420        0.21026       -0.02006       -0.24451       -0.30926       -0.26693       -0.09774       -0.30480       -0.14555       -0.17063       -0.22930       -0.25598       -0.42586       -0.52298       -0.61188       -0.62804       -0.56343       -0.53646       -0.49784       -0.52735       -0.54961       -0.62957       -0.60335       -0.50843       -0.48701       -0.37137       -0.32698       -0.29636       -0.13528       -0.09782       -0.02036        0.09071        0.19307        0.19391        0.46679        0.54593        0.50371        0.59358        0.60214        0.64920        0.75998        0.72983        0.71938        0.71017        0.65835        0.62095        0.50752        0.43773        0.29628        0.11852        0.03023        0.07971        0.09890       -0.05140        0.02120       -0.02334       -0.02519        0.06461        0.03862        0.17113        0.29541        0.36895        0.41699        0.45150        0.66740        0.65862        0.65082        0.68039        0.67365        0.67022        0.58415        0.64559        0.55079        0.45784        0.36694        0.27481        0.18294        0.02725        0.08856        0.04453        0.08104        0.09506        0.15612        0.29043        0.27548        0.43094        0.50445        0.53922        0.58485        0.57404        0.63895        0.61904        0.53761        0.48203        0.50145        0.33116        0.25272        0.16133        0.11892        0.10757        0.09134        0.12935        0.16433        0.21075        0.29253        0.38877        0.46885        0.54144        0.51831        0.49896        0.52311        0.45206        0.43695        0.41786        0.36306        0.27364        0.21193        0.20112        0.17346        0.17594        0.28554        0.32307        0.38731        0.39526        0.42661        0.50207        0.51069        0.50592        0.53402        0.41133        0.38002        0.37677        0.32393        0.25774        0.21493        0.22035        0.26451        0.34952        0.39648        0.38523        0.47833        0.42506        0.46580        0.44109        0.39703        0.34072        0.28710        0.31349        0.27669        0.27472        0.24018        0.25230        0.35093        0.40373        0.38736        0.38529        0.39659        0.36120        0.39734        0.42321        0.34217        0.34033        0.26993        0.23999        0.26290        0.29737        0.30046        0.34540        0.38791        0.38425        0.36585        0.38094        0.35490        0.33202        0.28445        0.27729        0.25717        0.29514        0.31225        0.33683        0.31814        0.36870        0.41369        0.39482        0.35589        0.31900        0.32086        0.31910        0.29494        0.27956        0.28878        0.31504        0.33662        0.36895        0.34645        0.35861        0.35992        0.33519        0.30937        0.27823        0.26598        0.26446        0.29743        0.26309        0.34169        0.36767        0.36488        0.37540        0.34316        0.33091        0.28664        0.29835        0.31410        0.28347        0.30432        0.30386        0.34113        0.35826        0.32761        0.31298        0.29160        0.32077        0.26643        0.27143        0.30003        0.31173        0.29655        0.32493        0.32939        0.30678        0.31008        0.30200        0.30740        0.27828        0.27827        0.29935        0.35220        0.35836        0.35114        0.35929        0.36135        0.30882        0.25429        0.23927        0.26987        0.26813        0.33359        0.36629        0.31428        0.31050        0.31392        0.31162        0.31482        0.28564        0.28872        0.29970        0.30402        0.35399        0.30307        0.31014        0.26535        0.26516        0.26727        0.29660        0.36098        0.34000        0.29540        0.32279        0.28199        0.30641        0.30669        0.23352        0.28407        0.28682        0.31541        0.37298        0.24941        0.31495        0.26362        0.22528        0.30272        0.24487        0.29422        0.22291        0.19054        0.27225        0.26192        0.26844        0.31287        0.21713        0.27104        0.26060        0.25290        0.26739        0.28835        0.23202        0.24242        0.22661        0.16868        0.21300        0.20548        0.18328        0.22223        0.27377        0.23253        0.20113        0.14367        0.13729       -0.03445       -0.31396
2.413210 2.387739 2.362411 2.337225 2.312180 2.287278 2.262518 2.237899 2.213423 2.189088 2.164896 2.140845 2.116936 2.093170 2.069545 2.046062 2.022721 1.999522 1.976465 1.953550 1.930777 1.908146 1.885657 1.863310 1.841105 1.819042 1.797120 1.775341 1.753704 1.732208 1.710855 1.689643 1.668574 1.647646 1.626861 1.606217 1.585715 1.565356 1.545138 1.525062 1.505128 1.485336 1.465686 1.446178 1.426812 1.407588 1.388506 1.369566 1.350768 1.332111 1.313597 1.453099 1.856260 1.332969 1.142990 0.872114 0.548376 0.508607 0.452084 0.816755 0.371836 0.636712 0.547936 0.396393 0.516938 0.250578 0.153851 0.030339 -0.092058 0.049006 0.018738 0.080294 -0.019276 -0.010246 -0.124376 -0.075469 -0.051789 -0.036172 0.084645 0.139587 0.089840 0.245166 0.371124 0.381434 0.441770 0.559103 0.600147 0.829211 0.923710 0.846820 0.985418 0.952252 0.973315 0.990806 1.128376 0.939280 1.077644 0.972127 0.925937 0.744961 0.735881 0.548813 0.354233 0.190133 0.258374 0.247016 0.131810 0.130497 0.125304 0.073645 0.153601 0.163304 0.130206 0.409958 0.393277 0.539076 0.477915 0.675372 0.733846 0.738551 0.731501 0.702027 0.757532 0.633041 0.621807 0.589606 0.509838 0.313626 0.307923 0.176703 -0.014202 -0.004554 -0.042685 0.022685 0.002586 0.006411 0.150760 0.185378 0.301774 0.347041 0.455736 0.474526 0.440717 0.525288 0.537905 0.446140 0.352519 0.407677 0.291756 0.086954 0.052820 -0.021828 -0.104824 -0.027137 -0.146324 0.021579 -0.034466 0.088490 0.148143 0.301283 0.288097 0.403005 0.384099 0.369589 0.336021 0.324757 0.268281 0.234480 0.152900 0.073804 0.033734 0.002787 -0.000903 0.039730 0.149725 0.171053 0.256074 0.187172 0.307844 0.317358 0.359676 0.326079 0.310749 0.166467 0.173474 0.164929 0.082216 0.014602 -0.013513 0.008424 0.091834 0.180090 0.138003 0.228149 0.259585 0.223055 0.272637 0.189393 0.160192 0.083298 0.077927 0.079784 0.039806 0.021391 0.029647 0.029541 0.182832 0.177607 0.138683 0.179702 0.093329 0.150656 0.174503 0.146347 0.089462 0.067315 -0.011239 -0.019076 0.022217 0.047401 0.077162 0.088866 0.145802 0.106570 0.141553 0.094672 0.087239 0.059281 0.012669 -0.009416 -0.007516 0.030829 0.073135 0.072432 0.031611 0.137189 0.160469 0.121086 0.044195 0.065595 0.042701 0.024519 0.030197 -0.001467 0.034960 0.046725 0.075466 0.108481 0.070420 0.068110 0.104252 0.050683 0.013157 0.014019 -0.020728 -0.025578 0.021318 -0.014612 0.107240 0.077796 0.151666 0.093936 0.070716 0.037392 0.023070 0.058425 0.007580 0.021447 0.040734 0.049976 0.097160 0.109292 0.094475 0.020257 0.058004 0.091810 -0.002352 0.032996 0.053176 0.053178 0.070714 0.085943 0.093959 0.034370 0.101564 0.032292 0.090329 0.006381 0.030714 0.095680 0.109886 0.106609 0.110551 0.109596 0.112120 0.071020 -0.000257 -0.026402 0.054990 0.007456 0.106413 0.094332 0.123380 0.062975 0.070975 0.085197 0.066698 0.022865 0.064644 0.060945 0.044292 0.132882 0.029887 0.038649 0.012470 0.016117 0.007718 0.037050 0.111707 0.099844 0.071844 0.024490 0.050077 0.041656 0.080031 -0.043045 0.058524 0.005596 0.070265 0.117894 -0.022942 0.161345 -0.006944 0.011372 0.066789 0.022691 0.087488 -0.000303 -0.025442 0.090155 0.024234 0.077551 0.150325 -0.038157 0.066669 0.088041 0.051716 0.106341 0.140202 0.067191 0.003560 0.065123 0.009711 0.047573 0.052751 -0.003098 0.231197 0.374499 0.243219 0.179611 0.153101 0.146558 -0.336030
0.072396 0.072928 0.074524 0.077183 0.080905 0.085689 0.091533 0.098436 0.106394 0.115406 0.125466 0.136571 0.148713 0.161886 0.176080 0.191284 0.207487 0.224673 0.242824 0.261920 0.281937 0.302850 0.324626 0.347233 0.370631 0.394776 0.419620 0.445109 0.471183 0.497778 0.524820 0.552233 0.579931 0.607821 0.635804 0.663774 0.691616 0.719207 0.746419 0.773113 0.799145 0.824363 0.848607 0.871711 0.893504 0.913806 0.932436 0.949206 0.963925 0.976400 0.986438 0.993845 0.998428 1.000000 0.998376 0.993378 0.984839 0.972602 0.956522 0.936470 0.912337 0.884031 0.851485 0.814657 0.773533 0.728131 0.678500 0.624724 0.566928 0.505273 0.439963 0.371247 0.299413 0.224799 0.147786 0.068801 0.011685 0.093158 0.175060 0.256798 0.337741 0.417226 0.494563 0.569042 0.639936 0.706512 0.768034 0.823776 0.873030 0.915114 0.949383 0.975241 0.992150 0.999644 0.997334 0.984926 0.962228 0.929158 0.885755 0.832188 0.768759 0.695912 0.614232 0.524450 0.427440 0.324215 0.215924 0.103840 0.010649 0.126057 0.240814 0.353286 0.461803 0.564673 0.660223 0.746815 0.822886 0.886973 0.937750 0.974055 0.994923 0.999615 0.987647 0.958807 0.913183 0.851172 0.773494 0.681192 0.575632 0.458492 0.331744 0.197629 0.058625 0.082593 0.223204 0.360292 0.490904 0.612122 0.721122 0.815254 0.892105 0.949570 0.985923 0.999872 0.990615 0.957884 0.901977 0.823779 0.724768 0.607002 0.473096 0.326174 0.169811 0.007956 0.155163 0.315143 0.467526 0.607920 0.732137 0.836320 0.917076 0.971600 0.997782 0.994309 0.960736 0.897541 0.806147 0.688918 0.549120 0.390857 0.218956 0.038852 0.143590 0.322251 0.490959 0.643712 0.774900 0.879515 0.953364 0.993258 0.997166 0.964343 0.895400 0.792346 0.658552 0.498680 0.318541 0.124911 0.074710 0.272380 0.460020 0.629754 0.774246 0.887031 0.962830 0.997822 0.989859 0.938632 0.845743 0.714705 0.550850 0.361145 0.153929 0.061438 0.274975 0.476542 0.656325 0.805326 0.915834 0.981853 0.999466 0.967095 0.885669 0.758653 0.591960 0.393714 0.173893 0.056144 0.284222 0.497995 0.685608 0.836388 0.941464 0.994335 0.991310 0.931813 0.818515 0.657276 0.456903 0.228712 0.014068 0.257040 0.485482 0.685242 0.843640 0.950295 0.997863 0.982585 0.904642 0.768259 0.581544 0.356080 0.106243 0.151658 0.400446 0.623199 0.804431 0.931194 0.994055 0.987857 0.912209 0.771641 0.575427 0.337039 0.073277 0.196855 0.453515 0.677479 0.851596 0.962150 1.000000 0.961412 0.848494 0.669183 0.436779 0.169038 0.113130 0.387265 0.631143 0.824576 0.951151 0.999680 0.965267 0.849886 0.662393 0.417944 0.136855 0.157022 0.438296 0.682220 0.866903 0.975324 0.996984 0.929020 0.776647 0.552893 0.277576 0.024357 0.325040 0.596245 0.812044 0.951335 0.999997 0.952415 0.812231 0.592214 0.313215 0.002277 0.309895 0.591981 0.815163 0.956153 0.999702 0.940362 0.783284 0.543921 0.246634 0.077682 0.394745 0.670504 0.874813 0.984811 0.987578 0.881792 0.678132 0.398355 0.073090 0.261403 0.567257 0.809288 0.959090 0.998495 0.921902 0.737209 0.465172 0.137230 0.208038 0.529376 0.787801 0.951373 0.999264 0.924553 0.735383 0.454249 0.115505 0.238739 0.563792 0.818004 0.968209 0.994144 0.891370 0.672160 0.364246 0.007455 0.351317 0.664241 0.888949 0.994375 0.965201 0.804269 0.532550 0.186609 0.186167 0.533977 0.807791 0.968357 0.991946 0.874058 0.630443 0.295219 0.083716 0.451443 0.753925
1.000000 1.000000 1.000000 1.000000 1.000000 1.000000 1.000000 1.000000 1.000000 1.000000 1.000000 1.000000 1.000000 1.000000 1.000000 1.000000 1.000000 1.000000 1.000000 1.000000 1.000000 1.000000 1.000000 1.000000 1.000000 1.000000 1.000000 1.000000 1.000000 1.000000 1.000000 1.000000 1.000000 1.000000 1.000000 1.000000 1.000000 1.000000 1.000000 1.000000 1.000000 1.000000 1.000000 1.000000 1.000000 1.000000 1.000000 1.000000 1.000000 1.000000 1.000000 1.000000 0.917528 0.917528 0.905807 0.905807 0.905807 0.905807 0.905807 0.905807 0.905807 0.905807 0.905807 0.905807 0.905807 0.905807 0.905807 0.905807 0.905807 0.905807 0.905807 0.905807 0.905807 0.905807 0.905807 0.905807 0.905807 0.905807 0.905807 0.905807 0.905807 0.905807 0.905807 0.905807 0.905807 0.905807 0.905807 0.905807 0.905807 0.905807 0.905807 0.905807 0.905807 0.905807 0.885038 0.888638 0.892303 0.887900 0.888916 0.888574 0.887581 0.888173 0.888356 0.889936 0.906972 0.930508 0.932092 0.934119 0.939180 0.939321 0.941535 0.940049 0.938582 0.955565 0.953525 0.950970 0.951852 0.945624 0.947194 0.945118 0.944547 0.947042 0.944687 0.943494 0.942537 0.941558 0.940137 0.939638 0.939486 0.941089 0.941203 0.941300 0.941190 0.941666 0.941408 0.941351 0.941831 0.946280 0.949166 0.950428 0.952163 0.950057 0.950625 0.947287 0.955668 0.955501 0.954959 0.954971 0.955297 0.953544 0.953666 0.953206 0.952797 0.943664 0.940989 0.940579 0.941335 0.943967 0.948895 0.947929 0.946939 0.948022 0.939705 0.953077 0.943810 0.942061 0.941252 0.940710 0.941818 0.936870 0.930314 0.912830 0.905037 0.904245 0.906447 0.910443 0.911144 0.902643 0.902108 0.902529 0.893347 0.891871 0.891020 0.890546 0.896216 0.893289 0.894366 0.893750 0.899819 0.903519 0.903182 0.900979 0.898009 0.894303 0.894909 0.893598 0.894020 0.896330 0.892912 0.886849 0.885415 0.887184 0.895400 0.901771 0.905910 0.901108 0.900235 0.883005 0.881196 0.881317 0.863365 0.858788 0.859319 0.861384 0.861458 0.865865 0.863582 0.856056 0.850108 0.850391 0.852802 0.855952 0.853650 0.851385 0.847527 0.844466 0.848911 0.854772 0.863386 0.850144 0.845545 0.835701 0.832778 0.825774 0.823207 0.820546 0.821177 0.820784 0.817961 0.821302 0.823820 0.822892 0.812862 0.817402 0.815527 0.811933 0.794158 0.793563 0.762253 0.756896 0.762891 0.749980 0.742382 0.740281 0.742497 0.747447 0.746080 0.715283 0.709310 0.716905 0.673490 0.669921 0.681401 0.689926 0.706345 0.698832 0.686067 0.686827 0.716363 0.708601 0.707438 0.704825 0.687586 0.688217 0.688125 0.689181 0.697073 0.677094 0.674401 0.671922 0.664054 0.665706 0.642471 0.629572 0.615415 0.606110 0.609068 0.611835 0.609807 0.608927 0.621592 0.608118 0.613532 0.592556 0.595038 0.594541 0.613111 0.617732 0.578999 0.591383 0.580245 0.581210 0.526463 0.527082 0.531045 0.540436 0.531046 0.525744 0.500184 0.474607 0.478617 0.463707 0.470463 0.467679 0.435574 0.485799 0.456700 0.448930 0.447870 0.451580 0.452898 0.451200 0.434009 0.439583 0.434597 0.427542 0.395082 0.345293 0.349918 0.348494 0.375285 0.374663 0.334326 0.345741 0.345741 0.345741 0.345741 0.345741 0.345741 0.352765 0.352765 0.352765 0.352765 0.352765 0.352765 0.352765 0.352765 0.352765 0.314654 0.314654 0.314654 0.314654 0.314654 0.314654 0.314654 0.314654 0.314654 0.314654 0.314654 0.314654 0.314654 0.314654 0.314654
0.000000 0.000000 0.000000 0.000000 0.000000 0.000000 0.000000 0.000000 0.000000 0.000000 0.000000 0.000000 0.000000 0.000000 0.000000 0.000000 0.000000 0.000000 0.000000 0.000000 0.000000 0.000000 0.000000 0.000000 0.000000 0.000000 0.000000 0.000000 0.000000 0.000000 0.000000 0.000000 0.000000 0.000000 0.000000 0.000000 0.000000 0.000000 0.000000 0.000000 0.000000 0.000000 0.000000 0.000000 0.000000 0.000000 0.000000 0.000000 0.000000 0.000000 0.000000 0.000000 0.181818 0.181818 0.201008 0.201008 0.201008 0.201008 0.201008 0.201008 0.201008 0.201008 0.201008 0.201008 0.201008 0.201008 0.201008 0.201008 0.201008 0.201008 0.201008 0.201008 0.201008 0.201008 0.201008 0.201008 0.201008 0.201008 0.201008 0.201008 0.201008 0.201008 0.201008 0.201008 0.201008 0.201008 0.201008 0.201008 0.201008 0.201008 0.201008 0.201008 0.201008 0.201008 0.234082 0.234082 0.234082 0.234082 0.234082 0.234082 0.234082 0.234082 0.234082 0.234082 0.234082 0.234082 0.234082 0.234082 0.234082 0.234082 0.234082 0.234082 0.234082 0.234082 0.234082 0.234082 0.234082 0.234082 0.234082 0.234082 0.234082 0.244339 0.244339 0.244339 0.244339 0.244339 0.244339 0.244339 0.244339 0.244339 0.244339 0.244339 0.244339 0.244339 0.244339 0.244339 0.244339 0.244339 0.244339 0.244339 0.244339 0.244339 0.244339 0.244339 0.256074 0.256074 0.256074 0.256074 0.256074 0.256074 0.256074 0.256074 0.256074 0.256074 0.256074 0.256074 0.256074 0.256074 0.256074 0.256074 0.256074 0.256074 0.256074 0.264906 0.264906 0.264906 0.264906 0.264906 0.264906 0.264906 0.264906 0.264906 0.264906 0.264906 0.264906 0.264906 0.264906 0.264906 0.264906 0.264906 0.264906 0.264906 0.264906 0.264906 0.264906 0.264906 0.264906 0.264906 0.264906 0.264906 0.264906 0.264906 0.264906 0.264906 0.264906 0.264906 0.269680 0.269680 0.269680 0.269680 0.269680 0.269680 0.269680 0.269680 0.269680 0.269680 0.269680 0.269680 0.269680 0.269680 0.264906 0.264906 0.264906 0.264906 0.264906 0.264906 0.264906 0.264906 0.264906 0.264906 0.264906 0.264906 0.264906 0.264906 0.264906 0.264906 0.264906 0.264906 0.264906 0.264906 0.264906 0.264906 0.264906 0.264906 0.264906 0.264906 0.264906 0.269680 0.269680 0.269680 0.269680 0.269680 0.269680 0.269680 0.269680 0.269680 0.269680 0.269680 0.269680 0.274721 0.274721 0.274721 0.274721 0.274721 0.274721 0.274721 0.274721 0.274721 0.274721 0.274721 0.260378 0.260378 0.260378 0.260378 0.260378 0.260378 0.260378 0.260378 0.260378 0.260378 0.260378 0.260378 0.274721 0.274721 0.274721 0.274721 0.274721 0.274721 0.274721 0.274721 0.274721 0.274721 0.256074 0.256074 0.256074 0.256074 0.256074 0.256074 0.256074 0.256074 0.256074 0.256074 0.256074 0.274721 0.274721 0.274721 0.274721 0.274721 0.274721 0.274721 0.274721 0.274721 0.260378 0.260378 0.260378 0.260378 0.260378 0.260378 0.260378 0.260378 0.260378 0.260378 0.264906 0.264906 0.264906 0.264906 0.264906 0.264906 0.264906 0.264906 0.264906 0.260378 0.260378 0.260378 0.260378 0.260378 0.260378 0.260378 0.260378 0.260378 0.256074 0.256074 0.256074 0.256074 0.256074 0.256074 0.256074 0.256074 0.256074 0.251976 0.251976 0.251976 0.251976 0.251976 0.251976 0.251976 0.251976 0.251976 0.264906 0.264906 0.264906 0.264906 0.264906 0.264906 0.264906 0.264906 0.264906 0.264906 0.264906 0.264906 0.264906 0.264906 0.264906
