# Output from CTFFind version 4.1.9, run on 2019-11-03 18:52:17
# Input file: stack12_ub_averaged_3000.mrc ; Number of micrographs: 1
# Pixel size: 3.000 Angstroms ; acceleration voltage: 300.0 keV ; spherical aberration: 0.00 mm ; amplitude contrast: 0.07
# Box size: 512 pixels ; min. res.: 30.0 Angstroms ; max. res.: 5.0 Angstroms ; min. def.: 5000.0 um; max. def. 50000.0 um; num. frames averaged: 1
# 6 lines per micrograph: #1 - spatial frequency (1/Angstroms); #2 - 1D rotational average of spectrum (assuming no astigmatism); #3 - 1D rotational average of spectrum; #4 - CTF fit; #5 - cross-correlation between spectrum and CTF fit; #6 - 2sigma of expected cross correlation of noise
0.000000 0.000651 0.001302 0.001953 0.002604 0.003255 0.003906 0.004557 0.005208 0.005859 0.006510 0.007161 0.007812 0.008464 0.009115 0.009766 0.010417 0.011068 0.011719 0.012370 0.013021 0.013672 0.014323 0.014974 0.015625 0.016276 0.016927 0.017578 0.018229 0.018880 0.019531 0.020182 0.020833 0.021484 0.022135 0.022786 0.023438 0.024089 0.024740 0.025391 0.026042 0.026693 0.027344 0.027995 0.028646 0.029297 0.029948 0.030599 0.031250 0.031901 0.032552 0.033203 0.033854 0.034505 0.035156 0.035807 0.036458 0.037109 0.037760 0.038411 0.039062 0.039714 0.040365 0.041016 0.041667 0.042318 0.042969 0.043620 0.044271 0.044922 0.045573 0.046224 0.046875 0.047526 0.048177 0.048828 0.049479 0.050130 0.050781 0.051432 0.052083 0.052734 0.053385 0.054036 0.054688 0.055339 0.055990 0.056641 0.057292 0.057943 0.058594 0.059245 0.059896 0.060547 0.061198 0.061849 0.062500 0.063151 0.063802 0.064453 0.065104 0.065755 0.066406 0.067057 0.067708 0.068359 0.069010 0.069661 0.070312 0.070964 0.071615 0.072266 0.072917 0.073568 0.074219 0.074870 0.075521 0.076172 0.076823 0.077474 0.078125 0.078776 0.079427 0.080078 0.080729 0.081380 0.082031 0.082682 0.083333 0.083984 0.084635 0.085286 0.085938 0.086589 0.087240 0.087891 0.088542 0.089193 0.089844 0.090495 0.091146 0.091797 0.092448 0.093099 0.093750 0.094401 0.095052 0.095703 0.096354 0.097005 0.097656 0.098307 0.098958 0.099609 0.100260 0.100911 0.101562 0.102214 0.102865 0.103516 0.104167 0.104818 0.105469 0.106120 0.106771 0.107422 0.108073 0.108724 0.109375 0.110026 0.110677 0.111328 0.111979 0.112630 0.113281 0.113932 0.114583 0.115234 0.115885 0.116536 0.117188 0.117839 0.118490 0.119141 0.119792 0.120443 0.121094 0.121745 0.122396 0.123047 0.123698 0.124349 0.125000 0.125651 0.126302 0.126953 0.127604 0.128255 0.128906 0.129557 0.130208 0.130859 0.131510 0.132161 0.132812 0.133464 0.134115 0.134766 0.135417 0.136068 0.136719 0.137370 0.138021 0.138672 0.139323 0.139974 0.140625 0.141276 0.141927 0.142578 0.143229 0.143880 0.144531 0.145182 0.145833 0.146484 0.147135 0.147786 0.148438 0.149089 0.149740 0.150391 0.151042 0.151693 0.152344 0.152995 0.153646 0.154297 0.154948 0.155599 0.156250 0.156901 0.157552 0.158203 0.158854 0.159505 0.160156 0.160807 0.161458 0.162109 0.162760 0.163411 0.164062 0.164714 0.165365 0.166016 0.166667 0.167318 0.167969 0.168620 0.169271 0.169922 0.170573 0.171224 0.171875 0.172526 0.173177 0.173828 0.174479 0.175130 0.175781 0.176432 0.177083 0.177734 0.178385 0.179036 0.179688 0.180339 0.180990 0.181641 0.182292 0.182943 0.183594 0.184245 0.184896 0.185547 0.186198 0.186849 0.187500 0.188151 0.188802 0.189453 0.190104 0.190755 0.191406 0.192057 0.192708 0.193359 0.194010 0.194661 0.195312 0.195964 0.196615 0.197266 0.197917 0.198568 0.199219 0.199870 0.200521 0.201172 0.201823 0.202474 0.203125 0.203776 0.204427 0.205078 0.205729 0.206380 0.207031 0.207682 0.208333 0.208984 0.209635 0.210286 0.210938 0.211589 0.212240 0.212891 0.213542 0.214193 0.214844 0.215495 0.216146 0.216797 0.217448 0.218099 0.218750 0.219401 0.220052 0.220703 0.221354 0.222005 0.222656 0.223307 0.223958 0.224609 0.225260 0.225911 0.226562 0.227214 0.227865 0.228516 0.229167 0.229818 0.230469 0.231120 0.231771 0.232422 0.233073 0.233724 0.234375 0.235026 0.235677
       0.33842        0.33842        0.33842        0.33842        0.33842        0.33842        0.33842        0.33842        0.33842        0.33842        0.33842        0.33842        0.33842        0.33842        0.33842        0.33842        0.33842        0.33842        0.33842        0.33842        0.33842        0.33842        0.33842        0.33842        0.33842        0.33842        0.33842        0.33842        0.33842        0.33842        0.33842        0.33842        0.33842        0.33842        0.33842        0.33842        0.33842        0.33842        0.33842        0.33842        0.33842        0.33842        0.33842        0.33842        0.33842        0.33842        0.33842        0.33842        0.33842        0.33842        0.33842        0.63771        0.67613        0.30401        0.20965       -0.02024       -0.24467       -0.30863       -0.26637       -0.09714       -0.30407       -0.14510       -0.17042       -0.22759       -0.25717       -0.42779       -0.52357       -0.61187       -0.62746       -0.56503       -0.53774       -0.49724       -0.52675       -0.55018       -0.63250       -0.60382       -0.50720       -0.48787       -0.37194       -0.32767       -0.29799       -0.13517       -0.09710       -0.02116        0.09002        0.19276        0.19433        0.46699        0.54558        0.50366        0.59504        0.60068        0.65053        0.75916        0.73154        0.72044        0.70866        0.65839        0.62122        0.50888        0.44002        0.29903        0.12050        0.02978        0.07784        0.10020       -0.05295        0.02126       -0.02291       -0.02768        0.06176        0.03785        0.17145        0.29706        0.36937        0.41587        0.45315        0.66624        0.65846        0.65141        0.67954        0.67478        0.67315        0.58524        0.64768        0.55340        0.46010        0.36674        0.27414        0.18460        0.02816        0.08775        0.04576        0.08082        0.09433        0.15655        0.28888        0.27388        0.42976        0.50414        0.53952        0.58627        0.57451        0.63866        0.62051        0.53743        0.48239        0.50222        0.33111        0.25293        0.16188        0.12056        0.10686        0.09194        0.13054        0.16391        0.21205        0.29346        0.38793        0.46929        0.54154        0.51869        0.49959        0.52220        0.45122        0.43814        0.41797        0.36271        0.27391        0.21320        0.20013        0.17242        0.17477        0.28558        0.32387        0.38682        0.39409        0.42672        0.50217        0.51120        0.50647        0.53450        0.41128        0.38183        0.37811        0.32409        0.25880        0.21445        0.22166        0.26517        0.34923        0.39661        0.38490        0.48099        0.42664        0.46763        0.43736        0.39489        0.34034        0.28889        0.31271        0.27588        0.27444        0.24054        0.25285        0.35273        0.40502        0.38811        0.38654        0.39706        0.36244        0.39847        0.42485        0.34012        0.34050        0.27066        0.24169        0.26452        0.29794        0.30233        0.34530        0.38678        0.38325        0.36524        0.38042        0.35543        0.33184        0.28499        0.27773        0.25756        0.29586        0.31274        0.33554        0.31664        0.36779        0.41091        0.39427        0.35484        0.31981        0.31988        0.31854        0.29594        0.28203        0.29102        0.31340        0.33731        0.36996        0.34450        0.35941        0.36008        0.33342        0.30775        0.27716        0.26545        0.26404        0.29735        0.26205        0.34163        0.36884        0.36689        0.37633        0.34796        0.33158        0.28510        0.29696        0.31372        0.28308        0.30417        0.30499        0.34444        0.35609        0.33124        0.31395        0.29309        0.32233        0.26674        0.27389        0.29752        0.31365        0.30119        0.32452        0.33004        0.30897        0.31001        0.30193        0.30472        0.27605        0.27884        0.29695        0.35089        0.36125        0.35066        0.35706        0.36144        0.30988        0.25119        0.23775        0.26917        0.26731        0.33486        0.36628        0.31539        0.30947        0.31288        0.31106        0.31728        0.28860        0.29070        0.29582        0.30398        0.35452        0.30642        0.30748        0.26688        0.26689        0.26782        0.29694        0.36471        0.34189        0.29711        0.31991        0.28128        0.30906        0.30502        0.23642        0.28355        0.28652        0.31586        0.37689        0.25093        0.31717        0.26261        0.22563        0.30075        0.24133        0.29500        0.22378        0.18876        0.27275        0.26331        0.26926        0.31494        0.22149        0.27046        0.25661        0.24992        0.26467        0.28792        0.23289        0.24742        0.22786        0.16701        0.21299        0.20407        0.18437        0.22685        0.26604        0.23421        0.20072        0.15521        0.16270       -0.03746       -0.31024
2.546571 2.519657 2.492894 2.466281 2.439818 2.413506 2.387343 2.361331 2.335469 2.309757 2.284196 2.258785 2.233524 2.208413 2.183452 2.158642 2.133982 2.109472 2.085113 2.060903 2.036844 2.012935 1.989176 1.965568 1.942109 1.918802 1.895644 1.872636 1.849779 1.827072 1.804515 1.782108 1.759852 1.737745 1.715790 1.693984 1.672328 1.650823 1.629468 1.608263 1.587209 1.566304 1.545550 1.524946 1.504492 1.484189 1.464036 1.444033 1.424180 1.404477 1.384925 1.532236 1.742738 1.169259 1.227968 0.917859 0.576071 0.534918 0.474529 0.861328 0.390579 0.670615 0.575523 0.418032 0.542338 0.259898 0.158479 0.030232 -0.099375 0.046469 0.015399 0.082611 -0.022130 -0.013973 -0.137312 -0.084192 -0.055279 -0.041936 0.085712 0.144209 0.090248 0.255313 0.391855 0.397707 0.465229 0.586066 0.632204 0.873952 0.972292 0.891968 1.039625 1.002985 1.026569 1.043757 1.190625 0.991967 1.133185 1.024492 0.975919 0.785905 0.778021 0.580547 0.374310 0.198830 0.267147 0.260965 0.135203 0.134091 0.133589 0.072022 0.156367 0.170237 0.134860 0.431823 0.416301 0.564259 0.506236 0.709854 0.772425 0.778237 0.770106 0.740899 0.802975 0.668400 0.657969 0.623625 0.539164 0.331371 0.320699 0.187263 -0.015085 -0.008014 -0.045267 0.022873 -0.001257 0.007864 0.156808 0.191264 0.316369 0.363483 0.480712 0.500151 0.466413 0.552454 0.568318 0.470388 0.371504 0.429112 0.308519 0.089541 0.055854 -0.021973 -0.111539 -0.029396 -0.154146 0.021932 -0.036114 0.093270 0.154178 0.318323 0.304499 0.425448 0.406809 0.390247 0.355361 0.341608 0.288005 0.245872 0.160780 0.080581 0.035740 0.003209 -0.003368 0.043866 0.157719 0.183764 0.267609 0.198759 0.324740 0.342273 0.374474 0.345810 0.328738 0.178946 0.184709 0.176960 0.088154 0.013820 -0.013617 0.014088 0.097879 0.188718 0.148101 0.240473 0.278660 0.238502 0.287491 0.198097 0.166192 0.091394 0.082419 0.084336 0.043443 0.020645 0.033294 0.032153 0.194766 0.189572 0.148793 0.194561 0.092874 0.162031 0.185567 0.154843 0.091516 0.072040 -0.009481 -0.018846 0.023536 0.051719 0.081432 0.093765 0.151492 0.115736 0.144354 0.098793 0.092027 0.061861 0.014647 -0.011744 -0.007914 0.033891 0.075307 0.073261 0.032782 0.140987 0.168060 0.123489 0.047932 0.066609 0.043202 0.024062 0.032153 0.002162 0.035613 0.047553 0.080461 0.113816 0.073534 0.073650 0.109709 0.051002 0.014377 0.013884 -0.021495 -0.025741 0.023479 -0.015679 0.115187 0.084425 0.163272 0.103860 0.080844 0.039274 0.025783 0.063463 0.007607 0.024609 0.046770 0.059515 0.102766 0.115639 0.105673 0.024742 0.066218 0.102589 -0.003666 0.044824 0.051283 0.064087 0.081761 0.090924 0.104593 0.039926 0.108292 0.034941 0.091449 0.007451 0.036142 0.097922 0.115935 0.123478 0.117996 0.104557 0.122505 0.073860 -0.002188 -0.027995 0.055935 0.009262 0.113532 0.099172 0.135237 0.057059 0.076832 0.086944 0.073010 0.025676 0.068583 0.058243 0.045633 0.126215 0.051922 0.034295 0.012793 0.019651 0.005605 0.036508 0.123628 0.104577 0.082380 0.014132 0.057526 0.050795 0.081377 -0.038796 0.062369 0.003399 0.074023 0.126786 -0.034357 0.166660 -0.017504 0.000139 0.060338 0.008569 0.079461 -0.010184 -0.044245 0.083726 0.006999 0.066343 0.143570 -0.052411 0.051919 0.068137 0.031474 0.086817 0.124776 0.050443 -0.009173 0.046844 -0.017199 0.034786 0.028363 -0.031846 0.249568 0.378634 0.261419 0.182050 0.172031 0.184254 -0.350766
0.072396 0.072928 0.074524 0.077183 0.080906 0.085690 0.091534 0.098437 0.106397 0.115409 0.125470 0.136575 0.148718 0.161892 0.176087 0.191293 0.207497 0.224683 0.242835 0.261933 0.281952 0.302865 0.324644 0.347252 0.370651 0.394797 0.419643 0.445133 0.471209 0.497805 0.524849 0.552263 0.579962 0.607853 0.635838 0.663808 0.691651 0.719243 0.746455 0.773149 0.799181 0.824399 0.848642 0.871746 0.893537 0.913837 0.932465 0.949232 0.963948 0.976420 0.986453 0.993856 0.998434 1.000000 0.998369 0.993365 0.984819 0.972574 0.956485 0.936424 0.912281 0.883965 0.851409 0.814570 0.773436 0.728022 0.678379 0.624592 0.566785 0.505118 0.439798 0.371070 0.299227 0.224604 0.147582 0.068590 0.011902 0.093380 0.175286 0.257026 0.337968 0.417450 0.494783 0.569255 0.640140 0.706704 0.768212 0.823938 0.873173 0.915234 0.949479 0.975310 0.992190 0.999652 0.997309 0.984867 0.962134 0.929027 0.885587 0.831983 0.768518 0.695636 0.613923 0.524110 0.427072 0.323822 0.215511 0.103411 0.011089 0.126501 0.241256 0.353721 0.462222 0.565070 0.660590 0.747146 0.823174 0.887211 0.937932 0.974175 0.994977 0.999600 0.987559 0.958645 0.912947 0.850863 0.773115 0.680747 0.575127 0.457935 0.331143 0.196996 0.057970 0.083258 0.223863 0.360932 0.491511 0.612680 0.721619 0.815675 0.892438 0.949805 0.986050 0.999884 0.990508 0.957656 0.901630 0.823317 0.724199 0.606338 0.472349 0.325362 0.168954 0.007075 0.156045 0.316002 0.468336 0.608657 0.732777 0.836841 0.917460 0.971831 0.997847 0.994202 0.960455 0.897089 0.805532 0.688156 0.548231 0.389866 0.217894 0.037751 0.144694 0.323318 0.491952 0.644595 0.775638 0.880076 0.953723 0.993397 0.997074 0.964015 0.894844 0.791576 0.657593 0.497562 0.317306 0.123603 0.076037 0.273674 0.461227 0.630820 0.775123 0.887678 0.963212 0.997915 0.989652 0.938126 0.844953 0.713661 0.549592 0.359726 0.152410 0.062988 0.276482 0.477933 0.657530 0.806282 0.916486 0.982164 0.999410 0.966667 0.884881 0.757539 0.590570 0.392112 0.172161 0.057915 0.285939 0.499560 0.686934 0.837396 0.942089 0.994532 0.991059 0.931120 0.817408 0.655813 0.455161 0.226788 0.016059 0.258981 0.487253 0.686730 0.844745 0.950940 0.997998 0.982190 0.903731 0.766880 0.579778 0.354035 0.104050 0.153856 0.402499 0.624966 0.805784 0.932029 0.994305 0.987492 0.911243 0.770130 0.573469 0.334768 0.070853 0.199256 0.455714 0.679307 0.852907 0.962835 0.999994 0.960704 0.847123 0.667244 0.434416 0.166431 0.115775 0.389740 0.633238 0.826114 0.951995 0.999746 0.964535 0.848403 0.660273 0.415354 0.134013 0.159873 0.440907 0.684359 0.868371 0.975976 0.996747 0.927899 0.774731 0.550341 0.274614 0.027457 0.327993 0.598769 0.813888 0.952313 1.000000 0.951424 0.810327 0.589571 0.310080 0.001042 0.313074 0.594689 0.817120 0.957147 0.999613 0.939181 0.781117 0.540976 0.243213 0.081218 0.398026 0.673165 0.876561 0.985437 0.986996 0.880046 0.675399 0.394923 0.069339 0.265054 0.570391 0.811532 0.960175 0.998275 0.920382 0.734548 0.461670 0.133288 0.211950 0.532790 0.790290 0.952622 0.999098 0.922974 0.732564 0.450528 0.111332 0.242842 0.567297 0.820459 0.969276 0.993667 0.889388 0.668911 0.360143 0.003026 0.355485 0.667584 0.891005 0.994845 0.964000 0.801536 0.528638 0.182050 0.190745 0.537938 0.810566 0.969531 0.991330 0.871717 0.626687 0.290580 0.088581 0.455815 0.757159
1.000000 1.000000 1.000000 1.000000 1.000000 1.000000 1.000000 1.000000 1.000000 1.000000 1.000000 1.000000 1.000000 1.000000 1.000000 1.000000 1.000000 1.000000 1.000000 1.000000 1.000000 1.000000 1.000000 1.000000 1.000000 1.000000 1.000000 1.000000 1.000000 1.000000 1.000000 1.000000 1.000000 1.000000 1.000000 1.000000 1.000000 1.000000 1.000000 1.000000 1.000000 1.000000 1.000000 1.000000 1.000000 1.000000 1.000000 1.000000 1.000000 1.000000 1.000000 1.000000 0.916999 0.906636 0.906636 0.906636 0.906636 0.906636 0.906636 0.906636 0.906636 0.906636 0.906636 0.906636 0.906636 0.906636 0.906636 0.906636 0.906636 0.906636 0.906636 0.906636 0.906636 0.906636 0.906636 0.906636 0.906636 0.906636 0.906636 0.906636 0.906636 0.906636 0.906636 0.906636 0.906636 0.906636 0.906636 0.906636 0.906636 0.906636 0.906636 0.906636 0.906636 0.906636 0.886759 0.890870 0.894451 0.890458 0.891399 0.891021 0.890126 0.890451 0.890826 0.892683 0.909886 0.933183 0.934966 0.937141 0.941473 0.941662 0.943386 0.941971 0.940429 0.955985 0.953969 0.951442 0.952326 0.946057 0.947614 0.945557 0.944964 0.947460 0.945127 0.943917 0.942971 0.942002 0.940595 0.940098 0.939949 0.941547 0.941661 0.941760 0.941653 0.942129 0.941880 0.941828 0.942311 0.946751 0.949132 0.952262 0.954045 0.952017 0.952665 0.949412 0.957862 0.957709 0.957172 0.957174 0.957488 0.956458 0.956571 0.956269 0.955942 0.947609 0.945253 0.944871 0.945624 0.948097 0.950816 0.950180 0.949238 0.950394 0.942539 0.955626 0.946891 0.945255 0.944910 0.944558 0.945580 0.940307 0.933313 0.917183 0.909659 0.908929 0.910967 0.914842 0.915583 0.907268 0.906615 0.907058 0.898426 0.897004 0.893252 0.892701 0.898149 0.895423 0.896633 0.896066 0.901956 0.905665 0.905445 0.903259 0.900208 0.896213 0.896833 0.896553 0.896914 0.899159 0.895996 0.890256 0.888865 0.890799 0.898666 0.904455 0.907750 0.902954 0.902007 0.884884 0.883156 0.883414 0.863829 0.858370 0.857933 0.860066 0.861309 0.865824 0.863377 0.855023 0.848919 0.849024 0.851066 0.854024 0.852031 0.849320 0.845253 0.842607 0.847347 0.853356 0.860916 0.846596 0.842177 0.833233 0.830357 0.824239 0.822627 0.820405 0.821286 0.820432 0.818836 0.822068 0.824813 0.824605 0.816476 0.820594 0.818779 0.814921 0.799447 0.798167 0.762055 0.756659 0.761842 0.742270 0.735935 0.733868 0.737169 0.741590 0.740428 0.712054 0.707159 0.714748 0.676754 0.674370 0.685781 0.694028 0.709807 0.702161 0.690220 0.692286 0.722264 0.717213 0.716477 0.713888 0.696888 0.697695 0.698231 0.698093 0.705774 0.676832 0.674264 0.673331 0.665083 0.666324 0.662860 0.626034 0.633056 0.632625 0.612669 0.605105 0.599210 0.617305 0.624597 0.613942 0.627673 0.611919 0.617204 0.598994 0.566896 0.591138 0.572807 0.578262 0.569040 0.566336 0.523121 0.522041 0.526090 0.538643 0.529610 0.530006 0.504813 0.475060 0.477753 0.461597 0.464156 0.461443 0.427893 0.476392 0.447939 0.441427 0.438283 0.441790 0.442746 0.443565 0.423904 0.431361 0.426236 0.419201 0.386048 0.336501 0.339138 0.337985 0.364759 0.363343 0.324531 0.334469 0.334469 0.334469 0.334469 0.334469 0.334469 0.341813 0.341813 0.341813 0.341813 0.341813 0.341813 0.341813 0.341813 0.341813 0.310884 0.310884 0.310884 0.310884 0.310884 0.310884 0.310884 0.310884 0.310884 0.310884 0.310884 0.310884 0.310884 0.310884 0.310884
0.000000 0.000000 0.000000 0.000000 0.000000 0.000000 0.000000 0.000000 0.000000 0.000000 0.000000 0.000000 0.000000 0.000000 0.000000 0.000000 0.000000 0.000000 0.000000 0.000000 0.000000 0.000000 0.000000 0.000000 0.000000 0.000000 0.000000 0.000000 0.000000 0.000000 0.000000 0.000000 0.000000 0.000000 0.000000 0.000000 0.000000 0.000000 0.000000 0.000000 0.000000 0.000000 0.000000 0.000000 0.000000 0.000000 0.000000 0.000000 0.000000 0.000000 0.000000 0.000000 0.183340 0.199007 0.199007 0.199007 0.199007 0.199007 0.199007 0.199007 0.199007 0.199007 0.199007 0.199007 0.199007 0.199007 0.199007 0.199007 0.199007 0.199007 0.199007 0.199007 0.199007 0.199007 0.199007 0.199007 0.199007 0.199007 0.199007 0.199007 0.199007 0.199007 0.199007 0.199007 0.199007 0.199007 0.199007 0.199007 0.199007 0.199007 0.199007 0.199007 0.199007 0.199007 0.234082 0.234082 0.234082 0.234082 0.234082 0.234082 0.234082 0.234082 0.234082 0.234082 0.234082 0.234082 0.234082 0.234082 0.234082 0.234082 0.234082 0.234082 0.234082 0.234082 0.234082 0.234082 0.234082 0.234082 0.234082 0.234082 0.234082 0.244339 0.244339 0.244339 0.244339 0.244339 0.244339 0.244339 0.244339 0.244339 0.244339 0.244339 0.244339 0.244339 0.244339 0.244339 0.244339 0.244339 0.244339 0.244339 0.244339 0.244339 0.244339 0.244339 0.256074 0.256074 0.256074 0.256074 0.256074 0.256074 0.256074 0.256074 0.256074 0.256074 0.256074 0.256074 0.256074 0.256074 0.256074 0.256074 0.256074 0.256074 0.256074 0.264906 0.264906 0.264906 0.264906 0.264906 0.264906 0.264906 0.264906 0.264906 0.264906 0.264906 0.264906 0.264906 0.264906 0.264906 0.264906 0.264906 0.264906 0.264906 0.264906 0.264906 0.264906 0.264906 0.264906 0.264906 0.264906 0.264906 0.264906 0.264906 0.264906 0.264906 0.264906 0.264906 0.269680 0.269680 0.269680 0.269680 0.269680 0.269680 0.269680 0.269680 0.269680 0.269680 0.269680 0.269680 0.269680 0.269680 0.264906 0.264906 0.264906 0.264906 0.264906 0.264906 0.264906 0.264906 0.264906 0.264906 0.264906 0.264906 0.264906 0.264906 0.264906 0.264906 0.264906 0.264906 0.264906 0.264906 0.264906 0.264906 0.264906 0.264906 0.264906 0.264906 0.264906 0.269680 0.269680 0.269680 0.269680 0.269680 0.269680 0.269680 0.269680 0.269680 0.269680 0.269680 0.269680 0.274721 0.274721 0.274721 0.274721 0.274721 0.274721 0.274721 0.274721 0.274721 0.274721 0.274721 0.260378 0.260378 0.260378 0.260378 0.260378 0.260378 0.260378 0.260378 0.260378 0.260378 0.260378 0.260378 0.274721 0.274721 0.274721 0.274721 0.274721 0.274721 0.274721 0.274721 0.274721 0.274721 0.269680 0.269680 0.269680 0.269680 0.269680 0.269680 0.269680 0.269680 0.269680 0.269680 0.264906 0.264906 0.264906 0.264906 0.264906 0.264906 0.264906 0.264906 0.264906 0.264906 0.260378 0.260378 0.260378 0.260378 0.260378 0.260378 0.260378 0.260378 0.260378 0.260378 0.264906 0.264906 0.264906 0.264906 0.264906 0.264906 0.264906 0.264906 0.264906 0.260378 0.260378 0.260378 0.260378 0.260378 0.260378 0.260378 0.260378 0.260378 0.256074 0.256074 0.256074 0.256074 0.256074 0.256074 0.256074 0.256074 0.256074 0.251976 0.251976 0.251976 0.251976 0.251976 0.251976 0.251976 0.251976 0.251976 0.264906 0.264906 0.264906 0.264906 0.264906 0.264906 0.264906 0.264906 0.264906 0.264906 0.264906 0.264906 0.264906 0.264906 0.264906
