# Output from CTFFind version 4.1.9, run on 2019-11-03 18:51:09
# Input file: stack10_ub_averaged_50.mrc ; Number of micrographs: 1
# Pixel size: 3.000 Angstroms ; acceleration voltage: 300.0 keV ; spherical aberration: 0.00 mm ; amplitude contrast: 0.07
# Box size: 512 pixels ; min. res.: 30.0 Angstroms ; max. res.: 5.0 Angstroms ; min. def.: 5000.0 um; max. def. 50000.0 um; num. frames averaged: 1
# 6 lines per micrograph: #1 - spatial frequency (1/Angstroms); #2 - 1D rotational average of spectrum (assuming no astigmatism); #3 - 1D rotational average of spectrum; #4 - CTF fit; #5 - cross-correlation between spectrum and CTF fit; #6 - 2sigma of expected cross correlation of noise
0.000000 0.000651 0.001302 0.001953 0.002604 0.003255 0.003906 0.004557 0.005208 0.005859 0.006510 0.007161 0.007812 0.008464 0.009115 0.009766 0.010417 0.011068 0.011719 0.012370 0.013021 0.013672 0.014323 0.014974 0.015625 0.016276 0.016927 0.017578 0.018229 0.018880 0.019531 0.020182 0.020833 0.021484 0.022135 0.022786 0.023438 0.024089 0.024740 0.025391 0.026042 0.026693 0.027344 0.027995 0.028646 0.029297 0.029948 0.030599 0.031250 0.031901 0.032552 0.033203 0.033854 0.034505 0.035156 0.035807 0.036458 0.037109 0.037760 0.038411 0.039062 0.039714 0.040365 0.041016 0.041667 0.042318 0.042969 0.043620 0.044271 0.044922 0.045573 0.046224 0.046875 0.047526 0.048177 0.048828 0.049479 0.050130 0.050781 0.051432 0.052083 0.052734 0.053385 0.054036 0.054688 0.055339 0.055990 0.056641 0.057292 0.057943 0.058594 0.059245 0.059896 0.060547 0.061198 0.061849 0.062500 0.063151 0.063802 0.064453 0.065104 0.065755 0.066406 0.067057 0.067708 0.068359 0.069010 0.069661 0.070312 0.070964 0.071615 0.072266 0.072917 0.073568 0.074219 0.074870 0.075521 0.076172 0.076823 0.077474 0.078125 0.078776 0.079427 0.080078 0.080729 0.081380 0.082031 0.082682 0.083333 0.083984 0.084635 0.085286 0.085938 0.086589 0.087240 0.087891 0.088542 0.089193 0.089844 0.090495 0.091146 0.091797 0.092448 0.093099 0.093750 0.094401 0.095052 0.095703 0.096354 0.097005 0.097656 0.098307 0.098958 0.099609 0.100260 0.100911 0.101562 0.102214 0.102865 0.103516 0.104167 0.104818 0.105469 0.106120 0.106771 0.107422 0.108073 0.108724 0.109375 0.110026 0.110677 0.111328 0.111979 0.112630 0.113281 0.113932 0.114583 0.115234 0.115885 0.116536 0.117188 0.117839 0.118490 0.119141 0.119792 0.120443 0.121094 0.121745 0.122396 0.123047 0.123698 0.124349 0.125000 0.125651 0.126302 0.126953 0.127604 0.128255 0.128906 0.129557 0.130208 0.130859 0.131510 0.132161 0.132812 0.133464 0.134115 0.134766 0.135417 0.136068 0.136719 0.137370 0.138021 0.138672 0.139323 0.139974 0.140625 0.141276 0.141927 0.142578 0.143229 0.143880 0.144531 0.145182 0.145833 0.146484 0.147135 0.147786 0.148438 0.149089 0.149740 0.150391 0.151042 0.151693 0.152344 0.152995 0.153646 0.154297 0.154948 0.155599 0.156250 0.156901 0.157552 0.158203 0.158854 0.159505 0.160156 0.160807 0.161458 0.162109 0.162760 0.163411 0.164062 0.164714 0.165365 0.166016 0.166667 0.167318 0.167969 0.168620 0.169271 0.169922 0.170573 0.171224 0.171875 0.172526 0.173177 0.173828 0.174479 0.175130 0.175781 0.176432 0.177083 0.177734 0.178385 0.179036 0.179688 0.180339 0.180990 0.181641 0.182292 0.182943 0.183594 0.184245 0.184896 0.185547 0.186198 0.186849 0.187500 0.188151 0.188802 0.189453 0.190104 0.190755 0.191406 0.192057 0.192708 0.193359 0.194010 0.194661 0.195312 0.195964 0.196615 0.197266 0.197917 0.198568 0.199219 0.199870 0.200521 0.201172 0.201823 0.202474 0.203125 0.203776 0.204427 0.205078 0.205729 0.206380 0.207031 0.207682 0.208333 0.208984 0.209635 0.210286 0.210938 0.211589 0.212240 0.212891 0.213542 0.214193 0.214844 0.215495 0.216146 0.216797 0.217448 0.218099 0.218750 0.219401 0.220052 0.220703 0.221354 0.222005 0.222656 0.223307 0.223958 0.224609 0.225260 0.225911 0.226562 0.227214 0.227865 0.228516 0.229167 0.229818 0.230469 0.231120 0.231771 0.232422 0.233073 0.233724 0.234375 0.235026 0.235677
       0.34216        0.34216        0.34216        0.34216        0.34216        0.34216        0.34216        0.34216        0.34216        0.34216        0.34216        0.34216        0.34216        0.34216        0.34216        0.34216        0.34216        0.34216        0.34216        0.34216        0.34216        0.34216        0.34216        0.34216        0.34216        0.34216        0.34216        0.34216        0.34216        0.34216        0.34216        0.34216        0.34216        0.34216        0.34216        0.34216        0.34216        0.34216        0.34216        0.34216        0.34216        0.34216        0.34216        0.34216        0.34216        0.34216        0.34216        0.34216        0.34216        0.34216        0.34216        0.60633        0.75527        0.13190       -0.34641       -0.55803       -0.61613       -0.71147       -0.78841       -0.78373       -0.77038       -0.75508       -0.75303       -0.90516       -1.05312       -1.06630       -1.05197       -1.05513       -1.06159       -0.88122       -0.83626       -0.73689       -0.61019       -0.57671       -0.32287       -0.31259       -0.11554       -0.01092        0.06610        0.18230        0.25544        0.39272        0.37633        0.63970        0.63881        0.68633        0.62221        0.59231        0.55311        0.52728        0.52221        0.39968        0.22471        0.20453        0.11875        0.02182       -0.05651       -0.07078       -0.02571       -0.01635        0.07616        0.12621        0.15416        0.20843        0.39358        0.45590        0.56368        0.53455        0.63540        0.74799        0.64798        0.65886        0.60344        0.50762        0.47307        0.30566        0.24621        0.12499        0.03892        0.01250       -0.04169       -0.02121        0.13333        0.17962        0.33305        0.38537        0.44494        0.66633        0.65606        0.67596        0.65532        0.65750        0.64238        0.61069        0.38132        0.25381        0.16682        0.13652        0.05741        0.07422        0.08705        0.24149        0.27730        0.35442        0.50873        0.57846        0.58813        0.59700        0.61471        0.57424        0.41165        0.36369        0.28926        0.19721        0.17449        0.15139        0.19274        0.21470        0.29204        0.41826        0.42020        0.52908        0.56511        0.53505        0.47022        0.44090        0.35227        0.25808        0.18924        0.15297        0.15359        0.21337        0.28754        0.36003        0.42449        0.42989        0.60004        0.58123        0.47812        0.41234        0.34151        0.28209        0.28052        0.23881        0.24191        0.25709        0.31038        0.30054        0.39500        0.48809        0.47017        0.45598        0.40788        0.37393        0.30262        0.27907        0.27496        0.27697        0.29279        0.35981        0.41160        0.42245        0.41479        0.44321        0.36433        0.34682        0.30874        0.26236        0.27139        0.29632        0.34458        0.35027        0.36713        0.41219        0.42366        0.38939        0.34333        0.31231        0.28380        0.29862        0.32456        0.33656        0.35625        0.41099        0.36979        0.37576        0.34613        0.33564        0.30422        0.26190        0.28388        0.28925        0.31955        0.37225        0.37210        0.38492        0.39480        0.36492        0.30659        0.32812        0.28945        0.28445        0.31347        0.34397        0.33770        0.33447        0.32723        0.34782        0.31392        0.30871        0.30359        0.29802        0.31923        0.31441        0.35049        0.32411        0.30395        0.29865        0.29296        0.30061        0.29142        0.31163        0.31730        0.31616        0.35248        0.34197        0.30930        0.30589        0.31590        0.29724        0.33124        0.34112        0.36803        0.40391        0.34073        0.32874        0.32723        0.30023        0.27811        0.28585        0.33449        0.32755        0.35170        0.34502        0.29510        0.30887        0.27903        0.28467        0.30313        0.31806        0.32081        0.34661        0.30256        0.30252        0.31413        0.28166        0.33039        0.31602        0.30448        0.34874        0.34851        0.33113        0.28176        0.22739        0.25814        0.31978        0.33815        0.34027        0.36283        0.33531        0.30866        0.28528        0.30182        0.32084        0.32090        0.31175        0.34476        0.30127        0.29106        0.29471        0.31936        0.28462        0.29703        0.25810        0.29289        0.33722        0.24839        0.28868        0.30449        0.30788        0.33884        0.28062        0.28859        0.29678        0.28848        0.33199        0.31312        0.28744        0.17937        0.20781        0.20342        0.26377        0.30943        0.29419        0.32869        0.43019        0.27602        0.17924        0.23095        0.33022        0.18700        0.20914        0.22582        0.24661        0.19899        0.13062        0.24670        0.25142        0.22717        0.16871        0.09991       -0.42709       -0.36416
3.004485 2.967733 2.931214 2.894929 2.858878 2.823061 2.787477 2.752127 2.717011 2.682129 2.647480 2.613065 2.578884 2.544937 2.511223 2.477744 2.444498 2.411485 2.378707 2.346162 2.313851 2.281774 2.249931 2.218321 2.186945 2.155803 2.124895 2.094220 2.063779 2.033572 2.003599 1.973859 1.944353 1.915081 1.886043 1.857238 1.828668 1.800331 1.772227 1.744358 1.716722 1.689320 1.662152 1.635218 1.608517 1.582050 1.555817 1.529818 1.504052 1.478520 1.453222 1.577735 1.891945 1.173104 0.831024 0.509067 0.456823 0.407056 0.252519 0.230722 0.200602 0.231044 0.187969 0.109051 -0.087102 -0.131771 -0.155951 -0.141625 -0.255975 -0.085860 -0.040919 0.014779 0.086700 0.079769 0.324346 0.318959 0.403169 0.588152 0.516566 0.705486 0.662560 0.855970 0.768969 0.985872 0.937125 1.048451 0.902900 0.964407 0.827553 0.816187 0.802563 0.709465 0.524050 0.467058 0.362313 0.319552 0.215768 0.145631 0.204544 0.163364 0.254299 0.242022 0.327665 0.272839 0.442538 0.519638 0.556803 0.577657 0.618322 0.697290 0.651924 0.644065 0.627632 0.447733 0.488761 0.277234 0.273658 0.092393 0.063934 0.001365 -0.061689 -0.103834 0.023467 0.059154 0.180674 0.260235 0.251539 0.424543 0.507966 0.501917 0.464226 0.515181 0.458038 0.490007 0.248596 0.155749 0.025572 -0.009171 -0.053171 -0.113437 -0.053551 -0.007144 0.076813 0.116310 0.225647 0.339265 0.343666 0.446528 0.441675 0.456826 0.330654 0.219067 0.157264 0.126352 0.037368 0.014623 0.068918 0.051646 0.093958 0.220875 0.225346 0.286311 0.369408 0.316741 0.283240 0.220506 0.209372 0.090868 0.027282 -0.038914 -0.053823 -0.000907 0.031444 0.098614 0.202185 0.154908 0.283226 0.329510 0.288344 0.161065 0.163322 0.065230 0.032225 0.051575 0.003534 0.015212 0.039472 0.064053 0.062560 0.206000 0.206367 0.197514 0.129015 0.150664 0.043152 0.048362 0.005499 0.001559 0.025721 0.058321 0.108858 0.158516 0.112081 0.141191 0.159964 0.057373 0.077981 0.023576 -0.021365 0.000723 0.074911 0.071981 0.067865 0.115835 0.129921 0.164419 0.087595 0.094426 0.044659 0.011891 0.076649 0.079834 0.069441 0.107493 0.133232 0.077130 0.115163 0.053701 0.050528 0.041490 -0.030930 0.037530 0.019572 0.059011 0.083310 0.092709 0.084190 0.108320 0.039012 0.022417 0.021749 -0.004114 0.002679 0.016961 0.056670 0.016765 0.019187 0.044496 0.035285 -0.007239 0.007304 -0.019371 0.005611 -0.004820 0.019095 0.030960 -0.009472 -0.003093 -0.028131 -0.024837 -0.005079 -0.017898 -0.012526 -0.001218 0.008173 0.038749 0.021548 -0.008607 0.007272 0.003234 -0.000462 0.023402 0.041663 0.030446 0.096391 -0.005271 0.025591 0.018107 -0.018058 -0.025447 -0.008532 0.029061 0.004609 0.044368 0.016003 -0.013556 0.014344 -0.048506 -0.028921 -0.010020 0.003604 0.009659 0.007136 -0.034440 -0.005063 -0.014021 -0.026853 -0.017896 0.018378 -0.016856 0.042991 0.018442 0.010148 -0.046986 -0.095511 -0.049109 -0.007767 0.000606 0.031282 0.027517 -0.005491 -0.015802 -0.049594 -0.006260 -0.036205 -0.018609 -0.034338 -0.000783 -0.027719 -0.053029 -0.031863 -0.015119 -0.059314 -0.006181 -0.089553 -0.009610 0.046678 -0.092565 -0.033698 0.027018 0.001595 0.018118 -0.029758 0.003877 -0.009045 -0.022555 0.070960 0.026231 -0.030436 -0.103716 -0.057089 -0.066422 -0.024564 0.030911 0.004598 0.086823 0.166839 0.007534 -0.052888 -0.023586 0.091916 -0.049802 0.025351 -0.000762 0.039354 -0.014044 0.004461 0.010027 0.205208 0.234971 0.067159 0.096719 -0.320806
0.072396 0.073046 0.074995 0.078243 0.082789 0.088631 0.095767 0.104195 0.113909 0.124906 0.137178 0.150717 0.165514 0.181554 0.198824 0.217304 0.236973 0.257805 0.279768 0.302828 0.326944 0.352069 0.378149 0.405124 0.432926 0.461478 0.490696 0.520485 0.550742 0.581352 0.612192 0.643125 0.674006 0.704677 0.734968 0.764699 0.793679 0.821703 0.848560 0.874025 0.897865 0.919838 0.939697 0.957187 0.972049 0.984021 0.992843 0.998253 0.999996 0.997825 0.991501 0.980800 0.965516 0.945461 0.920475 0.890425 0.855212 0.814773 0.769088 0.718181 0.662127 0.601054 0.535147 0.464652 0.389877 0.311197 0.229051 0.143949 0.056465 0.032758 0.123013 0.213533 0.303494 0.392022 0.478198 0.561071 0.639662 0.712982 0.780039 0.839855 0.891483 0.934019 0.966622 0.988532 0.999085 0.997735 0.984071 0.957831 0.918922 0.867433 0.803646 0.728049 0.641339 0.544431 0.438453 0.324741 0.204838 0.080467 0.046476 0.173953 0.299812 0.421820 0.537703 0.645191 0.742059 0.826187 0.895599 0.948527 0.983453 0.999168 0.994813 0.969923 0.924463 0.858856 0.774001 0.671283 0.552563 0.420169 0.276859 0.125780 0.029596 0.185536 0.338138 0.483422 0.617441 0.736387 0.836710 0.915232 0.969264 0.996710 0.996165 0.966990 0.909379 0.824397 0.713990 0.580970 0.428975 0.262384 0.086216 0.094009 0.272435 0.443052 0.599904 0.737300 0.850035 0.933603 0.984401 0.999902 0.978809 0.921164 0.828406 0.703385 0.550311 0.374653 0.182968 0.017315 0.218170 0.411287 0.588412 0.741717 0.864152 0.949802 0.994200 0.994598 0.950163 0.862103 0.733701 0.570239 0.378834 0.168169 0.051870 0.270645 0.477260 0.661119 0.812476 0.922986 0.986197 0.997975 0.956821 0.864054 0.723854 0.543139 0.331290 0.099698 0.138794 0.370600 0.582149 0.760699 0.895124 0.976663 0.999536 0.961415 0.863702 0.711573 0.513788 0.282264 0.031402 0.222756 0.463545 0.674766 0.841797 0.952659 0.998925 0.976440 0.885760 0.732275 0.525992 0.280969 0.014421 0.254435 0.505751 0.720514 0.882022 0.977239 0.997925 0.941434 0.811112 0.616225 0.371413 0.095668 0.189059 0.459583 0.693365 0.870431 0.975130 0.997617 0.934877 0.791203 0.578048 0.313227 0.019539 0.277138 0.550087 0.774184 0.928252 0.997148 0.973365 0.857971 0.660761 0.399578 0.098815 0.212766 0.504749 0.748023 0.917747 0.995968 0.973652 0.851862 0.641942 0.364617 0.048095 0.274724 0.569597 0.804619 0.953714 0.999657 0.936209 0.769114 0.515779 0.203649 0.132667 0.455116 0.726522 0.914914 0.997398 0.963099 0.814769 0.568818 0.253700 0.093225 0.430038 0.715266 0.913084 0.997893 0.957829 0.796606 0.533450 0.201001 0.158540 0.498711 0.774745 0.949556 0.998856 0.914738 0.707142 0.402944 0.042698 0.324621 0.648214 0.882506 0.993690 0.964795 0.798515 0.517294 0.160542 0.220672 0.570862 0.838164 0.982148 0.980121 0.830949 0.555732 0.195116 0.196506 0.559073 0.836051 0.983362 0.976610 0.815387 0.523887 0.147577 0.253677 0.614992 0.876998 0.995705 0.950146 0.746372 0.417034 0.016460 0.388088 0.727641 0.943322 0.996751 0.877165 0.603907 0.223643 0.197288 0.584309 0.867810 0.995774 0.943625 0.719275 0.362359 0.062428 0.476818 0.803349 0.979922 0.971870 0.779127 0.436933 0.009803 0.420398 0.770017 0.969984 0.979675 0.795563 0.452648 0.018224 0.421029 0.776246 0.974415 0.973661 0.772487 0.410889 0.037187 0.478658 0.820542 0.989664 0.948624 0.704500 0.308175 0.155838 0.587140
1.000000 1.000000 1.000000 1.000000 1.000000 1.000000 1.000000 1.000000 1.000000 1.000000 1.000000 1.000000 1.000000 1.000000 1.000000 1.000000 1.000000 1.000000 1.000000 1.000000 1.000000 1.000000 1.000000 1.000000 1.000000 1.000000 1.000000 1.000000 1.000000 1.000000 1.000000 1.000000 1.000000 1.000000 1.000000 1.000000 1.000000 1.000000 1.000000 1.000000 1.000000 1.000000 1.000000 1.000000 1.000000 1.000000 1.000000 1.000000 1.000000 1.000000 1.000000 1.000000 0.958380 0.958380 0.958380 0.958380 0.958380 0.958380 0.958380 0.958380 0.958380 0.958380 0.958380 0.958380 0.958380 0.958380 0.958380 0.958380 0.958380 0.958380 0.958380 0.958380 0.958380 0.958380 0.958380 0.958380 0.958380 0.958380 0.958380 0.958380 0.958380 0.958380 0.958380 0.958380 0.958380 0.957037 0.957907 0.959635 0.960266 0.960298 0.960108 0.960004 0.962902 0.963824 0.966999 0.968500 0.969897 0.966471 0.968774 0.970411 0.969898 0.969861 0.967805 0.974718 0.973758 0.974153 0.973669 0.972766 0.971725 0.970827 0.974480 0.973450 0.971848 0.970123 0.968791 0.967915 0.967913 0.966474 0.968667 0.968880 0.969506 0.969309 0.969036 0.968863 0.968989 0.969583 0.970998 0.966435 0.965140 0.963636 0.963943 0.964759 0.964645 0.964687 0.964882 0.965073 0.964473 0.963022 0.959652 0.958451 0.954084 0.953064 0.954504 0.958277 0.959766 0.956264 0.951827 0.949816 0.937344 0.935045 0.935823 0.936510 0.925895 0.925307 0.918371 0.917888 0.918198 0.920196 0.919156 0.906514 0.886643 0.858812 0.862331 0.854856 0.851380 0.855534 0.861980 0.865045 0.868069 0.869814 0.872002 0.875345 0.877086 0.872047 0.863434 0.860337 0.862063 0.862734 0.867306 0.866810 0.864028 0.856184 0.869737 0.871959 0.877811 0.875856 0.876056 0.871412 0.871589 0.870426 0.869014 0.865356 0.865551 0.870661 0.856275 0.852422 0.845905 0.840635 0.840146 0.838811 0.841226 0.839872 0.841050 0.830208 0.833585 0.825184 0.835911 0.824606 0.821584 0.813070 0.814322 0.826869 0.846623 0.874920 0.873633 0.870056 0.871335 0.860613 0.844772 0.844799 0.837534 0.830616 0.815649 0.794494 0.799280 0.787151 0.793254 0.777923 0.777023 0.781681 0.752609 0.748283 0.741878 0.753366 0.737003 0.723248 0.718721 0.712697 0.712086 0.700765 0.702120 0.697249 0.687607 0.688582 0.686519 0.672750 0.686188 0.687749 0.689613 0.670922 0.675578 0.648066 0.647587 0.644573 0.665627 0.643776 0.650945 0.657785 0.640106 0.596121 0.605421 0.600410 0.588931 0.589290 0.592552 0.589493 0.585559 0.581852 0.526828 0.513667 0.522372 0.515338 0.529937 0.528729 0.523643 0.539866 0.525081 0.510129 0.479334 0.472180 0.447236 0.456458 0.437150 0.428386 0.401615 0.416875 0.408048 0.413952 0.390680 0.361703 0.344700 0.363251 0.335719 0.346551 0.345718 0.342635 0.304123 0.297719 0.295650 0.230809 0.211928 0.211197 0.214161 0.227140 0.228040 0.239299 0.204291 0.202324 0.194029 0.205586 0.217852 0.196187 0.207786 0.224104 0.261281 0.237740 0.229864 0.199457 0.182339 0.162912 0.192403 0.168790 0.162104 0.155232 0.183970 0.182849 0.189135 0.179106 0.143512 0.126127 0.160671 0.144275 0.137462 0.159781 0.178506 0.164440 0.175450 0.176897 0.176897 0.176897 0.176897 0.176897 0.176897 0.176897 0.176897 0.176897 0.176897 0.176897 0.176897 0.176897 0.176897 0.180093 0.180093 0.180093 0.180093 0.180093 0.180093 0.180093 0.180093 0.180093 0.180093 0.180093 0.180093
0.000000 0.000000 0.000000 0.000000 0.000000 0.000000 0.000000 0.000000 0.000000 0.000000 0.000000 0.000000 0.000000 0.000000 0.000000 0.000000 0.000000 0.000000 0.000000 0.000000 0.000000 0.000000 0.000000 0.000000 0.000000 0.000000 0.000000 0.000000 0.000000 0.000000 0.000000 0.000000 0.000000 0.000000 0.000000 0.000000 0.000000 0.000000 0.000000 0.000000 0.000000 0.000000 0.000000 0.000000 0.000000 0.000000 0.000000 0.000000 0.000000 0.000000 0.000000 0.000000 0.209657 0.209657 0.209657 0.209657 0.209657 0.209657 0.209657 0.209657 0.209657 0.209657 0.209657 0.209657 0.209657 0.209657 0.209657 0.209657 0.209657 0.209657 0.209657 0.209657 0.209657 0.209657 0.209657 0.209657 0.209657 0.209657 0.209657 0.209657 0.209657 0.209657 0.209657 0.209657 0.209657 0.244339 0.244339 0.244339 0.244339 0.244339 0.244339 0.244339 0.244339 0.244339 0.244339 0.244339 0.244339 0.244339 0.244339 0.244339 0.244339 0.244339 0.244339 0.244339 0.244339 0.244339 0.244339 0.244339 0.244339 0.244339 0.260378 0.260378 0.260378 0.260378 0.260378 0.260378 0.260378 0.260378 0.260378 0.260378 0.260378 0.260378 0.260378 0.260378 0.260378 0.260378 0.260378 0.260378 0.260378 0.260378 0.269680 0.269680 0.269680 0.269680 0.269680 0.269680 0.269680 0.269680 0.269680 0.269680 0.269680 0.269680 0.269680 0.269680 0.269680 0.269680 0.269680 0.269680 0.269680 0.269680 0.269680 0.269680 0.269680 0.269680 0.269680 0.269680 0.269680 0.269680 0.269680 0.269680 0.269680 0.269680 0.269680 0.280056 0.280056 0.280056 0.280056 0.280056 0.280056 0.280056 0.280056 0.280056 0.280056 0.280056 0.280056 0.280056 0.280056 0.280056 0.280056 0.280056 0.280056 0.280056 0.280056 0.280056 0.280056 0.280056 0.280056 0.280056 0.280056 0.280056 0.274721 0.274721 0.274721 0.274721 0.274721 0.274721 0.274721 0.274721 0.274721 0.274721 0.274721 0.274721 0.274721 0.285714 0.285714 0.285714 0.285714 0.285714 0.285714 0.285714 0.285714 0.285714 0.285714 0.285714 0.280056 0.280056 0.280056 0.280056 0.280056 0.280056 0.280056 0.280056 0.280056 0.280056 0.280056 0.274721 0.274721 0.274721 0.274721 0.274721 0.274721 0.274721 0.274721 0.274721 0.274721 0.274721 0.280056 0.280056 0.280056 0.280056 0.280056 0.280056 0.280056 0.280056 0.280056 0.280056 0.285714 0.285714 0.285714 0.285714 0.285714 0.285714 0.285714 0.285714 0.285714 0.269680 0.269680 0.269680 0.269680 0.269680 0.269680 0.269680 0.269680 0.269680 0.269680 0.274721 0.274721 0.274721 0.274721 0.274721 0.274721 0.274721 0.274721 0.274721 0.285714 0.285714 0.285714 0.285714 0.285714 0.285714 0.285714 0.285714 0.264906 0.264906 0.264906 0.264906 0.264906 0.264906 0.264906 0.264906 0.264906 0.274721 0.274721 0.274721 0.274721 0.274721 0.274721 0.274721 0.274721 0.269680 0.269680 0.269680 0.269680 0.269680 0.269680 0.269680 0.269680 0.269680 0.269680 0.269680 0.269680 0.269680 0.269680 0.269680 0.269680 0.280056 0.280056 0.280056 0.280056 0.280056 0.280056 0.280056 0.260378 0.260378 0.260378 0.260378 0.260378 0.260378 0.260378 0.260378 0.269680 0.269680 0.269680 0.269680 0.269680 0.269680 0.269680 0.264906 0.264906 0.264906 0.264906 0.264906 0.264906 0.264906 0.264906 0.264906 0.264906 0.264906 0.264906 0.264906 0.264906 0.260378 0.260378 0.260378 0.260378 0.260378 0.260378 0.260378 0.260378 0.260378 0.260378 0.260378 0.260378
