# Output from CTFFind version 4.1.9, run on 2019-11-02 12:26:50
# Input file: stack11_ub_averaged_2000.mrc ; Number of micrographs: 1
# Pixel size: 3.000 Angstroms ; acceleration voltage: 300.0 keV ; spherical aberration: 0.00 mm ; amplitude contrast: 0.07
# Box size: 512 pixels ; min. res.: 30.0 Angstroms ; max. res.: 5.0 Angstroms ; min. def.: 5000.0 um; max. def. 50000.0 um; num. frames averaged: 1
# 6 lines per micrograph: #1 - spatial frequency (1/Angstroms); #2 - 1D rotational average of spectrum (assuming no astigmatism); #3 - 1D rotational average of spectrum; #4 - CTF fit; #5 - cross-correlation between spectrum and CTF fit; #6 - 2sigma of expected cross correlation of noise
0.000000 0.000651 0.001302 0.001953 0.002604 0.003255 0.003906 0.004557 0.005208 0.005859 0.006510 0.007161 0.007812 0.008464 0.009115 0.009766 0.010417 0.011068 0.011719 0.012370 0.013021 0.013672 0.014323 0.014974 0.015625 0.016276 0.016927 0.017578 0.018229 0.018880 0.019531 0.020182 0.020833 0.021484 0.022135 0.022786 0.023438 0.024089 0.024740 0.025391 0.026042 0.026693 0.027344 0.027995 0.028646 0.029297 0.029948 0.030599 0.031250 0.031901 0.032552 0.033203 0.033854 0.034505 0.035156 0.035807 0.036458 0.037109 0.037760 0.038411 0.039062 0.039714 0.040365 0.041016 0.041667 0.042318 0.042969 0.043620 0.044271 0.044922 0.045573 0.046224 0.046875 0.047526 0.048177 0.048828 0.049479 0.050130 0.050781 0.051432 0.052083 0.052734 0.053385 0.054036 0.054688 0.055339 0.055990 0.056641 0.057292 0.057943 0.058594 0.059245 0.059896 0.060547 0.061198 0.061849 0.062500 0.063151 0.063802 0.064453 0.065104 0.065755 0.066406 0.067057 0.067708 0.068359 0.069010 0.069661 0.070312 0.070964 0.071615 0.072266 0.072917 0.073568 0.074219 0.074870 0.075521 0.076172 0.076823 0.077474 0.078125 0.078776 0.079427 0.080078 0.080729 0.081380 0.082031 0.082682 0.083333 0.083984 0.084635 0.085286 0.085938 0.086589 0.087240 0.087891 0.088542 0.089193 0.089844 0.090495 0.091146 0.091797 0.092448 0.093099 0.093750 0.094401 0.095052 0.095703 0.096354 0.097005 0.097656 0.098307 0.098958 0.099609 0.100260 0.100911 0.101562 0.102214 0.102865 0.103516 0.104167 0.104818 0.105469 0.106120 0.106771 0.107422 0.108073 0.108724 0.109375 0.110026 0.110677 0.111328 0.111979 0.112630 0.113281 0.113932 0.114583 0.115234 0.115885 0.116536 0.117188 0.117839 0.118490 0.119141 0.119792 0.120443 0.121094 0.121745 0.122396 0.123047 0.123698 0.124349 0.125000 0.125651 0.126302 0.126953 0.127604 0.128255 0.128906 0.129557 0.130208 0.130859 0.131510 0.132161 0.132812 0.133464 0.134115 0.134766 0.135417 0.136068 0.136719 0.137370 0.138021 0.138672 0.139323 0.139974 0.140625 0.141276 0.141927 0.142578 0.143229 0.143880 0.144531 0.145182 0.145833 0.146484 0.147135 0.147786 0.148438 0.149089 0.149740 0.150391 0.151042 0.151693 0.152344 0.152995 0.153646 0.154297 0.154948 0.155599 0.156250 0.156901 0.157552 0.158203 0.158854 0.159505 0.160156 0.160807 0.161458 0.162109 0.162760 0.163411 0.164062 0.164714 0.165365 0.166016 0.166667 0.167318 0.167969 0.168620 0.169271 0.169922 0.170573 0.171224 0.171875 0.172526 0.173177 0.173828 0.174479 0.175130 0.175781 0.176432 0.177083 0.177734 0.178385 0.179036 0.179688 0.180339 0.180990 0.181641 0.182292 0.182943 0.183594 0.184245 0.184896 0.185547 0.186198 0.186849 0.187500 0.188151 0.188802 0.189453 0.190104 0.190755 0.191406 0.192057 0.192708 0.193359 0.194010 0.194661 0.195312 0.195964 0.196615 0.197266 0.197917 0.198568 0.199219 0.199870 0.200521 0.201172 0.201823 0.202474 0.203125 0.203776 0.204427 0.205078 0.205729 0.206380 0.207031 0.207682 0.208333 0.208984 0.209635 0.210286 0.210938 0.211589 0.212240 0.212891 0.213542 0.214193 0.214844 0.215495 0.216146 0.216797 0.217448 0.218099 0.218750 0.219401 0.220052 0.220703 0.221354 0.222005 0.222656 0.223307 0.223958 0.224609 0.225260 0.225911 0.226562 0.227214 0.227865 0.228516 0.229167 0.229818 0.230469 0.231120 0.231771 0.232422 0.233073 0.233724 0.234375 0.235026 0.235677
       0.31606        0.31606        0.31606        0.31606        0.31606        0.31606        0.31606        0.31606        0.31606        0.31606        0.31606        0.31606        0.31606        0.31606        0.31606        0.31606        0.31606        0.31606        0.31606        0.31606        0.31606        0.31606        0.31606        0.31606        0.31606        0.31606        0.31606        0.31606        0.31606        0.31606        0.31606        0.31606        0.31606        0.31606        0.31606        0.31606        0.31606        0.31606        0.31606        0.31606        0.31606        0.31606        0.31606        0.31606        0.31606        0.31606        0.31606        0.31606        0.31606        0.31606        0.31606        0.68465        0.87220        0.52110        0.08491       -0.06915       -0.42735       -0.21015       -0.29850       -0.11945       -0.08031       -0.11906       -0.07053       -0.21209       -0.23964       -0.26249       -0.33188       -0.33824       -0.49497       -0.38566       -0.46880       -0.45336       -0.42229       -0.47223       -0.55128       -0.56601       -0.59046       -0.63093       -0.58233       -0.41928       -0.38060       -0.33109       -0.31845       -0.21564       -0.20126        0.01918        0.06535        0.10000        0.22187        0.37140        0.44118        0.51590        0.55848        0.55374        0.57206        0.69889        0.81528        0.74716        0.73500        0.67569        0.58330        0.48658        0.40572        0.49198        0.37030        0.19831        0.07585        0.04320        0.00483       -0.06187       -0.04275       -0.02997       -0.07614       -0.00708       -0.02364        0.20828        0.24743        0.29148        0.43052        0.46861        0.40323        0.53009        0.63129        0.70436        0.76928        0.69180        0.66227        0.70086        0.58911        0.50808        0.41777        0.28795        0.18344        0.15609        0.10759        0.03490        0.01209       -0.00282        0.07464        0.13052        0.20094        0.28430        0.40403        0.41513        0.51087        0.60166        0.63591        0.61159        0.63073        0.55302        0.44463        0.44164        0.34988        0.22961        0.18562        0.14916        0.10229        0.11713        0.06172        0.09730        0.21818        0.26190        0.33834        0.34387        0.45283        0.51167        0.53592        0.55178        0.46761        0.42609        0.39354        0.37796        0.30923        0.24986        0.19913        0.18284        0.15992        0.18882        0.17567        0.26813        0.33142        0.36226        0.41986        0.46162        0.47748        0.44653        0.39178        0.41237        0.37611        0.29096        0.27558        0.22961        0.21145        0.19262        0.21012        0.23059        0.32812        0.37127        0.36493        0.45606        0.43899        0.43999        0.43074        0.39515        0.34279        0.32923        0.27689        0.23198        0.23444        0.26607        0.26708        0.29829        0.29647        0.33957        0.32868        0.41069        0.41593        0.37364        0.34256        0.36207        0.27906        0.27852        0.26285        0.27609        0.25880        0.28029        0.29275        0.31592        0.35274        0.35765        0.35906        0.33108        0.35096        0.28575        0.32277        0.26631        0.24896        0.28060        0.27905        0.30552        0.31505        0.33238        0.32421        0.31113        0.31754        0.28697        0.28418        0.25950        0.28141        0.26844        0.31081        0.28316        0.25963        0.30710        0.31084        0.31643        0.29210        0.29753        0.29329        0.24175        0.23530        0.21833        0.27699        0.27052        0.30496        0.31803        0.31912        0.31129        0.30140        0.27568        0.28129        0.33139        0.27606        0.26953        0.29349        0.29658        0.34140        0.33862        0.36373        0.33099        0.31115        0.27947        0.26209        0.26258        0.22504        0.26511        0.29815        0.29727        0.27676        0.29511        0.27017        0.32124        0.33392        0.25165        0.21694        0.26747        0.33734        0.27850        0.31471        0.32655        0.32824        0.29728        0.31873        0.34490        0.29732        0.29570        0.26463        0.27425        0.34872        0.34892        0.25744        0.26802        0.25413        0.27405        0.22817        0.28975        0.22115        0.25267        0.32267        0.31431        0.34110        0.29676        0.23545        0.23850        0.24180        0.24549        0.17798        0.21685        0.25846        0.28900        0.28130        0.29994        0.28850        0.28047        0.28378        0.20917        0.18105        0.18294        0.23481        0.20139        0.22158        0.23252        0.20930        0.24486        0.33010        0.29374        0.30395        0.21996        0.26729        0.23762        0.28282        0.30418        0.14831        0.21129        0.22586        0.13768        0.24110        0.10921        0.16860        0.17989        0.12593       -0.11720       -0.64087
2.587261 2.560249 2.533383 2.506663 2.480090 2.453664 2.427384 2.401251 2.375263 2.349423 2.323729 2.298181 2.272780 2.247525 2.222417 2.197455 2.172639 2.147970 2.123448 2.099072 2.074842 2.050759 2.026823 2.003033 1.979389 1.955892 1.932541 1.909336 1.886279 1.863367 1.840602 1.817984 1.795512 1.773186 1.751007 1.728975 1.707089 1.685349 1.663756 1.642309 1.621009 1.599855 1.578848 1.557987 1.537272 1.516704 1.496283 1.476008 1.455879 1.435897 1.416061 1.638741 2.043046 1.615089 1.128463 0.986521 0.424632 0.811435 0.563320 0.835732 0.772316 0.788237 0.753816 0.710259 0.560543 0.511632 0.487111 0.448357 0.204584 0.380977 0.205914 0.304076 0.241108 0.182011 0.129752 0.004326 0.045147 -0.015342 -0.054942 0.104704 0.206816 0.199262 0.154403 0.331336 0.198121 0.500772 0.571645 0.545301 0.590163 0.878200 0.806787 0.946311 0.888719 0.973041 0.939633 1.080860 1.142023 1.080784 1.125497 0.957160 0.944348 0.785896 0.651391 0.768576 0.701137 0.459206 0.306457 0.253398 0.209613 0.148165 0.088449 0.124756 0.065030 0.156572 0.049280 0.260748 0.376538 0.360868 0.477918 0.586626 0.471030 0.538391 0.698957 0.748188 0.781208 0.735966 0.735298 0.718514 0.627455 0.574091 0.431140 0.283690 0.206093 0.076120 0.133064 -0.044013 -0.027361 -0.082576 -0.036876 0.006840 0.139988 0.093874 0.305202 0.276834 0.365973 0.452112 0.525060 0.508055 0.516598 0.505046 0.332383 0.306044 0.275414 0.101191 0.048303 0.000707 -0.037742 -0.042476 -0.095941 -0.102953 -0.020088 0.053912 0.136274 0.132434 0.225518 0.333675 0.303305 0.412106 0.396543 0.281673 0.232382 0.252749 0.213107 0.101278 0.070817 0.017092 0.002563 0.004104 -0.019518 0.058622 0.147465 0.141349 0.222883 0.250779 0.305376 0.261208 0.219483 0.188447 0.208903 0.153221 0.045530 0.052456 -0.008288 -0.011020 -0.031617 0.015434 0.017563 0.172383 0.121685 0.182863 0.235147 0.203391 0.194349 0.200341 0.134885 0.106449 0.067012 0.042941 -0.040989 0.007131 0.018834 0.051674 0.046338 0.078282 0.098841 0.119215 0.139561 0.183915 0.076347 0.096465 0.068726 -0.001135 0.005325 0.008593 -0.010025 0.017461 0.003643 0.032224 0.071803 0.087786 0.104808 0.052299 0.094344 0.055775 0.012704 0.062278 -0.036178 -0.014108 0.018602 -0.000940 0.049324 0.056337 0.047383 0.059459 0.045745 0.047240 0.018176 -0.002908 0.003422 0.016024 -0.014182 0.068347 -0.015464 0.003904 0.052655 0.047462 0.030536 0.042350 0.035926 0.015188 -0.029441 -0.049884 -0.020391 0.013739 0.015211 0.054218 0.061894 0.046893 0.080163 0.057035 0.019265 0.057681 0.084921 0.021972 0.023579 0.053898 0.054230 0.100578 0.109881 0.113019 0.107488 0.059718 0.040087 0.028148 0.005019 -0.008209 0.043760 0.073870 0.045001 0.026903 0.030078 0.027257 0.079924 0.068240 -0.048218 -0.054993 0.027835 0.091299 0.009373 0.033837 0.061672 0.086405 0.019028 0.055533 0.086526 0.033441 0.040872 -0.025075 0.007771 0.107684 0.065532 -0.058688 -0.019401 -0.049069 0.006183 -0.099571 0.033400 -0.111493 -0.032070 0.045248 0.021483 0.025686 -0.046143 -0.068396 -0.091804 -0.080265 -0.063891 -0.136415 -0.097527 -0.040679 0.006204 -0.027515 0.031178 -0.024377 -0.042216 0.054678 -0.112131 -0.092170 -0.102429 -0.004817 -0.057704 -0.023389 -0.010186 0.012296 0.009106 0.169833 -0.007673 0.140401 -0.001436 0.273992 0.249664 0.322324 0.280252 0.114690 0.213727 0.271137 0.058757 0.265501 0.113123 0.152697 0.231103 0.127696 -0.660090
0.072396 0.072899 0.074406 0.076917 0.080432 0.084950 0.090469 0.096988 0.104505 0.113017 0.122521 0.133012 0.144485 0.156934 0.170350 0.184725 0.200048 0.216306 0.233484 0.251564 0.270527 0.290350 0.311006 0.332467 0.354699 0.377665 0.401324 0.425630 0.450533 0.475975 0.501897 0.528232 0.554906 0.581841 0.608952 0.636147 0.663328 0.690390 0.717220 0.743701 0.769707 0.795106 0.819759 0.843520 0.866240 0.887760 0.907919 0.926551 0.943483 0.958544 0.971556 0.982341 0.990722 0.996521 0.999564 0.999678 0.996699 0.990467 0.980831 0.967651 0.950800 0.930164 0.905647 0.877172 0.844682 0.808143 0.767549 0.722917 0.674300 0.621776 0.565463 0.505509 0.442104 0.375472 0.305879 0.233631 0.159073 0.082591 0.004611 0.074401 0.153944 0.233480 0.312438 0.390219 0.466197 0.539727 0.610147 0.676785 0.738966 0.796019 0.847285 0.892123 0.929922 0.960107 0.982151 0.995583 0.999998 0.995064 0.980536 0.956262 0.922191 0.878381 0.825005 0.762360 0.690866 0.611071 0.523652 0.429413 0.329286 0.224319 0.115674 0.004616 0.107502 0.219247 0.329131 0.435624 0.537177 0.632246 0.719317 0.796930 0.863708 0.918382 0.959823 0.987065 0.999330 0.996058 0.976923 0.941856 0.891056 0.825008 0.744481 0.650537 0.544520 0.428053 0.303008 0.171501 0.035842 0.101487 0.237877 0.370646 0.497087 0.614520 0.720363 0.812181 0.887754 0.945137 0.982714 0.999254 0.993959 0.966500 0.917050 0.846302 0.755478 0.646322 0.521082 0.382476 0.233644 0.078085 0.080415 0.237873 0.390207 0.533340 0.663315 0.776406 0.869236 0.938883 0.982992 0.999856 0.988504 0.948756 0.881259 0.787510 0.669836 0.531365 0.375955 0.208103 0.032829 0.144464 0.318157 0.482588 0.632236 0.761920 0.866983 0.943477 0.988323 0.999459 0.975948 0.918055 0.827285 0.706374 0.559233 0.390846 0.207121 0.014705 0.179251 0.367357 0.542251 0.696902 0.824903 0.920751 0.980103 0.999998 0.979029 0.917457 0.817256 0.682091 0.517218 0.329306 0.126195 0.083414 0.290321 0.485224 0.659149 0.803862 0.912290 0.978884 0.999937 0.973819 0.901124 0.784716 0.629658 0.443034 0.233661 0.011693 0.211844 0.425599 0.618469 0.780191 0.901902 0.976666 0.999891 0.969661 0.886916 0.755492 0.581992 0.375504 0.147161 0.090432 0.323866 0.539698 0.725219 0.869225 0.962730 0.999563 0.976822 0.895148 0.758786 0.575423 0.355818 0.113206 0.137462 0.380422 0.600090 0.782073 0.914131 0.987059 0.995363 0.937737 0.817266 0.641335 0.421243 0.171535 0.090922 0.348054 0.581803 0.775433 0.914742 0.989148 0.992564 0.923951 0.787528 0.592602 0.352999 0.086151 0.188138 0.449136 0.676750 0.853093 0.963943 0.999937 0.957447 0.839001 0.653243 0.414386 0.141195 0.144430 0.419187 0.660267 0.847257 0.963941 0.999752 0.950816 0.820454 0.619055 0.363354 0.075114 0.220671 0.497919 0.731759 0.900801 0.989146 0.987972 0.896501 0.722262 0.480583 0.193339 0.112952 0.409552 0.668167 0.863680 0.976660 0.995365 0.917070 0.748540 0.505564 0.211598 0.104436 0.410927 0.676737 0.874391 0.982982 0.990476 0.895161 0.706051 0.442167 0.130733 0.195535 0.501834 0.754993 0.927091 0.998634 0.960871 0.816993 0.582024 0.281391 0.051708 0.379923 0.665905 0.876579 0.987054 0.983677 0.865850 0.646371 0.350198 0.011740 0.329061 0.631410 0.858550 0.982325 0.986779 0.870352 0.646376 0.341697 0.006388 0.354618 0.659107 0.880901 0.991049 0.974515 0.832379 0.582033 0.255206 0.105922
1.000000 1.000000 1.000000 1.000000 1.000000 1.000000 1.000000 1.000000 1.000000 1.000000 1.000000 1.000000 1.000000 1.000000 1.000000 1.000000 1.000000 1.000000 1.000000 1.000000 1.000000 1.000000 1.000000 1.000000 1.000000 1.000000 1.000000 1.000000 1.000000 1.000000 1.000000 1.000000 1.000000 1.000000 1.000000 1.000000 1.000000 1.000000 1.000000 1.000000 1.000000 1.000000 1.000000 1.000000 1.000000 1.000000 1.000000 1.000000 1.000000 1.000000 1.000000 1.000000 0.932256 0.932256 0.932256 0.924183 0.924183 0.924183 0.924183 0.924183 0.924183 0.924183 0.924183 0.924183 0.924183 0.924183 0.924183 0.924183 0.924183 0.924183 0.924183 0.924183 0.924183 0.924183 0.924183 0.924183 0.924183 0.924183 0.924183 0.924183 0.924183 0.924183 0.924183 0.924183 0.924183 0.924183 0.924183 0.924183 0.924183 0.924183 0.924183 0.924183 0.924183 0.924183 0.924183 0.924183 0.950237 0.951447 0.959289 0.959116 0.958609 0.956491 0.955592 0.954457 0.954011 0.954280 0.954882 0.955710 0.967466 0.968476 0.970012 0.970806 0.971507 0.972154 0.972001 0.972796 0.972038 0.971492 0.970980 0.966997 0.967642 0.968229 0.968388 0.968142 0.967696 0.971592 0.971726 0.971145 0.970305 0.968082 0.967117 0.966703 0.966422 0.966521 0.966976 0.968270 0.971442 0.970848 0.970556 0.970714 0.970813 0.970986 0.971399 0.972214 0.968235 0.966699 0.964945 0.962704 0.966879 0.963979 0.963772 0.965139 0.965537 0.965954 0.964838 0.960714 0.955096 0.953912 0.951598 0.942434 0.941526 0.942294 0.944723 0.945238 0.943822 0.936824 0.937352 0.930241 0.931965 0.935238 0.929186 0.929198 0.930377 0.930149 0.929309 0.928777 0.925876 0.923421 0.921938 0.921679 0.924666 0.924497 0.925714 0.925609 0.919978 0.912120 0.900458 0.898441 0.893995 0.897023 0.885759 0.888714 0.887349 0.882649 0.885995 0.885806 0.886749 0.883454 0.867325 0.850812 0.844734 0.849643 0.854465 0.852969 0.850753 0.844043 0.855470 0.831290 0.843421 0.853181 0.849610 0.849758 0.848508 0.847107 0.841990 0.843312 0.844689 0.845881 0.843235 0.840715 0.840962 0.822460 0.824295 0.764044 0.746972 0.735873 0.741082 0.748423 0.749945 0.748858 0.756274 0.760842 0.752176 0.735532 0.728825 0.724645 0.728819 0.721437 0.724118 0.705933 0.674335 0.669890 0.640903 0.657228 0.668680 0.630681 0.653441 0.664337 0.664442 0.663185 0.656914 0.654130 0.649193 0.651286 0.656826 0.668774 0.685891 0.708672 0.702668 0.692939 0.688374 0.668709 0.662233 0.658358 0.676440 0.653303 0.650235 0.669315 0.668260 0.650920 0.626510 0.614204 0.609570 0.604531 0.614492 0.599582 0.593798 0.583286 0.559475 0.555467 0.588390 0.603639 0.627524 0.598535 0.586202 0.575364 0.557326 0.568728 0.508052 0.508386 0.530590 0.538716 0.517714 0.507197 0.518311 0.521450 0.517956 0.508074 0.503553 0.493681 0.510653 0.549114 0.537459 0.518855 0.520142 0.519600 0.511865 0.420169 0.414715 0.390093 0.356118 0.297819 0.280670 0.272406 0.256622 0.246126 0.209617 0.206291 0.216216 0.221171 0.234567 0.236995 0.217547 0.228709 0.225263 0.211757 0.149006 0.138946 0.131135 0.120440 0.117986 0.094542 0.122764 0.193199 0.195194 0.195194 0.195194 0.195194 0.195194 0.195194 0.200915 0.200915 0.200915 0.200915 0.200915 0.200915 0.200915 0.200915 0.200915 0.212527 0.212527 0.212527 0.212527 0.212527 0.212527 0.212527 0.212527 0.212527 0.212527 0.212527 0.212527 0.212527 0.212527
0.000000 0.000000 0.000000 0.000000 0.000000 0.000000 0.000000 0.000000 0.000000 0.000000 0.000000 0.000000 0.000000 0.000000 0.000000 0.000000 0.000000 0.000000 0.000000 0.000000 0.000000 0.000000 0.000000 0.000000 0.000000 0.000000 0.000000 0.000000 0.000000 0.000000 0.000000 0.000000 0.000000 0.000000 0.000000 0.000000 0.000000 0.000000 0.000000 0.000000 0.000000 0.000000 0.000000 0.000000 0.000000 0.000000 0.000000 0.000000 0.000000 0.000000 0.000000 0.000000 0.180334 0.180334 0.180334 0.199007 0.199007 0.199007 0.199007 0.199007 0.199007 0.199007 0.199007 0.199007 0.199007 0.199007 0.199007 0.199007 0.199007 0.199007 0.199007 0.199007 0.199007 0.199007 0.199007 0.199007 0.199007 0.199007 0.199007 0.199007 0.199007 0.199007 0.199007 0.199007 0.199007 0.199007 0.199007 0.199007 0.199007 0.199007 0.199007 0.199007 0.199007 0.199007 0.199007 0.199007 0.225018 0.225018 0.225018 0.225018 0.225018 0.225018 0.225018 0.225018 0.225018 0.225018 0.225018 0.225018 0.225018 0.225018 0.225018 0.225018 0.225018 0.225018 0.225018 0.225018 0.225018 0.225018 0.225018 0.225018 0.225018 0.225018 0.225018 0.225018 0.225018 0.244339 0.244339 0.244339 0.244339 0.244339 0.244339 0.244339 0.244339 0.244339 0.244339 0.244339 0.244339 0.244339 0.244339 0.244339 0.244339 0.244339 0.244339 0.244339 0.244339 0.244339 0.244339 0.244339 0.251976 0.251976 0.251976 0.251976 0.251976 0.251976 0.251976 0.251976 0.251976 0.251976 0.251976 0.251976 0.251976 0.251976 0.251976 0.251976 0.251976 0.251976 0.251976 0.251976 0.264906 0.264906 0.264906 0.264906 0.264906 0.264906 0.264906 0.264906 0.264906 0.264906 0.264906 0.264906 0.264906 0.264906 0.264906 0.264906 0.264906 0.264906 0.264906 0.264906 0.264906 0.264906 0.264906 0.264906 0.264906 0.264906 0.264906 0.264906 0.264906 0.264906 0.264906 0.264906 0.264906 0.264906 0.264906 0.264906 0.264906 0.264906 0.264906 0.264906 0.264906 0.264906 0.264906 0.264906 0.264906 0.264906 0.264906 0.264906 0.264906 0.264906 0.264906 0.264906 0.264906 0.264906 0.264906 0.264906 0.264906 0.264906 0.264906 0.264906 0.264906 0.264906 0.256074 0.256074 0.256074 0.256074 0.256074 0.256074 0.256074 0.256074 0.256074 0.256074 0.256074 0.256074 0.256074 0.256074 0.269680 0.269680 0.269680 0.269680 0.269680 0.269680 0.269680 0.269680 0.269680 0.269680 0.269680 0.269680 0.264906 0.264906 0.264906 0.264906 0.264906 0.264906 0.264906 0.264906 0.264906 0.264906 0.264906 0.264906 0.269680 0.269680 0.269680 0.269680 0.269680 0.269680 0.269680 0.269680 0.269680 0.269680 0.269680 0.264906 0.264906 0.264906 0.264906 0.264906 0.264906 0.264906 0.264906 0.264906 0.264906 0.264906 0.256074 0.256074 0.256074 0.256074 0.256074 0.256074 0.256074 0.256074 0.256074 0.256074 0.256074 0.264906 0.264906 0.264906 0.264906 0.264906 0.264906 0.264906 0.264906 0.264906 0.264906 0.260378 0.260378 0.260378 0.260378 0.260378 0.260378 0.260378 0.260378 0.260378 0.260378 0.256074 0.256074 0.256074 0.256074 0.256074 0.256074 0.256074 0.256074 0.256074 0.256074 0.260378 0.260378 0.260378 0.260378 0.260378 0.260378 0.260378 0.260378 0.260378 0.256074 0.256074 0.256074 0.256074 0.256074 0.256074 0.256074 0.256074 0.256074 0.251976 0.251976 0.251976 0.251976 0.251976 0.251976 0.251976 0.251976 0.251976 0.251976 0.251976 0.251976 0.251976 0.251976
