# Output from CTFFind version 4.1.9, run on 2019-11-03 18:51:21
# Input file: stack2_ub_averaged_250.mrc ; Number of micrographs: 1
# Pixel size: 3.000 Angstroms ; acceleration voltage: 300.0 keV ; spherical aberration: 0.00 mm ; amplitude contrast: 0.07
# Box size: 512 pixels ; min. res.: 30.0 Angstroms ; max. res.: 5.0 Angstroms ; min. def.: 5000.0 um; max. def. 50000.0 um; num. frames averaged: 1
# 6 lines per micrograph: #1 - spatial frequency (1/Angstroms); #2 - 1D rotational average of spectrum (assuming no astigmatism); #3 - 1D rotational average of spectrum; #4 - CTF fit; #5 - cross-correlation between spectrum and CTF fit; #6 - 2sigma of expected cross correlation of noise
0.000000 0.000651 0.001302 0.001953 0.002604 0.003255 0.003906 0.004557 0.005208 0.005859 0.006510 0.007161 0.007812 0.008464 0.009115 0.009766 0.010417 0.011068 0.011719 0.012370 0.013021 0.013672 0.014323 0.014974 0.015625 0.016276 0.016927 0.017578 0.018229 0.018880 0.019531 0.020182 0.020833 0.021484 0.022135 0.022786 0.023438 0.024089 0.024740 0.025391 0.026042 0.026693 0.027344 0.027995 0.028646 0.029297 0.029948 0.030599 0.031250 0.031901 0.032552 0.033203 0.033854 0.034505 0.035156 0.035807 0.036458 0.037109 0.037760 0.038411 0.039062 0.039714 0.040365 0.041016 0.041667 0.042318 0.042969 0.043620 0.044271 0.044922 0.045573 0.046224 0.046875 0.047526 0.048177 0.048828 0.049479 0.050130 0.050781 0.051432 0.052083 0.052734 0.053385 0.054036 0.054688 0.055339 0.055990 0.056641 0.057292 0.057943 0.058594 0.059245 0.059896 0.060547 0.061198 0.061849 0.062500 0.063151 0.063802 0.064453 0.065104 0.065755 0.066406 0.067057 0.067708 0.068359 0.069010 0.069661 0.070312 0.070964 0.071615 0.072266 0.072917 0.073568 0.074219 0.074870 0.075521 0.076172 0.076823 0.077474 0.078125 0.078776 0.079427 0.080078 0.080729 0.081380 0.082031 0.082682 0.083333 0.083984 0.084635 0.085286 0.085938 0.086589 0.087240 0.087891 0.088542 0.089193 0.089844 0.090495 0.091146 0.091797 0.092448 0.093099 0.093750 0.094401 0.095052 0.095703 0.096354 0.097005 0.097656 0.098307 0.098958 0.099609 0.100260 0.100911 0.101562 0.102214 0.102865 0.103516 0.104167 0.104818 0.105469 0.106120 0.106771 0.107422 0.108073 0.108724 0.109375 0.110026 0.110677 0.111328 0.111979 0.112630 0.113281 0.113932 0.114583 0.115234 0.115885 0.116536 0.117188 0.117839 0.118490 0.119141 0.119792 0.120443 0.121094 0.121745 0.122396 0.123047 0.123698 0.124349 0.125000 0.125651 0.126302 0.126953 0.127604 0.128255 0.128906 0.129557 0.130208 0.130859 0.131510 0.132161 0.132812 0.133464 0.134115 0.134766 0.135417 0.136068 0.136719 0.137370 0.138021 0.138672 0.139323 0.139974 0.140625 0.141276 0.141927 0.142578 0.143229 0.143880 0.144531 0.145182 0.145833 0.146484 0.147135 0.147786 0.148438 0.149089 0.149740 0.150391 0.151042 0.151693 0.152344 0.152995 0.153646 0.154297 0.154948 0.155599 0.156250 0.156901 0.157552 0.158203 0.158854 0.159505 0.160156 0.160807 0.161458 0.162109 0.162760 0.163411 0.164062 0.164714 0.165365 0.166016 0.166667 0.167318 0.167969 0.168620 0.169271 0.169922 0.170573 0.171224 0.171875 0.172526 0.173177 0.173828 0.174479 0.175130 0.175781 0.176432 0.177083 0.177734 0.178385 0.179036 0.179688 0.180339 0.180990 0.181641 0.182292 0.182943 0.183594 0.184245 0.184896 0.185547 0.186198 0.186849 0.187500 0.188151 0.188802 0.189453 0.190104 0.190755 0.191406 0.192057 0.192708 0.193359 0.194010 0.194661 0.195312 0.195964 0.196615 0.197266 0.197917 0.198568 0.199219 0.199870 0.200521 0.201172 0.201823 0.202474 0.203125 0.203776 0.204427 0.205078 0.205729 0.206380 0.207031 0.207682 0.208333 0.208984 0.209635 0.210286 0.210938 0.211589 0.212240 0.212891 0.213542 0.214193 0.214844 0.215495 0.216146 0.216797 0.217448 0.218099 0.218750 0.219401 0.220052 0.220703 0.221354 0.222005 0.222656 0.223307 0.223958 0.224609 0.225260 0.225911 0.226562 0.227214 0.227865 0.228516 0.229167 0.229818 0.230469 0.231120 0.231771 0.232422 0.233073 0.233724 0.234375 0.235026 0.235677
       0.34087        0.34087        0.34088        0.34088        0.34087        0.34087        0.34087        0.34087        0.34087        0.34087        0.34088        0.34087        0.34088        0.34087        0.34088        0.34087        0.34087        0.34087        0.34087        0.34088        0.34087        0.34087        0.34088        0.34088        0.34087        0.34087        0.34087        0.34088        0.34087        0.34088        0.34087        0.34088        0.34088        0.34087        0.34087        0.34087        0.34088        0.34088        0.34088        0.34087        0.34088        0.34087        0.34087        0.34088        0.34088        0.34088        0.34088        0.34087        0.34087        0.34088        0.34087        0.56298        0.78404        0.37063        0.08888       -0.22864       -0.47220       -0.38564       -0.33537       -0.27562       -0.39479       -0.26937       -0.25740       -0.49395       -0.49675       -0.58606       -0.61057       -0.68389       -0.68867       -0.66684       -0.67568       -0.69741       -0.63699       -0.54148       -0.56341       -0.60284       -0.45283       -0.34723       -0.26515       -0.24007       -0.15390       -0.05885        0.12238        0.16554        0.25843        0.45004        0.41132        0.57617        0.69810        0.58511        0.73983        0.67724        0.60830        0.61393        0.58140        0.44863        0.48419        0.32859        0.22602        0.25332        0.11402       -0.01519       -0.01532       -0.00708        0.00457       -0.00988        0.03334        0.09717        0.13008        0.29254        0.35485        0.41258        0.53066        0.65485        0.72727        0.77651        0.80723        0.71531        0.64075        0.58531        0.56026        0.44343        0.33322        0.32429        0.14427        0.12555        0.05072        0.14516        0.10156        0.10403        0.14073        0.16425        0.37849        0.43981        0.48798        0.50805        0.61028        0.54029        0.60722        0.57297        0.56141        0.49329        0.45606        0.37109        0.30994        0.21203        0.16969        0.15747        0.10806        0.11965        0.24450        0.24710        0.35124        0.44022        0.48376        0.49901        0.55795        0.49680        0.47434        0.41667        0.38584        0.33929        0.23969        0.17870        0.20110        0.23079        0.23189        0.25616        0.32220        0.31068        0.35025        0.47177        0.42616        0.50095        0.47579        0.43715        0.41532        0.35381        0.29857        0.29619        0.26577        0.28861        0.26516        0.28781        0.33543        0.41226        0.41193        0.40551        0.41691        0.44357        0.39758        0.40598        0.36208        0.30023        0.29366        0.29245        0.28738        0.33757        0.37455        0.35944        0.38168        0.41419        0.41409        0.44548        0.41560        0.40391        0.32077        0.30398        0.27435        0.31531        0.35046        0.35267        0.35224        0.31788        0.40217        0.38563        0.36956        0.36123        0.33836        0.29909        0.27669        0.28739        0.32284        0.30992        0.31106        0.30630        0.36813        0.38368        0.37664        0.36776        0.34631        0.33582        0.32469        0.34373        0.33236        0.35365        0.34217        0.32857        0.31827        0.30201        0.35335        0.37218        0.36581        0.29747        0.31404        0.31300        0.30670        0.31322        0.29903        0.31750        0.30725        0.30311        0.30334        0.33928        0.30276        0.27894        0.27844        0.28269        0.28406        0.30567        0.33053        0.34477        0.34463        0.30518        0.30051        0.31988        0.31138        0.32534        0.30427        0.30637        0.31993        0.32933        0.35095        0.33096        0.34684        0.37637        0.33892        0.31964        0.31511        0.32607        0.28258        0.31133        0.31332        0.32231        0.26918        0.34273        0.31820        0.29778        0.29635        0.29039        0.33951        0.33123        0.32950        0.30377        0.29188        0.36388        0.30536        0.33977        0.29453        0.27795        0.35849        0.31719        0.34200        0.35832        0.34875        0.33034        0.32188        0.31015        0.33531        0.31566        0.33073        0.33077        0.30657        0.32394        0.31012        0.30521        0.26736        0.25718        0.28170        0.28901        0.25405        0.30330        0.28497        0.30803        0.28234        0.25401        0.24199        0.27309        0.33799        0.30149        0.23377        0.23788        0.26801        0.27884        0.29545        0.29452        0.22916        0.27188        0.28304        0.26120        0.25769        0.23728        0.23547        0.28838        0.29475        0.31910        0.27259        0.24581        0.27168        0.32432        0.19091        0.23524        0.27642        0.29971        0.26451        0.13477        0.32189        0.26407        0.22276        0.10603       -0.07862       -0.33226       -0.80195
2.509795 2.482372 2.455105 2.427992 2.401034 2.374232 2.347584 2.321092 2.294754 2.268571 2.242544 2.216671 2.190954 2.165391 2.139983 2.114731 2.089633 2.064691 2.039903 2.015270 1.990793 1.966470 1.942303 1.918290 1.894433 1.870730 1.847183 1.823790 1.800552 1.777470 1.754542 1.731770 1.709152 1.686690 1.664382 1.642230 1.620232 1.598390 1.576702 1.555170 1.533792 1.512570 1.491502 1.470590 1.449832 1.429230 1.408782 1.388490 1.368352 1.348370 1.328542 1.290981 1.904753 1.332074 1.034319 0.592763 0.285256 0.396226 0.460050 0.483871 0.256921 0.456105 0.449827 0.219864 0.099073 0.031416 0.010252 -0.131619 -0.128026 -0.157131 -0.139554 -0.219925 -0.162262 -0.049564 -0.111813 -0.185258 -0.064471 0.081835 0.237843 0.091818 0.257770 0.286134 0.528687 0.541025 0.635346 0.810843 0.787083 0.898452 1.126155 0.954011 1.014755 1.044409 0.994431 0.855002 0.988895 0.685363 0.755493 0.598514 0.435831 0.471554 0.348303 0.130402 0.127919 0.113568 0.098121 0.104990 0.073210 0.175751 0.177243 0.350636 0.409911 0.467149 0.570298 0.702040 0.765371 0.830051 0.910684 0.716713 0.715927 0.637101 0.595228 0.435104 0.312374 0.324007 0.101359 0.080492 -0.062604 0.032500 0.008891 -0.026542 0.026838 -0.013523 0.233465 0.265676 0.414207 0.351884 0.497022 0.392108 0.504574 0.514061 0.426697 0.404102 0.309510 0.244326 0.198447 0.097012 -0.048781 -0.000412 -0.094966 -0.125766 -0.006758 0.072417 0.102469 0.188861 0.306900 0.292391 0.370136 0.345427 0.353844 0.284566 0.218684 0.206882 0.099528 0.004295 -0.062466 0.059864 -0.005352 0.031618 0.115630 0.101616 0.130239 0.211047 0.255564 0.253663 0.295621 0.210933 0.218986 0.150401 0.083391 0.074012 0.060062 -0.015767 0.041462 0.015553 0.050427 0.112086 0.190423 0.164146 0.146631 0.134214 0.155624 0.101809 0.139751 0.000140 0.011918 -0.028203 -0.025853 -0.009828 0.090425 0.038297 0.072498 0.081588 0.104959 0.119891 0.115437 0.108985 0.039480 -0.029498 -0.064978 -0.029096 0.007206 0.000561 0.056719 -0.002235 0.004862 0.104051 0.037887 0.030076 0.061257 -0.059649 -0.023574 -0.075831 -0.035321 -0.001323 -0.037106 -0.016591 -0.015501 0.065776 0.053911 0.055582 0.013137 0.031393 0.008963 -0.013502 0.037760 0.020218 0.037181 0.003000 0.008174 -0.011835 0.000463 0.057272 0.083511 0.042123 -0.011446 0.043260 -0.011803 0.004574 0.008864 -0.002912 0.023694 0.003573 0.005545 0.017103 0.056650 -0.011258 -0.017822 -0.024748 -0.015787 -0.000148 0.013351 0.041517 0.079420 0.017268 0.003499 0.010392 0.040174 0.023923 0.009343 0.010151 0.011284 0.036318 0.040576 0.071000 0.003202 0.044778 0.067612 0.025956 0.016127 0.005403 0.009582 -0.037758 0.020089 -0.016834 -0.004393 -0.033988 0.025717 -0.008880 -0.001828 -0.021656 -0.049498 0.045856 0.022973 0.015639 -0.011821 0.000049 0.053586 -0.006444 0.046846 -0.038126 -0.054685 0.058765 0.001460 0.054824 0.030947 0.056557 -0.012034 0.048498 -0.000216 0.006919 0.017862 0.034241 0.024921 -0.008787 0.033012 0.010562 0.003219 -0.046595 -0.013790 -0.026193 -0.024818 -0.049430 0.028865 -0.002776 0.030609 -0.012480 -0.035911 -0.013100 -0.068703 0.091132 0.018485 -0.044768 -0.055946 0.018673 0.035890 0.005740 0.041546 -0.031314 0.037667 0.048558 0.021862 0.015412 -0.013329 -0.002919 0.059782 0.090309 0.097204 0.094177 0.002283 0.126226 0.099322 0.053223 0.237200 0.327608 0.288559 0.344961 0.159486 0.413383 0.315634 0.245101 0.131639 -0.088605 -0.889249
0.072396 0.072964 0.074666 0.077502 0.081471 0.086573 0.092805 0.100166 0.108653 0.118261 0.128987 0.140824 0.153766 0.167802 0.182924 0.199117 0.216368 0.234657 0.253964 0.274264 0.295531 0.317730 0.340827 0.364780 0.389541 0.415060 0.441277 0.468129 0.495543 0.523442 0.551741 0.580344 0.609152 0.638054 0.666931 0.695658 0.724098 0.752107 0.779533 0.806213 0.831979 0.856652 0.880047 0.901972 0.922230 0.940615 0.956921 0.970936 0.982447 0.991240 0.997103 0.999825 0.999204 0.995040 0.987146 0.975344 0.959474 0.939390 0.914967 0.886103 0.852721 0.814773 0.772244 0.725152 0.673555 0.617549 0.557274 0.492917 0.424709 0.352933 0.277922 0.200059 0.119780 0.037572 0.046028 0.130434 0.215015 0.299097 0.381965 0.462875 0.541052 0.615702 0.686019 0.751194 0.810422 0.862916 0.907918 0.944709 0.972622 0.991056 0.999488 0.997484 0.984717 0.960973 0.926167 0.880350 0.823722 0.756635 0.679602 0.593299 0.498566 0.396406 0.287980 0.174597 0.057707 0.061118 0.180200 0.297775 0.412020 0.521080 0.623101 0.716256 0.798791 0.869051 0.925523 0.966875 0.991985 0.999983 0.990280 0.962598 0.916991 0.853868 0.774001 0.678530 0.568966 0.447168 0.315334 0.175961 0.031813 0.114134 0.258746 0.398793 0.531030 0.652265 0.759444 0.849737 0.920615 0.969933 0.996007 0.997677 0.974369 0.926139 0.853701 0.758443 0.642420 0.508332 0.359473 0.199671 0.033197 0.135337 0.301102 0.459188 0.604749 0.733161 0.840174 0.922067 0.975791 0.999100 0.990662 0.950143 0.878265 0.776827 0.648692 0.497730 0.328727 0.147258 0.040493 0.227919 0.408230 0.574692 0.720883 0.840965 0.929918 0.983782 0.999855 0.976849 0.915007 0.816147 0.683656 0.522405 0.338612 0.139620 0.066377 0.270647 0.464299 0.638664 0.785692 0.898353 0.970989 0.999636 0.982266 0.918963 0.811996 0.665785 0.486771 0.283167 0.064618 0.158237 0.374272 0.572422 0.742261 0.874575 0.961886 0.998915 0.982945 0.914056 0.795217 0.632223 0.433466 0.209548 0.027244 0.263593 0.485889 0.681019 0.837157 0.944514 0.995998 0.987728 0.919382 0.794332 0.619550 0.405288 0.164530 0.087757 0.335520 0.562647 0.754012 0.896520 0.980045 0.998208 0.948925 0.834683 0.662512 0.443625 0.192758 0.072767 0.334217 0.572747 0.770784 0.913345 0.989233 0.991978 0.920469 0.779188 0.578041 0.331740 0.058794 0.219819 0.482254 0.707501 0.877117 0.976771 0.997538 0.936786 0.798565 0.593459 0.337867 0.052790 0.237853 0.509211 0.737603 0.902655 0.989160 0.988578 0.899975 0.730309 0.494013 0.211870 0.090739 0.386056 0.646492 0.847225 0.968625 0.998267 0.932306 0.776080 0.543811 0.257449 0.055318 0.363675 0.636703 0.846487 0.971060 0.996781 0.919965 0.747506 0.496420 0.192295 0.133205 0.445601 0.711215 0.900860 0.993117 0.976891 0.852875 0.633754 0.343078 0.012846 0.319911 0.617262 0.844705 0.975263 0.992791 0.894127 0.689767 0.402933 0.067086 0.277878 0.590312 0.831856 0.972230 0.993157 0.890902 0.677073 0.377498 0.029266 0.323753 0.636377 0.867935 0.987640 0.978832 0.841483 0.592561 0.264134 0.100585 0.452851 0.744843 0.936241 0.999908 0.925915 0.723291 0.419170 0.055336 0.317356 0.646039 0.883349 0.994375 0.961951 0.789546 0.501158 0.138224 0.246181 0.595017 0.855733 0.988316 0.971588 0.806822 0.518007 0.148605 0.244843 0.601200 0.864313 0.991935 0.962705 0.779979 0.471769 0.086715 0.313414 0.663533 0.905867 0.999598 0.927992 0.701633
1.000000 1.000000 1.000000 1.000000 1.000000 1.000000 1.000000 1.000000 1.000000 1.000000 1.000000 1.000000 1.000000 1.000000 1.000000 1.000000 1.000000 1.000000 1.000000 1.000000 1.000000 1.000000 1.000000 1.000000 1.000000 1.000000 1.000000 1.000000 1.000000 1.000000 1.000000 1.000000 1.000000 1.000000 1.000000 1.000000 1.000000 1.000000 1.000000 1.000000 1.000000 1.000000 1.000000 1.000000 1.000000 1.000000 1.000000 1.000000 1.000000 1.000000 1.000000 1.000000 0.915985 0.915985 0.915985 0.915985 0.915985 0.915985 0.915985 0.915985 0.915985 0.915985 0.915985 0.915985 0.915985 0.915985 0.915985 0.915985 0.915985 0.915985 0.915985 0.915985 0.915985 0.915985 0.915985 0.915985 0.915985 0.915985 0.915985 0.915985 0.915985 0.915985 0.915985 0.915985 0.915985 0.915985 0.915985 0.915985 0.915985 0.915985 0.915985 0.890521 0.898398 0.902069 0.904298 0.901149 0.902450 0.901670 0.902336 0.900659 0.902639 0.905638 0.907876 0.920854 0.925063 0.928470 0.927923 0.929069 0.929776 0.950272 0.949196 0.944815 0.944039 0.946989 0.950154 0.950543 0.950869 0.950552 0.951102 0.950629 0.949737 0.948795 0.947506 0.947104 0.946984 0.947049 0.947719 0.947961 0.948875 0.948716 0.948819 0.943340 0.938230 0.928956 0.933802 0.934426 0.929716 0.925016 0.925225 0.922060 0.922480 0.923460 0.924849 0.923907 0.924951 0.919273 0.916578 0.908679 0.896431 0.891338 0.891214 0.894483 0.895165 0.898203 0.896646 0.895433 0.895613 0.896377 0.892600 0.891716 0.889603 0.882376 0.887371 0.888876 0.886122 0.882588 0.860852 0.855627 0.854648 0.859646 0.862339 0.845946 0.845666 0.845941 0.849818 0.852601 0.855779 0.848778 0.841771 0.831002 0.828591 0.833821 0.818932 0.817473 0.807913 0.799279 0.784400 0.782946 0.781889 0.780788 0.780242 0.785675 0.755637 0.768277 0.777366 0.772834 0.758065 0.761134 0.762495 0.757223 0.755333 0.756825 0.756633 0.739898 0.738526 0.744181 0.740405 0.735851 0.689441 0.667527 0.640819 0.635582 0.624228 0.574889 0.552579 0.557618 0.556986 0.544005 0.533678 0.520070 0.552996 0.561304 0.551137 0.513267 0.486455 0.494995 0.481549 0.478622 0.474614 0.486340 0.499685 0.494976 0.479030 0.465278 0.473471 0.495606 0.463832 0.421848 0.424579 0.424590 0.442018 0.444459 0.447802 0.439594 0.419618 0.401749 0.423370 0.446450 0.431581 0.433720 0.435637 0.410306 0.386273 0.386255 0.362766 0.358137 0.324454 0.298942 0.294209 0.271638 0.265291 0.241653 0.277754 0.318751 0.306391 0.328114 0.375643 0.394529 0.378220 0.359925 0.306429 0.293489 0.264587 0.239275 0.229894 0.198266 0.210266 0.216749 0.191722 0.235108 0.215086 0.213672 0.189948 0.235566 0.248568 0.233581 0.168626 0.120849 0.111962 0.110756 0.091954 0.050394 0.060699 0.095001 0.073588 0.051483 0.005105 -0.058261 -0.052638 -0.057685 -0.070650 -0.135002 -0.107318 -0.082646 -0.037553 -0.029638 -0.023856 -0.030891 -0.004688 -0.025903 -0.002313 -0.014182 -0.015921 -0.002070 -0.016105 0.002138 0.028780 0.032726 0.024650 0.056453 -0.011730 0.022619 -0.002215 -0.002583 0.008386 -0.010757 0.020468 0.018232 0.010227 -0.016836 -0.019641 -0.027820 -0.025401 -0.025401 -0.025401 -0.025401 -0.025401 -0.046416 -0.046416 -0.046416 -0.046416 -0.046416 -0.046416 -0.046416 -0.046416 -0.025471 -0.025471 -0.025471 -0.025471 -0.025471 -0.025471 -0.025471 -0.025471 -0.015010 -0.015010 -0.015010 -0.015010 -0.015010 -0.015010 -0.015010 -0.015010 -0.015010 -0.015010
0.000000 0.000000 0.000000 0.000000 0.000000 0.000000 0.000000 0.000000 0.000000 0.000000 0.000000 0.000000 0.000000 0.000000 0.000000 0.000000 0.000000 0.000000 0.000000 0.000000 0.000000 0.000000 0.000000 0.000000 0.000000 0.000000 0.000000 0.000000 0.000000 0.000000 0.000000 0.000000 0.000000 0.000000 0.000000 0.000000 0.000000 0.000000 0.000000 0.000000 0.000000 0.000000 0.000000 0.000000 0.000000 0.000000 0.000000 0.000000 0.000000 0.000000 0.000000 0.000000 0.203069 0.203069 0.203069 0.203069 0.203069 0.203069 0.203069 0.203069 0.203069 0.203069 0.203069 0.203069 0.203069 0.203069 0.203069 0.203069 0.203069 0.203069 0.203069 0.203069 0.203069 0.203069 0.203069 0.203069 0.203069 0.203069 0.203069 0.203069 0.203069 0.203069 0.203069 0.203069 0.203069 0.203069 0.203069 0.203069 0.203069 0.203069 0.203069 0.237356 0.237356 0.237356 0.237356 0.237356 0.237356 0.237356 0.237356 0.237356 0.237356 0.237356 0.237356 0.237356 0.237356 0.237356 0.237356 0.237356 0.237356 0.237356 0.237356 0.237356 0.237356 0.237356 0.237356 0.237356 0.237356 0.248069 0.248069 0.248069 0.248069 0.248069 0.248069 0.248069 0.248069 0.248069 0.248069 0.248069 0.248069 0.248069 0.248069 0.248069 0.248069 0.248069 0.248069 0.248069 0.248069 0.248069 0.248069 0.256074 0.256074 0.256074 0.256074 0.256074 0.256074 0.256074 0.256074 0.256074 0.256074 0.256074 0.256074 0.256074 0.256074 0.256074 0.256074 0.256074 0.256074 0.256074 0.269680 0.269680 0.269680 0.269680 0.269680 0.269680 0.269680 0.269680 0.269680 0.269680 0.269680 0.269680 0.269680 0.269680 0.269680 0.269680 0.264906 0.264906 0.264906 0.264906 0.264906 0.264906 0.264906 0.264906 0.264906 0.264906 0.264906 0.264906 0.264906 0.264906 0.264906 0.264906 0.269680 0.269680 0.269680 0.269680 0.269680 0.269680 0.269680 0.269680 0.269680 0.269680 0.269680 0.269680 0.269680 0.269680 0.274721 0.274721 0.274721 0.274721 0.274721 0.274721 0.274721 0.274721 0.274721 0.274721 0.274721 0.274721 0.274721 0.274721 0.274721 0.274721 0.274721 0.274721 0.274721 0.274721 0.274721 0.274721 0.274721 0.274721 0.274721 0.269680 0.269680 0.269680 0.269680 0.269680 0.269680 0.269680 0.269680 0.269680 0.269680 0.269680 0.269680 0.274721 0.274721 0.274721 0.274721 0.274721 0.274721 0.274721 0.274721 0.274721 0.274721 0.274721 0.269680 0.269680 0.269680 0.269680 0.269680 0.269680 0.269680 0.269680 0.269680 0.269680 0.269680 0.274721 0.274721 0.274721 0.274721 0.274721 0.274721 0.274721 0.274721 0.274721 0.274721 0.269680 0.269680 0.269680 0.269680 0.269680 0.269680 0.269680 0.269680 0.269680 0.269680 0.264906 0.264906 0.264906 0.264906 0.264906 0.264906 0.264906 0.264906 0.264906 0.264906 0.269680 0.269680 0.269680 0.269680 0.269680 0.269680 0.269680 0.269680 0.269680 0.264906 0.264906 0.264906 0.264906 0.264906 0.264906 0.264906 0.264906 0.264906 0.260378 0.260378 0.260378 0.260378 0.260378 0.260378 0.260378 0.260378 0.260378 0.269680 0.269680 0.269680 0.269680 0.269680 0.269680 0.269680 0.269680 0.251976 0.251976 0.251976 0.251976 0.251976 0.251976 0.251976 0.251976 0.251976 0.264906 0.264906 0.264906 0.264906 0.264906 0.264906 0.264906 0.264906 0.260378 0.260378 0.260378 0.260378 0.260378 0.260378 0.260378 0.260378 0.256074 0.256074 0.256074 0.256074 0.256074 0.256074 0.256074 0.256074 0.256074 0.256074
