# Output from CTFFind version 4.1.9, run on 2019-11-03 18:51:09
# Input file: stack2_ub_averaged_50.mrc ; Number of micrographs: 1
# Pixel size: 3.000 Angstroms ; acceleration voltage: 300.0 keV ; spherical aberration: 0.00 mm ; amplitude contrast: 0.07
# Box size: 512 pixels ; min. res.: 30.0 Angstroms ; max. res.: 5.0 Angstroms ; min. def.: 5000.0 um; max. def. 50000.0 um; num. frames averaged: 1
# 6 lines per micrograph: #1 - spatial frequency (1/Angstroms); #2 - 1D rotational average of spectrum (assuming no astigmatism); #3 - 1D rotational average of spectrum; #4 - CTF fit; #5 - cross-correlation between spectrum and CTF fit; #6 - 2sigma of expected cross correlation of noise
0.000000 0.000651 0.001302 0.001953 0.002604 0.003255 0.003906 0.004557 0.005208 0.005859 0.006510 0.007161 0.007812 0.008464 0.009115 0.009766 0.010417 0.011068 0.011719 0.012370 0.013021 0.013672 0.014323 0.014974 0.015625 0.016276 0.016927 0.017578 0.018229 0.018880 0.019531 0.020182 0.020833 0.021484 0.022135 0.022786 0.023438 0.024089 0.024740 0.025391 0.026042 0.026693 0.027344 0.027995 0.028646 0.029297 0.029948 0.030599 0.031250 0.031901 0.032552 0.033203 0.033854 0.034505 0.035156 0.035807 0.036458 0.037109 0.037760 0.038411 0.039062 0.039714 0.040365 0.041016 0.041667 0.042318 0.042969 0.043620 0.044271 0.044922 0.045573 0.046224 0.046875 0.047526 0.048177 0.048828 0.049479 0.050130 0.050781 0.051432 0.052083 0.052734 0.053385 0.054036 0.054688 0.055339 0.055990 0.056641 0.057292 0.057943 0.058594 0.059245 0.059896 0.060547 0.061198 0.061849 0.062500 0.063151 0.063802 0.064453 0.065104 0.065755 0.066406 0.067057 0.067708 0.068359 0.069010 0.069661 0.070312 0.070964 0.071615 0.072266 0.072917 0.073568 0.074219 0.074870 0.075521 0.076172 0.076823 0.077474 0.078125 0.078776 0.079427 0.080078 0.080729 0.081380 0.082031 0.082682 0.083333 0.083984 0.084635 0.085286 0.085938 0.086589 0.087240 0.087891 0.088542 0.089193 0.089844 0.090495 0.091146 0.091797 0.092448 0.093099 0.093750 0.094401 0.095052 0.095703 0.096354 0.097005 0.097656 0.098307 0.098958 0.099609 0.100260 0.100911 0.101562 0.102214 0.102865 0.103516 0.104167 0.104818 0.105469 0.106120 0.106771 0.107422 0.108073 0.108724 0.109375 0.110026 0.110677 0.111328 0.111979 0.112630 0.113281 0.113932 0.114583 0.115234 0.115885 0.116536 0.117188 0.117839 0.118490 0.119141 0.119792 0.120443 0.121094 0.121745 0.122396 0.123047 0.123698 0.124349 0.125000 0.125651 0.126302 0.126953 0.127604 0.128255 0.128906 0.129557 0.130208 0.130859 0.131510 0.132161 0.132812 0.133464 0.134115 0.134766 0.135417 0.136068 0.136719 0.137370 0.138021 0.138672 0.139323 0.139974 0.140625 0.141276 0.141927 0.142578 0.143229 0.143880 0.144531 0.145182 0.145833 0.146484 0.147135 0.147786 0.148438 0.149089 0.149740 0.150391 0.151042 0.151693 0.152344 0.152995 0.153646 0.154297 0.154948 0.155599 0.156250 0.156901 0.157552 0.158203 0.158854 0.159505 0.160156 0.160807 0.161458 0.162109 0.162760 0.163411 0.164062 0.164714 0.165365 0.166016 0.166667 0.167318 0.167969 0.168620 0.169271 0.169922 0.170573 0.171224 0.171875 0.172526 0.173177 0.173828 0.174479 0.175130 0.175781 0.176432 0.177083 0.177734 0.178385 0.179036 0.179688 0.180339 0.180990 0.181641 0.182292 0.182943 0.183594 0.184245 0.184896 0.185547 0.186198 0.186849 0.187500 0.188151 0.188802 0.189453 0.190104 0.190755 0.191406 0.192057 0.192708 0.193359 0.194010 0.194661 0.195312 0.195964 0.196615 0.197266 0.197917 0.198568 0.199219 0.199870 0.200521 0.201172 0.201823 0.202474 0.203125 0.203776 0.204427 0.205078 0.205729 0.206380 0.207031 0.207682 0.208333 0.208984 0.209635 0.210286 0.210938 0.211589 0.212240 0.212891 0.213542 0.214193 0.214844 0.215495 0.216146 0.216797 0.217448 0.218099 0.218750 0.219401 0.220052 0.220703 0.221354 0.222005 0.222656 0.223307 0.223958 0.224609 0.225260 0.225911 0.226562 0.227214 0.227865 0.228516 0.229167 0.229818 0.230469 0.231120 0.231771 0.232422 0.233073 0.233724 0.234375 0.235026 0.235677
       0.34016        0.34016        0.34016        0.34016        0.34016        0.34016        0.34016        0.34016        0.34016        0.34016        0.34016        0.34016        0.34016        0.34016        0.34016        0.34016        0.34016        0.34016        0.34016        0.34016        0.34016        0.34016        0.34016        0.34016        0.34016        0.34016        0.34016        0.34016        0.34016        0.34016        0.34016        0.34016        0.34016        0.34016        0.34016        0.34016        0.34016        0.34016        0.34016        0.34016        0.34016        0.34016        0.34016        0.34016        0.34016        0.34016        0.34016        0.34016        0.34016        0.34016        0.34016        0.56159        0.78278        0.37005        0.08868       -0.22949       -0.47293       -0.38720       -0.33680       -0.27656       -0.39582       -0.27038       -0.25816       -0.49395       -0.49742       -0.58692       -0.61166       -0.68409       -0.69056       -0.66795       -0.67691       -0.69749       -0.63843       -0.54167       -0.56359       -0.60365       -0.45397       -0.34881       -0.26578       -0.24116       -0.15499       -0.05894        0.12129        0.16513        0.25774        0.45000        0.41147        0.57573        0.69810        0.58383        0.73887        0.67669        0.60669        0.61309        0.58025        0.44734        0.48345        0.32784        0.22602        0.25185        0.11361       -0.01508       -0.01585       -0.00735        0.00422       -0.01104        0.03236        0.09664        0.12963        0.29204        0.35332        0.41164        0.52998        0.65417        0.72628        0.77609        0.80650        0.71459        0.63969        0.58468        0.56064        0.44350        0.33332        0.32456        0.14434        0.12535        0.05041        0.14414        0.10018        0.10255        0.14016        0.16362        0.37884        0.43865        0.48553        0.50757        0.60885        0.53772        0.60501        0.57275        0.56018        0.49166        0.45498        0.37066        0.30908        0.21190        0.16905        0.15728        0.10627        0.11970        0.24410        0.24542        0.34945        0.43917        0.48113        0.49672        0.55810        0.49634        0.47579        0.41690        0.38580        0.33933        0.23956        0.17862        0.19979        0.23113        0.23132        0.25385        0.32181        0.30915        0.34865        0.47142        0.42728        0.50033        0.47526        0.43694        0.41498        0.35322        0.29748        0.29801        0.26405        0.28835        0.26530        0.28593        0.33335        0.41041        0.40975        0.40425        0.41609        0.44167        0.39671        0.40510        0.36133        0.29966        0.29407        0.29294        0.28795        0.33723        0.37418        0.35900        0.38164        0.41383        0.41270        0.44349        0.41574        0.40252        0.32046        0.30472        0.27346        0.31400        0.34905        0.35193        0.35138        0.31821        0.40226        0.38435        0.36829        0.36004        0.33871        0.29854        0.27532        0.28702        0.32262        0.30855        0.30969        0.30570        0.36695        0.38283        0.37541        0.36634        0.34611        0.33520        0.32505        0.34336        0.33264        0.35171        0.33900        0.32750        0.31788        0.30027        0.35230        0.37314        0.36578        0.29662        0.31449        0.31205        0.30571        0.31294        0.29922        0.31650        0.30638        0.30142        0.30304        0.33835        0.30270        0.27906        0.27795        0.28203        0.28295        0.30438        0.32999        0.34409        0.34236        0.30441        0.29999        0.31890        0.31271        0.32364        0.30299        0.30545        0.31876        0.32863        0.35183        0.33106        0.34563        0.37440        0.33592        0.31906        0.31615        0.32670        0.28324        0.30905        0.31279        0.32242        0.26654        0.34128        0.31780        0.29687        0.29526        0.28734        0.33727        0.33097        0.32935        0.30156        0.28938        0.36297        0.30587        0.33972        0.29353        0.27599        0.35711        0.31662        0.34385        0.36070        0.34833        0.33145        0.32324        0.30817        0.33371        0.31641        0.32992        0.32978        0.30318        0.32342        0.30881        0.30370        0.26685        0.25694        0.28212        0.28654        0.25409        0.30430        0.28337        0.30615        0.27902        0.25106        0.24323        0.27442        0.33965        0.30175        0.23541        0.23720        0.26995        0.27855        0.29637        0.29218        0.22638        0.27213        0.28346        0.26286        0.25503        0.23397        0.23328        0.28486        0.29620        0.31565        0.26867        0.24718        0.27693        0.32238        0.18802        0.23205        0.27643        0.29780        0.26689        0.13157        0.32395        0.26038        0.21276        0.11828       -0.07921       -0.33932       -0.81606
2.499632 2.472350 2.445222 2.418248 2.391428 2.364762 2.338250 2.311892 2.285688 2.259638 2.233741 2.207999 2.182411 2.156976 2.131696 2.106569 2.081597 2.056778 2.032113 2.007603 1.983246 1.959043 1.934994 1.911099 1.887359 1.863772 1.840339 1.817060 1.793934 1.770963 1.748146 1.725483 1.702974 1.680618 1.658417 1.636370 1.614476 1.592737 1.571151 1.549720 1.528442 1.507319 1.486349 1.465533 1.444871 1.424364 1.404010 1.383810 1.363764 1.343872 1.324134 1.286574 1.898104 1.327975 1.031768 0.589697 0.283536 0.393286 0.456685 0.481847 0.255108 0.453204 0.447649 0.219549 0.098045 0.030787 0.009181 -0.132011 -0.129855 -0.157535 -0.140929 -0.219038 -0.163602 -0.049613 -0.111299 -0.185399 -0.065437 0.080653 0.237006 0.090069 0.256430 0.285694 0.526539 0.540173 0.633869 0.809339 0.785509 0.896711 1.124520 0.951038 1.011575 1.042524 0.990274 0.852538 0.987209 0.682823 0.753209 0.596409 0.436167 0.469775 0.347168 0.131393 0.127286 0.113773 0.098540 0.104925 0.072548 0.174811 0.177280 0.350230 0.408480 0.465635 0.568778 0.700632 0.764002 0.827976 0.902833 0.723655 0.713927 0.635636 0.594909 0.434383 0.314125 0.323670 0.101383 0.081247 -0.061289 0.031648 0.008303 -0.027888 0.027420 -0.014289 0.233846 0.265457 0.411041 0.350692 0.487814 0.396364 0.509908 0.504408 0.426634 0.401642 0.308717 0.243069 0.198443 0.097341 -0.047952 -0.000694 -0.095415 -0.125924 -0.005585 0.070651 0.101362 0.187377 0.304829 0.288186 0.370595 0.341659 0.352540 0.285930 0.216573 0.206583 0.099307 0.004229 -0.064790 0.059049 -0.005167 0.029351 0.113733 0.099642 0.127630 0.210092 0.248427 0.265438 0.278761 0.208663 0.216644 0.148294 0.081114 0.072850 0.059084 -0.019919 0.041093 0.013876 0.045854 0.108007 0.186463 0.160367 0.145393 0.123413 0.155327 0.100650 0.136912 -0.001019 0.009974 -0.028830 -0.023164 -0.013140 0.087235 0.037731 0.070431 0.080416 0.103154 0.113796 0.113962 0.107927 0.035174 -0.027806 -0.065710 -0.031828 0.005073 -0.000938 0.053733 -0.003014 0.005463 0.103265 0.043311 0.023386 0.061154 -0.057973 -0.023700 -0.076355 -0.033470 -0.001906 -0.036934 -0.016818 -0.014226 0.064756 0.054306 0.061318 0.008820 0.034044 0.010062 -0.009916 0.039848 0.022659 0.035782 0.003523 0.009031 -0.008038 -0.002481 0.064259 0.086319 0.044241 -0.009363 0.049582 -0.014541 0.004986 0.013127 -0.000163 0.022575 0.009206 0.001053 0.019329 0.056829 -0.008291 -0.014916 -0.023695 -0.015101 0.001028 0.013669 0.043599 0.082164 0.012791 0.004713 0.011025 0.041835 0.026649 0.008770 0.011155 0.010410 0.037565 0.048590 0.061843 0.002650 0.052421 0.057043 0.021891 0.017672 0.006725 0.011076 -0.037558 0.020299 -0.017616 -0.007203 -0.036415 0.025297 -0.010141 -0.002963 -0.023024 -0.052931 0.044915 0.031223 0.008559 -0.016434 -0.001990 0.053760 -0.006738 0.047587 -0.040101 -0.056596 0.059179 -0.000605 0.056367 0.036308 0.053792 -0.010635 0.051207 -0.002471 0.004443 0.020506 0.031987 0.023087 -0.012545 0.033046 0.008585 0.001480 -0.047725 -0.012350 -0.024839 -0.026596 -0.047737 0.030041 -0.003426 0.032935 -0.021216 -0.033829 -0.018563 -0.046249 0.092038 0.020531 -0.040042 -0.056873 0.023884 0.034719 0.007808 0.041805 -0.032157 0.039276 0.055086 0.019639 0.011547 -0.015686 -0.001751 0.065565 0.085401 0.093064 0.093276 0.005895 0.134336 0.094726 0.055709 0.231780 0.326662 0.285549 0.351539 0.155906 0.414566 0.316963 0.230891 0.154987 -0.089021 -0.902884
0.072396 0.072963 0.074665 0.077501 0.081469 0.086570 0.092801 0.100161 0.108645 0.118252 0.128975 0.140810 0.153749 0.167783 0.182901 0.199092 0.216338 0.234624 0.253927 0.274224 0.295486 0.317682 0.340774 0.364722 0.389479 0.414993 0.441206 0.468054 0.495464 0.523359 0.551653 0.580253 0.609057 0.637956 0.666831 0.695555 0.723994 0.752002 0.779428 0.806108 0.831875 0.856551 0.879949 0.901879 0.922142 0.940535 0.956850 0.970874 0.982397 0.991203 0.997080 0.999820 0.999216 0.995072 0.987200 0.975422 0.959577 0.939520 0.915125 0.886291 0.852940 0.815024 0.772528 0.725471 0.673908 0.617936 0.557696 0.493372 0.425196 0.353452 0.278470 0.200634 0.120380 0.038193 0.045391 0.129784 0.214358 0.298438 0.381310 0.462231 0.540425 0.615100 0.685449 0.750664 0.809940 0.862491 0.907557 0.944420 0.972412 0.990933 0.999457 0.997552 0.984888 0.961251 0.926554 0.880848 0.824330 0.757351 0.680422 0.594217 0.499575 0.397497 0.289140 0.175814 0.058965 0.059837 0.178912 0.296502 0.410781 0.519898 0.621997 0.715254 0.797911 0.868314 0.924949 0.966480 0.991785 0.999991 0.990505 0.963044 0.917659 0.854755 0.775097 0.679824 0.570438 0.448795 0.317088 0.177810 0.033720 0.112209 0.256844 0.396959 0.529309 0.650701 0.758082 0.848616 0.919772 0.969399 0.995806 0.997827 0.974880 0.927010 0.854922 0.759993 0.644270 0.510439 0.361789 0.202136 0.035746 0.132774 0.298602 0.456827 0.602604 0.731304 0.838673 0.920981 0.975167 0.998974 0.991054 0.951057 0.879687 0.778725 0.651015 0.500411 0.331684 0.150393 0.037285 0.224755 0.405227 0.571966 0.718547 0.839117 0.928645 0.983151 0.999908 0.977606 0.916457 0.818250 0.686344 0.525584 0.342162 0.143398 0.062526 0.266890 0.460804 0.635591 0.783193 0.896556 0.969997 0.999515 0.983046 0.920630 0.814494 0.669016 0.490595 0.287412 0.069083 0.153771 0.370033 0.568634 0.739132 0.872284 0.960575 0.998680 0.983825 0.916031 0.798204 0.636082 0.438001 0.214521 0.022109 0.258587 0.481306 0.677140 0.834228 0.942732 0.995497 0.988569 0.921546 0.797713 0.623966 0.410482 0.170188 0.081985 0.330009 0.557763 0.750091 0.893845 0.978824 0.998555 0.950851 0.838090 0.667194 0.449282 0.199013 0.066351 0.328096 0.567372 0.766563 0.910616 0.988228 0.992810 0.923113 0.783480 0.583687 0.338325 0.065826 0.212884 0.475966 0.702380 0.873599 0.975173 0.998029 0.939368 0.803064 0.599536 0.345042 0.060472 0.230316 0.502472 0.732264 0.899212 0.987955 0.989760 0.903484 0.735871 0.501160 0.219975 0.082404 0.378265 0.639991 0.842649 0.966448 0.998740 0.935433 0.781604 0.551236 0.266075 0.046327 0.355214 0.629634 0.841557 0.968807 0.997486 0.923606 0.753756 0.504666 0.201701 0.123626 0.436872 0.704295 0.896534 0.991905 0.978980 0.858088 0.641561 0.352645 0.023117 0.310096 0.609035 0.839050 0.972877 0.994008 0.898864 0.697521 0.412828 0.077963 0.267319 0.581359 0.825633 0.969550 0.994409 0.895996 0.685428 0.388109 0.040813 0.312726 0.627306 0.862026 0.985713 0.981203 0.847906 0.602246 0.275836 0.088414 0.441849 0.736526 0.931794 0.999999 0.930602 0.731992 0.430720 0.068147 0.305084 0.636067 0.877149 0.992897 0.965481 0.797641 0.512693 0.151548 0.233033 0.584011 0.848563 0.986122 0.974776 0.814983 0.529957 0.162532 0.231060 0.589738 0.857006 0.990002 0.966530 0.789029 0.484660 0.101412 0.299281 0.652295 0.899405 0.999056 0.933542 0.712429
1.000000 1.000000 1.000000 1.000000 1.000000 1.000000 1.000000 1.000000 1.000000 1.000000 1.000000 1.000000 1.000000 1.000000 1.000000 1.000000 1.000000 1.000000 1.000000 1.000000 1.000000 1.000000 1.000000 1.000000 1.000000 1.000000 1.000000 1.000000 1.000000 1.000000 1.000000 1.000000 1.000000 1.000000 1.000000 1.000000 1.000000 1.000000 1.000000 1.000000 1.000000 1.000000 1.000000 1.000000 1.000000 1.000000 1.000000 1.000000 1.000000 1.000000 1.000000 1.000000 0.916901 0.916901 0.916901 0.916901 0.916901 0.916901 0.916901 0.916901 0.916901 0.916901 0.916901 0.916901 0.916901 0.916901 0.916901 0.916901 0.916901 0.916901 0.916901 0.916901 0.916901 0.916901 0.916901 0.916901 0.916901 0.916901 0.916901 0.916901 0.916901 0.916901 0.916901 0.916901 0.916901 0.916901 0.916901 0.916901 0.916901 0.916901 0.916901 0.890112 0.898011 0.901711 0.903945 0.900744 0.902078 0.901276 0.901916 0.901283 0.903270 0.906241 0.909247 0.922255 0.926472 0.929905 0.929368 0.930589 0.931306 0.951767 0.950740 0.946302 0.945565 0.948427 0.951556 0.951915 0.952229 0.952003 0.952535 0.952056 0.951174 0.950246 0.948943 0.948559 0.948440 0.948502 0.949167 0.949406 0.950323 0.950165 0.950274 0.944654 0.939354 0.930216 0.934974 0.935606 0.930834 0.926246 0.926502 0.923456 0.923865 0.924826 0.926198 0.927083 0.928075 0.923920 0.922164 0.915570 0.904199 0.899862 0.899777 0.902654 0.902345 0.905556 0.904130 0.903314 0.903529 0.905665 0.901558 0.900754 0.899417 0.893771 0.894461 0.895923 0.892677 0.889482 0.866600 0.860834 0.859434 0.863964 0.867036 0.852006 0.851709 0.851819 0.855058 0.857901 0.860814 0.853872 0.846346 0.835746 0.832468 0.837975 0.823150 0.821706 0.812376 0.803990 0.789803 0.788294 0.788395 0.785529 0.784824 0.790571 0.761628 0.773337 0.781450 0.776182 0.761167 0.764235 0.765563 0.760602 0.758728 0.758823 0.758776 0.731742 0.728699 0.733472 0.728214 0.723917 0.680533 0.661730 0.640126 0.633982 0.620779 0.572776 0.548131 0.553471 0.555109 0.542431 0.533450 0.516000 0.548751 0.556337 0.546613 0.513113 0.485255 0.496654 0.477856 0.475891 0.472556 0.483500 0.497243 0.493224 0.477002 0.462809 0.471539 0.493432 0.454406 0.411757 0.413451 0.413768 0.430373 0.432214 0.437499 0.427651 0.408800 0.390048 0.417007 0.440305 0.427067 0.429750 0.434339 0.409182 0.375138 0.374832 0.351998 0.347907 0.316577 0.289792 0.292191 0.271418 0.265831 0.242397 0.273647 0.303971 0.292066 0.315003 0.364595 0.381978 0.361802 0.343334 0.294482 0.282911 0.257028 0.232683 0.221744 0.187007 0.200323 0.205534 0.187010 0.226720 0.210671 0.208946 0.182819 0.229215 0.242331 0.228359 0.165199 0.119038 0.110282 0.110043 0.092450 0.052886 0.065287 0.100290 0.078247 0.058620 0.012362 -0.052517 -0.042040 -0.046160 -0.067851 -0.122545 -0.095370 -0.074039 -0.034660 -0.028866 -0.022706 -0.022909 0.005086 -0.015608 0.008503 -0.003218 -0.003652 0.009947 -0.001912 0.015805 0.036855 0.039893 0.034941 0.065588 -0.006012 0.030111 0.004566 0.004260 0.014804 -0.003387 0.030092 0.027381 0.011219 -0.013438 -0.015313 -0.026128 -0.023341 -0.023341 -0.023341 -0.023341 -0.023341 -0.043906 -0.043906 -0.043906 -0.043906 -0.043906 -0.043906 -0.043906 -0.043906 -0.021570 -0.021570 -0.021570 -0.021570 -0.021570 -0.021570 -0.021570 -0.021570 -0.013750 -0.013750 -0.013750 -0.013750 -0.013750 -0.013750 -0.013750 -0.013750 -0.013750 -0.013750
0.000000 0.000000 0.000000 0.000000 0.000000 0.000000 0.000000 0.000000 0.000000 0.000000 0.000000 0.000000 0.000000 0.000000 0.000000 0.000000 0.000000 0.000000 0.000000 0.000000 0.000000 0.000000 0.000000 0.000000 0.000000 0.000000 0.000000 0.000000 0.000000 0.000000 0.000000 0.000000 0.000000 0.000000 0.000000 0.000000 0.000000 0.000000 0.000000 0.000000 0.000000 0.000000 0.000000 0.000000 0.000000 0.000000 0.000000 0.000000 0.000000 0.000000 0.000000 0.000000 0.203069 0.203069 0.203069 0.203069 0.203069 0.203069 0.203069 0.203069 0.203069 0.203069 0.203069 0.203069 0.203069 0.203069 0.203069 0.203069 0.203069 0.203069 0.203069 0.203069 0.203069 0.203069 0.203069 0.203069 0.203069 0.203069 0.203069 0.203069 0.203069 0.203069 0.203069 0.203069 0.203069 0.203069 0.203069 0.203069 0.203069 0.203069 0.203069 0.237356 0.237356 0.237356 0.237356 0.237356 0.237356 0.237356 0.237356 0.237356 0.237356 0.237356 0.237356 0.237356 0.237356 0.237356 0.237356 0.237356 0.237356 0.237356 0.237356 0.237356 0.237356 0.237356 0.237356 0.237356 0.237356 0.248069 0.248069 0.248069 0.248069 0.248069 0.248069 0.248069 0.248069 0.248069 0.248069 0.248069 0.248069 0.248069 0.248069 0.248069 0.248069 0.248069 0.248069 0.248069 0.248069 0.248069 0.248069 0.256074 0.256074 0.256074 0.256074 0.256074 0.256074 0.256074 0.256074 0.256074 0.256074 0.256074 0.256074 0.256074 0.256074 0.256074 0.256074 0.256074 0.256074 0.256074 0.269680 0.269680 0.269680 0.269680 0.269680 0.269680 0.269680 0.269680 0.269680 0.269680 0.269680 0.269680 0.269680 0.269680 0.269680 0.269680 0.264906 0.264906 0.264906 0.264906 0.264906 0.264906 0.264906 0.264906 0.264906 0.264906 0.264906 0.264906 0.264906 0.264906 0.264906 0.264906 0.269680 0.269680 0.269680 0.269680 0.269680 0.269680 0.269680 0.269680 0.269680 0.269680 0.269680 0.269680 0.269680 0.269680 0.274721 0.274721 0.274721 0.274721 0.274721 0.274721 0.274721 0.274721 0.274721 0.274721 0.274721 0.274721 0.274721 0.274721 0.274721 0.274721 0.274721 0.274721 0.274721 0.274721 0.274721 0.274721 0.274721 0.274721 0.274721 0.269680 0.269680 0.269680 0.269680 0.269680 0.269680 0.269680 0.269680 0.269680 0.269680 0.269680 0.269680 0.274721 0.274721 0.274721 0.274721 0.274721 0.274721 0.274721 0.274721 0.274721 0.274721 0.274721 0.269680 0.269680 0.269680 0.269680 0.269680 0.269680 0.269680 0.269680 0.269680 0.269680 0.269680 0.274721 0.274721 0.274721 0.274721 0.274721 0.274721 0.274721 0.274721 0.274721 0.274721 0.269680 0.269680 0.269680 0.269680 0.269680 0.269680 0.269680 0.269680 0.269680 0.269680 0.264906 0.264906 0.264906 0.264906 0.264906 0.264906 0.264906 0.264906 0.264906 0.264906 0.269680 0.269680 0.269680 0.269680 0.269680 0.269680 0.269680 0.269680 0.269680 0.264906 0.264906 0.264906 0.264906 0.264906 0.264906 0.264906 0.264906 0.264906 0.260378 0.260378 0.260378 0.260378 0.260378 0.260378 0.260378 0.260378 0.260378 0.269680 0.269680 0.269680 0.269680 0.269680 0.269680 0.269680 0.269680 0.251976 0.251976 0.251976 0.251976 0.251976 0.251976 0.251976 0.251976 0.251976 0.264906 0.264906 0.264906 0.264906 0.264906 0.264906 0.264906 0.264906 0.260378 0.260378 0.260378 0.260378 0.260378 0.260378 0.260378 0.260378 0.256074 0.256074 0.256074 0.256074 0.256074 0.256074 0.256074 0.256074 0.256074 0.256074
