# Output from CTFFind version 4.1.9, run on 2019-11-03 18:51:19
# Input file: stack18_ub_averaged_250.mrc ; Number of micrographs: 1
# Pixel size: 3.000 Angstroms ; acceleration voltage: 300.0 keV ; spherical aberration: 0.00 mm ; amplitude contrast: 0.07
# Box size: 512 pixels ; min. res.: 30.0 Angstroms ; max. res.: 5.0 Angstroms ; min. def.: 5000.0 um; max. def. 50000.0 um; num. frames averaged: 1
# 6 lines per micrograph: #1 - spatial frequency (1/Angstroms); #2 - 1D rotational average of spectrum (assuming no astigmatism); #3 - 1D rotational average of spectrum; #4 - CTF fit; #5 - cross-correlation between spectrum and CTF fit; #6 - 2sigma of expected cross correlation of noise
0.000000 0.000651 0.001302 0.001953 0.002604 0.003255 0.003906 0.004557 0.005208 0.005859 0.006510 0.007161 0.007812 0.008464 0.009115 0.009766 0.010417 0.011068 0.011719 0.012370 0.013021 0.013672 0.014323 0.014974 0.015625 0.016276 0.016927 0.017578 0.018229 0.018880 0.019531 0.020182 0.020833 0.021484 0.022135 0.022786 0.023438 0.024089 0.024740 0.025391 0.026042 0.026693 0.027344 0.027995 0.028646 0.029297 0.029948 0.030599 0.031250 0.031901 0.032552 0.033203 0.033854 0.034505 0.035156 0.035807 0.036458 0.037109 0.037760 0.038411 0.039062 0.039714 0.040365 0.041016 0.041667 0.042318 0.042969 0.043620 0.044271 0.044922 0.045573 0.046224 0.046875 0.047526 0.048177 0.048828 0.049479 0.050130 0.050781 0.051432 0.052083 0.052734 0.053385 0.054036 0.054688 0.055339 0.055990 0.056641 0.057292 0.057943 0.058594 0.059245 0.059896 0.060547 0.061198 0.061849 0.062500 0.063151 0.063802 0.064453 0.065104 0.065755 0.066406 0.067057 0.067708 0.068359 0.069010 0.069661 0.070312 0.070964 0.071615 0.072266 0.072917 0.073568 0.074219 0.074870 0.075521 0.076172 0.076823 0.077474 0.078125 0.078776 0.079427 0.080078 0.080729 0.081380 0.082031 0.082682 0.083333 0.083984 0.084635 0.085286 0.085938 0.086589 0.087240 0.087891 0.088542 0.089193 0.089844 0.090495 0.091146 0.091797 0.092448 0.093099 0.093750 0.094401 0.095052 0.095703 0.096354 0.097005 0.097656 0.098307 0.098958 0.099609 0.100260 0.100911 0.101562 0.102214 0.102865 0.103516 0.104167 0.104818 0.105469 0.106120 0.106771 0.107422 0.108073 0.108724 0.109375 0.110026 0.110677 0.111328 0.111979 0.112630 0.113281 0.113932 0.114583 0.115234 0.115885 0.116536 0.117188 0.117839 0.118490 0.119141 0.119792 0.120443 0.121094 0.121745 0.122396 0.123047 0.123698 0.124349 0.125000 0.125651 0.126302 0.126953 0.127604 0.128255 0.128906 0.129557 0.130208 0.130859 0.131510 0.132161 0.132812 0.133464 0.134115 0.134766 0.135417 0.136068 0.136719 0.137370 0.138021 0.138672 0.139323 0.139974 0.140625 0.141276 0.141927 0.142578 0.143229 0.143880 0.144531 0.145182 0.145833 0.146484 0.147135 0.147786 0.148438 0.149089 0.149740 0.150391 0.151042 0.151693 0.152344 0.152995 0.153646 0.154297 0.154948 0.155599 0.156250 0.156901 0.157552 0.158203 0.158854 0.159505 0.160156 0.160807 0.161458 0.162109 0.162760 0.163411 0.164062 0.164714 0.165365 0.166016 0.166667 0.167318 0.167969 0.168620 0.169271 0.169922 0.170573 0.171224 0.171875 0.172526 0.173177 0.173828 0.174479 0.175130 0.175781 0.176432 0.177083 0.177734 0.178385 0.179036 0.179688 0.180339 0.180990 0.181641 0.182292 0.182943 0.183594 0.184245 0.184896 0.185547 0.186198 0.186849 0.187500 0.188151 0.188802 0.189453 0.190104 0.190755 0.191406 0.192057 0.192708 0.193359 0.194010 0.194661 0.195312 0.195964 0.196615 0.197266 0.197917 0.198568 0.199219 0.199870 0.200521 0.201172 0.201823 0.202474 0.203125 0.203776 0.204427 0.205078 0.205729 0.206380 0.207031 0.207682 0.208333 0.208984 0.209635 0.210286 0.210938 0.211589 0.212240 0.212891 0.213542 0.214193 0.214844 0.215495 0.216146 0.216797 0.217448 0.218099 0.218750 0.219401 0.220052 0.220703 0.221354 0.222005 0.222656 0.223307 0.223958 0.224609 0.225260 0.225911 0.226562 0.227214 0.227865 0.228516 0.229167 0.229818 0.230469 0.231120 0.231771 0.232422 0.233073 0.233724 0.234375 0.235026 0.235677
       0.33065        0.33065        0.33065        0.33065        0.33065        0.33065        0.33065        0.33065        0.33065        0.33065        0.33065        0.33065        0.33065        0.33065        0.33065        0.33065        0.33065        0.33065        0.33065        0.33065        0.33065        0.33065        0.33065        0.33065        0.33065        0.33065        0.33065        0.33065        0.33065        0.33065        0.33065        0.33065        0.33065        0.33065        0.33065        0.33065        0.33065        0.33065        0.33065        0.33065        0.33065        0.33065        0.33065        0.33065        0.33065        0.33065        0.33065        0.33065        0.33065        0.33065        0.33065        0.68346        1.09302        0.56070        0.11519       -0.00869       -0.20229       -0.13674       -0.17140       -0.21783       -0.13779       -0.04952       -0.00045        0.10795        0.00841       -0.08450       -0.10575       -0.28961       -0.26653       -0.37141       -0.18674       -0.34487       -0.44034       -0.36315       -0.33788       -0.44468       -0.46617       -0.46717       -0.46125       -0.56462       -0.53614       -0.41678       -0.30984       -0.32085       -0.32462       -0.23082       -0.13336        0.07389        0.13260        0.22180        0.25830        0.33734        0.36165        0.40208        0.52169        0.58945        0.67899        0.76402        0.65969        0.72226        0.72299        0.64924        0.70455        0.61408        0.56454        0.49232        0.41336        0.33397        0.30574        0.22929        0.10062        0.02813       -0.00463       -0.04505       -0.06899       -0.06391       -0.08069       -0.01974        0.08391        0.14243        0.30208        0.40813        0.42774        0.44086        0.51082        0.68613        0.63630        0.67559        0.77045        0.74821        0.75140        0.55280        0.50718        0.43533        0.42902        0.35879        0.23844        0.18512        0.06708       -0.00048        0.07046        0.02280        0.09272        0.14735        0.20654        0.30710        0.38677        0.45904        0.54258        0.56709        0.57181        0.56353        0.60460        0.56188        0.40819        0.39134        0.38933        0.37434        0.25300        0.22653        0.18516        0.12681        0.09891        0.10555        0.17883        0.25509        0.30377        0.36194        0.40290        0.51293        0.44945        0.52845        0.56113        0.53083        0.49926        0.43611        0.35980        0.31228        0.34588        0.27836        0.28544        0.17390        0.20310        0.21476        0.22762        0.30881        0.39725        0.40530        0.45240        0.47225        0.43329        0.45155        0.44737        0.41339        0.36390        0.31084        0.24741        0.25402        0.29395        0.22464        0.28207        0.28673        0.28558        0.33532        0.37113        0.43871        0.42890        0.37529        0.40210        0.36984        0.35668        0.31807        0.29144        0.24701        0.26460        0.25973        0.28030        0.28781        0.31538        0.36448        0.39326        0.43113        0.40280        0.37160        0.34860        0.29896        0.31686        0.28567        0.25279        0.21876        0.29140        0.29429        0.34585        0.34667        0.35107        0.37015        0.33924        0.40324        0.34097        0.34096        0.34968        0.26343        0.27039        0.28245        0.29576        0.29684        0.32920        0.31133        0.36850        0.36195        0.34502        0.33295        0.33921        0.31673        0.30530        0.23986        0.21587        0.22703        0.26401        0.29464        0.32309        0.31546        0.35842        0.34933        0.30150        0.30548        0.29367        0.28122        0.26924        0.24086        0.26482        0.26011        0.28397        0.32591        0.36020        0.37170        0.31274        0.29169        0.31987        0.30492        0.25962        0.32400        0.30048        0.29811        0.32122        0.32480        0.32975        0.36332        0.35350        0.35284        0.30799        0.29800        0.29024        0.28978        0.33150        0.29765        0.30096        0.35628        0.35138        0.31625        0.33404        0.32358        0.32002        0.25878        0.25056        0.32003        0.30076        0.32485        0.32541        0.27680        0.27570        0.28268        0.26347        0.28932        0.28585        0.28955        0.26713        0.24562        0.30485        0.32955        0.28092        0.28710        0.27334        0.23428        0.27730        0.25188        0.26276        0.30278        0.24946        0.25610        0.22241        0.25152        0.27436        0.26013        0.27143        0.26351        0.21946        0.23751        0.28801        0.25729        0.32226        0.26683        0.22676        0.22144        0.26514        0.19845        0.22544        0.30107        0.20649        0.20063        0.19056        0.27871        0.29478        0.37413        0.26995        0.18625        0.35785        0.33351        0.14543        0.06727       -0.12580       -0.40680       -0.51323
2.702091 2.674958 2.647967 2.621119 2.594413 2.567849 2.541427 2.515148 2.489011 2.463016 2.437163 2.411453 2.385885 2.360459 2.335176 2.310035 2.285036 2.260179 2.235465 2.210892 2.186463 2.162175 2.138030 2.114027 2.090166 2.066447 2.042871 2.019437 1.996145 1.972996 1.949988 1.927124 1.904401 1.881820 1.859382 1.837086 1.814933 1.792921 1.771052 1.749326 1.727741 1.706299 1.684999 1.663841 1.642825 1.621952 1.601221 1.580633 1.560186 1.539882 1.519720 1.674869 2.382476 1.924775 1.124637 1.166210 0.874177 0.828757 0.776719 0.749933 0.791220 0.855695 0.959648 0.986494 0.890440 0.806653 0.804536 0.491714 0.537642 0.360558 0.571227 0.425254 0.255971 0.341400 0.322466 0.245955 0.147025 0.121743 0.181956 0.027618 -0.051568 0.128724 0.265641 0.202968 0.176431 0.241064 0.364629 0.561083 0.598776 0.685394 0.794513 0.759243 0.882725 0.779542 0.963233 1.031115 1.090433 1.259321 1.080755 1.152568 1.104323 1.133920 1.041409 0.973824 0.903829 0.857769 0.729409 0.630061 0.586003 0.464208 0.378555 0.243180 0.157659 0.140962 0.103492 0.081621 0.049585 0.074497 0.188935 0.156897 0.414239 0.533564 0.527737 0.514989 0.621425 0.764930 0.779794 0.676285 0.834892 0.810240 0.994437 0.574005 0.584300 0.466312 0.481170 0.359019 0.283119 0.159104 0.082816 -0.091164 0.006136 -0.075879 -0.018052 0.030912 0.084664 0.197264 0.247409 0.396983 0.399809 0.486521 0.502240 0.491351 0.548557 0.562131 0.310043 0.320911 0.225812 0.301548 0.207923 0.049958 0.055491 0.041843 -0.072649 -0.092310 -0.030472 0.081397 0.091821 0.195564 0.202904 0.301564 0.341185 0.317707 0.419827 0.486449 0.327113 0.332641 0.285080 0.193309 0.177098 0.160213 0.102646 0.095746 -0.019524 0.049208 0.038926 0.070000 0.201175 0.209541 0.293473 0.298648 0.322865 0.247549 0.269014 0.269282 0.194905 0.168946 0.087991 0.002411 0.126854 0.013385 0.068183 0.087886 0.056183 0.066891 0.173259 0.175899 0.234646 0.247001 0.137771 0.169193 0.117335 0.094621 0.049518 0.034576 -0.032922 0.028199 0.010409 0.035126 0.022890 0.095405 0.102589 0.180676 0.179996 0.148092 0.076218 0.062747 0.058093 0.030798 0.046795 -0.065621 -0.029484 0.050453 0.006969 0.124674 0.056443 0.107633 0.080610 0.191716 0.147396 0.091275 0.096737 0.124205 -0.024615 0.039927 0.035868 0.059232 0.058835 0.077379 0.065124 0.138598 0.103397 0.109615 0.079004 0.126460 0.066355 0.028456 -0.026457 -0.032957 -0.013231 0.013401 0.043322 0.097881 0.057736 0.108189 0.083814 0.006475 0.033142 0.023705 -0.008907 -0.025888 -0.038614 0.003056 -0.026308 0.011758 0.042103 0.110488 0.035662 0.045651 -0.016566 0.042286 0.003943 -0.041557 0.063300 -0.010183 -0.006177 0.056170 -0.006480 0.070244 0.043266 0.071145 0.046056 -0.015515 -0.025791 0.005039 -0.044535 0.032281 -0.016290 -0.006413 0.065159 -0.019870 0.053677 0.015620 0.029408 -0.008734 -0.031928 -0.078549 0.062298 -0.006814 0.037317 0.010253 -0.025723 0.032296 0.015804 0.009669 0.023702 0.008080 0.025340 0.013015 -0.032505 0.050758 0.106875 0.015436 0.028154 0.002136 -0.024720 0.009185 -0.018468 0.013301 0.083574 -0.043652 -0.000348 -0.049732 0.025943 -0.005728 0.002097 -0.012464 0.000336 -0.033728 -0.060093 0.090661 -0.028598 0.043465 -0.015936 -0.048197 -0.067148 0.002485 -0.094297 -0.044828 0.015115 -0.094939 0.253490 0.231571 0.297259 0.289330 0.413928 0.335208 0.218521 0.386623 0.476497 0.144257 0.132406 -0.135421 -0.567854
0.072396 0.072869 0.074288 0.076653 0.079963 0.084218 0.089415 0.095555 0.102635 0.110652 0.119604 0.129487 0.140297 0.152028 0.164672 0.178224 0.192673 0.208008 0.224216 0.241284 0.259193 0.277926 0.297458 0.317767 0.338824 0.360598 0.383053 0.406151 0.429849 0.454099 0.478851 0.504048 0.529628 0.555523 0.581663 0.607969 0.634357 0.660738 0.687016 0.713091 0.738854 0.764193 0.788986 0.813109 0.836432 0.858816 0.880121 0.900200 0.918902 0.936073 0.951555 0.965188 0.976810 0.986257 0.993369 0.997983 0.999941 0.999088 0.995273 0.988354 0.978196 0.964672 0.947669 0.927087 0.902838 0.874856 0.843090 0.807510 0.768111 0.724910 0.677953 0.627311 0.573087 0.515414 0.454461 0.390425 0.323543 0.254084 0.182355 0.108698 0.033490 0.042856 0.119893 0.197145 0.274102 0.350229 0.424966 0.497732 0.567929 0.634948 0.698174 0.756991 0.810788 0.858965 0.900945 0.936176 0.964140 0.984364 0.996426 0.999961 0.994674 0.980346 0.956838 0.924104 0.882193 0.831258 0.771558 0.703462 0.627453 0.544129 0.454201 0.358491 0.257929 0.153547 0.046469 0.062093 0.170858 0.278485 0.383591 0.484765 0.580593 0.669672 0.750638 0.822182 0.883082 0.932219 0.968603 0.991400 0.999947 0.993778 0.972641 0.936511 0.885606 0.820396 0.741606 0.650216 0.547462 0.434821 0.313999 0.186910 0.055652 0.077525 0.210253 0.340093 0.464565 0.581216 0.687651 0.781599 0.860957 0.923850 0.968676 0.994154 0.999369 0.983808 0.947390 0.890488 0.813940 0.719055 0.607597 0.481769 0.344179 0.197796 0.045888 0.108039 0.260318 0.407215 0.545011 0.670105 0.779111 0.868957 0.936981 0.981015 0.999473 0.991410 0.956583 0.895480 0.809337 0.700136 0.570574 0.424014 0.264412 0.096215 0.075740 0.246376 0.410511 0.563022 0.699009 0.813956 0.903900 0.965568 0.996523 0.995270 0.961341 0.895350 0.799015 0.675134 0.527527 0.360944 0.180923 0.006380 0.194387 0.376332 0.545499 0.695477 0.820412 0.915249 0.975958 0.999716 0.985071 0.932037 0.842149 0.718447 0.565410 0.388816 0.195544 0.006671 0.209538 0.404546 0.583320 0.737990 0.861549 0.948189 0.993601 0.995213 0.952362 0.866387 0.740628 0.580333 0.392477 0.185479 0.031146 0.247224 0.452371 0.636522 0.790415 0.906087 0.977306 0.999941 0.972233 0.894961 0.771468 0.607570 0.411321 0.192645 0.037128 0.265842 0.481150 0.671185 0.825222 0.934314 0.991847 0.993972 0.939909 0.832072 0.676023 0.480236 0.255676 0.015223 0.227053 0.456692 0.659719 0.823507 0.937590 0.994372 0.989676 0.923098 0.798139 0.622073 0.405592 0.162200 0.092605 0.342282 0.570322 0.761358 0.902205 0.982837 0.997128 0.943384 0.824571 0.648221 0.426035 0.173134 0.092895 0.353228 0.589112 0.783231 0.921016 0.991777 0.989592 0.913869 0.769515 0.566707 0.320233 0.048480 0.227904 0.487564 0.710086 0.877627 0.976399 0.997857 0.939510 0.805271 0.605280 0.355227 0.075175 0.211993 0.482428 0.713290 0.884717 0.981575 0.994869 0.922650 0.770355 0.550486 0.281684 0.012794 0.307050 0.574780 0.791662 0.937602 0.998646 0.968417 0.848853 0.650222 0.390332 0.093026 0.213953 0.501516 0.741988 0.911804 0.993894 0.979474 0.869093 0.672767 0.409194 0.104064 0.212385 0.508320 0.753518 0.922501 0.997246 0.969212 0.840416 0.623448 0.340347 0.020480 0.302461 0.593962 0.822405 0.962542 0.998377 0.925109 0.749877 0.491211 0.177197 0.157496 0.475378 0.740344 0.921808 0.998319 0.960209 0.810946 0.566982
1.000000 1.000000 1.000000 1.000000 1.000000 1.000000 1.000000 1.000000 1.000000 1.000000 1.000000 1.000000 1.000000 1.000000 1.000000 1.000000 1.000000 1.000000 1.000000 1.000000 1.000000 1.000000 1.000000 1.000000 1.000000 1.000000 1.000000 1.000000 1.000000 1.000000 1.000000 1.000000 1.000000 1.000000 1.000000 1.000000 1.000000 1.000000 1.000000 1.000000 1.000000 1.000000 1.000000 1.000000 1.000000 1.000000 1.000000 1.000000 1.000000 1.000000 1.000000 1.000000 0.884791 0.884791 0.884791 0.884791 0.884791 0.872034 0.872034 0.872034 0.872034 0.872034 0.872034 0.872034 0.872034 0.872034 0.872034 0.872034 0.872034 0.872034 0.872034 0.872034 0.872034 0.872034 0.872034 0.872034 0.872034 0.872034 0.872034 0.872034 0.872034 0.872034 0.872034 0.872034 0.872034 0.872034 0.872034 0.872034 0.872034 0.872034 0.872034 0.872034 0.872034 0.872034 0.872034 0.872034 0.872034 0.872034 0.872034 0.953123 0.957482 0.958390 0.958080 0.957309 0.956492 0.955861 0.955515 0.956147 0.959038 0.959808 0.965733 0.967436 0.968079 0.974602 0.972460 0.972753 0.971037 0.970855 0.970908 0.964597 0.963272 0.961778 0.962007 0.965567 0.965478 0.965326 0.965282 0.965433 0.965816 0.966024 0.966537 0.966250 0.965942 0.964992 0.964100 0.963399 0.963060 0.963207 0.963721 0.964591 0.965608 0.966088 0.966712 0.967187 0.967360 0.967229 0.966833 0.966268 0.965710 0.967620 0.965825 0.962177 0.963768 0.963776 0.964067 0.964538 0.965670 0.966318 0.961774 0.960541 0.960066 0.956851 0.954522 0.949393 0.941276 0.936585 0.938901 0.940484 0.940891 0.934209 0.921920 0.919259 0.913534 0.912715 0.910062 0.905486 0.906492 0.909322 0.900552 0.898867 0.892911 0.887989 0.882876 0.881547 0.883098 0.880263 0.881812 0.882549 0.878504 0.876502 0.876186 0.879107 0.881558 0.877129 0.867043 0.860870 0.860206 0.861865 0.861688 0.868386 0.869829 0.860954 0.858714 0.849590 0.843874 0.842064 0.837762 0.841303 0.841855 0.844929 0.843967 0.830389 0.833723 0.826370 0.825427 0.826044 0.820955 0.816308 0.814050 0.810262 0.801597 0.800853 0.803804 0.808430 0.810617 0.804650 0.805506 0.813571 0.808620 0.817914 0.821890 0.826001 0.835085 0.833276 0.832712 0.832346 0.832702 0.816541 0.815018 0.824538 0.830796 0.832634 0.825267 0.823522 0.823442 0.820802 0.815139 0.808273 0.783168 0.785206 0.787770 0.786458 0.791245 0.735022 0.740690 0.740092 0.742302 0.719352 0.728697 0.722099 0.716847 0.725627 0.722440 0.735871 0.734103 0.719314 0.720642 0.705921 0.699634 0.685980 0.698545 0.683482 0.689035 0.693464 0.691759 0.687197 0.696458 0.672763 0.675638 0.673808 0.674027 0.634517 0.637927 0.638466 0.636256 0.609622 0.574562 0.529107 0.511453 0.510751 0.476321 0.487224 0.487474 0.459939 0.471482 0.468787 0.477009 0.473218 0.468391 0.450071 0.417335 0.348514 0.343612 0.340903 0.345747 0.350067 0.332663 0.337029 0.314545 0.347381 0.358100 0.358865 0.354404 0.339382 0.333887 0.343159 0.343253 0.346807 0.325941 0.284854 0.248118 0.250061 0.211440 0.212002 0.187992 0.165166 0.166250 0.182510 0.158679 0.186958 0.142705 0.100914 0.099644 0.105279 0.105279 0.105279 0.105279 0.105279 0.105279 0.105279 0.105279 0.102278 0.102278 0.102278 0.102278 0.102278 0.102278 0.102278 0.102278 0.102278 0.132033 0.132033 0.132033 0.132033 0.132033 0.132033 0.132033 0.132033 0.132033 0.132033 0.132033 0.132033 0.132033
0.000000 0.000000 0.000000 0.000000 0.000000 0.000000 0.000000 0.000000 0.000000 0.000000 0.000000 0.000000 0.000000 0.000000 0.000000 0.000000 0.000000 0.000000 0.000000 0.000000 0.000000 9401.000000 0.000000 0.000000 0.000000 0.000000 0.000000 0.000000 0.000000 0.000000 0.000000 0.000000 0.000000 0.000000 0.000000 0.000000 0.000000 0.000000 0.000000 0.000000 0.000000 0.000000 0.000000 0.000000 0.000000 0.000000 0.000000 0.000000 0.000000 0.000000 0.000000 0.000000 0.177471 0.177471 0.177471 0.177471 0.177471 0.197066 0.197066 0.197066 0.197066 0.197066 0.197066 0.197066 0.197066 0.197066 0.197066 0.197066 0.197066 0.197066 0.197066 0.197066 0.197066 0.197066 0.197066 0.197066 0.197066 0.197066 0.197066 0.197066 0.197066 0.197066 0.197066 0.197066 0.197066 0.197066 0.197066 0.197066 0.197066 0.197066 0.197066 0.197066 0.197066 0.197066 0.197066 0.197066 0.197066 0.197066 0.197066 0.222222 0.222222 0.222222 0.222222 0.222222 0.222222 0.222222 0.222222 0.222222 0.222222 0.222222 0.222222 0.222222 0.222222 0.222222 0.222222 0.222222 0.222222 0.222222 0.222222 0.222222 0.222222 0.222222 0.222222 0.222222 0.222222 0.222222 0.222222 0.222222 0.222222 0.244339 0.244339 0.244339 0.244339 0.244339 0.244339 0.244339 0.244339 0.244339 0.244339 0.244339 0.244339 0.244339 0.244339 0.244339 0.244339 0.244339 0.244339 0.244339 0.244339 0.244339 0.244339 0.244339 0.244339 0.244339 0.244339 0.244339 0.244339 0.244339 0.244339 0.244339 0.244339 0.244339 0.244339 0.244339 0.244339 0.244339 0.244339 0.244339 0.244339 0.244339 0.244339 0.244339 0.244339 0.256074 0.256074 0.256074 0.256074 0.256074 0.256074 0.256074 0.256074 0.256074 0.256074 0.256074 0.256074 0.256074 0.256074 0.256074 0.256074 0.256074 0.256074 0.256074 0.256074 0.256074 0.256074 0.256074 0.256074 0.256074 0.256074 0.256074 0.256074 0.256074 0.256074 0.256074 0.256074 0.256074 0.256074 0.256074 0.264906 0.264906 0.264906 0.264906 0.264906 0.264906 0.264906 0.264906 0.264906 0.264906 0.264906 0.264906 0.264906 0.264906 0.264906 0.264906 0.264906 0.264906 0.264906 0.264906 0.264906 0.264906 0.264906 0.264906 0.264906 0.264906 0.264906 0.264906 0.264906 0.256074 0.256074 0.256074 0.256074 0.256074 0.256074 0.256074 0.256074 0.256074 0.256074 0.256074 0.256074 0.256074 0.256074 0.260378 0.260378 0.260378 0.260378 0.260378 0.260378 0.260378 0.260378 0.260378 0.260378 0.260378 0.260378 0.260378 0.264906 0.264906 0.264906 0.264906 0.264906 0.264906 0.264906 0.264906 0.264906 0.264906 0.264906 0.264906 0.260378 0.260378 0.260378 0.260378 0.260378 0.260378 0.260378 0.260378 0.260378 0.260378 0.260378 0.260378 0.264906 0.264906 0.264906 0.264906 0.264906 0.264906 0.264906 0.264906 0.264906 0.264906 0.264906 0.256074 0.256074 0.256074 0.256074 0.256074 0.256074 0.256074 0.256074 0.256074 0.256074 0.256074 0.251976 0.251976 0.251976 0.251976 0.251976 0.251976 0.251976 0.251976 0.251976 0.251976 0.251976 0.260378 0.260378 0.260378 0.260378 0.260378 0.260378 0.260378 0.260378 0.260378 0.260378 0.256074 0.256074 0.256074 0.256074 0.256074 0.256074 0.256074 0.256074 0.256074 0.256074 0.260378 0.260378 0.260378 0.260378 0.260378 0.260378 0.260378 0.260378 0.260378 0.244339 0.244339 0.244339 0.244339 0.244339 0.244339 0.244339 0.244339 0.244339 0.244339 0.244339 0.244339 0.244339
