# Output from CTFFind version 4.1.9, run on 2019-11-03 18:51:56
# Input file: stack4_ub_averaged_1500.mrc ; Number of micrographs: 1
# Pixel size: 3.000 Angstroms ; acceleration voltage: 300.0 keV ; spherical aberration: 0.00 mm ; amplitude contrast: 0.07
# Box size: 512 pixels ; min. res.: 30.0 Angstroms ; max. res.: 5.0 Angstroms ; min. def.: 5000.0 um; max. def. 50000.0 um; num. frames averaged: 1
# 6 lines per micrograph: #1 - spatial frequency (1/Angstroms); #2 - 1D rotational average of spectrum (assuming no astigmatism); #3 - 1D rotational average of spectrum; #4 - CTF fit; #5 - cross-correlation between spectrum and CTF fit; #6 - 2sigma of expected cross correlation of noise
0.000000 0.000651 0.001302 0.001953 0.002604 0.003255 0.003906 0.004557 0.005208 0.005859 0.006510 0.007161 0.007812 0.008464 0.009115 0.009766 0.010417 0.011068 0.011719 0.012370 0.013021 0.013672 0.014323 0.014974 0.015625 0.016276 0.016927 0.017578 0.018229 0.018880 0.019531 0.020182 0.020833 0.021484 0.022135 0.022786 0.023438 0.024089 0.024740 0.025391 0.026042 0.026693 0.027344 0.027995 0.028646 0.029297 0.029948 0.030599 0.031250 0.031901 0.032552 0.033203 0.033854 0.034505 0.035156 0.035807 0.036458 0.037109 0.037760 0.038411 0.039062 0.039714 0.040365 0.041016 0.041667 0.042318 0.042969 0.043620 0.044271 0.044922 0.045573 0.046224 0.046875 0.047526 0.048177 0.048828 0.049479 0.050130 0.050781 0.051432 0.052083 0.052734 0.053385 0.054036 0.054688 0.055339 0.055990 0.056641 0.057292 0.057943 0.058594 0.059245 0.059896 0.060547 0.061198 0.061849 0.062500 0.063151 0.063802 0.064453 0.065104 0.065755 0.066406 0.067057 0.067708 0.068359 0.069010 0.069661 0.070312 0.070964 0.071615 0.072266 0.072917 0.073568 0.074219 0.074870 0.075521 0.076172 0.076823 0.077474 0.078125 0.078776 0.079427 0.080078 0.080729 0.081380 0.082031 0.082682 0.083333 0.083984 0.084635 0.085286 0.085938 0.086589 0.087240 0.087891 0.088542 0.089193 0.089844 0.090495 0.091146 0.091797 0.092448 0.093099 0.093750 0.094401 0.095052 0.095703 0.096354 0.097005 0.097656 0.098307 0.098958 0.099609 0.100260 0.100911 0.101562 0.102214 0.102865 0.103516 0.104167 0.104818 0.105469 0.106120 0.106771 0.107422 0.108073 0.108724 0.109375 0.110026 0.110677 0.111328 0.111979 0.112630 0.113281 0.113932 0.114583 0.115234 0.115885 0.116536 0.117188 0.117839 0.118490 0.119141 0.119792 0.120443 0.121094 0.121745 0.122396 0.123047 0.123698 0.124349 0.125000 0.125651 0.126302 0.126953 0.127604 0.128255 0.128906 0.129557 0.130208 0.130859 0.131510 0.132161 0.132812 0.133464 0.134115 0.134766 0.135417 0.136068 0.136719 0.137370 0.138021 0.138672 0.139323 0.139974 0.140625 0.141276 0.141927 0.142578 0.143229 0.143880 0.144531 0.145182 0.145833 0.146484 0.147135 0.147786 0.148438 0.149089 0.149740 0.150391 0.151042 0.151693 0.152344 0.152995 0.153646 0.154297 0.154948 0.155599 0.156250 0.156901 0.157552 0.158203 0.158854 0.159505 0.160156 0.160807 0.161458 0.162109 0.162760 0.163411 0.164062 0.164714 0.165365 0.166016 0.166667 0.167318 0.167969 0.168620 0.169271 0.169922 0.170573 0.171224 0.171875 0.172526 0.173177 0.173828 0.174479 0.175130 0.175781 0.176432 0.177083 0.177734 0.178385 0.179036 0.179688 0.180339 0.180990 0.181641 0.182292 0.182943 0.183594 0.184245 0.184896 0.185547 0.186198 0.186849 0.187500 0.188151 0.188802 0.189453 0.190104 0.190755 0.191406 0.192057 0.192708 0.193359 0.194010 0.194661 0.195312 0.195964 0.196615 0.197266 0.197917 0.198568 0.199219 0.199870 0.200521 0.201172 0.201823 0.202474 0.203125 0.203776 0.204427 0.205078 0.205729 0.206380 0.207031 0.207682 0.208333 0.208984 0.209635 0.210286 0.210938 0.211589 0.212240 0.212891 0.213542 0.214193 0.214844 0.215495 0.216146 0.216797 0.217448 0.218099 0.218750 0.219401 0.220052 0.220703 0.221354 0.222005 0.222656 0.223307 0.223958 0.224609 0.225260 0.225911 0.226562 0.227214 0.227865 0.228516 0.229167 0.229818 0.230469 0.231120 0.231771 0.232422 0.233073 0.233724 0.234375 0.235026 0.235677
       0.36377        0.36377        0.36377        0.36377        0.36377        0.36377        0.36377        0.36377        0.36377        0.36377        0.36377        0.36377        0.36377        0.36377        0.36377        0.36377        0.36377        0.36377        0.36377        0.36377        0.36377        0.36377        0.36377        0.36377        0.36377        0.36377        0.36377        0.36377        0.36377        0.36377        0.36377        0.36377        0.36377        0.36377        0.36377        0.36377        0.36377        0.36377        0.36377        0.36377        0.36377        0.36377        0.36377        0.36377        0.36377        0.36377        0.36377        0.36377        0.36377        0.36377        0.36377        0.70714        0.78232        0.46941        0.03736        0.05732       -0.16207       -0.30881       -0.07472       -0.04390       -0.09463       -0.16839       -0.13419       -0.15863       -0.36467       -0.43723       -0.31494       -0.35096       -0.39532       -0.46716       -0.45383       -0.40983       -0.54551       -0.43738       -0.53687       -0.59252       -0.50233       -0.39520       -0.44549       -0.31056       -0.19586       -0.18307       -0.11916       -0.07887        0.00531        0.05332        0.24658        0.43266        0.37424        0.57727        0.67128        0.65347        0.63703        0.65721        0.70454        0.66505        0.64472        0.71806        0.67665        0.61101        0.53558        0.43767        0.33756        0.25984        0.20091        0.10140        0.07518        0.01637        0.07761        0.03841        0.07988        0.08974        0.11367        0.26359        0.41565        0.45024        0.48619        0.53066        0.53273        0.61199        0.62558        0.68332        0.68387        0.63735        0.63578        0.59809        0.49875        0.38717        0.37629        0.25582        0.22377        0.17850        0.15080        0.09476        0.06201        0.11945        0.21715        0.29838        0.28708        0.47719        0.53633        0.53971        0.60728        0.64406        0.59556        0.61521        0.53213        0.49059        0.51436        0.47036        0.38052        0.24041        0.11320        0.19519        0.20855        0.19203        0.20204        0.29327        0.25293        0.40789        0.45956        0.45794        0.51175        0.53473        0.55789        0.52145        0.37850        0.39734        0.41721        0.30366        0.30748        0.23783        0.20042        0.24754        0.29391        0.28753        0.36752        0.40150        0.42699        0.47150        0.54344        0.54489        0.50903        0.41070        0.41633        0.37542        0.35521        0.32048        0.30106        0.27859        0.30626        0.33740        0.35928        0.41120        0.44769        0.44504        0.45993        0.43574        0.41239        0.38588        0.32894        0.33925        0.35776        0.34124        0.31087        0.30885        0.30450        0.36744        0.39434        0.37184        0.39368        0.44841        0.40188        0.40040        0.38907        0.37524        0.36674        0.33112        0.31925        0.31654        0.34699        0.37396        0.38170        0.38845        0.35066        0.34531        0.34823        0.34755        0.36032        0.34212        0.37020        0.36356        0.35527        0.37575        0.37282        0.34723        0.36684        0.36553        0.39308        0.38390        0.34129        0.36421        0.33818        0.32580        0.34620        0.34370        0.33351        0.36860        0.32567        0.36020        0.36667        0.33803        0.34652        0.31457        0.35772        0.28231        0.30893        0.29917        0.30852        0.34167        0.36993        0.36209        0.33969        0.35608        0.34689        0.32946        0.32372        0.34058        0.38169        0.32725        0.33818        0.32819        0.31012        0.32158        0.33670        0.36628        0.32786        0.34332        0.35733        0.33747        0.34341        0.35303        0.32916        0.34658        0.28566        0.35301        0.34002        0.34987        0.37262        0.36225        0.38201        0.36820        0.32965        0.31591        0.33586        0.34413        0.30069        0.33925        0.35399        0.37424        0.37399        0.37140        0.34981        0.33561        0.32484        0.33127        0.31620        0.35908        0.32471        0.27830        0.31455        0.34194        0.31194        0.32595        0.31163        0.30182        0.31992        0.31438        0.30340        0.32218        0.27293        0.27287        0.26538        0.26495        0.31903        0.35034        0.31372        0.32188        0.37184        0.34883        0.32698        0.33633        0.28858        0.30218        0.30043        0.27385        0.30414        0.29774        0.29499        0.32004        0.34842        0.29326        0.31852        0.25506        0.26808        0.17059        0.30356        0.26833        0.27917        0.26786        0.27978        0.27640        0.35028        0.30583        0.20606        0.14663        0.38495        0.39126        0.32799        0.21738        0.20634       -0.01712       -0.16904
2.567423 2.539177 2.511090 2.483163 2.455396 2.427789 2.400341 2.373053 2.345925 2.318957 2.292149 2.265500 2.239011 2.212682 2.186512 2.160503 2.134653 2.108963 2.083433 2.058062 2.032852 2.007801 1.982910 1.958179 1.933607 1.909195 1.884943 1.860851 1.836919 1.813146 1.789533 1.766080 1.742787 1.719653 1.696680 1.673866 1.651212 1.628717 1.606383 1.584208 1.562193 1.540338 1.518642 1.497106 1.475730 1.454514 1.433458 1.412561 1.391825 1.371248 1.350830 1.597719 1.800082 1.466541 0.926747 1.066715 0.678521 0.462382 0.746296 0.772506 0.655469 0.563424 0.638184 0.594520 0.322812 0.255418 0.299481 0.270319 0.282117 0.134253 0.085631 0.168807 0.000521 0.112148 -0.039281 -0.071650 -0.054131 0.065843 -0.023003 0.087271 0.258564 0.229175 0.231585 0.296808 0.357431 0.408417 0.548122 0.717835 0.711794 0.884370 1.007227 0.933743 0.892067 0.929419 0.970423 0.928120 0.868193 0.926727 0.920530 0.773325 0.763140 0.642819 0.473719 0.398278 0.374657 0.212151 0.164464 0.105873 0.106856 0.129905 0.090506 0.146584 0.125423 0.175089 0.378678 0.503315 0.461622 0.481554 0.541006 0.522372 0.625832 0.591187 0.672250 0.551407 0.601985 0.506210 0.469869 0.295756 0.307897 0.120987 0.158233 0.005771 0.030289 -0.038558 -0.119364 -0.108507 0.018139 0.094092 0.100838 0.218046 0.316973 0.356714 0.361310 0.444315 0.455598 0.385595 0.373042 0.273783 0.270635 0.259772 0.210826 0.044773 -0.065144 -0.154960 -0.005073 -0.118319 -0.063817 0.001086 -0.035043 0.085911 0.174377 0.178578 0.203634 0.321014 0.330383 0.332722 0.182799 0.150628 0.191850 0.133458 0.067008 0.000377 -0.035387 -0.031770 0.025251 0.018754 0.085232 0.093904 0.187323 0.172709 0.282621 0.283215 0.288072 0.170087 0.139003 0.141762 0.055801 0.064613 0.041032 -0.000244 0.005520 -0.000769 0.104492 0.070717 0.140127 0.159880 0.172540 0.172765 0.110304 0.106391 0.070555 0.036047 0.047168 0.070023 0.015809 0.013238 -0.008937 0.018415 0.071695 0.095078 0.086173 0.054141 0.125567 0.028653 0.101069 0.029502 0.057014 0.002216 -0.017656 -0.017102 -0.003920 0.018027 0.028786 0.066151 0.042659 0.019170 0.016417 0.055099 0.030509 0.032324 0.018441 0.055600 0.026385 0.043422 0.054292 0.050747 0.008137 0.070049 0.019571 0.068063 0.067863 -0.007330 0.077175 -0.006950 0.004734 0.030363 0.010949 0.009836 0.045073 -0.010471 0.057228 0.033036 0.026417 0.022587 0.005552 0.025223 -0.055139 -0.004676 -0.027146 -0.010200 0.027587 0.044320 0.029970 0.012784 0.027278 -0.000656 0.010314 -0.008481 0.042959 0.044153 -0.015508 -0.012484 0.001128 -0.038251 0.000911 0.007352 0.021555 -0.024264 0.023416 -0.011267 -0.005244 -0.001880 0.002588 0.005873 -0.036399 -0.071680 0.002644 -0.000520 -0.017268 0.016438 0.019750 0.032678 -0.001895 -0.029199 -0.015609 -0.000285 0.000089 -0.024898 0.015190 -0.018252 0.100406 0.034238 0.038036 0.030831 0.018064 -0.001928 0.016818 -0.024115 0.037953 0.014283 -0.061972 0.014437 0.007996 -0.005793 0.004126 -0.034858 -0.048842 0.012396 -0.035005 -0.030950 0.015394 -0.068746 -0.028768 -0.052384 -0.039595 0.030220 0.092952 0.024513 0.022331 0.098307 0.065015 0.019880 0.070029 0.032200 0.008899 0.015758 -0.002816 0.059537 0.029675 0.047468 0.017851 0.132088 0.030013 0.064921 -0.028263 0.042778 -0.148435 0.079315 -0.061557 0.042168 0.270779 0.316940 0.217170 0.365462 0.325214 0.246888 0.155576 0.507150 0.456749 0.334977 0.155499 0.216995 -0.175894
0.072396 0.072920 0.074493 0.077113 0.080781 0.085495 0.091254 0.098056 0.105899 0.114780 0.124694 0.135638 0.147605 0.160588 0.174579 0.189566 0.205539 0.222481 0.240378 0.259208 0.278950 0.299578 0.321063 0.343371 0.366465 0.390304 0.414841 0.440023 0.465795 0.492093 0.518848 0.545985 0.573423 0.601072 0.628838 0.656617 0.684299 0.711767 0.738896 0.765554 0.791601 0.816891 0.841268 0.864573 0.886640 0.907295 0.926362 0.943659 0.958999 0.972196 0.983060 0.991400 0.997029 0.999760 0.999411 0.995806 0.988778 0.978166 0.963826 0.945624 0.923444 0.897189 0.866782 0.832172 0.793331 0.750262 0.702998 0.651605 0.596186 0.536880 0.473866 0.407363 0.337636 0.264988 0.189770 0.112375 0.033240 0.047153 0.128285 0.209593 0.290482 0.370319 0.448446 0.524179 0.596815 0.665641 0.729938 0.788988 0.842087 0.888549 0.927720 0.958983 0.981773 0.995587 0.999991 0.994634 0.979257 0.953704 0.917929 0.872005 0.816134 0.750649 0.676018 0.592853 0.501902 0.404055 0.300335 0.191892 0.080000 0.033964 0.148526 0.262138 0.373191 0.480046 0.581051 0.674570 0.759013 0.832864 0.894709 0.943271 0.977437 0.996291 0.999136 0.985528 0.955289 0.908534 0.845679 0.767452 0.674900 0.569377 0.452545 0.326345 0.192982 0.054888 0.085317 0.224868 0.360913 0.490564 0.610964 0.719353 0.813132 0.889937 0.947701 0.984719 0.999707 0.991857 0.960875 0.907016 0.831104 0.734538 0.619283 0.487848 0.343240 0.188913 0.028691 0.133318 0.292824 0.445465 0.586927 0.713075 0.820075 0.904523 0.963566 0.995010 0.997414 0.970173 0.913567 0.828791 0.717959 0.584074 0.430962 0.263191 0.085939 0.095144 0.274117 0.444941 0.601673 0.738696 0.850914 0.933969 0.984422 0.999915 0.979305 0.922750 0.831754 0.709163 0.559111 0.386896 0.198827 0.002008 0.195920 0.387068 0.563616 0.718131 0.843906 0.935256 0.987810 0.998737 0.966935 0.893132 0.779923 0.631724 0.454632 0.256200 0.045153 0.168988 0.376326 0.567034 0.731846 0.862508 0.952222 0.996034 0.991136 0.937080 0.835882 0.691998 0.512178 0.305185 0.081404 0.147652 0.369930 0.573462 0.747020 0.880759 0.966803 0.999749 0.977050 0.899246 0.770034 0.596148 0.387061 0.154516 0.088101 0.326521 0.546416 0.734267 0.878229 0.968903 1.000000 0.968830 0.876574 0.728330 0.532893 0.302293 0.051107 0.204440 0.447495 0.661701 0.832308 0.947231 0.997950 0.980207 0.894417 0.745773 0.544016 0.302851 0.039088 0.228500 0.480495 0.698257 0.865298 0.968612 0.999720 0.955448 0.838314 0.656475 0.423261 0.156252 0.123982 0.395444 0.636424 0.827256 0.951970 0.999694 0.965675 0.851830 0.666766 0.425219 0.146960 0.144758 0.425108 0.669804 0.857226 0.970386 0.998540 0.938301 0.794122 0.578094 0.309025 0.010896 0.289237 0.563654 0.786567 0.936569 0.998772 0.966384 0.841547 0.635347 0.366947 0.061900 0.250208 0.538610 0.774373 0.933378 0.998846 0.963221 0.829160 0.609481 0.326085 0.007861 0.312180 0.600309 0.825641 0.963515 0.998284 0.925213 0.751240 0.494476 0.182445 0.150759 0.468151 0.733942 0.917629 0.997571 0.963676 0.818804 0.578719 0.270524 0.070274 0.403788 0.690390 0.895455 0.993637 0.972127 0.832476 0.590706 0.275638 0.074411 0.416200 0.706894 0.909459 0.997489 0.958783 0.797205 0.532510 0.198103 0.163040 0.503819 0.779150 0.951984 0.998418 0.911160 0.700853 0.394974 0.034436 0.331804 0.653287 0.885084 0.994139 0.964159 0.798229 0.518751 0.164624
1.000000 1.000000 1.000000 1.000000 1.000000 1.000000 1.000000 1.000000 1.000000 1.000000 1.000000 1.000000 1.000000 1.000000 1.000000 1.000000 1.000000 1.000000 1.000000 1.000000 1.000000 1.000000 1.000000 1.000000 1.000000 1.000000 1.000000 1.000000 1.000000 1.000000 1.000000 1.000000 1.000000 1.000000 1.000000 1.000000 1.000000 1.000000 1.000000 1.000000 1.000000 1.000000 1.000000 1.000000 1.000000 1.000000 1.000000 1.000000 1.000000 1.000000 1.000000 1.000000 0.946665 0.946665 0.949051 0.949051 0.949051 0.949051 0.949051 0.949051 0.949051 0.949051 0.949051 0.949051 0.949051 0.949051 0.949051 0.949051 0.949051 0.949051 0.949051 0.949051 0.949051 0.949051 0.949051 0.949051 0.949051 0.949051 0.949051 0.949051 0.949051 0.949051 0.949051 0.949051 0.949051 0.949051 0.949051 0.949051 0.949051 0.949051 0.949051 0.949051 0.949051 0.949051 0.937465 0.944079 0.945861 0.946462 0.946268 0.946216 0.945663 0.945154 0.948351 0.954569 0.955110 0.955949 0.958845 0.962212 0.965407 0.966541 0.968217 0.968907 0.968910 0.968433 0.968918 0.967070 0.964892 0.959493 0.962106 0.962071 0.959669 0.959595 0.963736 0.963853 0.960644 0.959580 0.958657 0.958402 0.957964 0.958037 0.958699 0.958840 0.959406 0.958545 0.955876 0.954316 0.953988 0.953942 0.954527 0.956039 0.955845 0.951054 0.948994 0.948100 0.945581 0.947334 0.949378 0.948915 0.948080 0.948443 0.948610 0.948576 0.948685 0.937756 0.926446 0.921495 0.910828 0.910344 0.914742 0.919642 0.923019 0.917033 0.915976 0.903709 0.906862 0.894582 0.889684 0.884699 0.887531 0.889527 0.881688 0.875749 0.865702 0.854479 0.851888 0.844333 0.846593 0.850441 0.847108 0.840740 0.838768 0.835561 0.823937 0.818157 0.818876 0.797550 0.807125 0.803330 0.803483 0.808594 0.815993 0.820121 0.817508 0.810755 0.801047 0.798172 0.786793 0.748816 0.708081 0.711615 0.701983 0.689375 0.693206 0.662852 0.660134 0.653633 0.645779 0.645449 0.604009 0.602785 0.575510 0.574723 0.576702 0.560067 0.528518 0.538951 0.541783 0.520960 0.502612 0.483723 0.478725 0.441974 0.462931 0.472119 0.473915 0.458693 0.436910 0.402287 0.423506 0.415459 0.419907 0.417677 0.431950 0.432492 0.428238 0.411930 0.414771 0.413186 0.409333 0.410541 0.407742 0.350438 0.307946 0.302524 0.283807 0.258504 0.187785 0.163996 0.156385 0.150296 0.158119 0.157588 0.133553 0.161330 0.148946 0.157649 0.165766 0.155995 0.162459 0.107271 0.114826 0.116968 0.036784 0.040159 0.035626 0.007524 0.011355 -0.024513 -0.011445 -0.024152 0.003974 -0.017608 -0.010582 -0.037768 -0.091070 -0.094481 -0.066961 -0.110892 -0.106091 -0.109874 -0.101931 -0.100779 -0.114508 -0.207655 -0.066191 -0.064701 -0.057393 -0.128818 -0.127671 -0.127691 -0.135727 -0.151052 -0.180827 -0.220879 -0.240774 -0.231827 -0.296988 -0.266688 -0.252548 -0.251802 -0.223099 -0.225469 -0.193658 -0.210523 -0.184739 -0.200450 -0.168882 -0.184979 -0.177459 -0.134011 -0.159085 -0.159235 -0.148729 -0.139647 -0.121495 -0.119590 -0.049780 -0.059935 -0.065141 -0.070879 -0.049263 -0.029332 -0.024125 -0.032724 -0.003293 0.015842 0.040008 0.038386 0.051762 -0.001888 0.021975 0.010900 0.018919 0.074197 0.074197 0.074197 0.074197 0.074197 0.074197 0.074197 0.074197 0.074197 0.040734 0.040734 0.040734 0.040734 0.040734 0.040734 0.040734 0.040734 0.082985 0.082985 0.082985 0.082985 0.082985 0.082985 0.082985 0.082985 0.082985 0.082985 0.082985 0.082985 0.082985
0.000000 0.000000 0.000000 0.000000 0.000000 0.000000 0.000000 0.000000 0.000000 0.000000 0.000000 0.000000 0.000000 0.000000 0.000000 0.000000 0.000000 0.000000 0.000000 0.000000 0.000000 9401.000000 0.000000 0.000000 0.000000 0.000000 0.000000 0.000000 0.000000 0.000000 0.000000 0.000000 0.000000 0.000000 0.000000 0.000000 0.000000 0.000000 0.000000 0.000000 0.000000 0.000000 0.000000 0.000000 0.000000 0.000000 0.000000 0.000000 0.000000 0.000000 0.000000 0.000000 0.181818 0.181818 0.201008 0.201008 0.201008 0.201008 0.201008 0.201008 0.201008 0.201008 0.201008 0.201008 0.201008 0.201008 0.201008 0.201008 0.201008 0.201008 0.201008 0.201008 0.201008 0.201008 0.201008 0.201008 0.201008 0.201008 0.201008 0.201008 0.201008 0.201008 0.201008 0.201008 0.201008 0.201008 0.201008 0.201008 0.201008 0.201008 0.201008 0.201008 0.201008 0.201008 0.230940 0.230940 0.230940 0.230940 0.230940 0.230940 0.230940 0.230940 0.230940 0.230940 0.230940 0.230940 0.230940 0.230940 0.230940 0.230940 0.230940 0.230940 0.230940 0.230940 0.230940 0.230940 0.230940 0.230940 0.230940 0.230940 0.230940 0.230940 0.244339 0.244339 0.244339 0.244339 0.244339 0.244339 0.244339 0.244339 0.244339 0.244339 0.244339 0.244339 0.244339 0.244339 0.244339 0.244339 0.244339 0.244339 0.244339 0.244339 0.244339 0.244339 0.244339 0.256074 0.256074 0.256074 0.256074 0.256074 0.256074 0.256074 0.256074 0.256074 0.256074 0.256074 0.256074 0.256074 0.256074 0.256074 0.256074 0.256074 0.256074 0.256074 0.264906 0.264906 0.264906 0.264906 0.264906 0.264906 0.264906 0.264906 0.264906 0.264906 0.264906 0.264906 0.264906 0.264906 0.264906 0.264906 0.264906 0.264906 0.264906 0.264906 0.264906 0.264906 0.264906 0.264906 0.264906 0.264906 0.264906 0.264906 0.264906 0.264906 0.264906 0.264906 0.264906 0.264906 0.264906 0.264906 0.264906 0.264906 0.264906 0.264906 0.264906 0.264906 0.264906 0.264906 0.264906 0.264906 0.264906 0.264906 0.264906 0.264906 0.264906 0.264906 0.264906 0.264906 0.264906 0.264906 0.264906 0.264906 0.264906 0.264906 0.264906 0.264906 0.264906 0.264906 0.264906 0.264906 0.264906 0.264906 0.264906 0.264906 0.264906 0.264906 0.264906 0.264906 0.264906 0.269680 0.269680 0.269680 0.269680 0.269680 0.269680 0.269680 0.269680 0.269680 0.269680 0.269680 0.269680 0.274721 0.274721 0.274721 0.274721 0.274721 0.274721 0.274721 0.274721 0.274721 0.274721 0.274721 0.260378 0.260378 0.260378 0.260378 0.260378 0.260378 0.260378 0.260378 0.260378 0.260378 0.260378 0.260378 0.274721 0.274721 0.274721 0.274721 0.274721 0.274721 0.274721 0.274721 0.274721 0.274721 0.256074 0.256074 0.256074 0.256074 0.256074 0.256074 0.256074 0.256074 0.256074 0.256074 0.256074 0.264906 0.264906 0.264906 0.264906 0.264906 0.264906 0.264906 0.264906 0.264906 0.264906 0.269680 0.269680 0.269680 0.269680 0.269680 0.269680 0.269680 0.269680 0.269680 0.256074 0.256074 0.256074 0.256074 0.256074 0.256074 0.256074 0.256074 0.256074 0.256074 0.260378 0.260378 0.260378 0.260378 0.260378 0.260378 0.260378 0.260378 0.260378 0.256074 0.256074 0.256074 0.256074 0.256074 0.256074 0.256074 0.256074 0.256074 0.269680 0.269680 0.269680 0.269680 0.269680 0.269680 0.269680 0.269680 0.248069 0.248069 0.248069 0.248069 0.248069 0.248069 0.248069 0.248069 0.248069 0.248069 0.248069 0.248069 0.248069
