# Output from CTFFind version 4.1.9, run on 2019-11-03 18:51:30
# Input file: stack19_ub_averaged_750.mrc ; Number of micrographs: 1
# Pixel size: 3.000 Angstroms ; acceleration voltage: 300.0 keV ; spherical aberration: 0.00 mm ; amplitude contrast: 0.07
# Box size: 512 pixels ; min. res.: 30.0 Angstroms ; max. res.: 5.0 Angstroms ; min. def.: 5000.0 um; max. def. 50000.0 um; num. frames averaged: 1
# 6 lines per micrograph: #1 - spatial frequency (1/Angstroms); #2 - 1D rotational average of spectrum (assuming no astigmatism); #3 - 1D rotational average of spectrum; #4 - CTF fit; #5 - cross-correlation between spectrum and CTF fit; #6 - 2sigma of expected cross correlation of noise
0.000000 0.000651 0.001302 0.001953 0.002604 0.003255 0.003906 0.004557 0.005208 0.005859 0.006510 0.007161 0.007812 0.008464 0.009115 0.009766 0.010417 0.011068 0.011719 0.012370 0.013021 0.013672 0.014323 0.014974 0.015625 0.016276 0.016927 0.017578 0.018229 0.018880 0.019531 0.020182 0.020833 0.021484 0.022135 0.022786 0.023438 0.024089 0.024740 0.025391 0.026042 0.026693 0.027344 0.027995 0.028646 0.029297 0.029948 0.030599 0.031250 0.031901 0.032552 0.033203 0.033854 0.034505 0.035156 0.035807 0.036458 0.037109 0.037760 0.038411 0.039062 0.039714 0.040365 0.041016 0.041667 0.042318 0.042969 0.043620 0.044271 0.044922 0.045573 0.046224 0.046875 0.047526 0.048177 0.048828 0.049479 0.050130 0.050781 0.051432 0.052083 0.052734 0.053385 0.054036 0.054688 0.055339 0.055990 0.056641 0.057292 0.057943 0.058594 0.059245 0.059896 0.060547 0.061198 0.061849 0.062500 0.063151 0.063802 0.064453 0.065104 0.065755 0.066406 0.067057 0.067708 0.068359 0.069010 0.069661 0.070312 0.070964 0.071615 0.072266 0.072917 0.073568 0.074219 0.074870 0.075521 0.076172 0.076823 0.077474 0.078125 0.078776 0.079427 0.080078 0.080729 0.081380 0.082031 0.082682 0.083333 0.083984 0.084635 0.085286 0.085938 0.086589 0.087240 0.087891 0.088542 0.089193 0.089844 0.090495 0.091146 0.091797 0.092448 0.093099 0.093750 0.094401 0.095052 0.095703 0.096354 0.097005 0.097656 0.098307 0.098958 0.099609 0.100260 0.100911 0.101562 0.102214 0.102865 0.103516 0.104167 0.104818 0.105469 0.106120 0.106771 0.107422 0.108073 0.108724 0.109375 0.110026 0.110677 0.111328 0.111979 0.112630 0.113281 0.113932 0.114583 0.115234 0.115885 0.116536 0.117188 0.117839 0.118490 0.119141 0.119792 0.120443 0.121094 0.121745 0.122396 0.123047 0.123698 0.124349 0.125000 0.125651 0.126302 0.126953 0.127604 0.128255 0.128906 0.129557 0.130208 0.130859 0.131510 0.132161 0.132812 0.133464 0.134115 0.134766 0.135417 0.136068 0.136719 0.137370 0.138021 0.138672 0.139323 0.139974 0.140625 0.141276 0.141927 0.142578 0.143229 0.143880 0.144531 0.145182 0.145833 0.146484 0.147135 0.147786 0.148438 0.149089 0.149740 0.150391 0.151042 0.151693 0.152344 0.152995 0.153646 0.154297 0.154948 0.155599 0.156250 0.156901 0.157552 0.158203 0.158854 0.159505 0.160156 0.160807 0.161458 0.162109 0.162760 0.163411 0.164062 0.164714 0.165365 0.166016 0.166667 0.167318 0.167969 0.168620 0.169271 0.169922 0.170573 0.171224 0.171875 0.172526 0.173177 0.173828 0.174479 0.175130 0.175781 0.176432 0.177083 0.177734 0.178385 0.179036 0.179688 0.180339 0.180990 0.181641 0.182292 0.182943 0.183594 0.184245 0.184896 0.185547 0.186198 0.186849 0.187500 0.188151 0.188802 0.189453 0.190104 0.190755 0.191406 0.192057 0.192708 0.193359 0.194010 0.194661 0.195312 0.195964 0.196615 0.197266 0.197917 0.198568 0.199219 0.199870 0.200521 0.201172 0.201823 0.202474 0.203125 0.203776 0.204427 0.205078 0.205729 0.206380 0.207031 0.207682 0.208333 0.208984 0.209635 0.210286 0.210938 0.211589 0.212240 0.212891 0.213542 0.214193 0.214844 0.215495 0.216146 0.216797 0.217448 0.218099 0.218750 0.219401 0.220052 0.220703 0.221354 0.222005 0.222656 0.223307 0.223958 0.224609 0.225260 0.225911 0.226562 0.227214 0.227865 0.228516 0.229167 0.229818 0.230469 0.231120 0.231771 0.232422 0.233073 0.233724 0.234375 0.235026 0.235677
       0.32269        0.32269        0.32269        0.32269        0.32269        0.32269        0.32269        0.32269        0.32269        0.32269        0.32269        0.32269        0.32269        0.32269        0.32269        0.32269        0.32269        0.32269        0.32269        0.32269        0.32269        0.32269        0.32269        0.32269        0.32269        0.32269        0.32269        0.32269        0.32269        0.32269        0.32269        0.32269        0.32269        0.32269        0.32269        0.32269        0.32269        0.32269        0.32269        0.32269        0.32269        0.32269        0.32269        0.32269        0.32269        0.32269        0.32269        0.32269        0.32269        0.32269        0.32269        0.63243        0.80062        0.36255        0.18155       -0.11685       -0.27507       -0.28951       -0.04139       -0.13296        0.10761        0.01519       -0.04093       -0.06468       -0.12922       -0.24938       -0.37502       -0.44564       -0.45983       -0.45298       -0.45843       -0.50598       -0.51952       -0.51107       -0.54267       -0.54205       -0.63448       -0.53454       -0.57092       -0.50232       -0.47559       -0.32598       -0.27686       -0.11648       -0.06960        0.08383        0.17023        0.21907        0.27346        0.26992        0.47755        0.57096        0.54724        0.52412        0.63802        0.65034        0.74021        0.82480        0.79807        0.64674        0.53879        0.49390        0.35998        0.26871        0.17883        0.12824        0.11054        0.00148       -0.09241        0.02477       -0.01284       -0.08238       -0.04405        0.04802        0.09404        0.15642        0.24198        0.39528        0.53053        0.47915        0.64235        0.62672        0.69224        0.70750        0.67432        0.55997        0.58829        0.56929        0.51395        0.44295        0.30153        0.25961        0.13548        0.06124        0.05947        0.02314        0.14437        0.15747        0.13077        0.21571        0.31732        0.46377        0.50832        0.45743        0.62060        0.56104        0.59772        0.54527        0.59186        0.46382        0.39528        0.34709        0.24903        0.15308        0.11528        0.13485        0.10716        0.13101        0.23563        0.23450        0.30020        0.33832        0.35836        0.43545        0.49335        0.51248        0.49023        0.47262        0.35644        0.35199        0.28852        0.31439        0.22934        0.17410        0.17570        0.21857        0.27729        0.22519        0.24897        0.36689        0.42197        0.46721        0.53767        0.50053        0.42871        0.41305        0.34544        0.37080        0.34541        0.27499        0.22706        0.22492        0.27006        0.26084        0.34768        0.37361        0.39238        0.40405        0.41360        0.39842        0.42189        0.37947        0.31520        0.27996        0.23792        0.25124        0.21161        0.23980        0.26288        0.30504        0.35016        0.34384        0.38660        0.42021        0.42188        0.40055        0.38454        0.34231        0.33516        0.29295        0.25445        0.23363        0.23722        0.28939        0.35819        0.36389        0.39052        0.40185        0.37477        0.39613        0.31581        0.27907        0.25942        0.26532        0.28185        0.28553        0.31445        0.32683        0.34261        0.33891        0.34613        0.30049        0.30655        0.30852        0.25432        0.29460        0.24107        0.27676        0.27426        0.27521        0.28948        0.32707        0.32652        0.34008        0.31335        0.31002        0.27799        0.26866        0.28242        0.25462        0.27123        0.28918        0.31472        0.33649        0.32582        0.36017        0.34654        0.31137        0.30657        0.27095        0.28608        0.26830        0.29266        0.33066        0.33936        0.30822        0.33462        0.29149        0.29547        0.30401        0.28574        0.29908        0.31782        0.31606        0.29748        0.31343        0.30596        0.35698        0.33284        0.29897        0.26762        0.25974        0.28211        0.32578        0.26286        0.24378        0.29368        0.32016        0.28738        0.32532        0.30692        0.33658        0.30354        0.27304        0.23421        0.29366        0.32409        0.25096        0.31332        0.30996        0.32490        0.22088        0.28077        0.32268        0.32964        0.22330        0.28786        0.25501        0.27485        0.29406        0.28311        0.20418        0.21286        0.24522        0.25732        0.30792        0.25077        0.22489        0.24921        0.27632        0.23661        0.26353        0.19948        0.25193        0.21111        0.30007        0.28116        0.26182        0.25959        0.26748        0.24095        0.31074        0.25364        0.30004        0.23527        0.21937        0.24500        0.24401        0.27864        0.29169        0.15198        0.15661        0.13548        0.35186        0.24315        0.14153        0.15492        0.13983        0.02243        0.29200        0.37973       -0.26556       -0.44120
2.653907 2.625792 2.597835 2.570035 2.542392 2.514907 2.487578 2.460406 2.433392 2.406535 2.379834 2.353291 2.326905 2.300676 2.274604 2.248690 2.222932 2.197332 2.171888 2.146602 2.121473 2.096500 2.071686 2.047028 2.022527 1.998183 1.973997 1.949967 1.926095 1.902379 1.878821 1.855420 1.832176 1.809089 1.786160 1.763387 1.740771 1.718313 1.696012 1.673867 1.651880 1.630050 1.608377 1.586861 1.565503 1.544301 1.523257 1.502369 1.481639 1.461066 1.440650 1.545055 2.260163 1.386502 1.086357 0.773370 0.701348 0.484156 0.929366 0.699887 0.983558 0.932928 0.646620 0.747204 0.680551 0.521387 0.272376 0.245472 0.106440 0.193306 0.185840 0.042937 -0.033638 0.041414 -0.023622 -0.012030 -0.209702 -0.066527 -0.169832 -0.067595 -0.093405 0.106786 0.110112 0.278192 0.381294 0.466626 0.664537 0.631052 0.728064 0.629261 0.905020 1.036728 1.005449 0.951028 1.051522 1.052067 1.126053 1.308663 1.212812 1.097234 0.872701 0.858202 0.649929 0.588813 0.391853 0.302259 0.371002 0.172275 0.035843 0.131361 0.155026 -0.071834 0.048632 0.140647 0.162217 0.277497 0.239086 0.423242 0.700867 0.617501 0.708210 0.718848 0.821265 0.823573 0.819569 0.645219 0.693679 0.626217 0.590093 0.484572 0.388343 0.224431 0.148507 -0.028891 -0.028360 -0.039175 -0.058871 0.128942 0.043439 0.060571 0.164535 0.317036 0.536420 0.330255 0.507166 0.553405 0.537851 0.530506 0.557261 0.428262 0.301650 0.265750 0.163693 0.038915 -0.077760 -0.027919 -0.048736 -0.111036 0.086778 0.035482 0.113771 0.172374 0.212248 0.234148 0.333133 0.391188 0.465474 0.414281 0.341024 0.237560 0.167357 0.242238 0.131548 0.051816 -0.017852 0.047974 0.103428 0.135216 0.055645 0.184072 0.278580 0.291600 0.447250 0.399248 0.280764 0.326499 0.200406 0.210389 0.204484 0.134843 0.062315 0.011011 0.109649 0.047014 0.106533 0.206335 0.204789 0.256055 0.217446 0.253960 0.240499 0.217077 0.122765 0.127597 0.024251 0.052234 0.009951 0.010198 -0.006185 0.089739 0.110223 0.147731 0.142784 0.211319 0.210446 0.226544 0.198109 0.132399 0.103460 0.115615 0.032208 -0.012003 -0.000959 -0.015389 0.117380 0.128761 0.140887 0.193518 0.183856 0.156099 0.174147 0.040021 0.028259 0.037616 0.013318 0.063949 0.041280 0.107304 0.087493 0.119331 0.133587 0.103928 0.064202 0.094625 0.041648 0.035503 0.059586 -0.006691 0.052427 0.028065 0.043777 0.063621 0.098297 0.111953 0.071738 0.088886 0.054084 0.025716 0.036654 -0.013252 0.027915 0.047521 0.036933 0.079061 0.080778 0.123432 0.127662 0.112569 0.054133 0.053545 0.005309 0.047158 0.023092 0.021133 0.113195 0.079936 0.020554 0.112477 -0.043810 0.041045 0.019539 0.007999 0.023647 0.035681 0.015673 0.043619 0.028664 0.053374 0.062932 0.057595 0.009599 -0.024370 -0.025275 -0.011904 0.065446 -0.047307 -0.004033 0.023343 0.048521 0.008078 0.081158 0.063661 0.060719 0.022693 0.018963 -0.054548 0.035393 0.139569 0.021466 0.115876 0.095364 0.101091 -0.029167 0.072461 0.129987 0.101875 -0.034365 0.122068 0.045170 0.043127 0.102366 0.080514 -0.024614 -0.018922 0.039562 0.018342 0.097427 0.035861 -0.047283 0.049056 0.041595 -0.026900 0.050541 -0.085134 0.058912 -0.012752 0.062989 0.031348 -0.015088 -0.019618 0.051663 -0.015590 0.050812 -0.005433 0.025945 -0.051899 -0.029615 -0.021462 -0.008166 0.056651 0.017372 -0.110035 -0.131847 -0.262665 0.421855 0.274060 0.169476 0.199648 0.250435 0.012463 0.341134 0.464496 -0.527772
0.072396 0.072910 0.074451 0.077018 0.080612 0.085231 0.090874 0.097539 0.105225 0.113927 0.123643 0.134368 0.146096 0.158820 0.172533 0.187224 0.202883 0.219494 0.237043 0.255511 0.274877 0.295116 0.316201 0.338100 0.360779 0.384197 0.408311 0.433073 0.458427 0.484314 0.510671 0.537425 0.564498 0.591809 0.619265 0.646770 0.674219 0.701502 0.728499 0.755085 0.781127 0.806486 0.831015 0.854561 0.876965 0.898063 0.917684 0.935654 0.951794 0.965924 0.977859 0.987417 0.994412 0.998665 0.999994 0.998227 0.993196 0.984741 0.972714 0.956977 0.937409 0.913903 0.886373 0.854753 0.819002 0.779103 0.735069 0.686942 0.634798 0.578746 0.518935 0.455549 0.388813 0.318994 0.246397 0.171375 0.094319 0.015663 0.064118 0.144510 0.224962 0.304887 0.383669 0.460663 0.535203 0.606605 0.674177 0.737219 0.795039 0.846953 0.892300 0.930447 0.960801 0.982817 0.996012 0.999968 0.994349 0.978906 0.953490 0.918058 0.872682 0.817555 0.752998 0.679462 0.597535 0.507936 0.411520 0.309270 0.202293 0.091813 0.020843 0.134254 0.246926 0.357307 0.463809 0.564829 0.658777 0.744101 0.819315 0.883026 0.933967 0.971023 0.993259 0.999950 0.990602 0.964976 0.923108 0.865321 0.792236 0.704776 0.604168 0.491929 0.369859 0.240015 0.104682 0.033656 0.172363 0.308699 0.439868 0.563080 0.675612 0.774872 0.858459 0.924238 0.970390 0.995480 0.998502 0.978929 0.936749 0.872486 0.787216 0.682563 0.560689 0.424256 0.276388 0.120603 0.039260 0.199127 0.354793 0.502035 0.636720 0.754934 0.853101 0.928100 0.977377 0.999046 0.991973 0.955841 0.891199 0.799477 0.682982 0.544858 0.389025 0.220079 0.043175 0.136125 0.312017 0.478646 0.630299 0.761611 0.867763 0.944675 0.989179 0.999171 0.973727 0.913182 0.819167 0.694596 0.543610 0.371455 0.184328 0.010830 0.206578 0.395262 0.569306 0.721522 0.845428 0.935532 0.987606 0.998903 0.968331 0.896560 0.786050 0.641012 0.467277 0.272096 0.063861 0.148245 0.354633 0.545745 0.712508 0.846770 0.941728 0.992299 0.995422 0.950282 0.858415 0.723718 0.552322 0.352358 0.133601 0.092981 0.315765 0.523063 0.703740 0.847833 0.947125 0.995647 0.990078 0.930016 0.818082 0.659874 0.463732 0.240349 0.002218 0.237041 0.463453 0.663498 0.824950 0.937638 0.994137 0.990302 0.925619 0.803345 0.630412 0.417093 0.176448 0.076446 0.325413 0.554205 0.747570 0.892298 0.978169 0.998713 0.951768 0.839742 0.669578 0.452388 0.202797 0.062005 0.323408 0.562699 0.762388 0.907534 0.986904 0.993910 0.927214 0.790979 0.594689 0.352575 0.082635 0.194638 0.457815 0.686172 0.861350 0.968879 0.999435 0.949728 0.822925 0.628543 0.381844 0.102692 0.185985 0.460050 0.696180 0.873867 0.977268 0.996683 0.929552 0.780859 0.562868 0.294216 0.001616 0.298283 0.568927 0.788608 0.936639 0.998623 0.967930 0.846512 0.644912 0.381475 0.080757 0.228694 0.517000 0.755871 0.921393 0.996520 0.972913 0.851980 0.644958 0.371986 0.060265 0.258606 0.551770 0.788537 0.943618 0.999935 0.950602 0.799891 0.563010 0.264710 0.063201 0.385198 0.665850 0.873754 0.985132 0.986640 0.877118 0.667963 0.382110 0.051636 0.285749 0.590975 0.828138 0.968794 0.995482 0.904032 0.704332 0.419434 0.083037 0.264405 0.580495 0.826080 0.970168 0.993960 0.893447 0.680220 0.380312 0.031170 0.322921 0.636409 0.868358 0.987883 0.978389 0.840052 0.590125 0.260955 0.104025 0.455983 0.747149 0.937399 0.999862
1.000000 1.000000 1.000000 1.000000 1.000000 1.000000 1.000000 1.000000 1.000000 1.000000 1.000000 1.000000 1.000000 1.000000 1.000000 1.000000 1.000000 1.000000 1.000000 1.000000 1.000000 1.000000 1.000000 1.000000 1.000000 1.000000 1.000000 1.000000 1.000000 1.000000 1.000000 1.000000 1.000000 1.000000 1.000000 1.000000 1.000000 1.000000 1.000000 1.000000 1.000000 1.000000 1.000000 1.000000 1.000000 1.000000 1.000000 1.000000 1.000000 1.000000 1.000000 1.000000 0.939572 0.939572 0.940746 0.940746 0.940746 0.940746 0.940746 0.940746 0.940746 0.940746 0.940746 0.940746 0.940746 0.940746 0.940746 0.940746 0.940746 0.940746 0.940746 0.940746 0.940746 0.940746 0.940746 0.940746 0.940746 0.940746 0.940746 0.940746 0.940746 0.940746 0.940746 0.940746 0.940746 0.940746 0.940746 0.940746 0.940746 0.940746 0.940746 0.940746 0.940746 0.940746 0.940746 0.944842 0.942634 0.942659 0.943413 0.944224 0.938380 0.937357 0.936659 0.936424 0.936996 0.937351 0.944534 0.945917 0.947055 0.949998 0.956517 0.957429 0.957652 0.959490 0.958195 0.958345 0.956558 0.952782 0.950742 0.951737 0.953095 0.952086 0.950963 0.953651 0.954775 0.953071 0.950868 0.949969 0.950242 0.950201 0.950094 0.950069 0.949892 0.950467 0.951040 0.951405 0.949756 0.947524 0.944718 0.945990 0.948783 0.951160 0.953351 0.947414 0.947030 0.940096 0.942675 0.939518 0.939527 0.939957 0.941219 0.941896 0.941370 0.931080 0.928125 0.915562 0.910248 0.909088 0.908792 0.911190 0.915946 0.917336 0.913348 0.907464 0.904158 0.896629 0.907858 0.904521 0.896585 0.891605 0.892078 0.895594 0.896116 0.895295 0.887779 0.884734 0.876733 0.877817 0.882161 0.886029 0.882694 0.882694 0.880968 0.879404 0.877999 0.878846 0.878352 0.884363 0.884129 0.884910 0.885476 0.878190 0.878716 0.882539 0.880682 0.865342 0.862502 0.859940 0.858936 0.863233 0.875310 0.876045 0.873096 0.853861 0.850858 0.867419 0.883329 0.882928 0.884555 0.885122 0.878429 0.873795 0.872859 0.876060 0.867202 0.871911 0.870549 0.871845 0.856558 0.859287 0.849339 0.848979 0.843498 0.841191 0.844871 0.850646 0.851482 0.849022 0.845595 0.843421 0.832056 0.840980 0.839844 0.841682 0.836812 0.833362 0.825463 0.828172 0.828067 0.826118 0.825773 0.823169 0.816859 0.823441 0.817143 0.816165 0.804156 0.813273 0.810744 0.784843 0.782222 0.751804 0.751195 0.743694 0.733578 0.728939 0.718358 0.709521 0.706165 0.713741 0.729506 0.727111 0.717982 0.704541 0.704475 0.703637 0.714236 0.694949 0.646263 0.623762 0.631518 0.636326 0.635667 0.617485 0.595092 0.512474 0.503271 0.472165 0.471341 0.491966 0.476374 0.472017 0.454667 0.436080 0.460489 0.451441 0.437733 0.415342 0.403214 0.395748 0.351832 0.327910 0.365337 0.380778 0.373475 0.359252 0.360338 0.351850 0.336471 0.305997 0.279361 0.268866 0.263056 0.267252 0.246424 0.256808 0.245133 0.228650 0.255202 0.248798 0.254071 0.201141 0.212434 0.206905 0.200024 0.213345 0.200728 0.181857 0.155838 0.156122 0.133930 0.047836 0.020870 0.025961 0.017977 -0.001390 0.020007 0.024094 0.017082 0.016244 0.028501 0.047467 0.069411 0.012708 0.010196 0.010196 -0.030091 -0.030091 -0.030091 -0.030091 -0.030091 -0.030091 -0.030091 -0.030091 -0.030091 -0.029289 -0.029289 -0.029289 -0.029289 -0.029289 -0.029289 -0.029289 -0.029289 -0.029289 0.013897 0.013897 0.013897 0.013897 0.013897 0.013897 0.013897 0.013897 0.013897
0.000000 0.000000 0.000000 0.000000 0.000000 0.000000 0.000000 0.000000 0.000000 0.000000 0.000000 0.000000 0.000000 0.000000 0.000000 0.000000 0.000000 0.000000 0.000000 0.000000 0.000000 9401.000000 0.000000 0.000000 0.000000 0.000000 0.000000 0.000000 0.000000 0.000000 0.000000 0.000000 0.000000 0.000000 0.000000 0.000000 0.000000 0.000000 0.000000 0.000000 0.000000 0.000000 0.000000 0.000000 0.000000 0.000000 0.000000 0.000000 0.000000 0.000000 0.000000 0.000000 0.181818 0.181818 0.199007 0.199007 0.199007 0.199007 0.199007 0.199007 0.199007 0.199007 0.199007 0.199007 0.199007 0.199007 0.199007 0.199007 0.199007 0.199007 0.199007 0.199007 0.199007 0.199007 0.199007 0.199007 0.199007 0.199007 0.199007 0.199007 0.199007 0.199007 0.199007 0.199007 0.199007 0.199007 0.199007 0.199007 0.199007 0.199007 0.199007 0.199007 0.199007 0.199007 0.199007 0.230940 0.230940 0.230940 0.230940 0.230940 0.230940 0.230940 0.230940 0.230940 0.230940 0.230940 0.230940 0.230940 0.230940 0.230940 0.230940 0.230940 0.230940 0.230940 0.230940 0.230940 0.230940 0.230940 0.230940 0.230940 0.230940 0.230940 0.230940 0.244339 0.244339 0.244339 0.244339 0.244339 0.244339 0.244339 0.244339 0.244339 0.244339 0.244339 0.244339 0.244339 0.244339 0.244339 0.244339 0.244339 0.244339 0.244339 0.244339 0.244339 0.244339 0.244339 0.251976 0.251976 0.251976 0.251976 0.251976 0.251976 0.251976 0.251976 0.251976 0.251976 0.251976 0.251976 0.251976 0.251976 0.251976 0.251976 0.251976 0.251976 0.251976 0.251976 0.264906 0.264906 0.264906 0.264906 0.264906 0.264906 0.264906 0.264906 0.264906 0.264906 0.264906 0.264906 0.264906 0.264906 0.264906 0.264906 0.264906 0.264906 0.264906 0.264906 0.264906 0.264906 0.264906 0.264906 0.264906 0.264906 0.264906 0.264906 0.264906 0.264906 0.264906 0.264906 0.264906 0.264906 0.264906 0.264906 0.264906 0.264906 0.264906 0.264906 0.264906 0.264906 0.264906 0.264906 0.264906 0.264906 0.264906 0.264906 0.264906 0.264906 0.264906 0.264906 0.264906 0.264906 0.264906 0.264906 0.264906 0.264906 0.264906 0.264906 0.264906 0.264906 0.264906 0.264906 0.264906 0.264906 0.264906 0.264906 0.264906 0.264906 0.264906 0.264906 0.264906 0.264906 0.264906 0.269680 0.269680 0.269680 0.269680 0.269680 0.269680 0.269680 0.269680 0.269680 0.269680 0.269680 0.269680 0.264906 0.264906 0.264906 0.264906 0.264906 0.264906 0.264906 0.264906 0.264906 0.264906 0.264906 0.264906 0.269680 0.269680 0.269680 0.269680 0.269680 0.269680 0.269680 0.269680 0.269680 0.269680 0.269680 0.264906 0.264906 0.264906 0.264906 0.264906 0.264906 0.264906 0.264906 0.264906 0.264906 0.264906 0.256074 0.256074 0.256074 0.256074 0.256074 0.256074 0.256074 0.256074 0.256074 0.256074 0.256074 0.264906 0.264906 0.264906 0.264906 0.264906 0.264906 0.264906 0.264906 0.264906 0.264906 0.260378 0.260378 0.260378 0.260378 0.260378 0.260378 0.260378 0.260378 0.260378 0.260378 0.264906 0.264906 0.264906 0.264906 0.264906 0.264906 0.264906 0.264906 0.264906 0.260378 0.260378 0.260378 0.260378 0.260378 0.260378 0.260378 0.260378 0.260378 0.256074 0.256074 0.256074 0.256074 0.256074 0.256074 0.256074 0.256074 0.256074 0.251976 0.251976 0.251976 0.251976 0.251976 0.251976 0.251976 0.251976 0.251976 0.264906 0.264906 0.264906 0.264906 0.264906 0.264906 0.264906 0.264906 0.264906
