# Output from CTFFind version 4.1.9, run on 2019-11-03 18:51:41
# Input file: stack15_ub_averaged_50.mrc ; Number of micrographs: 1
# Pixel size: 3.000 Angstroms ; acceleration voltage: 300.0 keV ; spherical aberration: 0.00 mm ; amplitude contrast: 0.07
# Box size: 512 pixels ; min. res.: 30.0 Angstroms ; max. res.: 5.0 Angstroms ; min. def.: 5000.0 um; max. def. 50000.0 um; num. frames averaged: 1
# 6 lines per micrograph: #1 - spatial frequency (1/Angstroms); #2 - 1D rotational average of spectrum (assuming no astigmatism); #3 - 1D rotational average of spectrum; #4 - CTF fit; #5 - cross-correlation between spectrum and CTF fit; #6 - 2sigma of expected cross correlation of noise
0.000000 0.000651 0.001302 0.001953 0.002604 0.003255 0.003906 0.004557 0.005208 0.005859 0.006510 0.007161 0.007812 0.008464 0.009115 0.009766 0.010417 0.011068 0.011719 0.012370 0.013021 0.013672 0.014323 0.014974 0.015625 0.016276 0.016927 0.017578 0.018229 0.018880 0.019531 0.020182 0.020833 0.021484 0.022135 0.022786 0.023438 0.024089 0.024740 0.025391 0.026042 0.026693 0.027344 0.027995 0.028646 0.029297 0.029948 0.030599 0.031250 0.031901 0.032552 0.033203 0.033854 0.034505 0.035156 0.035807 0.036458 0.037109 0.037760 0.038411 0.039062 0.039714 0.040365 0.041016 0.041667 0.042318 0.042969 0.043620 0.044271 0.044922 0.045573 0.046224 0.046875 0.047526 0.048177 0.048828 0.049479 0.050130 0.050781 0.051432 0.052083 0.052734 0.053385 0.054036 0.054688 0.055339 0.055990 0.056641 0.057292 0.057943 0.058594 0.059245 0.059896 0.060547 0.061198 0.061849 0.062500 0.063151 0.063802 0.064453 0.065104 0.065755 0.066406 0.067057 0.067708 0.068359 0.069010 0.069661 0.070312 0.070964 0.071615 0.072266 0.072917 0.073568 0.074219 0.074870 0.075521 0.076172 0.076823 0.077474 0.078125 0.078776 0.079427 0.080078 0.080729 0.081380 0.082031 0.082682 0.083333 0.083984 0.084635 0.085286 0.085938 0.086589 0.087240 0.087891 0.088542 0.089193 0.089844 0.090495 0.091146 0.091797 0.092448 0.093099 0.093750 0.094401 0.095052 0.095703 0.096354 0.097005 0.097656 0.098307 0.098958 0.099609 0.100260 0.100911 0.101562 0.102214 0.102865 0.103516 0.104167 0.104818 0.105469 0.106120 0.106771 0.107422 0.108073 0.108724 0.109375 0.110026 0.110677 0.111328 0.111979 0.112630 0.113281 0.113932 0.114583 0.115234 0.115885 0.116536 0.117188 0.117839 0.118490 0.119141 0.119792 0.120443 0.121094 0.121745 0.122396 0.123047 0.123698 0.124349 0.125000 0.125651 0.126302 0.126953 0.127604 0.128255 0.128906 0.129557 0.130208 0.130859 0.131510 0.132161 0.132812 0.133464 0.134115 0.134766 0.135417 0.136068 0.136719 0.137370 0.138021 0.138672 0.139323 0.139974 0.140625 0.141276 0.141927 0.142578 0.143229 0.143880 0.144531 0.145182 0.145833 0.146484 0.147135 0.147786 0.148438 0.149089 0.149740 0.150391 0.151042 0.151693 0.152344 0.152995 0.153646 0.154297 0.154948 0.155599 0.156250 0.156901 0.157552 0.158203 0.158854 0.159505 0.160156 0.160807 0.161458 0.162109 0.162760 0.163411 0.164062 0.164714 0.165365 0.166016 0.166667 0.167318 0.167969 0.168620 0.169271 0.169922 0.170573 0.171224 0.171875 0.172526 0.173177 0.173828 0.174479 0.175130 0.175781 0.176432 0.177083 0.177734 0.178385 0.179036 0.179688 0.180339 0.180990 0.181641 0.182292 0.182943 0.183594 0.184245 0.184896 0.185547 0.186198 0.186849 0.187500 0.188151 0.188802 0.189453 0.190104 0.190755 0.191406 0.192057 0.192708 0.193359 0.194010 0.194661 0.195312 0.195964 0.196615 0.197266 0.197917 0.198568 0.199219 0.199870 0.200521 0.201172 0.201823 0.202474 0.203125 0.203776 0.204427 0.205078 0.205729 0.206380 0.207031 0.207682 0.208333 0.208984 0.209635 0.210286 0.210938 0.211589 0.212240 0.212891 0.213542 0.214193 0.214844 0.215495 0.216146 0.216797 0.217448 0.218099 0.218750 0.219401 0.220052 0.220703 0.221354 0.222005 0.222656 0.223307 0.223958 0.224609 0.225260 0.225911 0.226562 0.227214 0.227865 0.228516 0.229167 0.229818 0.230469 0.231120 0.231771 0.232422 0.233073 0.233724 0.234375 0.235026 0.235677
       0.36098        0.36098        0.36098        0.36098        0.36098        0.36098        0.36098        0.36098        0.36098        0.36098        0.36098        0.36098        0.36098        0.36098        0.36098        0.36098        0.36098        0.36098        0.36098        0.36098        0.36098        0.36098        0.36098        0.36098        0.36098        0.36098        0.36098        0.36098        0.36098        0.36098        0.36098        0.36098        0.36098        0.36098        0.36098        0.36098        0.36098        0.36098        0.36098        0.36098        0.36098        0.36098        0.36098        0.36098        0.36098        0.36098        0.36098        0.36098        0.36098        0.36098        0.36098        0.06175       -0.28833       -0.29696       -0.13866       -0.14626       -0.09148       -0.20151       -0.08154        0.02308       -0.04400        0.14371        0.09337        0.14961        0.16331        0.16852        0.14360        0.16603        0.26707        0.36188        0.22286        0.24046        0.26485        0.30487        0.30135        0.28703        0.18772        0.22285        0.37363        0.25085        0.23573        0.25324        0.31194        0.41293        0.33176        0.40160        0.44249        0.32348        0.30260        0.31389        0.35801        0.39293        0.30296        0.31428        0.27275        0.42312        0.42626        0.39819        0.30018        0.31720        0.40401        0.40363        0.40055        0.41396        0.37201        0.32719        0.37387        0.41308        0.34627        0.35448        0.33259        0.32502        0.38282        0.28849        0.38391        0.43397        0.36187        0.43204        0.37184        0.37318        0.37303        0.36886        0.45505        0.40365        0.38423        0.39040        0.43335        0.37682        0.31642        0.26042        0.38525        0.36768        0.35055        0.40424        0.36722        0.39968        0.36335        0.34918        0.33565        0.36925        0.31231        0.34554        0.36223        0.34417        0.28953        0.36777        0.41548        0.40982        0.37300        0.36008        0.32605        0.35912        0.38653        0.41778        0.33424        0.36401        0.42157        0.40329        0.49818        0.41382        0.43749        0.38857        0.36194        0.32574        0.35907        0.43194        0.40204        0.40865        0.41442        0.39535        0.38905        0.40500        0.43946        0.43182        0.38650        0.40742        0.40948        0.37590        0.39204        0.39284        0.37375        0.40547        0.37173        0.35848        0.34318        0.39617        0.35745        0.34785        0.38895        0.42117        0.38273        0.37944        0.34850        0.39126        0.37896        0.37063        0.34238        0.36706        0.35078        0.32386        0.33597        0.36611        0.37509        0.32054        0.42580        0.37767        0.38064        0.39117        0.37535        0.40492        0.37387        0.38689        0.37192        0.39322        0.41121        0.38970        0.31773        0.38503        0.41840        0.39800        0.40444        0.37737        0.39065        0.40148        0.35569        0.30648        0.35040        0.39976        0.38069        0.35533        0.36471        0.39202        0.40012        0.38097        0.33927        0.36023        0.32823        0.36324        0.35480        0.31274        0.35616        0.36916        0.39541        0.36075        0.34064        0.38436        0.32494        0.31519        0.30103        0.35892        0.33448        0.36326        0.32090        0.33031        0.35068        0.32200        0.31340        0.32556        0.35541        0.31906        0.35610        0.33460        0.28879        0.29484        0.34024        0.34838        0.34270        0.36223        0.35720        0.32546        0.36096        0.32445        0.34695        0.35848        0.30248        0.34109        0.30458        0.32639        0.33108        0.32750        0.33913        0.29329        0.29437        0.35259        0.36144        0.34289        0.32088        0.29939        0.28363        0.34217        0.35525        0.33356        0.36898        0.36576        0.31630        0.30041        0.32992        0.39215        0.35947        0.33062        0.35268        0.31338        0.34160        0.33438        0.31385        0.33804        0.34925        0.37797        0.31521        0.28361        0.27967        0.28419        0.36718        0.32171        0.37361        0.32753        0.29173        0.27110        0.32534        0.31811        0.28354        0.33444        0.26308        0.26490        0.29222        0.28819        0.30390        0.29056        0.35013        0.30984        0.29415        0.26983        0.29498        0.32317        0.37619        0.30263        0.30540        0.28078        0.30284        0.29086        0.27072        0.28878        0.32768        0.24685        0.27619        0.31184        0.33107        0.27702        0.26599        0.26643        0.25598        0.24307        0.23494        0.25239        0.16226        0.28444        0.22477        0.28492        0.22823       -0.08718        0.05303       -0.18328       -0.57180
10.701010 10.536414 10.373005 10.210781 10.049744 9.889892 9.731226 9.573746 9.417452 9.262345 9.108422 8.955686 8.804136 8.653772 8.504594 8.356602 8.209795 8.064175 7.919740 7.776492 7.634429 7.493553 7.353862 7.215357 7.078038 6.941905 6.806958 6.673197 6.540623 6.409233 6.279030 6.150013 6.022182 5.895536 5.770077 5.645803 5.522716 5.400814 5.280099 5.160569 5.042225 4.925067 4.809095 4.694310 4.580710 4.468296 4.357067 4.247025 4.138169 4.030499 3.924014 1.322685 -2.846877 -3.673844 -1.719975 -2.220943 -1.073178 -2.417275 -1.782629 -0.490971 -0.961428 0.105760 0.021141 0.152268 0.610644 0.353183 -0.244273 0.243350 1.543557 2.077883 0.490646 0.369205 1.223312 1.022744 1.011718 0.999608 0.270116 -0.262045 1.214697 0.631988 -0.228275 0.088870 0.718211 1.621632 0.503810 1.517027 1.395224 0.910253 0.230231 0.050839 0.614454 0.868147 -0.021695 0.482163 -1.303579 1.262122 0.902141 0.795258 -0.318461 -0.378958 0.151152 1.109800 0.046587 0.572753 0.288340 -0.217561 -0.618611 0.523397 -0.209469 -0.318400 -0.647163 -0.555781 -0.323667 -1.362562 0.059013 0.344475 -0.778826 0.418342 -0.343974 -0.585020 -0.288411 -0.586655 -0.212135 0.611036 -0.120333 -0.769077 0.414346 -0.025144 -0.789863 -1.643183 -0.671265 -0.819916 -0.408596 -0.172981 -0.780264 -0.096240 -0.289204 -1.100776 -0.808305 -0.729280 -0.429118 -0.758116 -0.486109 -0.679296 -0.972816 -0.359997 -0.505931 0.346396 -0.203722 -0.420562 -0.739514 -0.631076 -0.076182 -0.236960 -0.123747 -1.048872 0.054339 -0.468332 0.813169 0.590704 0.237037 -0.456553 0.098753 -0.933524 -0.374655 -0.019581 -0.060820 0.706102 -0.276536 0.386423 -0.216618 0.470167 -0.078443 0.765118 -0.036016 0.443910 -0.235775 0.541294 -0.070802 -0.162144 0.339615 0.101224 0.094966 0.613113 -0.629045 -0.018603 0.436486 -0.100335 -0.023510 0.481135 0.828159 -0.453557 0.514563 -0.114383 0.510130 0.011372 0.507811 -0.498647 0.948710 -0.724817 0.076343 0.105281 0.319350 0.103796 -0.506152 0.591338 0.263800 0.498577 0.243824 0.285653 0.597140 0.327964 0.134078 0.193306 0.736960 0.235351 -0.068963 -0.657095 0.467578 0.379707 0.401864 0.032164 0.234296 0.301886 0.338159 -0.778702 -0.696772 0.095155 0.255329 0.001981 -0.217256 -0.001422 0.071730 0.482905 0.139228 0.145875 -0.091694 0.142444 0.313056 -0.185728 -0.063181 -0.010956 0.659929 0.516792 0.404115 0.173219 0.853734 0.025629 -0.173965 0.050751 0.481798 0.112623 0.779080 -0.137175 0.775432 0.046753 -0.080975 0.119664 0.112166 0.476658 0.135261 0.147501 -0.100490 -0.722954 -0.150284 0.045700 -0.023023 0.200901 0.516728 0.112784 -0.102134 0.174279 -0.223961 -0.060469 0.520610 -0.427232 -0.010243 -0.064802 0.010649 0.027599 -0.017879 0.300721 -0.561769 -0.121585 0.353304 0.728062 0.285677 -0.070932 -0.187409 -0.357509 0.445864 0.619952 0.431849 0.622216 0.526490 -0.138399 -0.008868 0.399907 0.925352 0.556721 0.243424 0.634795 0.559263 0.492462 0.190295 0.561793 0.253805 1.003358 0.889150 0.272040 -0.518586 0.131351 -0.107851 1.142708 -0.146119 0.679091 0.240451 0.113249 -0.488686 0.766224 0.227840 -0.254154 0.482049 -0.749160 -0.462534 0.208007 -0.170801 0.041293 0.879206 0.901300 0.054900 0.446037 -0.032908 0.205458 0.326724 1.363301 0.144562 0.445129 -0.386965 0.934597 -0.053617 -0.042566 0.693583 0.669634 -0.345447 0.452861 0.388585 1.298267 -0.070816 0.501691 -0.294986 0.476907 0.053797 0.314704 2.087782 1.197748 2.978944 2.039684 2.475332 2.875287 -0.965214 0.972066 -5.966540
0.072396 0.073109 0.075248 0.078812 0.083800 0.090210 0.098039 0.107284 0.117939 0.129999 0.143455 0.158296 0.174509 0.192079 0.210986 0.231205 0.252708 0.275462 0.299427 0.324558 0.350801 0.378095 0.406371 0.435551 0.465546 0.496257 0.527575 0.559377 0.591529 0.623885 0.656285 0.688555 0.720508 0.751942 0.782644 0.812386 0.840925 0.868010 0.893374 0.916742 0.937830 0.956347 0.971994 0.984472 0.993480 0.998719 0.999896 0.996728 0.988945 0.976294 0.958542 0.935487 0.906956 0.872811 0.832961 0.787358 0.736009 0.678978 0.616394 0.548450 0.475414 0.397627 0.315511 0.229565 0.140371 0.048592 0.045027 0.139668 0.234438 0.328376 0.420464 0.509635 0.594781 0.674772 0.748468 0.814735 0.872465 0.920597 0.958136 0.984176 0.997923 0.998718 0.986060 0.959625 0.919291 0.865153 0.797539 0.717024 0.624439 0.520873 0.407672 0.286435 0.158996 0.027411 0.106075 0.239057 0.369010 0.493337 0.609422 0.714682 0.806636 0.882962 0.941571 0.980663 0.998800 0.994961 0.968595 0.919671 0.848706 0.756796 0.645617 0.517421 0.375010 0.221694 0.061228 0.102271 0.264414 0.420659 0.566438 0.697292 0.809017 0.897810 0.960417 0.994265 0.997590 0.969539 0.910255 0.820923 0.703792 0.562154 0.400282 0.223332 0.037201 0.151657 0.336433 0.510219 0.666260 0.798232 0.900516 0.968463 0.998630 0.988988 0.939076 0.850102 0.724975 0.568258 0.386051 0.185791 0.024021 0.234159 0.435068 0.617298 0.771962 0.891195 0.968579 0.999537 0.981643 0.914845 0.801574 0.646736 0.457551 0.243284 0.014831 0.215805 0.436130 0.633834 0.797499 0.917284 0.985569 0.997492 0.951356 0.848858 0.695133 0.498578 0.270471 0.024374 0.224627 0.460826 0.668895 0.834897 0.947268 0.997681 0.981738 0.899423 0.755276 0.558245 0.321237 0.060336 0.206230 0.459333 0.680319 0.852412 0.962044 0.999999 0.962285 0.850629 0.672549 0.440976 0.173412 0.109309 0.384604 0.629929 0.824644 0.951819 0.999785 0.963319 0.844311 0.651847 0.401658 0.114952 0.183300 0.466494 0.708755 0.887353 0.984908 0.991202 0.904379 0.731394 0.487631 0.195687 0.116627 0.418842 0.680817 0.875764 0.983081 0.990660 0.896402 0.708752 0.446133 0.135307 0.191236 0.498614 0.753260 0.926665 0.998675 0.959997 0.813570 0.574595 0.269164 0.068437 0.399467 0.685152 0.891259 0.992329 0.974968 0.839837 0.601965 0.289312 0.060341 0.403821 0.697880 0.904671 0.996755 0.960932 0.800355 0.534567 0.197369 0.167289 0.510927 0.786964 0.957126 0.996913 0.899362 0.676482 0.358082 0.011975 0.381667 0.698035 0.914847 0.999496 0.938138 0.738232 0.427971 0.052593 0.332018 0.667565 0.902203 0.998720 0.940675 0.735500 0.413932 0.025697 0.367944 0.703796 0.926907 0.999756 0.908844 0.667508 0.314359 0.092592 0.485261 0.796829 0.973215 0.982705 0.821982 0.517390 0.120985 0.298061 0.665406 0.914731 0.999925 0.903920 0.642501 0.262133 0.167921 0.568027 0.862870 0.995804 0.940044 0.704451 0.332659 0.104649 0.522889 0.839879 0.992137 0.947906 0.714205 0.336260 0.110802 0.536621 0.853810 0.996018 0.932176 0.673739 0.273193 0.186179 0.607324 0.899892 0.999856 0.883882 0.575297 0.139949 0.327429 0.723597 0.959677 0.981369 0.781930 0.404668 0.065903 0.522647 0.860056 0.998821 0.904868 0.598280 0.149639 0.335723 0.742225 0.971581 0.966930 0.727457 0.309705 0.185194 0.635654 0.929434 0.991879 0.805427 0.415138 0.081558 0.558694 0.893647 0.998818 0.845075 0.470469
1.000000 1.000000 1.000000 1.000000 1.000000 1.000000 1.000000 1.000000 1.000000 1.000000 1.000000 1.000000 1.000000 1.000000 1.000000 1.000000 1.000000 1.000000 1.000000 1.000000 1.000000 1.000000 1.000000 1.000000 1.000000 1.000000 1.000000 1.000000 1.000000 1.000000 1.000000 1.000000 1.000000 1.000000 1.000000 1.000000 1.000000 1.000000 1.000000 1.000000 1.000000 1.000000 1.000000 1.000000 1.000000 1.000000 1.000000 1.000000 1.000000 1.000000 1.000000 1.000000 -0.072778 -0.072778 -0.072778 -0.072778 -0.072778 -0.072778 -0.072778 -0.072778 -0.072778 -0.072778 -0.072778 -0.072778 -0.072778 -0.072778 -0.072778 -0.072778 -0.072778 -0.072778 -0.072778 -0.072778 -0.072778 -0.072778 -0.072778 -0.072778 -0.072778 -0.072778 -0.072778 -0.072778 -0.072778 -0.114204 -0.114204 -0.114204 -0.105993 -0.091677 -0.065866 -0.057880 -0.036828 -0.038649 -0.017750 0.007361 0.020372 -0.011639 0.002921 0.012718 0.019952 0.047640 0.070980 0.091384 0.034321 0.024851 0.057155 0.041380 0.034754 0.025866 0.060669 0.034121 0.031492 0.062765 0.098140 0.101146 0.092491 0.063366 0.051292 0.029451 0.012574 0.009286 0.005101 -0.019616 -0.038008 -0.060642 -0.027378 -0.076661 -0.042169 -0.029192 -0.023693 -0.003525 -0.044151 -0.061255 -0.071359 -0.078744 -0.101702 -0.102064 -0.047384 -0.063476 -0.027034 -0.021302 -0.019562 -0.026667 0.000742 0.017532 -0.000129 -0.019877 -0.013234 -0.040629 -0.040423 -0.038522 -0.069356 -0.071872 -0.105424 -0.035561 -0.067569 -0.090596 -0.106975 -0.114434 -0.091763 -0.054233 -0.064385 -0.050644 -0.032472 -0.032496 -0.032643 -0.061764 -0.067409 -0.035393 -0.057927 -0.042078 -0.050602 -0.035244 -0.029303 -0.022834 -0.006259 -0.007444 0.103516 0.116017 0.105937 0.109744 0.099097 0.047913 0.053267 0.098488 0.104533 0.089210 0.079821 0.061703 0.000534 0.002904 -0.042748 -0.048198 -0.012936 0.006848 -0.012547 0.013412 -0.011485 -0.012650 -0.057894 -0.052821 -0.040612 -0.054231 -0.021402 -0.119774 -0.134875 -0.135696 -0.130517 -0.122182 -0.117652 -0.119870 -0.105346 -0.105594 -0.067798 -0.115710 -0.150240 -0.156101 -0.156102 -0.069543 -0.023748 -0.042694 -0.002473 0.006169 0.013882 0.002850 -0.019318 0.051641 0.057518 0.075294 0.051421 0.077682 0.038545 0.054570 0.105852 0.121490 0.137938 0.141418 0.151054 0.220487 0.226392 0.235079 0.230454 0.197173 0.181815 0.159921 0.172753 0.192341 0.216539 0.246689 0.307092 0.322627 0.323208 0.270689 0.241257 0.281761 0.318812 0.357509 0.367722 0.382583 0.381976 0.351902 0.263158 0.284251 0.302020 0.328672 0.363862 0.359700 0.382344 0.381079 0.405992 0.376734 0.369400 0.398425 0.344856 0.376556 0.383497 0.366638 0.346055 0.304020 0.316837 0.333247 0.355529 0.351356 0.308489 0.329749 0.321562 0.287819 0.310357 0.353198 0.358964 0.331660 0.351052 0.345568 0.348889 0.395497 0.380283 0.376034 0.411721 0.410900 0.407956 0.383019 0.396842 0.426223 0.378970 0.383535 0.382160 0.410044 0.436639 0.436790 0.423600 0.434931 0.504635 0.507335 0.500462 0.493858 0.503095 0.495527 0.478155 0.472413 0.451825 0.449431 0.441002 0.437858 0.455723 0.419846 0.410608 0.433764 0.390490 0.421408 0.427101 0.423386 0.356067 0.373412 0.357220 0.345057 0.310935 0.267595 0.281913 0.288072 0.288072 0.288072 0.288072 0.288072 0.288072 0.288072 0.267881 0.267881 0.267881 0.267881 0.267881 0.267881 0.298147 0.298147 0.298147 0.298147 0.298147 0.298147 0.277852 0.277852 0.277852 0.277852 0.277852 0.277852 0.277852 0.277852 0.277852
0.000000 0.000000 0.000000 0.000000 0.000000 0.000000 0.000000 0.000000 0.000000 0.000000 0.000000 0.000000 0.000000 0.000000 0.000000 0.000000 0.000000 0.000000 0.000000 0.000000 0.000000 0.000000 0.000000 0.000000 0.000000 0.000000 0.000000 0.000000 0.000000 0.000000 0.000000 0.000000 0.000000 0.000000 0.000000 0.000000 0.000000 0.000000 0.000000 0.000000 0.000000 0.000000 0.000000 0.000000 0.000000 0.000000 0.000000 0.000000 0.000000 0.000000 0.000000 0.000000 0.214423 0.214423 0.214423 0.214423 0.214423 0.214423 0.214423 0.214423 0.214423 0.214423 0.214423 0.214423 0.214423 0.214423 0.214423 0.214423 0.214423 0.214423 0.214423 0.214423 0.214423 0.214423 0.214423 0.214423 0.214423 0.214423 0.214423 0.214423 0.214423 0.248069 0.248069 0.248069 0.248069 0.248069 0.248069 0.248069 0.248069 0.248069 0.248069 0.248069 0.248069 0.248069 0.248069 0.248069 0.248069 0.248069 0.248069 0.248069 0.248069 0.248069 0.248069 0.248069 0.248069 0.264906 0.264906 0.264906 0.264906 0.264906 0.264906 0.264906 0.264906 0.264906 0.264906 0.264906 0.264906 0.264906 0.264906 0.264906 0.264906 0.264906 0.264906 0.264906 0.269680 0.269680 0.269680 0.269680 0.269680 0.269680 0.269680 0.269680 0.269680 0.269680 0.269680 0.269680 0.269680 0.269680 0.269680 0.269680 0.269680 0.280056 0.280056 0.280056 0.280056 0.280056 0.280056 0.280056 0.280056 0.280056 0.280056 0.280056 0.280056 0.280056 0.280056 0.280056 0.291730 0.291730 0.291730 0.291730 0.291730 0.291730 0.291730 0.291730 0.291730 0.291730 0.291730 0.291730 0.291730 0.280056 0.280056 0.280056 0.280056 0.280056 0.280056 0.280056 0.280056 0.280056 0.280056 0.280056 0.280056 0.280056 0.285714 0.285714 0.285714 0.285714 0.285714 0.285714 0.285714 0.285714 0.285714 0.285714 0.285714 0.285714 0.285714 0.285714 0.285714 0.285714 0.285714 0.285714 0.285714 0.285714 0.285714 0.285714 0.285714 0.291730 0.291730 0.291730 0.291730 0.291730 0.291730 0.291730 0.291730 0.291730 0.291730 0.285714 0.285714 0.285714 0.285714 0.285714 0.285714 0.285714 0.285714 0.285714 0.285714 0.280056 0.280056 0.280056 0.280056 0.280056 0.280056 0.280056 0.280056 0.280056 0.280056 0.285714 0.285714 0.285714 0.285714 0.285714 0.285714 0.285714 0.285714 0.285714 0.280056 0.280056 0.280056 0.280056 0.280056 0.280056 0.280056 0.280056 0.280056 0.291730 0.291730 0.291730 0.291730 0.291730 0.291730 0.291730 0.291730 0.269680 0.269680 0.269680 0.269680 0.269680 0.269680 0.269680 0.269680 0.269680 0.280056 0.280056 0.280056 0.280056 0.280056 0.280056 0.280056 0.280056 0.291730 0.291730 0.291730 0.291730 0.291730 0.291730 0.291730 0.269680 0.269680 0.269680 0.269680 0.269680 0.269680 0.269680 0.269680 0.285714 0.285714 0.285714 0.285714 0.285714 0.285714 0.285714 0.264906 0.264906 0.264906 0.264906 0.264906 0.264906 0.264906 0.264906 0.274721 0.274721 0.274721 0.274721 0.274721 0.274721 0.274721 0.269680 0.269680 0.269680 0.269680 0.269680 0.269680 0.269680 0.285714 0.285714 0.285714 0.285714 0.285714 0.285714 0.264906 0.264906 0.264906 0.264906 0.264906 0.264906 0.264906 0.260378 0.260378 0.260378 0.260378 0.260378 0.260378 0.260378 0.274721 0.274721 0.274721 0.274721 0.274721 0.274721 0.269680 0.269680 0.269680 0.269680 0.269680 0.269680 0.264906 0.264906 0.264906 0.264906 0.264906 0.264906 0.264906 0.264906 0.264906
