# Output from CTFFind version 4.1.9, run on 2019-11-03 18:52:07
# Input file: stack12_ub_averaged_2000.mrc ; Number of micrographs: 1
# Pixel size: 3.000 Angstroms ; acceleration voltage: 300.0 keV ; spherical aberration: 0.00 mm ; amplitude contrast: 0.07
# Box size: 512 pixels ; min. res.: 30.0 Angstroms ; max. res.: 5.0 Angstroms ; min. def.: 5000.0 um; max. def. 50000.0 um; num. frames averaged: 1
# 6 lines per micrograph: #1 - spatial frequency (1/Angstroms); #2 - 1D rotational average of spectrum (assuming no astigmatism); #3 - 1D rotational average of spectrum; #4 - CTF fit; #5 - cross-correlation between spectrum and CTF fit; #6 - 2sigma of expected cross correlation of noise
0.000000 0.000651 0.001302 0.001953 0.002604 0.003255 0.003906 0.004557 0.005208 0.005859 0.006510 0.007161 0.007812 0.008464 0.009115 0.009766 0.010417 0.011068 0.011719 0.012370 0.013021 0.013672 0.014323 0.014974 0.015625 0.016276 0.016927 0.017578 0.018229 0.018880 0.019531 0.020182 0.020833 0.021484 0.022135 0.022786 0.023438 0.024089 0.024740 0.025391 0.026042 0.026693 0.027344 0.027995 0.028646 0.029297 0.029948 0.030599 0.031250 0.031901 0.032552 0.033203 0.033854 0.034505 0.035156 0.035807 0.036458 0.037109 0.037760 0.038411 0.039062 0.039714 0.040365 0.041016 0.041667 0.042318 0.042969 0.043620 0.044271 0.044922 0.045573 0.046224 0.046875 0.047526 0.048177 0.048828 0.049479 0.050130 0.050781 0.051432 0.052083 0.052734 0.053385 0.054036 0.054688 0.055339 0.055990 0.056641 0.057292 0.057943 0.058594 0.059245 0.059896 0.060547 0.061198 0.061849 0.062500 0.063151 0.063802 0.064453 0.065104 0.065755 0.066406 0.067057 0.067708 0.068359 0.069010 0.069661 0.070312 0.070964 0.071615 0.072266 0.072917 0.073568 0.074219 0.074870 0.075521 0.076172 0.076823 0.077474 0.078125 0.078776 0.079427 0.080078 0.080729 0.081380 0.082031 0.082682 0.083333 0.083984 0.084635 0.085286 0.085938 0.086589 0.087240 0.087891 0.088542 0.089193 0.089844 0.090495 0.091146 0.091797 0.092448 0.093099 0.093750 0.094401 0.095052 0.095703 0.096354 0.097005 0.097656 0.098307 0.098958 0.099609 0.100260 0.100911 0.101562 0.102214 0.102865 0.103516 0.104167 0.104818 0.105469 0.106120 0.106771 0.107422 0.108073 0.108724 0.109375 0.110026 0.110677 0.111328 0.111979 0.112630 0.113281 0.113932 0.114583 0.115234 0.115885 0.116536 0.117188 0.117839 0.118490 0.119141 0.119792 0.120443 0.121094 0.121745 0.122396 0.123047 0.123698 0.124349 0.125000 0.125651 0.126302 0.126953 0.127604 0.128255 0.128906 0.129557 0.130208 0.130859 0.131510 0.132161 0.132812 0.133464 0.134115 0.134766 0.135417 0.136068 0.136719 0.137370 0.138021 0.138672 0.139323 0.139974 0.140625 0.141276 0.141927 0.142578 0.143229 0.143880 0.144531 0.145182 0.145833 0.146484 0.147135 0.147786 0.148438 0.149089 0.149740 0.150391 0.151042 0.151693 0.152344 0.152995 0.153646 0.154297 0.154948 0.155599 0.156250 0.156901 0.157552 0.158203 0.158854 0.159505 0.160156 0.160807 0.161458 0.162109 0.162760 0.163411 0.164062 0.164714 0.165365 0.166016 0.166667 0.167318 0.167969 0.168620 0.169271 0.169922 0.170573 0.171224 0.171875 0.172526 0.173177 0.173828 0.174479 0.175130 0.175781 0.176432 0.177083 0.177734 0.178385 0.179036 0.179688 0.180339 0.180990 0.181641 0.182292 0.182943 0.183594 0.184245 0.184896 0.185547 0.186198 0.186849 0.187500 0.188151 0.188802 0.189453 0.190104 0.190755 0.191406 0.192057 0.192708 0.193359 0.194010 0.194661 0.195312 0.195964 0.196615 0.197266 0.197917 0.198568 0.199219 0.199870 0.200521 0.201172 0.201823 0.202474 0.203125 0.203776 0.204427 0.205078 0.205729 0.206380 0.207031 0.207682 0.208333 0.208984 0.209635 0.210286 0.210938 0.211589 0.212240 0.212891 0.213542 0.214193 0.214844 0.215495 0.216146 0.216797 0.217448 0.218099 0.218750 0.219401 0.220052 0.220703 0.221354 0.222005 0.222656 0.223307 0.223958 0.224609 0.225260 0.225911 0.226562 0.227214 0.227865 0.228516 0.229167 0.229818 0.230469 0.231120 0.231771 0.232422 0.233073 0.233724 0.234375 0.235026 0.235677
       0.33833        0.33833        0.33833        0.33833        0.33833        0.33833        0.33833        0.33833        0.33833        0.33833        0.33833        0.33833        0.33833        0.33833        0.33833        0.33833        0.33833        0.33833        0.33833        0.33833        0.33833        0.33833        0.33833        0.33833        0.33833        0.33833        0.33833        0.33833        0.33833        0.33833        0.33833        0.33833        0.33833        0.33833        0.33833        0.33833        0.33833        0.33833        0.33833        0.33833        0.33833        0.33833        0.33833        0.33833        0.33833        0.33833        0.33833        0.33833        0.33833        0.33833        0.33833        0.63779        0.67549        0.30429        0.21016       -0.01999       -0.24445       -0.30891       -0.26656       -0.09742       -0.30441       -0.14533       -0.17044       -0.22849       -0.25636       -0.42649       -0.52307       -0.61171       -0.62761       -0.56392       -0.53694       -0.49758       -0.52698       -0.54974       -0.63073       -0.60347       -0.50794       -0.48737       -0.37158       -0.32721       -0.29685       -0.13524       -0.09746       -0.02067        0.09048        0.19292        0.19410        0.46688        0.54598        0.50391        0.59427        0.60169        0.64976        0.75969        0.73050        0.71978        0.70962        0.65832        0.62117        0.50829        0.43882        0.29741        0.11927        0.03002        0.07895        0.09943       -0.05188        0.02127       -0.02312       -0.02619        0.06340        0.03836        0.17119        0.29601        0.36911        0.41652        0.45222        0.66706        0.65851        0.65100        0.68009        0.67413        0.67142        0.58467        0.64651        0.55191        0.45896        0.36693        0.27473        0.18357        0.02773        0.08829        0.04516        0.08108        0.09480        0.15637        0.28980        0.27499        0.43047        0.50443        0.53938        0.58546        0.57428        0.63892        0.61971        0.53759        0.48223        0.50181        0.33104        0.25285        0.16163        0.11969        0.10736        0.09144        0.12973        0.16415        0.21137        0.29284        0.38820        0.46897        0.54155        0.51846        0.49913        0.52271        0.45157        0.43751        0.41801        0.36307        0.27374        0.21250        0.20091        0.17306        0.17562        0.28556        0.32334        0.38699        0.39485        0.42661        0.50223        0.51082        0.50622        0.53424        0.41129        0.38076        0.37745        0.32412        0.25832        0.21490        0.22091        0.26468        0.34954        0.39661        0.38507        0.47943        0.42573        0.46661        0.43960        0.39605        0.34072        0.28790        0.31340        0.27645        0.27460        0.24047        0.25261        0.35187        0.40430        0.38772        0.38579        0.39656        0.36160        0.39792        0.42409        0.34144        0.34049        0.27021        0.24057        0.26362        0.29765        0.30117        0.34537        0.38764        0.38389        0.36568        0.38091        0.35521        0.33195        0.28460        0.27757        0.25745        0.29538        0.31225        0.33638        0.31757        0.36848        0.41268        0.39458        0.35547        0.31920        0.32044        0.31887        0.29543        0.28070        0.28981        0.31448        0.33703        0.36950        0.34563        0.35895        0.36003        0.33452        0.30888        0.27787        0.26585        0.26426        0.29736        0.26268        0.34173        0.36826        0.36591        0.37593        0.34518        0.33113        0.28597        0.29783        0.31413        0.28346        0.30418        0.30432        0.34242        0.35755        0.32932        0.31362        0.29208        0.32146        0.26667        0.27246        0.29900        0.31260        0.29841        0.32489        0.32973        0.30760        0.30979        0.30184        0.30613        0.27750        0.27836        0.29821        0.35192        0.35949        0.35100        0.35860        0.36136        0.30938        0.25323        0.23874        0.26951        0.26785        0.33406        0.36657        0.31474        0.31001        0.31386        0.31156        0.31567        0.28683        0.28970        0.29799        0.30398        0.35415        0.30412        0.30897        0.26583        0.26574        0.26763        0.29683        0.36297        0.34104        0.29645        0.32165        0.28161        0.30748        0.30599        0.23503        0.28376        0.28666        0.31588        0.37459        0.24993        0.31584        0.26348        0.22539        0.30238        0.24380        0.29457        0.22306        0.18972        0.27262        0.26272        0.26854        0.31375        0.21849        0.27039        0.25911        0.25218        0.26663        0.28837        0.23223        0.24422        0.22679        0.16762        0.21301        0.20436        0.18412        0.22398        0.27020        0.23403        0.19987        0.14679        0.14635       -0.03633       -0.31211
2.414555 2.389057 2.363700 2.338486 2.313414 2.288484 2.263697 2.239051 2.214548 2.190187 2.165968 2.141891 2.117957 2.094165 2.070515 2.047007 2.023642 2.000418 1.977337 1.954398 1.931601 1.908947 1.886434 1.864064 1.841836 1.819750 1.797807 1.776005 1.754346 1.732829 1.711455 1.690222 1.669132 1.648183 1.627378 1.606714 1.586192 1.565813 1.545576 1.525481 1.505528 1.485718 1.466049 1.446523 1.427139 1.407897 1.388798 1.369841 1.351026 1.332353 1.313822 1.453458 1.857085 1.333703 1.142982 0.871802 0.547844 0.508265 0.451528 0.817056 0.371464 0.636594 0.547289 0.396677 0.516109 0.249148 0.152636 0.029841 -0.092694 0.047250 0.017158 0.079558 -0.019838 -0.011317 -0.126681 -0.077157 -0.052050 -0.037628 0.083335 0.138535 0.088289 0.244029 0.371487 0.379724 0.441646 0.557920 0.599915 0.829156 0.923380 0.846785 0.985921 0.952132 0.973530 0.990711 1.128747 0.939941 1.076593 0.971989 0.926014 0.745412 0.736925 0.549661 0.354477 0.189444 0.256441 0.247166 0.130469 0.129241 0.125861 0.071531 0.151341 0.162617 0.129178 0.409710 0.393859 0.537537 0.478849 0.674584 0.733428 0.738418 0.731337 0.702160 0.759176 0.633418 0.622830 0.590404 0.510657 0.313915 0.306715 0.176966 -0.014283 -0.005699 -0.042755 0.022371 0.001003 0.007019 0.149704 0.183990 0.300965 0.346240 0.455879 0.474430 0.441492 0.524766 0.538432 0.446098 0.352619 0.407376 0.292039 0.086077 0.052896 -0.021443 -0.105130 -0.027594 -0.146479 0.021172 -0.034362 0.088364 0.147103 0.301392 0.288383 0.403300 0.384653 0.369774 0.336096 0.324349 0.270414 0.234101 0.152651 0.074848 0.033817 0.002967 -0.001925 0.040492 0.149719 0.172021 0.255244 0.187534 0.307899 0.320855 0.357215 0.326899 0.311089 0.167756 0.174095 0.166269 0.082795 0.014131 -0.013181 0.010227 0.092193 0.179813 0.138959 0.227907 0.261604 0.224232 0.272719 0.188671 0.158997 0.084715 0.078125 0.080032 0.040240 0.020603 0.030523 0.029959 0.183722 0.178436 0.139655 0.179830 0.093199 0.151955 0.175126 0.146780 0.088461 0.067782 -0.010472 -0.018681 0.022248 0.048108 0.077117 0.089017 0.145020 0.109164 0.138951 0.093692 0.087266 0.059085 0.013059 -0.009972 -0.007418 0.031296 0.072169 0.071359 0.031454 0.135916 0.159115 0.119911 0.045197 0.063763 0.041845 0.023847 0.030312 0.000085 0.034467 0.046176 0.075847 0.108318 0.069880 0.068870 0.104032 0.049842 0.013332 0.013635 -0.020672 -0.025250 0.021503 -0.014835 0.108074 0.078799 0.153306 0.095690 0.073161 0.037120 0.023353 0.059178 0.007556 0.022223 0.041896 0.054401 0.094708 0.109518 0.096942 0.021672 0.059495 0.094122 -0.002901 0.036652 0.051264 0.056245 0.073270 0.086604 0.095409 0.035370 0.101596 0.032375 0.088698 0.006739 0.031800 0.094291 0.110209 0.108538 0.111729 0.108998 0.113719 0.070765 -0.000741 -0.026464 0.054184 0.007983 0.106860 0.094747 0.124780 0.059515 0.072070 0.084253 0.067522 0.023401 0.065075 0.058343 0.043693 0.132748 0.028747 0.037628 0.012072 0.016802 0.006564 0.035891 0.114320 0.099590 0.071834 0.027418 0.055173 0.047151 0.081405 -0.037912 0.060314 0.006022 0.071387 0.119138 -0.031191 0.155821 -0.015289 0.001731 0.058343 0.011816 0.077196 -0.010142 -0.038485 0.079157 0.010043 0.063463 0.137097 -0.051379 0.051335 0.070410 0.034914 0.088348 0.124059 0.050348 -0.010639 0.047476 -0.010562 0.032576 0.032273 -0.022609 0.233334 0.367156 0.246202 0.173978 0.155786 0.156668 -0.334339
0.072396 0.072928 0.074524 0.077183 0.080905 0.085689 0.091534 0.098436 0.106395 0.115407 0.125468 0.136572 0.148715 0.161888 0.176083 0.191288 0.207491 0.224677 0.242828 0.261925 0.281943 0.302856 0.324633 0.347240 0.370638 0.394784 0.419629 0.445118 0.471193 0.497788 0.524831 0.552245 0.579943 0.607833 0.635817 0.663787 0.691629 0.719221 0.746433 0.773127 0.799159 0.824377 0.848621 0.871725 0.893517 0.913818 0.932447 0.949216 0.963934 0.976408 0.986444 0.993849 0.998431 1.000000 0.998373 0.993373 0.984831 0.972591 0.956508 0.936453 0.912315 0.884005 0.851455 0.814623 0.773496 0.728089 0.678453 0.624673 0.566872 0.505213 0.439899 0.371178 0.299341 0.224723 0.147707 0.068719 0.011769 0.093243 0.175148 0.256886 0.337829 0.417313 0.494648 0.569124 0.640015 0.706586 0.768103 0.823839 0.873085 0.915161 0.949420 0.975268 0.992166 0.999647 0.997324 0.984904 0.962191 0.929107 0.885690 0.832109 0.768666 0.695805 0.614112 0.524318 0.427297 0.324063 0.215764 0.103674 0.010819 0.126229 0.240985 0.353455 0.461965 0.564827 0.660365 0.746943 0.822997 0.887066 0.937820 0.974101 0.994944 0.999610 0.987613 0.958744 0.913091 0.851052 0.773347 0.681020 0.575437 0.458277 0.331511 0.197384 0.058372 0.082851 0.223460 0.360539 0.491139 0.612338 0.721315 0.815418 0.892233 0.949661 0.985973 0.999877 0.990574 0.957796 0.901843 0.823600 0.724548 0.606745 0.472807 0.325859 0.169479 0.007615 0.155504 0.315475 0.467839 0.608205 0.732385 0.836522 0.917225 0.971689 0.997808 0.994268 0.960627 0.897366 0.805909 0.688622 0.548776 0.390473 0.218545 0.038425 0.144018 0.322665 0.491343 0.644055 0.775186 0.879732 0.953504 0.993312 0.997131 0.964216 0.895185 0.792048 0.658180 0.498247 0.318062 0.124404 0.075225 0.272881 0.460487 0.630167 0.774585 0.887282 0.962979 0.997858 0.989779 0.938436 0.845438 0.714301 0.550363 0.360596 0.153341 0.062038 0.275558 0.477082 0.656792 0.805696 0.916087 0.981974 0.999444 0.966930 0.885364 0.758222 0.591422 0.393095 0.173222 0.056830 0.284888 0.498600 0.686122 0.836779 0.941707 0.994412 0.991213 0.931545 0.818087 0.656710 0.456227 0.227968 0.014839 0.257792 0.486169 0.685820 0.844068 0.950546 0.997916 0.982432 0.904290 0.767725 0.580861 0.355287 0.105395 0.152511 0.401241 0.623885 0.804956 0.931518 0.994152 0.987716 0.911836 0.771056 0.574669 0.336159 0.072341 0.197783 0.454369 0.678189 0.852106 0.962415 0.999998 0.961139 0.847963 0.668431 0.435862 0.168030 0.114153 0.388225 0.631953 0.825171 0.951479 0.999707 0.964984 0.849312 0.661573 0.416943 0.135755 0.158125 0.439308 0.683051 0.867473 0.975578 0.996894 0.928587 0.775906 0.551904 0.276429 0.025558 0.326183 0.597222 0.812758 0.951715 0.999999 0.952033 0.811494 0.591190 0.312001 0.000992 0.311128 0.593029 0.815922 0.956540 0.999669 0.939906 0.782444 0.542781 0.245310 0.079051 0.396016 0.671536 0.875492 0.985055 0.987354 0.881118 0.677074 0.397025 0.071637 0.262817 0.568472 0.810159 0.959511 0.998411 0.921314 0.736179 0.463818 0.135704 0.209552 0.530699 0.788768 0.951859 0.999202 0.923943 0.734291 0.452808 0.113890 0.240328 0.565149 0.818958 0.968624 0.993962 0.890604 0.670905 0.362657 0.005742 0.352931 0.665537 0.889748 0.994559 0.964738 0.803211 0.531039 0.184840 0.187944 0.535511 0.808869 0.968814 0.991710 0.873152 0.628991 0.293426 0.085601 0.453137 0.755182
1.000000 1.000000 1.000000 1.000000 1.000000 1.000000 1.000000 1.000000 1.000000 1.000000 1.000000 1.000000 1.000000 1.000000 1.000000 1.000000 1.000000 1.000000 1.000000 1.000000 1.000000 1.000000 1.000000 1.000000 1.000000 1.000000 1.000000 1.000000 1.000000 1.000000 1.000000 1.000000 1.000000 1.000000 1.000000 1.000000 1.000000 1.000000 1.000000 1.000000 1.000000 1.000000 1.000000 1.000000 1.000000 1.000000 1.000000 1.000000 1.000000 1.000000 1.000000 1.000000 0.916776 0.916776 0.904826 0.904826 0.904826 0.904826 0.904826 0.904826 0.904826 0.904826 0.904826 0.904826 0.904826 0.904826 0.904826 0.904826 0.904826 0.904826 0.904826 0.904826 0.904826 0.904826 0.904826 0.904826 0.904826 0.904826 0.904826 0.904826 0.904826 0.904826 0.904826 0.904826 0.904826 0.904826 0.904826 0.904826 0.904826 0.904826 0.904826 0.904826 0.904826 0.904826 0.883630 0.887249 0.890963 0.886590 0.887614 0.887266 0.886264 0.886844 0.887030 0.888621 0.905658 0.929182 0.930782 0.932825 0.937910 0.938048 0.940259 0.938726 0.937209 0.954147 0.952045 0.949487 0.950424 0.944218 0.945827 0.943769 0.943203 0.945655 0.943310 0.942107 0.941129 0.940129 0.938698 0.938186 0.938032 0.939645 0.939760 0.939857 0.939747 0.940222 0.939962 0.939908 0.940405 0.944882 0.947344 0.950504 0.952239 0.950139 0.950709 0.947381 0.955750 0.955588 0.955051 0.955061 0.955387 0.954015 0.954134 0.953754 0.953381 0.944591 0.942049 0.941647 0.942413 0.945012 0.949892 0.948980 0.948013 0.949141 0.941032 0.954282 0.945255 0.943560 0.942981 0.942488 0.943557 0.938440 0.931666 0.914754 0.907090 0.906326 0.908462 0.912406 0.913127 0.904709 0.904122 0.904543 0.895572 0.894138 0.892837 0.892337 0.897895 0.895024 0.896158 0.895549 0.901523 0.905204 0.904924 0.902751 0.899771 0.895983 0.896599 0.895947 0.896338 0.898618 0.895155 0.889247 0.887831 0.889600 0.897628 0.903741 0.907601 0.902918 0.902051 0.884793 0.883018 0.883190 0.865040 0.860035 0.860164 0.862248 0.862775 0.867197 0.864892 0.857139 0.851232 0.851522 0.853728 0.856781 0.854604 0.852180 0.848269 0.845431 0.849967 0.855868 0.864073 0.850349 0.845777 0.836244 0.833335 0.826634 0.824454 0.821855 0.822532 0.821881 0.818999 0.822280 0.824898 0.824214 0.815680 0.819298 0.817418 0.813768 0.797087 0.796317 0.762968 0.757597 0.763017 0.747551 0.740629 0.738620 0.741289 0.746109 0.744772 0.714542 0.709161 0.716627 0.676152 0.672939 0.684259 0.692668 0.708932 0.701384 0.688967 0.689991 0.719337 0.712773 0.711777 0.709166 0.692064 0.692674 0.692682 0.693692 0.701462 0.678308 0.675835 0.673892 0.665829 0.667334 0.642576 0.629597 0.615589 0.606133 0.609170 0.611994 0.609072 0.608182 0.621041 0.606739 0.612216 0.590931 0.593867 0.592334 0.609736 0.615553 0.576859 0.588822 0.576037 0.576818 0.523721 0.523710 0.527718 0.538054 0.528745 0.525567 0.500243 0.473160 0.476717 0.461428 0.467190 0.464383 0.432132 0.480986 0.452303 0.444878 0.442846 0.446084 0.447065 0.446397 0.428518 0.434273 0.429223 0.421979 0.389418 0.339725 0.343331 0.342021 0.369073 0.368128 0.328418 0.339518 0.339518 0.339518 0.339518 0.339518 0.339518 0.346698 0.346698 0.346698 0.346698 0.346698 0.346698 0.346698 0.346698 0.346698 0.310910 0.310910 0.310910 0.310910 0.310910 0.310910 0.310910 0.310910 0.310910 0.310910 0.310910 0.310910 0.310910 0.310910 0.310910
0.000000 0.000000 0.000000 0.000000 0.000000 0.000000 0.000000 0.000000 0.000000 0.000000 0.000000 0.000000 0.000000 0.000000 0.000000 0.000000 0.000000 0.000000 0.000000 0.000000 0.000000 0.000000 0.000000 0.000000 0.000000 0.000000 0.000000 0.000000 0.000000 0.000000 0.000000 0.000000 0.000000 0.000000 0.000000 0.000000 0.000000 0.000000 0.000000 0.000000 0.000000 0.000000 0.000000 0.000000 0.000000 0.000000 0.000000 0.000000 0.000000 0.000000 0.000000 0.000000 0.181818 0.181818 0.201008 0.201008 0.201008 0.201008 0.201008 0.201008 0.201008 0.201008 0.201008 0.201008 0.201008 0.201008 0.201008 0.201008 0.201008 0.201008 0.201008 0.201008 0.201008 0.201008 0.201008 0.201008 0.201008 0.201008 0.201008 0.201008 0.201008 0.201008 0.201008 0.201008 0.201008 0.201008 0.201008 0.201008 0.201008 0.201008 0.201008 0.201008 0.201008 0.201008 0.234082 0.234082 0.234082 0.234082 0.234082 0.234082 0.234082 0.234082 0.234082 0.234082 0.234082 0.234082 0.234082 0.234082 0.234082 0.234082 0.234082 0.234082 0.234082 0.234082 0.234082 0.234082 0.234082 0.234082 0.234082 0.234082 0.234082 0.244339 0.244339 0.244339 0.244339 0.244339 0.244339 0.244339 0.244339 0.244339 0.244339 0.244339 0.244339 0.244339 0.244339 0.244339 0.244339 0.244339 0.244339 0.244339 0.244339 0.244339 0.244339 0.244339 0.256074 0.256074 0.256074 0.256074 0.256074 0.256074 0.256074 0.256074 0.256074 0.256074 0.256074 0.256074 0.256074 0.256074 0.256074 0.256074 0.256074 0.256074 0.256074 0.264906 0.264906 0.264906 0.264906 0.264906 0.264906 0.264906 0.264906 0.264906 0.264906 0.264906 0.264906 0.264906 0.264906 0.264906 0.264906 0.264906 0.264906 0.264906 0.264906 0.264906 0.264906 0.264906 0.264906 0.264906 0.264906 0.264906 0.264906 0.264906 0.264906 0.264906 0.264906 0.264906 0.269680 0.269680 0.269680 0.269680 0.269680 0.269680 0.269680 0.269680 0.269680 0.269680 0.269680 0.269680 0.269680 0.269680 0.264906 0.264906 0.264906 0.264906 0.264906 0.264906 0.264906 0.264906 0.264906 0.264906 0.264906 0.264906 0.264906 0.264906 0.264906 0.264906 0.264906 0.264906 0.264906 0.264906 0.264906 0.264906 0.264906 0.264906 0.264906 0.264906 0.264906 0.269680 0.269680 0.269680 0.269680 0.269680 0.269680 0.269680 0.269680 0.269680 0.269680 0.269680 0.269680 0.274721 0.274721 0.274721 0.274721 0.274721 0.274721 0.274721 0.274721 0.274721 0.274721 0.274721 0.260378 0.260378 0.260378 0.260378 0.260378 0.260378 0.260378 0.260378 0.260378 0.260378 0.260378 0.260378 0.274721 0.274721 0.274721 0.274721 0.274721 0.274721 0.274721 0.274721 0.274721 0.274721 0.256074 0.256074 0.256074 0.256074 0.256074 0.256074 0.256074 0.256074 0.256074 0.256074 0.256074 0.274721 0.274721 0.274721 0.274721 0.274721 0.274721 0.274721 0.274721 0.274721 0.260378 0.260378 0.260378 0.260378 0.260378 0.260378 0.260378 0.260378 0.260378 0.260378 0.264906 0.264906 0.264906 0.264906 0.264906 0.264906 0.264906 0.264906 0.264906 0.260378 0.260378 0.260378 0.260378 0.260378 0.260378 0.260378 0.260378 0.260378 0.256074 0.256074 0.256074 0.256074 0.256074 0.256074 0.256074 0.256074 0.256074 0.251976 0.251976 0.251976 0.251976 0.251976 0.251976 0.251976 0.251976 0.251976 0.264906 0.264906 0.264906 0.264906 0.264906 0.264906 0.264906 0.264906 0.264906 0.264906 0.264906 0.264906 0.264906 0.264906 0.264906
