# Output from CTFFind version 4.1.9, run on 2019-11-03 18:51:56
# Input file: stack17_ub_averaged_1500.mrc ; Number of micrographs: 1
# Pixel size: 3.000 Angstroms ; acceleration voltage: 300.0 keV ; spherical aberration: 0.00 mm ; amplitude contrast: 0.07
# Box size: 512 pixels ; min. res.: 30.0 Angstroms ; max. res.: 5.0 Angstroms ; min. def.: 5000.0 um; max. def. 50000.0 um; num. frames averaged: 1
# 6 lines per micrograph: #1 - spatial frequency (1/Angstroms); #2 - 1D rotational average of spectrum (assuming no astigmatism); #3 - 1D rotational average of spectrum; #4 - CTF fit; #5 - cross-correlation between spectrum and CTF fit; #6 - 2sigma of expected cross correlation of noise
0.000000 0.000651 0.001302 0.001953 0.002604 0.003255 0.003906 0.004557 0.005208 0.005859 0.006510 0.007161 0.007812 0.008464 0.009115 0.009766 0.010417 0.011068 0.011719 0.012370 0.013021 0.013672 0.014323 0.014974 0.015625 0.016276 0.016927 0.017578 0.018229 0.018880 0.019531 0.020182 0.020833 0.021484 0.022135 0.022786 0.023438 0.024089 0.024740 0.025391 0.026042 0.026693 0.027344 0.027995 0.028646 0.029297 0.029948 0.030599 0.031250 0.031901 0.032552 0.033203 0.033854 0.034505 0.035156 0.035807 0.036458 0.037109 0.037760 0.038411 0.039062 0.039714 0.040365 0.041016 0.041667 0.042318 0.042969 0.043620 0.044271 0.044922 0.045573 0.046224 0.046875 0.047526 0.048177 0.048828 0.049479 0.050130 0.050781 0.051432 0.052083 0.052734 0.053385 0.054036 0.054688 0.055339 0.055990 0.056641 0.057292 0.057943 0.058594 0.059245 0.059896 0.060547 0.061198 0.061849 0.062500 0.063151 0.063802 0.064453 0.065104 0.065755 0.066406 0.067057 0.067708 0.068359 0.069010 0.069661 0.070312 0.070964 0.071615 0.072266 0.072917 0.073568 0.074219 0.074870 0.075521 0.076172 0.076823 0.077474 0.078125 0.078776 0.079427 0.080078 0.080729 0.081380 0.082031 0.082682 0.083333 0.083984 0.084635 0.085286 0.085938 0.086589 0.087240 0.087891 0.088542 0.089193 0.089844 0.090495 0.091146 0.091797 0.092448 0.093099 0.093750 0.094401 0.095052 0.095703 0.096354 0.097005 0.097656 0.098307 0.098958 0.099609 0.100260 0.100911 0.101562 0.102214 0.102865 0.103516 0.104167 0.104818 0.105469 0.106120 0.106771 0.107422 0.108073 0.108724 0.109375 0.110026 0.110677 0.111328 0.111979 0.112630 0.113281 0.113932 0.114583 0.115234 0.115885 0.116536 0.117188 0.117839 0.118490 0.119141 0.119792 0.120443 0.121094 0.121745 0.122396 0.123047 0.123698 0.124349 0.125000 0.125651 0.126302 0.126953 0.127604 0.128255 0.128906 0.129557 0.130208 0.130859 0.131510 0.132161 0.132812 0.133464 0.134115 0.134766 0.135417 0.136068 0.136719 0.137370 0.138021 0.138672 0.139323 0.139974 0.140625 0.141276 0.141927 0.142578 0.143229 0.143880 0.144531 0.145182 0.145833 0.146484 0.147135 0.147786 0.148438 0.149089 0.149740 0.150391 0.151042 0.151693 0.152344 0.152995 0.153646 0.154297 0.154948 0.155599 0.156250 0.156901 0.157552 0.158203 0.158854 0.159505 0.160156 0.160807 0.161458 0.162109 0.162760 0.163411 0.164062 0.164714 0.165365 0.166016 0.166667 0.167318 0.167969 0.168620 0.169271 0.169922 0.170573 0.171224 0.171875 0.172526 0.173177 0.173828 0.174479 0.175130 0.175781 0.176432 0.177083 0.177734 0.178385 0.179036 0.179688 0.180339 0.180990 0.181641 0.182292 0.182943 0.183594 0.184245 0.184896 0.185547 0.186198 0.186849 0.187500 0.188151 0.188802 0.189453 0.190104 0.190755 0.191406 0.192057 0.192708 0.193359 0.194010 0.194661 0.195312 0.195964 0.196615 0.197266 0.197917 0.198568 0.199219 0.199870 0.200521 0.201172 0.201823 0.202474 0.203125 0.203776 0.204427 0.205078 0.205729 0.206380 0.207031 0.207682 0.208333 0.208984 0.209635 0.210286 0.210938 0.211589 0.212240 0.212891 0.213542 0.214193 0.214844 0.215495 0.216146 0.216797 0.217448 0.218099 0.218750 0.219401 0.220052 0.220703 0.221354 0.222005 0.222656 0.223307 0.223958 0.224609 0.225260 0.225911 0.226562 0.227214 0.227865 0.228516 0.229167 0.229818 0.230469 0.231120 0.231771 0.232422 0.233073 0.233724 0.234375 0.235026 0.235677
       0.33353        0.33519        0.33657        0.33706        0.33727        0.33745        0.33752        0.33759        0.33764        0.33768        0.33772        0.33773        0.33776        0.33778        0.33779        0.33781        0.33782        0.33783        0.33784        0.33785        0.33786        0.33786        0.33787        0.33787        0.33788        0.33788        0.33789        0.33789        0.33789        0.33790        0.33790        0.33791        0.33791        0.33791        0.33791        0.33791        0.33792        0.33792        0.33792        0.33792        0.33793        0.33793        0.33793        0.33793        0.33793        0.33793        0.33794        0.33794        0.33794        0.33794        0.33794        0.57369        1.06023        0.81317        0.24976        0.10332       -0.01025       -0.14523        0.09549        0.15045        0.33964        0.27453        0.28552        0.16335        0.23710        0.12030        0.07380        0.01566        0.03724       -0.01607       -0.02400        0.01858       -0.09050       -0.16389       -0.13127       -0.13033       -0.21608       -0.25051       -0.31565       -0.26686       -0.30351       -0.42883       -0.43831       -0.31110       -0.34327       -0.30376       -0.20999       -0.19339       -0.19669       -0.15796       -0.07810       -0.03389        0.00345        0.16286        0.28686        0.40151        0.46402        0.46559        0.47125        0.58015        0.57673        0.63056        0.67323        0.66123        0.69806        0.66648        0.64965        0.68870        0.66264        0.59570        0.63690        0.47786        0.39115        0.32454        0.30672        0.18595        0.11067        0.04661        0.06005        0.00414       -0.02327       -0.01254        0.05060        0.05590        0.02403        0.14705        0.23937        0.37909        0.46642        0.49507        0.61208        0.65761        0.65308        0.63508        0.72626        0.65645        0.60707        0.63978        0.63650        0.55762        0.52335        0.40082        0.26756        0.20216        0.13894        0.17100        0.13537        0.09215        0.08830        0.11255        0.10730        0.17161        0.22897        0.31578        0.38198        0.41017        0.49296        0.52169        0.49219        0.44122        0.49686        0.51195        0.51272        0.43563        0.39389        0.34138        0.27344        0.24486        0.25682        0.22403        0.17326        0.23405        0.26893        0.26646        0.31983        0.35470        0.40732        0.45863        0.52628        0.47358        0.49260        0.51279        0.46961        0.42738        0.41238        0.37107        0.36357        0.29244        0.20925        0.22785        0.22917        0.20944        0.28035        0.25745        0.30959        0.30298        0.37452        0.40924        0.42234        0.44728        0.42689        0.42010        0.41765        0.41064        0.31363        0.33126        0.31959        0.29038        0.24521        0.25811        0.28424        0.29442        0.35890        0.34129        0.35195        0.40489        0.41267        0.39613        0.40192        0.40712        0.39749        0.37869        0.33553        0.28677        0.29470        0.27672        0.29628        0.29583        0.25661        0.28456        0.32740        0.39774        0.38038        0.39847        0.38998        0.38889        0.35654        0.30892        0.33287        0.31054        0.28689        0.29294        0.29478        0.32294        0.32398        0.33880        0.31213        0.33124        0.36491        0.35261        0.33801        0.33622        0.31859        0.27528        0.27544        0.23830        0.25790        0.26512        0.28159        0.32007        0.34073        0.32912        0.33794        0.31866        0.29337        0.30712        0.31788        0.32199        0.26721        0.28097        0.30612        0.30148        0.31541        0.31406        0.34100        0.31667        0.35388        0.32763        0.30361        0.27940        0.33418        0.29932        0.31046        0.32157        0.27824        0.32312        0.34196        0.33872        0.30121        0.33654        0.36264        0.34197        0.31460        0.30322        0.32610        0.31860        0.29101        0.28504        0.32376        0.31269        0.34281        0.34212        0.32373        0.36500        0.26720        0.27067        0.30755        0.23401        0.27467        0.26005        0.26274        0.27955        0.33221        0.30294        0.26755        0.28872        0.29571        0.27208        0.27161        0.25598        0.29442        0.30747        0.27068        0.25673        0.26910        0.27146        0.33639        0.30055        0.31064        0.29005        0.24501        0.24126        0.24528        0.31092        0.27932        0.37155        0.37784        0.25614        0.24667        0.26797        0.26909        0.29106        0.27301        0.24224        0.20480        0.34453        0.35047        0.32044        0.22969        0.19604        0.26722        0.27140        0.10128        0.13404        0.18124        0.24489        0.23879        0.21773       -0.00845        0.03174       -0.19796       -0.49467       -0.72994
2.279727 2.262847 2.244009 2.224751 2.205841 2.186145 2.166915 2.147513 2.128305 2.109238 2.090035 2.071099 2.052137 2.033370 2.014613 1.995935 1.977435 1.958954 1.940566 1.922277 1.904065 1.886001 1.867976 1.850053 1.832217 1.814498 1.796842 1.779279 1.761832 1.744447 1.727184 1.709988 1.692886 1.675892 1.658986 1.642163 1.625435 1.608794 1.592259 1.575800 1.559449 1.543173 1.527001 1.510920 1.494922 1.479029 1.463216 1.447507 1.431882 1.416348 1.400914 1.662989 2.242556 2.302125 0.988685 1.168693 0.925024 0.531672 0.994201 0.853172 1.193104 1.109630 1.220065 0.944427 0.975103 0.932588 0.874544 0.701298 0.662178 0.661339 0.638465 0.686466 0.575235 0.334679 0.422610 0.350037 0.317036 0.222880 0.132014 0.076309 0.198384 -0.048920 -0.217589 0.088820 0.021569 0.006829 0.133058 0.128295 0.160464 0.133769 0.289166 0.353901 0.325687 0.495042 0.717647 0.869970 0.920621 0.956297 0.987179 1.012720 1.103291 1.107837 1.151358 1.202660 1.126489 1.209119 1.022283 1.219121 1.145772 1.000370 1.046850 0.840800 0.736749 0.673333 0.587661 0.395014 0.255119 0.231593 0.194148 0.163060 -0.015073 0.043182 0.131432 0.140696 0.124894 0.106040 0.364354 0.401860 0.694320 0.697653 0.729631 0.864339 0.926095 0.847870 0.948603 0.869832 0.799092 0.771940 0.838604 0.754066 0.615885 0.590865 0.312851 0.231675 0.060179 0.158351 0.081551 0.033157 0.002072 -0.021900 -0.009320 0.058428 0.145067 0.219605 0.311540 0.358024 0.486120 0.562242 0.506573 0.396259 0.450481 0.500864 0.509548 0.408346 0.349390 0.251088 0.187772 0.142298 0.026436 0.136295 0.007274 0.052609 0.030098 0.131811 0.111045 0.218538 0.254049 0.244051 0.457040 0.360273 0.388426 0.387740 0.392283 0.298678 0.300971 0.254445 0.179650 0.148745 0.024107 -0.029778 0.015899 -0.044378 0.000584 0.046636 0.044208 0.120825 0.096282 0.232994 0.206023 0.265651 0.283580 0.232131 0.223739 0.253588 0.136116 0.085219 0.107187 0.117632 -0.007573 -0.002510 0.008045 0.046933 0.074087 0.131180 0.126525 0.143356 0.242549 0.186887 0.229723 0.189427 0.227141 0.203847 0.187179 0.076447 0.074292 0.049439 0.007168 0.114468 0.026307 0.022005 0.053244 0.172448 0.181808 0.185736 0.195181 0.182273 0.186292 0.099528 0.108142 0.086381 0.042050 0.071630 0.023663 0.056033 0.077914 0.129262 0.068740 0.081220 0.116372 0.133068 0.133693 0.090805 0.099373 0.081709 -0.015961 0.034398 -0.051778 0.000591 0.030297 0.014782 0.089836 0.106400 0.067904 0.107720 0.012594 0.035595 0.032262 0.060591 0.030130 -0.022930 0.007209 0.043361 0.021540 0.077760 0.030854 0.102222 0.024805 0.109098 0.076065 0.019609 -0.029572 0.123855 0.001070 0.056383 0.031472 -0.003047 0.084096 0.074377 0.079597 0.041946 0.082385 0.089557 0.039138 0.059543 -0.015797 0.041138 0.013570 0.020546 -0.025921 0.088637 -0.016443 0.117355 0.108964 0.049537 0.162323 -0.028293 -0.013556 0.064322 -0.050127 0.005807 -0.024327 0.001058 0.015429 0.111743 0.026238 -0.039574 0.044471 0.008511 -0.016212 -0.008264 0.015629 -0.007857 0.089106 -0.025449 0.013723 0.005372 -0.002186 0.170647 -0.007177 0.114737 0.046052 -0.022424 0.018773 0.026001 0.101149 0.039258 0.257226 0.163065 0.051679 0.039725 0.131803 0.053840 0.127261 0.119081 0.129492 0.034778 0.241716 0.281771 0.428579 0.297968 0.235474 0.394659 0.375894 0.089095 0.177994 0.232791 0.400739 0.273092 0.058841 -0.080570 0.142614 -0.269096 -1.005475
0.072396 0.072824 0.074107 0.076244 0.079237 0.083083 0.087782 0.093334 0.099735 0.106985 0.115082 0.124021 0.133801 0.144416 0.155862 0.168132 0.181220 0.195117 0.209813 0.225297 0.241558 0.258579 0.276344 0.294835 0.314031 0.333907 0.354438 0.375595 0.397344 0.419652 0.442477 0.465779 0.489510 0.513620 0.538054 0.562753 0.587653 0.612687 0.637781 0.662859 0.687836 0.712626 0.737137 0.761270 0.784924 0.807991 0.830360 0.851914 0.872533 0.892092 0.910464 0.927515 0.943114 0.957121 0.969400 0.979811 0.988213 0.994468 0.998436 0.999983 0.998976 0.995285 0.988788 0.979369 0.966918 0.951338 0.932537 0.910442 0.884987 0.856125 0.823823 0.788069 0.748867 0.706243 0.660247 0.610949 0.558448 0.502866 0.444352 0.383083 0.319268 0.253139 0.184961 0.115029 0.043665 0.028781 0.101929 0.175373 0.248683 0.321406 0.393068 0.463175 0.531220 0.596685 0.659043 0.717763 0.772317 0.822183 0.866849 0.905822 0.938632 0.964838 0.984035 0.995860 0.999997 0.996188 0.984232 0.963999 0.935427 0.898535 0.853423 0.800277 0.739374 0.671080 0.595857 0.514258 0.426930 0.334608 0.238117 0.138361 0.036321 0.066957 0.170365 0.272750 0.372924 0.469676 0.561789 0.648055 0.727291 0.798357 0.860177 0.911751 0.952181 0.980683 0.996608 0.999457 0.988898 0.964776 0.927129 0.876193 0.812412 0.736439 0.649136 0.551570 0.445011 0.330912 0.210900 0.086754 0.039616 0.166198 0.290910 0.411628 0.526228 0.632623 0.728802 0.812870 0.883092 0.937933 0.976091 0.996542 0.998564 0.981771 0.946132 0.891986 0.820056 0.731447 0.627638 0.510471 0.382123 0.245073 0.102061 0.043960 0.189885 0.332519 0.468647 0.595110 0.708876 0.807122 0.887309 0.947252 0.985191 0.999846 0.990476 0.956911 0.899581 0.819530 0.718410 0.598463 0.462478 0.313750 0.155993 0.006732 0.170122 0.329743 0.481153 0.620017 0.742245 0.844122 0.922417 0.974508 0.998477 0.993193 0.958375 0.894629 0.803462 0.687266 0.549271 0.393472 0.224533 0.047645 0.131611 0.307448 0.474049 0.625766 0.757321 0.863994 0.941802 0.987672 0.999570 0.976610 0.919125 0.828690 0.708107 0.561344 0.393417 0.210243 0.018444 0.174886 0.362441 0.536966 0.691559 0.819943 0.916737 0.977701 0.999936 0.982050 0.924257 0.828416 0.698002 0.538012 0.354793 0.155814 0.050627 0.255734 0.450586 0.626529 0.775574 0.890758 0.966508 0.998922 0.986001 0.927795 0.826455 0.686199 0.513158 0.315147 0.101333 0.118179 0.332806 0.531995 0.705757 0.845170 0.942867 0.993446 0.993800 0.943342 0.844097 0.700674 0.520081 0.311426 0.085477 0.145866 0.370191 0.575240 0.749588 0.883292 0.968490 0.999894 0.975154 0.895068 0.763618 0.587814 0.377368 0.144188 0.098267 0.335747 0.554060 0.739901 0.881706 0.970398 0.999991 0.968051 0.875930 0.728770 0.535276 0.307232 0.058842 0.194148 0.435427 0.649171 0.821096 0.939452 0.995843 0.985889 0.909607 0.771509 0.580406 0.348890 0.092555 0.171024 0.423477 0.646932 0.825271 0.945351 0.997998 0.978772 0.888389 0.732786 0.522801 0.273473 0.003015 0.268499 0.520586 0.733936 0.891896 0.981814 0.996119 0.933004 0.796704 0.597290 0.349982 0.074063 0.208608 0.475286 0.704189 0.876303 0.976986 0.997292 0.934822 0.794070 0.586178 0.328144 0.041472 0.249567 0.519957 0.746129 0.908012 0.990883 0.986767 0.895289 0.723847 0.487121 0.205874 0.094789 0.387647 0.645806 0.845201 0.966867 0.998827 0.937343 0.787434 0.562564 0.283536
1.000000 1.000000 1.000000 1.000000 1.000000 1.000000 1.000000 1.000000 1.000000 1.000000 1.000000 1.000000 1.000000 1.000000 1.000000 1.000000 1.000000 1.000000 1.000000 1.000000 1.000000 1.000000 1.000000 1.000000 1.000000 1.000000 1.000000 1.000000 1.000000 1.000000 1.000000 1.000000 1.000000 1.000000 1.000000 1.000000 1.000000 1.000000 1.000000 1.000000 1.000000 1.000000 1.000000 1.000000 1.000000 1.000000 1.000000 1.000000 1.000000 1.000000 1.000000 1.000000 0.805726 0.805726 0.805726 0.805726 0.805726 0.805726 0.805726 0.805726 0.784398 0.784398 0.784398 0.784398 0.784398 0.784398 0.784398 0.784398 0.784398 0.784398 0.784398 0.784398 0.784398 0.784398 0.784398 0.784398 0.784398 0.784398 0.784398 0.784398 0.784398 0.784398 0.784398 0.784398 0.784398 0.784398 0.784398 0.784398 0.784398 0.784398 0.784398 0.784398 0.784398 0.784398 0.784398 0.784398 0.784398 0.784398 0.784398 0.784398 0.784398 0.784398 0.784398 0.784398 0.784398 0.955245 0.954268 0.955245 0.956911 0.958848 0.959073 0.959049 0.959625 0.959591 0.961912 0.962137 0.962576 0.963113 0.964146 0.964607 0.968873 0.970358 0.972308 0.974075 0.976704 0.978131 0.978721 0.976757 0.972261 0.967588 0.968404 0.965926 0.967294 0.966711 0.965405 0.966032 0.966731 0.965588 0.963668 0.963024 0.961681 0.960507 0.959595 0.961144 0.961033 0.961279 0.961681 0.961805 0.962031 0.962237 0.962357 0.962452 0.962625 0.961694 0.960437 0.961710 0.961561 0.960140 0.958675 0.956215 0.963420 0.962110 0.961622 0.961467 0.961564 0.962004 0.962511 0.960393 0.958453 0.958051 0.950483 0.940237 0.938517 0.937851 0.936750 0.939484 0.941419 0.941964 0.940953 0.942444 0.939609 0.935395 0.933043 0.926083 0.926808 0.927826 0.929529 0.929174 0.929325 0.928712 0.926612 0.922681 0.923284 0.923744 0.926224 0.915576 0.912681 0.901098 0.888990 0.889916 0.891226 0.892642 0.897317 0.895257 0.899989 0.901231 0.902520 0.895814 0.894368 0.894571 0.894053 0.890092 0.892870 0.892236 0.890576 0.888279 0.875664 0.862389 0.864963 0.866136 0.867380 0.866757 0.862175 0.860399 0.860328 0.854394 0.850623 0.851731 0.853556 0.853634 0.853399 0.854516 0.823889 0.809655 0.800266 0.804305 0.801974 0.801768 0.803569 0.800518 0.791260 0.766569 0.763627 0.754881 0.751082 0.754883 0.739438 0.740428 0.734823 0.711821 0.678711 0.654980 0.656926 0.639568 0.633481 0.636172 0.622688 0.603263 0.616725 0.593496 0.602038 0.616221 0.608727 0.603878 0.597838 0.594342 0.585352 0.574997 0.561790 0.537590 0.549329 0.555825 0.540959 0.542774 0.499102 0.486976 0.478537 0.506744 0.486816 0.465308 0.485118 0.487600 0.492094 0.486476 0.479497 0.462137 0.462329 0.429605 0.435421 0.436868 0.420995 0.406624 0.394733 0.375382 0.348254 0.354993 0.324582 0.336442 0.342203 0.371262 0.381150 0.384139 0.371675 0.376399 0.359425 0.385434 0.392765 0.370087 0.367906 0.349795 0.348723 0.347677 0.365473 0.380272 0.358446 0.387430 0.387439 0.416378 0.428594 0.423194 0.428307 0.401148 0.355967 0.379584 0.381980 0.380930 0.370751 0.347212 0.314504 0.305951 0.296999 0.335424 0.331193 0.331193 0.331193 0.331193 0.331193 0.335313 0.335313 0.335313 0.335313 0.335313 0.335313 0.335313 0.335313 0.335313 0.335313 0.335313 0.347180 0.347180 0.347180 0.347180 0.347180 0.347180 0.347180 0.347180 0.347180 0.347180 0.347180 0.347180 0.347180 0.347180 0.347180
0.000000 0.000000 0.000000 0.000000 0.000000 0.000000 0.000000 0.000000 0.000000 0.000000 0.000000 0.000000 0.000000 0.000000 0.000000 0.000000 0.000000 0.000000 0.000000 0.000000 0.000000 0.000000 0.000000 0.000000 0.000000 0.000000 0.000000 0.000000 0.000000 0.000000 0.000000 0.000000 0.000000 0.000000 0.000000 0.000000 0.000000 0.000000 0.000000 0.000000 0.000000 0.000000 0.000000 0.000000 0.000000 0.000000 0.000000 0.000000 0.000000 0.000000 0.000000 0.000000 0.172133 0.172133 0.172133 0.172133 0.172133 0.172133 0.172133 0.172133 0.189832 0.189832 0.189832 0.189832 0.189832 0.189832 0.189832 0.189832 0.189832 0.189832 0.189832 0.189832 0.189832 0.189832 0.189832 0.189832 0.189832 0.189832 0.189832 0.189832 0.189832 0.189832 0.189832 0.189832 0.189832 0.189832 0.189832 0.189832 0.189832 0.189832 0.189832 0.189832 0.189832 0.189832 0.189832 0.189832 0.189832 0.189832 0.189832 0.189832 0.189832 0.189832 0.189832 0.189832 0.189832 0.222222 0.222222 0.222222 0.222222 0.222222 0.222222 0.222222 0.222222 0.222222 0.222222 0.222222 0.222222 0.222222 0.222222 0.222222 0.222222 0.222222 0.222222 0.222222 0.222222 0.222222 0.222222 0.222222 0.222222 0.222222 0.222222 0.222222 0.222222 0.222222 0.222222 0.234082 0.234082 0.234082 0.234082 0.234082 0.234082 0.234082 0.234082 0.234082 0.234082 0.234082 0.234082 0.234082 0.234082 0.234082 0.234082 0.234082 0.234082 0.234082 0.234082 0.234082 0.234082 0.234082 0.234082 0.234082 0.240772 0.240772 0.240772 0.240772 0.240772 0.240772 0.240772 0.240772 0.240772 0.240772 0.240772 0.240772 0.240772 0.240772 0.240772 0.240772 0.240772 0.240772 0.240772 0.240772 0.240772 0.240772 0.248069 0.248069 0.248069 0.248069 0.248069 0.248069 0.248069 0.248069 0.248069 0.248069 0.248069 0.248069 0.248069 0.248069 0.248069 0.248069 0.248069 0.248069 0.248069 0.256074 0.256074 0.256074 0.256074 0.256074 0.256074 0.256074 0.256074 0.256074 0.256074 0.256074 0.256074 0.256074 0.256074 0.256074 0.256074 0.256074 0.248069 0.248069 0.248069 0.248069 0.248069 0.248069 0.248069 0.248069 0.248069 0.248069 0.248069 0.248069 0.248069 0.248069 0.248069 0.248069 0.248069 0.256074 0.256074 0.256074 0.256074 0.256074 0.256074 0.256074 0.256074 0.256074 0.256074 0.256074 0.256074 0.256074 0.256074 0.256074 0.256074 0.256074 0.256074 0.256074 0.256074 0.256074 0.256074 0.256074 0.256074 0.256074 0.256074 0.256074 0.256074 0.256074 0.251976 0.251976 0.251976 0.251976 0.251976 0.251976 0.251976 0.251976 0.251976 0.251976 0.251976 0.251976 0.251976 0.251976 0.264906 0.264906 0.264906 0.264906 0.264906 0.264906 0.264906 0.264906 0.264906 0.264906 0.264906 0.264906 0.248069 0.248069 0.248069 0.248069 0.248069 0.248069 0.248069 0.248069 0.248069 0.248069 0.248069 0.248069 0.248069 0.251976 0.251976 0.251976 0.251976 0.251976 0.251976 0.251976 0.251976 0.251976 0.251976 0.251976 0.251976 0.256074 0.256074 0.256074 0.256074 0.256074 0.256074 0.256074 0.256074 0.256074 0.256074 0.256074 0.251976 0.251976 0.251976 0.251976 0.251976 0.251976 0.251976 0.251976 0.251976 0.251976 0.251976 0.248069 0.248069 0.248069 0.248069 0.248069 0.248069 0.248069 0.248069 0.248069 0.248069 0.248069 0.256074 0.256074 0.256074 0.256074 0.256074 0.256074 0.256074 0.256074 0.256074 0.256074 0.256074 0.256074 0.256074 0.256074 0.256074
