# Output from CTFFind version 4.1.9, run on 2019-11-02 12:26:14
# Input file: stack6_ub_averaged_3000.mrc ; Number of micrographs: 1
# Pixel size: 3.000 Angstroms ; acceleration voltage: 300.0 keV ; spherical aberration: 0.00 mm ; amplitude contrast: 0.07
# Box size: 512 pixels ; min. res.: 30.0 Angstroms ; max. res.: 5.0 Angstroms ; min. def.: 5000.0 um; max. def. 50000.0 um; num. frames averaged: 1
# 6 lines per micrograph: #1 - spatial frequency (1/Angstroms); #2 - 1D rotational average of spectrum (assuming no astigmatism); #3 - 1D rotational average of spectrum; #4 - CTF fit; #5 - cross-correlation between spectrum and CTF fit; #6 - 2sigma of expected cross correlation of noise
0.000000 0.000651 0.001302 0.001953 0.002604 0.003255 0.003906 0.004557 0.005208 0.005859 0.006510 0.007161 0.007812 0.008464 0.009115 0.009766 0.010417 0.011068 0.011719 0.012370 0.013021 0.013672 0.014323 0.014974 0.015625 0.016276 0.016927 0.017578 0.018229 0.018880 0.019531 0.020182 0.020833 0.021484 0.022135 0.022786 0.023438 0.024089 0.024740 0.025391 0.026042 0.026693 0.027344 0.027995 0.028646 0.029297 0.029948 0.030599 0.031250 0.031901 0.032552 0.033203 0.033854 0.034505 0.035156 0.035807 0.036458 0.037109 0.037760 0.038411 0.039062 0.039714 0.040365 0.041016 0.041667 0.042318 0.042969 0.043620 0.044271 0.044922 0.045573 0.046224 0.046875 0.047526 0.048177 0.048828 0.049479 0.050130 0.050781 0.051432 0.052083 0.052734 0.053385 0.054036 0.054688 0.055339 0.055990 0.056641 0.057292 0.057943 0.058594 0.059245 0.059896 0.060547 0.061198 0.061849 0.062500 0.063151 0.063802 0.064453 0.065104 0.065755 0.066406 0.067057 0.067708 0.068359 0.069010 0.069661 0.070312 0.070964 0.071615 0.072266 0.072917 0.073568 0.074219 0.074870 0.075521 0.076172 0.076823 0.077474 0.078125 0.078776 0.079427 0.080078 0.080729 0.081380 0.082031 0.082682 0.083333 0.083984 0.084635 0.085286 0.085938 0.086589 0.087240 0.087891 0.088542 0.089193 0.089844 0.090495 0.091146 0.091797 0.092448 0.093099 0.093750 0.094401 0.095052 0.095703 0.096354 0.097005 0.097656 0.098307 0.098958 0.099609 0.100260 0.100911 0.101562 0.102214 0.102865 0.103516 0.104167 0.104818 0.105469 0.106120 0.106771 0.107422 0.108073 0.108724 0.109375 0.110026 0.110677 0.111328 0.111979 0.112630 0.113281 0.113932 0.114583 0.115234 0.115885 0.116536 0.117188 0.117839 0.118490 0.119141 0.119792 0.120443 0.121094 0.121745 0.122396 0.123047 0.123698 0.124349 0.125000 0.125651 0.126302 0.126953 0.127604 0.128255 0.128906 0.129557 0.130208 0.130859 0.131510 0.132161 0.132812 0.133464 0.134115 0.134766 0.135417 0.136068 0.136719 0.137370 0.138021 0.138672 0.139323 0.139974 0.140625 0.141276 0.141927 0.142578 0.143229 0.143880 0.144531 0.145182 0.145833 0.146484 0.147135 0.147786 0.148438 0.149089 0.149740 0.150391 0.151042 0.151693 0.152344 0.152995 0.153646 0.154297 0.154948 0.155599 0.156250 0.156901 0.157552 0.158203 0.158854 0.159505 0.160156 0.160807 0.161458 0.162109 0.162760 0.163411 0.164062 0.164714 0.165365 0.166016 0.166667 0.167318 0.167969 0.168620 0.169271 0.169922 0.170573 0.171224 0.171875 0.172526 0.173177 0.173828 0.174479 0.175130 0.175781 0.176432 0.177083 0.177734 0.178385 0.179036 0.179688 0.180339 0.180990 0.181641 0.182292 0.182943 0.183594 0.184245 0.184896 0.185547 0.186198 0.186849 0.187500 0.188151 0.188802 0.189453 0.190104 0.190755 0.191406 0.192057 0.192708 0.193359 0.194010 0.194661 0.195312 0.195964 0.196615 0.197266 0.197917 0.198568 0.199219 0.199870 0.200521 0.201172 0.201823 0.202474 0.203125 0.203776 0.204427 0.205078 0.205729 0.206380 0.207031 0.207682 0.208333 0.208984 0.209635 0.210286 0.210938 0.211589 0.212240 0.212891 0.213542 0.214193 0.214844 0.215495 0.216146 0.216797 0.217448 0.218099 0.218750 0.219401 0.220052 0.220703 0.221354 0.222005 0.222656 0.223307 0.223958 0.224609 0.225260 0.225911 0.226562 0.227214 0.227865 0.228516 0.229167 0.229818 0.230469 0.231120 0.231771 0.232422 0.233073 0.233724 0.234375 0.235026 0.235677
       0.31499        0.31499        0.31499        0.31499        0.31499        0.31499        0.31499        0.31499        0.31499        0.31499        0.31499        0.31499        0.31499        0.31499        0.31499        0.31499        0.31499        0.31499        0.31499        0.31499        0.31499        0.31499        0.31499        0.31499        0.31499        0.31499        0.31499        0.31499        0.31499        0.31499        0.31499        0.31499        0.31499        0.31499        0.31499        0.31499        0.31499        0.31499        0.31499        0.31499        0.31499        0.31499        0.31499        0.31499        0.31499        0.31499        0.31499        0.31499        0.31499        0.31499        0.31499        0.63940        0.82531        0.41924        0.31576        0.19409       -0.10152        0.11458       -0.00046        0.03704        0.12143        0.34020        0.43016        0.41410        0.22900       -0.00649        0.05035        0.07527       -0.16058       -0.17367       -0.08756       -0.10347       -0.28994       -0.18467       -0.29978       -0.25141       -0.28063       -0.39600       -0.47397       -0.47707       -0.42039       -0.33577       -0.43762       -0.36554       -0.40465       -0.34655       -0.27075       -0.19600       -0.18988       -0.13299       -0.09470        0.03706        0.08724        0.25003        0.28233        0.37351        0.40392        0.52069        0.59000        0.60802        0.74608        0.70343        0.74296        0.65090        0.66944        0.70161        0.63725        0.61753        0.61147        0.43966        0.40448        0.36431        0.32486        0.22539        0.14025        0.06283        0.06359       -0.00150       -0.07665       -0.03311       -0.02909       -0.06561        0.06434        0.16910        0.25780        0.32513        0.34191        0.43695        0.54890        0.59308        0.54852        0.66816        0.56836        0.54832        0.60141        0.64827        0.53466        0.45993        0.41261        0.37693        0.25453        0.22113        0.13272        0.11852        0.05984        0.06603        0.11569        0.17275        0.14856        0.18075        0.21924        0.24364        0.33908        0.46273        0.50135        0.50189        0.52484        0.57849        0.57098        0.52852        0.43049        0.38929        0.36978        0.27255        0.25270        0.22220        0.20950        0.21092        0.18856        0.16097        0.12665        0.19413        0.25375        0.35224        0.38606        0.40719        0.46351        0.54043        0.48242        0.48564        0.42136        0.40147        0.38609        0.36678        0.29375        0.26314        0.20640        0.23758        0.22151        0.19417        0.21920        0.22645        0.24577        0.29948        0.40351        0.40450        0.37248        0.39408        0.45964        0.48863        0.42885        0.35771        0.33085        0.28942        0.26481        0.24626        0.21317        0.28800        0.29618        0.29711        0.32078        0.31468        0.35472        0.37235        0.37679        0.37898        0.35765        0.32154        0.33998        0.32206        0.30411        0.28207        0.27511        0.22225        0.27565        0.27650        0.30588        0.32538        0.34758        0.37726        0.34367        0.32290        0.35909        0.37325        0.27351        0.30065        0.30704        0.24572        0.21624        0.26018        0.27058        0.27925        0.30185        0.30801        0.33863        0.33898        0.36753        0.33310        0.32839        0.31277        0.29566        0.27583        0.25182        0.25743        0.26008        0.27465        0.30153        0.29612        0.30415        0.31619        0.33031        0.26798        0.30942        0.27168        0.26872        0.28364        0.26772        0.26309        0.26951        0.31492        0.29202        0.32576        0.28914        0.27777        0.30750        0.31337        0.33326        0.31925        0.29744        0.26021        0.27771        0.28183        0.27205        0.31310        0.31707        0.34336        0.32437        0.30381        0.26585        0.28368        0.21380        0.21056        0.23655        0.26456        0.25340        0.29479        0.30891        0.29325        0.34936        0.31553        0.27201        0.24075        0.23839        0.28303        0.30873        0.30792        0.26699        0.27622        0.25504        0.32966        0.29268        0.25311        0.27123        0.25839        0.29273        0.25185        0.29342        0.32738        0.28697        0.22182        0.22774        0.28363        0.32882        0.28800        0.27235        0.24888        0.27480        0.28821        0.37005        0.30420        0.29288        0.25901        0.27314        0.23106        0.17994        0.25803        0.24304        0.21685        0.19845        0.19894        0.23583        0.23522        0.24586        0.19266        0.24619        0.22668        0.20366        0.17774        0.17828        0.20409        0.24091        0.15728        0.07730        0.18398        0.20126        0.15993        0.25580        0.14764        0.22329        0.22948       -0.07938       -0.45830       -0.88919
2.857649 2.829556 2.801608 2.773804 2.746144 2.718628 2.691257 2.664031 2.636949 2.610011 2.583218 2.556569 2.530064 2.503704 2.477488 2.451417 2.425490 2.399708 2.374069 2.348575 2.323226 2.298021 2.272960 2.248044 2.223272 2.198645 2.174162 2.149823 2.125629 2.101579 2.077674 2.053913 2.030296 2.006823 1.983496 1.960312 1.937273 1.914378 1.891628 1.869022 1.846561 1.824243 1.802071 1.780042 1.758158 1.736419 1.714823 1.693373 1.672066 1.650904 1.629887 1.927684 2.288766 1.702537 1.747916 1.387095 0.949507 1.203843 1.033882 1.067542 1.035974 1.497118 1.527084 1.555730 1.284880 0.948637 0.826752 1.013325 0.723012 0.499836 0.582893 0.682598 0.421663 0.491009 0.324834 0.374353 0.248166 0.166642 -0.037836 -0.002066 0.024111 0.078496 0.038391 0.070672 -0.038020 0.026090 0.114114 0.226608 0.289948 0.207383 0.316472 0.547414 0.453793 0.728200 0.788796 0.883271 0.912584 1.119765 1.143090 1.175016 1.336934 1.241141 1.378713 1.183319 1.120823 1.302626 1.149412 1.057905 1.128046 0.892963 0.749920 0.685673 0.673545 0.459502 0.402266 0.259794 0.236613 0.086011 -0.010283 0.082679 0.025279 -0.063094 0.116070 0.252422 0.307698 0.469219 0.491076 0.564960 0.723735 0.820835 0.669108 0.955182 0.796991 0.674792 0.769932 0.812666 0.714020 0.639142 0.453091 0.501675 0.280789 0.200476 0.141130 0.004344 -0.020339 -0.097122 -0.012075 0.026674 0.098082 -0.055354 0.248151 0.096602 0.214126 0.382229 0.445875 0.535245 0.442512 0.585727 0.611052 0.520929 0.396628 0.337058 0.325827 0.152906 0.128782 0.026532 0.086922 0.041615 -0.001945 -0.020690 -0.126508 -0.011965 0.022728 0.112586 0.295376 0.200499 0.352871 0.370476 0.428883 0.435747 0.368388 0.320133 0.227012 0.303744 0.166597 0.152681 0.015599 0.044379 0.066697 -0.029748 -0.013145 0.013651 0.055497 0.073373 0.204930 0.308837 0.237454 0.218479 0.363199 0.410552 0.349895 0.241132 0.178428 0.157540 0.082742 0.076687 0.015285 0.018751 0.137452 0.049450 0.190627 0.095522 0.139163 0.235546 0.202983 0.221847 0.211464 0.192110 0.125355 0.163229 0.123765 0.097302 0.105648 0.002431 0.030715 0.088352 0.048631 0.147533 0.123516 0.207309 0.204753 0.137755 0.123795 0.226431 0.119439 0.077596 0.087152 0.050425 0.000349 -0.028669 0.035556 0.067282 0.025065 0.112064 0.105265 0.124679 0.130947 0.177524 0.113474 0.078070 0.095045 0.078508 0.008980 0.012021 0.027237 -0.009358 0.061112 0.098915 0.054104 0.064764 0.138226 0.087994 0.014810 0.112739 0.020304 0.036883 0.066305 0.019555 0.014003 0.056911 0.087732 0.042567 0.115357 0.059636 0.015387 0.122824 0.076397 0.094048 0.096759 0.031758 0.000782 0.017175 0.060602 0.028504 0.060079 0.101324 0.112639 0.052719 0.129238 0.007867 0.030434 -0.082725 -0.008732 -0.051991 0.022870 0.016871 0.053242 0.063676 0.076115 0.136624 0.030941 0.009452 -0.053653 -0.071500 0.069132 0.050697 0.066253 -0.015144 0.001137 -0.033715 0.088307 0.036480 -0.043113 -0.000195 -0.051513 0.043888 -0.032831 0.044663 0.068550 -0.003071 -0.062780 -0.055668 0.113144 0.042830 0.019988 -0.006779 -0.053073 0.054167 0.051207 0.152956 0.049431 0.016684 0.019681 0.064124 -0.072293 -0.066802 0.037302 0.020108 -0.030940 -0.052134 -0.065304 0.067240 -0.070235 0.055457 -0.025073 0.084409 -0.042605 0.021011 -0.120446 -0.032577 -0.061491 0.076993 -0.055079 -0.145436 0.248262 0.296734 0.226251 0.437337 0.160880 0.295479 0.410148 -0.109965 -1.247859
0.072396 0.072834 0.074148 0.076337 0.079401 0.083340 0.088152 0.093837 0.100392 0.107816 0.116107 0.125260 0.135273 0.146141 0.157859 0.170420 0.183816 0.198040 0.213080 0.228924 0.245560 0.262971 0.281139 0.300046 0.319667 0.339978 0.360951 0.382554 0.404754 0.427511 0.450785 0.474529 0.498695 0.523227 0.548068 0.573154 0.598419 0.623788 0.649184 0.674526 0.699723 0.724685 0.749312 0.773500 0.797141 0.820123 0.842325 0.863626 0.883898 0.903010 0.920827 0.937210 0.952020 0.965113 0.976345 0.985572 0.992648 0.997429 0.999775 0.999546 0.996607 0.990829 0.982091 0.970276 0.955279 0.937007 0.915375 0.890316 0.861776 0.829720 0.794128 0.755003 0.712369 0.666273 0.616786 0.564005 0.508054 0.449087 0.387284 0.322856 0.256046 0.187126 0.116399 0.044198 0.029112 0.103139 0.177463 0.251637 0.325190 0.397630 0.468446 0.537110 0.603083 0.665821 0.724772 0.779391 0.829136 0.873480 0.911916 0.943960 0.969163 0.987111 0.997438 0.999830 0.994031 0.979850 0.957169 0.925947 0.886224 0.838130 0.781886 0.717805 0.646301 0.567882 0.483157 0.392827 0.297691 0.198634 0.096626 0.007289 0.111996 0.216330 0.319075 0.418989 0.514812 0.605284 0.689164 0.765248 0.832384 0.889497 0.935605 0.969839 0.991465 0.999897 0.994715 0.975685 0.942766 0.896124 0.836139 0.763411 0.678759 0.583219 0.478040 0.364671 0.244747 0.120071 0.007416 0.135651 0.262491 0.385744 0.503204 0.612699 0.712122 0.799486 0.872962 0.930919 0.971972 0.995016 0.999261 0.984266 0.949957 0.896652 0.825067 0.736320 0.631922 0.513767 0.384096 0.245476 0.100742 0.047043 0.194663 0.338804 0.476135 0.603387 0.717431 0.815360 0.894572 0.952844 0.988403 0.999991 0.986915 0.949090 0.887063 0.802023 0.695796 0.570818 0.430095 0.277139 0.115894 0.049363 0.214129 0.373793 0.523768 0.659624 0.777228 0.872872 0.943402 0.986338 0.999968 0.983434 0.936785 0.861008 0.758033 0.630705 0.482711 0.318512 0.143198 0.037646 0.218112 0.392162 0.553834 0.697441 0.817788 0.910368 0.971544 0.998712 0.990426 0.946489 0.868006 0.757378 0.618259 0.455457 0.274786 0.082875 0.113063 0.305495 0.486860 0.649860 0.787775 0.894742 0.966030 0.998261 0.989603 0.939884 0.850657 0.725183 0.568339 0.386464 0.187115 0.021222 0.229485 0.428429 0.609029 0.762906 0.882727 0.962576 0.998269 0.987603 0.930516 0.829153 0.687820 0.512845 0.312317 0.095741 0.126393 0.343115 0.543506 0.717261 0.855231 0.949929 0.995962 0.990373 0.932862 0.825876 0.674547 0.486492 0.271463 0.040864 0.192826 0.416720 0.618243 0.785843 0.909668 0.982192 0.998691 0.957600 0.860686 0.713018 0.522769 0.300789 0.060031 0.185188 0.420026 0.630008 0.801936 0.924748 0.990258 0.993746 0.934345 0.815192 0.643316 0.429293 0.186617 0.069098 0.321109 0.552641 0.747992 0.893651 0.979240 0.998317 0.948908 0.833750 0.660204 0.439857 0.187785 0.078420 0.339879 0.577737 0.774545 0.915567 0.989924 0.991484 0.919435 0.778460 0.578508 0.334154 0.063595 0.212672 0.473387 0.698169 0.869118 0.972300 0.998923 0.946160 0.817507 0.622628 0.376713 0.099354 0.186981 0.458738 0.693213 0.870481 0.975128 0.997655 0.935412 0.792969 0.581877 0.319807 0.029131 0.264931 0.536495 0.761290 0.918868 0.994512 0.980689 0.877881 0.694700 0.447271 0.157877 0.146971 0.438956 0.690544 0.877643 0.981945 0.992793 0.908362 0.736009 0.491734 0.198793 0.114449 0.417246 0.679439 0.874529
1.000000 1.000000 1.000000 1.000000 1.000000 1.000000 1.000000 1.000000 1.000000 1.000000 1.000000 1.000000 1.000000 1.000000 1.000000 1.000000 1.000000 1.000000 1.000000 1.000000 1.000000 1.000000 1.000000 1.000000 1.000000 1.000000 1.000000 1.000000 1.000000 1.000000 1.000000 1.000000 1.000000 1.000000 1.000000 1.000000 1.000000 1.000000 1.000000 1.000000 1.000000 1.000000 1.000000 1.000000 1.000000 1.000000 1.000000 1.000000 1.000000 1.000000 1.000000 1.000000 0.835510 0.835510 0.835510 0.835510 0.835510 0.835510 0.835510 0.813058 0.813058 0.813058 0.813058 0.813058 0.813058 0.813058 0.813058 0.813058 0.813058 0.813058 0.813058 0.813058 0.813058 0.813058 0.813058 0.813058 0.813058 0.813058 0.813058 0.813058 0.813058 0.813058 0.813058 0.813058 0.813058 0.813058 0.813058 0.813058 0.813058 0.813058 0.813058 0.813058 0.813058 0.813058 0.813058 0.813058 0.813058 0.813058 0.813058 0.813058 0.813058 0.813058 0.813058 0.952218 0.952852 0.945092 0.943940 0.942142 0.939005 0.934470 0.934023 0.935392 0.935594 0.936226 0.938419 0.939487 0.941232 0.942497 0.943399 0.944261 0.952356 0.956000 0.956440 0.955966 0.951262 0.957864 0.957083 0.956921 0.957721 0.958033 0.958757 0.958630 0.958453 0.957871 0.956821 0.957551 0.957411 0.956689 0.955656 0.953732 0.953752 0.953298 0.953289 0.954246 0.955119 0.955747 0.956249 0.955367 0.955653 0.955629 0.955525 0.950356 0.950392 0.944096 0.944852 0.946081 0.945800 0.944725 0.943343 0.943385 0.943231 0.943121 0.942890 0.943125 0.926677 0.925293 0.925322 0.924539 0.916876 0.906566 0.900323 0.894031 0.894922 0.898694 0.903434 0.903436 0.900476 0.899755 0.885029 0.888950 0.875815 0.873160 0.860495 0.870920 0.873174 0.874469 0.870006 0.869459 0.868283 0.866384 0.858538 0.862514 0.863418 0.859348 0.855770 0.853542 0.852457 0.853664 0.858467 0.855529 0.850289 0.847597 0.836376 0.827571 0.826340 0.829152 0.836649 0.848685 0.849620 0.849034 0.841558 0.837904 0.830977 0.825363 0.823780 0.825554 0.822900 0.826941 0.825277 0.832181 0.822546 0.817910 0.822765 0.830907 0.835728 0.838533 0.841133 0.839214 0.835156 0.818437 0.819044 0.813880 0.764514 0.767643 0.753501 0.753795 0.741650 0.739923 0.736889 0.738206 0.731794 0.723700 0.734241 0.729714 0.687037 0.696438 0.689880 0.679424 0.657762 0.661631 0.676098 0.683645 0.680329 0.685642 0.671899 0.670077 0.682605 0.681603 0.689321 0.685379 0.683378 0.675345 0.677798 0.666339 0.670937 0.662920 0.662258 0.662167 0.658051 0.642222 0.649027 0.644593 0.640938 0.631164 0.602187 0.572852 0.553837 0.545484 0.525700 0.497766 0.515431 0.523593 0.504807 0.494591 0.477981 0.441019 0.435852 0.434166 0.408862 0.396940 0.375513 0.341758 0.338197 0.347291 0.354199 0.345220 0.346528 0.332554 0.292910 0.286545 0.251618 0.265370 0.287993 0.270122 0.246347 0.247642 0.266092 0.255449 0.265957 0.264538 0.277941 0.235042 0.184119 0.205907 0.204621 0.218086 0.204098 0.172983 0.198671 0.178956 0.186370 0.188744 0.151980 0.120292 0.102002 0.070215 0.077992 0.102413 0.116948 0.111161 0.095475 0.007177 0.039260 0.059859 0.059859 0.059859 0.059859 0.059859 0.059859 0.059859 0.059859 0.059859 0.059859 0.059859 0.003120 0.003120 0.003120 0.003120 0.003120 0.003120 0.003120 0.003120 0.003120 0.003120 0.003120 0.003120 0.003120 0.003120 0.003120 0.003120 0.003120 0.003120 0.003120
0.000000 0.000000 0.000000 0.000000 0.000000 0.000000 0.000000 0.000000 0.000000 0.000000 0.000000 0.000000 0.000000 0.000000 0.000000 0.000000 0.000000 0.000000 0.000000 0.000000 0.000000 9401.000000 0.000000 0.000000 0.000000 0.000000 0.000000 0.000000 0.000000 0.000000 0.000000 0.000000 0.000000 0.000000 0.000000 0.000000 0.000000 0.000000 0.000000 0.000000 0.000000 0.000000 0.000000 0.000000 0.000000 0.000000 0.000000 0.000000 0.000000 0.000000 0.000000 0.000000 0.173422 0.173422 0.173422 0.173422 0.173422 0.173422 0.173422 0.191565 0.191565 0.191565 0.191565 0.191565 0.191565 0.191565 0.191565 0.191565 0.191565 0.191565 0.191565 0.191565 0.191565 0.191565 0.191565 0.191565 0.191565 0.191565 0.191565 0.191565 0.191565 0.191565 0.191565 0.191565 0.191565 0.191565 0.191565 0.191565 0.191565 0.191565 0.191565 0.191565 0.191565 0.191565 0.191565 0.191565 0.191565 0.191565 0.191565 0.191565 0.191565 0.191565 0.191565 0.219529 0.219529 0.219529 0.219529 0.219529 0.219529 0.219529 0.219529 0.219529 0.219529 0.219529 0.219529 0.219529 0.219529 0.219529 0.219529 0.219529 0.219529 0.219529 0.219529 0.219529 0.219529 0.219529 0.219529 0.219529 0.219529 0.219529 0.219529 0.219529 0.219529 0.219529 0.237356 0.237356 0.237356 0.237356 0.237356 0.237356 0.237356 0.237356 0.237356 0.237356 0.237356 0.237356 0.237356 0.237356 0.237356 0.237356 0.237356 0.237356 0.237356 0.237356 0.237356 0.237356 0.237356 0.237356 0.244339 0.244339 0.244339 0.244339 0.244339 0.244339 0.244339 0.244339 0.244339 0.244339 0.244339 0.244339 0.244339 0.244339 0.244339 0.244339 0.244339 0.244339 0.244339 0.244339 0.244339 0.248069 0.248069 0.248069 0.248069 0.248069 0.248069 0.248069 0.248069 0.248069 0.248069 0.248069 0.248069 0.248069 0.248069 0.248069 0.248069 0.248069 0.248069 0.248069 0.248069 0.248069 0.248069 0.248069 0.248069 0.248069 0.248069 0.248069 0.248069 0.248069 0.248069 0.248069 0.248069 0.248069 0.248069 0.248069 0.248069 0.248069 0.256074 0.256074 0.256074 0.256074 0.256074 0.256074 0.256074 0.256074 0.256074 0.256074 0.256074 0.256074 0.256074 0.256074 0.256074 0.256074 0.256074 0.256074 0.256074 0.256074 0.256074 0.256074 0.256074 0.256074 0.256074 0.256074 0.256074 0.256074 0.256074 0.256074 0.256074 0.256074 0.256074 0.256074 0.256074 0.256074 0.256074 0.256074 0.256074 0.256074 0.256074 0.256074 0.256074 0.256074 0.256074 0.260378 0.260378 0.260378 0.260378 0.260378 0.260378 0.260378 0.260378 0.260378 0.260378 0.260378 0.260378 0.260378 0.256074 0.256074 0.256074 0.256074 0.256074 0.256074 0.256074 0.256074 0.256074 0.256074 0.256074 0.256074 0.256074 0.260378 0.260378 0.260378 0.260378 0.260378 0.260378 0.260378 0.260378 0.260378 0.260378 0.260378 0.260378 0.251976 0.251976 0.251976 0.251976 0.251976 0.251976 0.251976 0.251976 0.251976 0.251976 0.251976 0.251976 0.256074 0.256074 0.256074 0.256074 0.256074 0.256074 0.256074 0.256074 0.256074 0.256074 0.256074 0.251976 0.251976 0.251976 0.251976 0.251976 0.251976 0.251976 0.251976 0.251976 0.251976 0.251976 0.248069 0.248069 0.248069 0.248069 0.248069 0.248069 0.248069 0.248069 0.248069 0.248069 0.248069 0.256074 0.256074 0.256074 0.256074 0.256074 0.256074 0.256074 0.256074 0.256074 0.256074 0.256074 0.256074 0.256074 0.256074 0.256074 0.256074 0.256074 0.256074 0.256074
