# Output from CTFFind version 4.1.9, run on 2019-11-03 18:52:53
# Input file: stack15_ub_averaged_2000.mrc ; Number of micrographs: 1
# Pixel size: 3.000 Angstroms ; acceleration voltage: 300.0 keV ; spherical aberration: 0.00 mm ; amplitude contrast: 0.07
# Box size: 512 pixels ; min. res.: 30.0 Angstroms ; max. res.: 5.0 Angstroms ; min. def.: 5000.0 um; max. def. 50000.0 um; num. frames averaged: 1
# 6 lines per micrograph: #1 - spatial frequency (1/Angstroms); #2 - 1D rotational average of spectrum (assuming no astigmatism); #3 - 1D rotational average of spectrum; #4 - CTF fit; #5 - cross-correlation between spectrum and CTF fit; #6 - 2sigma of expected cross correlation of noise
0.000000 0.000651 0.001302 0.001953 0.002604 0.003255 0.003906 0.004557 0.005208 0.005859 0.006510 0.007161 0.007812 0.008464 0.009115 0.009766 0.010417 0.011068 0.011719 0.012370 0.013021 0.013672 0.014323 0.014974 0.015625 0.016276 0.016927 0.017578 0.018229 0.018880 0.019531 0.020182 0.020833 0.021484 0.022135 0.022786 0.023438 0.024089 0.024740 0.025391 0.026042 0.026693 0.027344 0.027995 0.028646 0.029297 0.029948 0.030599 0.031250 0.031901 0.032552 0.033203 0.033854 0.034505 0.035156 0.035807 0.036458 0.037109 0.037760 0.038411 0.039062 0.039714 0.040365 0.041016 0.041667 0.042318 0.042969 0.043620 0.044271 0.044922 0.045573 0.046224 0.046875 0.047526 0.048177 0.048828 0.049479 0.050130 0.050781 0.051432 0.052083 0.052734 0.053385 0.054036 0.054688 0.055339 0.055990 0.056641 0.057292 0.057943 0.058594 0.059245 0.059896 0.060547 0.061198 0.061849 0.062500 0.063151 0.063802 0.064453 0.065104 0.065755 0.066406 0.067057 0.067708 0.068359 0.069010 0.069661 0.070312 0.070964 0.071615 0.072266 0.072917 0.073568 0.074219 0.074870 0.075521 0.076172 0.076823 0.077474 0.078125 0.078776 0.079427 0.080078 0.080729 0.081380 0.082031 0.082682 0.083333 0.083984 0.084635 0.085286 0.085938 0.086589 0.087240 0.087891 0.088542 0.089193 0.089844 0.090495 0.091146 0.091797 0.092448 0.093099 0.093750 0.094401 0.095052 0.095703 0.096354 0.097005 0.097656 0.098307 0.098958 0.099609 0.100260 0.100911 0.101562 0.102214 0.102865 0.103516 0.104167 0.104818 0.105469 0.106120 0.106771 0.107422 0.108073 0.108724 0.109375 0.110026 0.110677 0.111328 0.111979 0.112630 0.113281 0.113932 0.114583 0.115234 0.115885 0.116536 0.117188 0.117839 0.118490 0.119141 0.119792 0.120443 0.121094 0.121745 0.122396 0.123047 0.123698 0.124349 0.125000 0.125651 0.126302 0.126953 0.127604 0.128255 0.128906 0.129557 0.130208 0.130859 0.131510 0.132161 0.132812 0.133464 0.134115 0.134766 0.135417 0.136068 0.136719 0.137370 0.138021 0.138672 0.139323 0.139974 0.140625 0.141276 0.141927 0.142578 0.143229 0.143880 0.144531 0.145182 0.145833 0.146484 0.147135 0.147786 0.148438 0.149089 0.149740 0.150391 0.151042 0.151693 0.152344 0.152995 0.153646 0.154297 0.154948 0.155599 0.156250 0.156901 0.157552 0.158203 0.158854 0.159505 0.160156 0.160807 0.161458 0.162109 0.162760 0.163411 0.164062 0.164714 0.165365 0.166016 0.166667 0.167318 0.167969 0.168620 0.169271 0.169922 0.170573 0.171224 0.171875 0.172526 0.173177 0.173828 0.174479 0.175130 0.175781 0.176432 0.177083 0.177734 0.178385 0.179036 0.179688 0.180339 0.180990 0.181641 0.182292 0.182943 0.183594 0.184245 0.184896 0.185547 0.186198 0.186849 0.187500 0.188151 0.188802 0.189453 0.190104 0.190755 0.191406 0.192057 0.192708 0.193359 0.194010 0.194661 0.195312 0.195964 0.196615 0.197266 0.197917 0.198568 0.199219 0.199870 0.200521 0.201172 0.201823 0.202474 0.203125 0.203776 0.204427 0.205078 0.205729 0.206380 0.207031 0.207682 0.208333 0.208984 0.209635 0.210286 0.210938 0.211589 0.212240 0.212891 0.213542 0.214193 0.214844 0.215495 0.216146 0.216797 0.217448 0.218099 0.218750 0.219401 0.220052 0.220703 0.221354 0.222005 0.222656 0.223307 0.223958 0.224609 0.225260 0.225911 0.226562 0.227214 0.227865 0.228516 0.229167 0.229818 0.230469 0.231120 0.231771 0.232422 0.233073 0.233724 0.234375 0.235026 0.235677
       0.41977        0.41977        0.41977        0.41977        0.41977        0.41977        0.41977        0.41977        0.41977        0.41977        0.41977        0.41977        0.41977        0.41977        0.41977        0.41977        0.41977        0.41977        0.41977        0.41977        0.41977        0.41977        0.41977        0.41977        0.41977        0.41977        0.41977        0.41977        0.41977        0.41977        0.41977        0.41977        0.41977        0.41977        0.41977        0.41977        0.41977        0.41977        0.41977        0.41977        0.41977        0.41977        0.41977        0.41977        0.41977        0.41977        0.41977        0.41977        0.41977        0.41977        0.41977        0.12822       -0.26741       -0.24193       -0.21706       -0.18721       -0.13645       -0.16014       -0.09641        0.04805       -0.03313        0.11412        0.18734        0.25432        0.17422        0.22833        0.19769        0.22098        0.30692        0.32462        0.33456        0.27723        0.37925        0.39109        0.44243        0.33804        0.35991        0.28786        0.38432        0.27103        0.32559        0.38172        0.38122        0.52206        0.37950        0.48260        0.45283        0.46113        0.41189        0.38081        0.42793        0.43940        0.32438        0.38068        0.41154        0.47589        0.43141        0.44625        0.33579        0.30600        0.43817        0.40225        0.48772        0.45029        0.45622        0.44633        0.49170        0.41286        0.42553        0.39932        0.39487        0.46755        0.42362        0.40137        0.35118        0.40036        0.39749        0.43229        0.42087        0.41237        0.41787        0.42276        0.42106        0.44572        0.39977        0.37933        0.44204        0.47909        0.40775        0.36522        0.34849        0.34779        0.48151        0.48274        0.43288        0.40920        0.42262        0.40863        0.42030        0.43138        0.45904        0.47389        0.43549        0.46946        0.37049        0.36143        0.37546        0.47033        0.42932        0.38267        0.42986        0.46175        0.51849        0.50163        0.45296        0.44552        0.42016        0.42721        0.46275        0.41216        0.43426        0.43880        0.47999        0.42051        0.42107        0.42910        0.43871        0.43890        0.45518        0.43979        0.41587        0.43741        0.42763        0.39597        0.41713        0.45038        0.44780        0.47856        0.49496        0.53589        0.48763        0.48336        0.44781        0.45568        0.40517        0.46557        0.43077        0.49192        0.47431        0.38763        0.39953        0.43246        0.45968        0.46255        0.45591        0.41858        0.40035        0.37266        0.48068        0.45490        0.42578        0.46786        0.45260        0.41217        0.46093        0.43084        0.39393        0.42145        0.45049        0.45277        0.44772        0.45992        0.42804        0.42403        0.47805        0.44770        0.45456        0.48451        0.47890        0.41185        0.42125        0.46055        0.44776        0.37940        0.39181        0.44428        0.42097        0.43298        0.38650        0.41874        0.40295        0.41632        0.44346        0.42893        0.46068        0.36351        0.38352        0.42206        0.39959        0.39362        0.37868        0.41819        0.40424        0.36904        0.38938        0.43673        0.41307        0.42009        0.43760        0.34339        0.37686        0.41919        0.38226        0.44187        0.47353        0.37827        0.39640        0.37007        0.36485        0.37534        0.39659        0.41218        0.37900        0.35254        0.40531        0.39940        0.35793        0.37945        0.38042        0.47099        0.40973        0.41120        0.37751        0.42734        0.42124        0.37868        0.41138        0.40897        0.36893        0.40882        0.40836        0.36085        0.42702        0.40891        0.41937        0.38063        0.41068        0.42061        0.40408        0.38751        0.36486        0.40011        0.45830        0.36386        0.33840        0.41571        0.44982        0.40719        0.41059        0.39977        0.41514        0.38156        0.35383        0.36198        0.36366        0.38451        0.37746        0.30994        0.35051        0.37074        0.36558        0.36755        0.40790        0.35571        0.34973        0.33555        0.36934        0.39399        0.39848        0.35083        0.34697        0.33974        0.31995        0.37746        0.29785        0.39101        0.36564        0.38869        0.26397        0.32829        0.36856        0.39719        0.40847        0.35081        0.42379        0.41993        0.33913        0.38792        0.36780        0.37374        0.35997        0.32783        0.29245        0.32532        0.26902        0.33542        0.24549        0.34240        0.32456        0.42245        0.37176        0.33928        0.34306        0.37524        0.46523        0.35371        0.17610        0.20491        0.18687        0.10588        0.07057       -0.65373       -0.97344
0.419769 0.419769 0.419769 0.419769 0.419769 0.419769 0.419769 0.419769 0.419769 0.419769 0.419769 0.419769 0.419769 0.419769 0.419769 0.419769 0.419769 0.419769 0.419769 0.419769 0.419769 0.419769 0.419769 0.419769 0.419769 0.419769 0.419769 0.419769 0.419769 0.419769 0.419769 0.419769 0.419769 0.419769 0.419769 0.419769 0.419769 0.419769 0.419769 0.419769 0.419769 0.419769 0.419769 0.419769 0.419769 0.419769 0.419769 0.419769 0.419769 0.419769 0.419769 0.204433 -0.280743 -0.238008 -0.207278 -0.229056 -0.127146 -0.157865 -0.095216 0.027951 -0.008378 0.043486 0.203790 0.273526 0.190660 0.201305 0.170865 0.195813 0.381449 0.303353 0.313176 0.294004 0.352580 0.375691 0.463466 0.327786 0.401252 0.298449 0.359496 0.256192 0.289774 0.401111 0.372195 0.507321 0.366672 0.505563 0.460132 0.429594 0.489498 0.316900 0.449103 0.433649 0.334237 0.410893 0.358161 0.494222 0.436603 0.463838 0.367424 0.254928 0.416977 0.435270 0.443703 0.442998 0.487121 0.418110 0.497773 0.427398 0.446642 0.422794 0.322911 0.513497 0.376203 0.475888 0.349621 0.384855 0.425806 0.364231 0.456585 0.439650 0.413954 0.442324 0.373326 0.497558 0.385675 0.371495 0.408869 0.501912 0.411364 0.373898 0.361034 0.303473 0.471952 0.478218 0.492403 0.403615 0.447189 0.333198 0.471873 0.448495 0.385306 0.496123 0.459423 0.477147 0.397525 0.374407 0.318166 0.478514 0.435824 0.393632 0.423952 0.451429 0.482381 0.529648 0.481786 0.453397 0.469575 0.338987 0.493989 0.383756 0.426052 0.418211 0.513624 0.430591 0.388958 0.457427 0.462476 0.426053 0.430265 0.428105 0.442096 0.462890 0.386847 0.441622 0.382604 0.481783 0.404486 0.511267 0.454786 0.510194 0.568872 0.482828 0.411949 0.496217 0.422512 0.419932 0.458599 0.466835 0.511849 0.410627 0.387694 0.432864 0.439780 0.450970 0.467337 0.461415 0.386946 0.345593 0.446820 0.485234 0.436546 0.455995 0.463305 0.441716 0.414095 0.461776 0.437672 0.361653 0.465165 0.418879 0.466680 0.458496 0.462078 0.397380 0.418395 0.522751 0.417758 0.488419 0.474809 0.444667 0.419041 0.449777 0.467142 0.384534 0.373168 0.424289 0.450589 0.419205 0.423500 0.367476 0.424113 0.411692 0.425535 0.436810 0.474710 0.412014 0.347509 0.412517 0.403345 0.409719 0.394590 0.360055 0.406848 0.407204 0.367981 0.407999 0.439046 0.411496 0.446963 0.394815 0.345854 0.387866 0.396621 0.400233 0.467262 0.465463 0.360604 0.404570 0.374571 0.338647 0.388545 0.411897 0.385943 0.390149 0.345445 0.423381 0.396643 0.367389 0.354809 0.425280 0.427691 0.431319 0.395842 0.374542 0.432916 0.424799 0.391802 0.376552 0.445930 0.384883 0.372470 0.438735 0.333834 0.454185 0.379219 0.427493 0.358090 0.426418 0.423055 0.375015 0.371674 0.383907 0.407645 0.445647 0.331024 0.323085 0.410130 0.464558 0.376758 0.397949 0.438853 0.396771 0.406742 0.327128 0.371845 0.375116 0.346937 0.411625 0.287095 0.365970 0.368784 0.361397 0.361316 0.389304 0.354818 0.344339 0.331501 0.365639 0.416125 0.410588 0.327530 0.333322 0.315063 0.322501 0.395995 0.270297 0.408884 0.383689 0.406496 0.202585 0.324350 0.409680 0.379843 0.421414 0.312610 0.454258 0.401231 0.358268 0.323788 0.366138 0.454598 0.360997 0.315264 0.253792 0.344683 0.159208 0.440334 0.203918 0.338657 0.335125 0.460539 0.359343 0.350400 0.343819 0.373390 0.501392 0.347312 0.111265 0.237825 0.087495 0.054241 0.079155 -0.973439
0.072396 0.073699 0.077606 0.084114 0.093221 0.104917 0.119193 0.136032 0.155414 0.177306 0.201671 0.228455 0.257592 0.288998 0.322570 0.358181 0.395678 0.434880 0.475574 0.517512 0.560406 0.603931 0.647717 0.691350 0.734371 0.776275 0.816512 0.854488 0.889567 0.921078 0.948319 0.970565 0.987075 0.997109 0.999934 0.994847 0.981184 0.958349 0.925824 0.883201 0.830201 0.766695 0.692737 0.608575 0.514683 0.411774 0.300818 0.183050 0.059978 0.066622 0.194718 0.322037 0.446099 0.564260 0.673758 0.771784 0.855550 0.922379 0.969795 0.995623 0.998090 0.975930 0.928482 0.855776 0.758613 0.638618 0.498277 0.340931 0.170751 0.007336 0.187755 0.364437 0.531010 0.681029 0.808239 0.906853 0.971852 0.999278 0.986511 0.932515 0.838026 0.705680 0.540051 0.347591 0.136465 0.083731 0.302355 0.508211 0.690127 0.837578 0.941352 0.994197 0.991403 0.931298 0.815580 0.649472 0.441649 0.203929 0.049288 0.301817 0.536683 0.737266 0.888535 0.978256 0.998114 0.944609 0.819665 0.630842 0.391112 0.118152 0.166811 0.440566 0.679791 0.863080 0.972981 0.997817 0.933124 0.782517 0.557839 0.278515 0.029891 0.337869 0.614711 0.831610 0.964776 0.998260 0.926115 0.753619 0.497323 0.183806 0.152806 0.474401 0.743154 0.926075 0.999270 0.951379 0.785649 0.520294 0.186927 0.172866 0.512527 0.786501 0.956493 0.997101 0.900015 0.676028 0.354427 0.020367 0.394617 0.712845 0.926142 0.999980 0.920240 0.696385 0.361051 0.034165 0.426257 0.750714 0.952257 0.994621 0.867625 0.590086 0.207789 0.213492 0.598976 0.878116 0.997784 0.932931 0.692498 0.319129 0.117666 0.533977 0.847506 0.994072 0.941327 0.696663 0.307259 0.148170 0.574803 0.881308 0.999728 0.901239 0.604016 0.170979 0.302671 0.709945 0.956267 0.981944 0.777520 0.387884 0.096506 0.559894 0.888686 0.999649 0.861826 0.506229 0.020143 0.473386 0.846308 0.999063 0.887996 0.538997 0.042899 0.467126 0.850847 0.999819 0.868933 0.491358 0.028355 0.542135 0.900191 0.995078 0.795047 0.356034 0.192454 0.684526 0.967930 0.951852 0.637378 0.120061 0.437663 0.856765 0.999325 0.815077 0.360739 0.215643 0.721779 0.985109 0.912491 0.524791 0.046985 0.604457 0.950170 0.958160 0.621440 0.058013 0.528725 0.922635 0.974921 0.661928 0.097638 0.505888 0.917295 0.975046 0.652509 0.072171 0.538817 0.936638 0.958642 0.591640 0.018625 0.623298 0.971122 0.913640 0.470614 0.173897 0.746093 0.998282 0.817359 0.277881 0.385958 0.880396 0.982200 0.641282 0.007882 0.631133 0.981189 0.876694 0.361817 0.325106 0.859903 0.985439 0.637126 0.021027 0.670911 0.993006 0.824609 0.244761 0.459631 0.933855 0.934364 0.456254 0.258553 0.841164 0.985727 0.611927 0.087144 0.741709 0.999875 0.718342 0.045205 0.654553 0.995416 0.784909 0.135484 0.591852 0.986325 0.820269 0.183740 0.560442 0.981326 0.830175 0.190709 0.563220 0.983887 0.816414 0.156538 0.599936 0.992302 0.776525 0.080603 0.667138 0.999642 0.704201 0.037588 0.757255 0.993688 0.590485 0.196386 0.857106 0.957268 0.426147 0.389007 0.946414 0.869718 0.205545 0.599770 0.997208 0.710410 0.067945 0.800824 0.975642 0.465077 0.375368 0.950839 0.847854 0.135153 0.676795 0.998533 0.591107 0.251645 0.910207 0.893814 0.209577 0.633529 0.999885 0.607691 0.249284 0.916659 0.877988 0.158060 0.686611 0.994581 0.519168 0.368591 0.964485 0.789207 0.021695 0.816605 0.948876 0.305630 0.589993 0.999990
1.000000 1.000000 1.000000 1.000000 1.000000 1.000000 1.000000 1.000000 1.000000 1.000000 1.000000 1.000000 1.000000 1.000000 1.000000 1.000000 1.000000 1.000000 1.000000 1.000000 1.000000 1.000000 1.000000 1.000000 1.000000 1.000000 1.000000 1.000000 1.000000 1.000000 1.000000 1.000000 1.000000 1.000000 1.000000 1.000000 1.000000 1.000000 1.000000 1.000000 1.000000 1.000000 1.000000 1.000000 1.000000 1.000000 1.000000 1.000000 1.000000 1.000000 1.000000 1.000000 -0.201096 -0.201096 -0.201096 -0.201096 -0.201096 -0.201096 -0.201096 -0.201096 -0.264727 -0.264727 -0.264727 -0.264727 -0.264727 -0.264727 -0.264727 -0.264727 -0.264727 -0.264727 -0.264727 -0.264727 -0.264727 -0.264727 -0.264727 -0.264727 -0.272472 -0.296741 -0.318829 -0.322156 -0.339395 -0.284352 -0.233079 -0.172516 -0.232530 -0.232373 -0.230242 -0.240672 -0.190146 -0.147235 -0.126084 -0.081193 -0.148271 -0.151050 -0.157308 -0.196179 -0.253017 -0.242310 -0.251600 -0.220428 -0.197535 -0.169592 -0.166796 -0.142545 -0.105485 -0.066957 -0.061060 -0.066312 -0.058438 -0.043371 -0.025073 -0.010851 0.065899 0.070748 0.115927 0.132512 0.226483 0.202637 0.184944 0.202491 0.150786 0.102945 0.095608 0.072875 0.158289 0.187243 0.166890 0.198739 0.137884 0.093639 0.063876 0.078412 0.080759 0.080784 0.137143 0.210477 0.216572 0.206130 0.176575 0.174501 0.146704 0.148224 0.098412 0.085598 0.056179 0.083487 0.067530 0.067592 0.084467 0.044770 0.015690 0.013976 -0.030257 -0.082884 -0.102986 -0.118063 -0.179157 -0.146361 -0.090587 -0.142385 -0.122020 -0.097850 -0.130560 -0.164388 -0.158000 -0.114813 -0.161359 -0.086364 -0.080038 -0.064085 -0.053236 -0.047141 0.011731 0.030499 0.079496 0.121255 0.113355 0.148885 0.142827 0.208718 0.254719 0.274643 0.306086 0.288811 0.256817 0.225793 0.229826 0.221653 0.233464 0.281193 0.211551 0.244769 0.254763 0.252758 0.282348 0.245283 0.310415 0.307271 0.296988 0.369982 0.318252 0.335703 0.353985 0.390314 0.345067 0.380421 0.353483 0.361186 0.305104 0.306174 0.318222 0.313982 0.275420 0.266195 0.257943 0.245408 0.249748 0.198222 0.172856 0.215949 0.232613 0.260594 0.191065 0.196788 0.187456 0.213300 0.229076 0.260460 0.274367 0.296044 0.300662 0.363166 0.365491 0.327196 0.285588 0.208596 0.187386 0.261894 0.289132 0.257729 0.268939 0.249791 0.233564 0.281009 0.253778 0.274981 0.226743 0.251704 0.230325 0.247160 0.229870 0.261929 0.259669 0.325266 0.311190 0.338963 0.314381 0.312280 0.314916 0.292712 0.312235 0.290170 0.310018 0.302489 0.321243 0.330764 0.360176 0.366790 0.382911 0.348882 0.385207 0.400832 0.421522 0.440310 0.426319 0.442030 0.423450 0.505580 0.526726 0.525900 0.497799 0.494694 0.463667 0.477332 0.490833 0.483868 0.438623 0.414802 0.372716 0.330885 0.333179 0.293096 0.274122 0.343054 0.333678 0.265184 0.279250 0.262277 0.242549 0.236568 0.239621 0.272722 0.244585 0.281336 0.284999 0.296446 0.318443 0.334537 0.289415 0.249481 0.278800 0.263682 0.232215 0.210554 0.164520 0.148394 0.167731 0.158430 0.159533 0.120863 0.132997 0.102842 0.058551 0.018632 0.024710 -0.002583 -0.025967 -0.048087 -0.041771 -0.083768 -0.096540 0.005978 0.022595 0.029531 -0.036938 0.050978 0.053235 0.071824 -0.034459 -0.034459 -0.034459 -0.034459 -0.002857 -0.002857 -0.002857 -0.043499 -0.043499 -0.043499 -0.043499 -0.002857 -0.002857 -0.002857 -0.019485 -0.019485 -0.019485 -0.019485 -0.013330 -0.013330 -0.013330 -0.043267 -0.043267 -0.043267 -0.043267
0.000000 0.000000 0.000000 0.000000 0.000000 0.000000 0.000000 0.000000 0.000000 0.000000 0.000000 0.000000 0.000000 0.000000 0.000000 0.000000 0.000000 0.000000 0.000000 0.000000 0.000000 0.000000 0.000000 0.000000 0.000000 0.000000 0.000000 0.000000 0.000000 0.000000 0.000000 0.000000 0.000000 0.000000 0.000000 0.000000 0.000000 0.000000 0.000000 0.000000 0.000000 0.000000 0.000000 0.000000 0.000000 0.000000 0.000000 0.000000 0.000000 0.000000 0.000000 0.000000 0.248069 0.248069 0.248069 0.248069 0.248069 0.248069 0.248069 0.248069 0.285714 0.285714 0.285714 0.285714 0.285714 0.285714 0.285714 0.285714 0.285714 0.285714 0.285714 0.285714 0.285714 0.285714 0.285714 0.285714 0.285714 0.285714 0.304997 0.304997 0.304997 0.304997 0.304997 0.304997 0.304997 0.304997 0.304997 0.304997 0.304997 0.304997 0.304997 0.304997 0.320256 0.320256 0.320256 0.320256 0.320256 0.320256 0.320256 0.320256 0.320256 0.320256 0.320256 0.320256 0.320256 0.320256 0.320256 0.320256 0.320256 0.320256 0.320256 0.320256 0.320256 0.320256 0.320256 0.328798 0.328798 0.328798 0.328798 0.328798 0.328798 0.328798 0.328798 0.328798 0.328798 0.320256 0.320256 0.320256 0.320256 0.320256 0.320256 0.320256 0.320256 0.320256 0.320256 0.338062 0.338062 0.338062 0.338062 0.338062 0.338062 0.338062 0.338062 0.328798 0.328798 0.328798 0.328798 0.328798 0.328798 0.328798 0.328798 0.328798 0.328798 0.328798 0.328798 0.328798 0.328798 0.328798 0.328798 0.320256 0.320256 0.320256 0.320256 0.320256 0.320256 0.320256 0.320256 0.328798 0.328798 0.328798 0.328798 0.328798 0.328798 0.328798 0.320256 0.320256 0.320256 0.320256 0.320256 0.320256 0.320256 0.338062 0.338062 0.338062 0.338062 0.338062 0.338062 0.328798 0.328798 0.328798 0.328798 0.328798 0.328798 0.304997 0.304997 0.304997 0.304997 0.304997 0.304997 0.304997 0.320256 0.320256 0.320256 0.320256 0.320256 0.320256 0.338062 0.338062 0.338062 0.338062 0.338062 0.304997 0.304997 0.304997 0.304997 0.304997 0.304997 0.328798 0.328798 0.328798 0.328798 0.328798 0.298142 0.298142 0.298142 0.298142 0.298142 0.298142 0.320256 0.320256 0.320256 0.320256 0.320256 0.312348 0.312348 0.312348 0.312348 0.312348 0.304997 0.304997 0.304997 0.304997 0.304997 0.304997 0.304997 0.304997 0.304997 0.304997 0.298142 0.298142 0.298142 0.298142 0.298142 0.298142 0.298142 0.298142 0.298142 0.298142 0.320256 0.320256 0.320256 0.320256 0.285714 0.285714 0.285714 0.285714 0.285714 0.312348 0.312348 0.312348 0.312348 0.280056 0.280056 0.280056 0.280056 0.280056 0.304997 0.304997 0.304997 0.304997 0.298142 0.298142 0.298142 0.298142 0.298142 0.298142 0.298142 0.298142 0.269680 0.269680 0.269680 0.269680 0.269680 0.291730 0.291730 0.291730 0.291730 0.285714 0.285714 0.285714 0.285714 0.285714 0.285714 0.285714 0.285714 0.280056 0.280056 0.280056 0.280056 0.280056 0.280056 0.280056 0.280056 0.312348 0.312348 0.312348 0.274721 0.274721 0.274721 0.274721 0.269680 0.269680 0.269680 0.269680 0.269680 0.269680 0.269680 0.269680 0.298142 0.298142 0.298142 0.264906 0.264906 0.264906 0.264906 0.291730 0.291730 0.291730 0.260378 0.260378 0.260378 0.260378 0.285714 0.285714 0.285714 0.256074 0.256074 0.256074 0.256074 0.285714 0.285714 0.285714 0.251976 0.251976 0.251976 0.251976 0.280056 0.280056 0.280056 0.274721 0.274721 0.274721 0.274721
