# Output from CTFFind version 4.1.9, run on 2019-11-03 18:52:17
# Input file: stack13_ub_averaged_3000.mrc ; Number of micrographs: 1
# Pixel size: 3.000 Angstroms ; acceleration voltage: 300.0 keV ; spherical aberration: 0.00 mm ; amplitude contrast: 0.07
# Box size: 512 pixels ; min. res.: 30.0 Angstroms ; max. res.: 5.0 Angstroms ; min. def.: 5000.0 um; max. def. 50000.0 um; num. frames averaged: 1
# 6 lines per micrograph: #1 - spatial frequency (1/Angstroms); #2 - 1D rotational average of spectrum (assuming no astigmatism); #3 - 1D rotational average of spectrum; #4 - CTF fit; #5 - cross-correlation between spectrum and CTF fit; #6 - 2sigma of expected cross correlation of noise
0.000000 0.000651 0.001302 0.001953 0.002604 0.003255 0.003906 0.004557 0.005208 0.005859 0.006510 0.007161 0.007812 0.008464 0.009115 0.009766 0.010417 0.011068 0.011719 0.012370 0.013021 0.013672 0.014323 0.014974 0.015625 0.016276 0.016927 0.017578 0.018229 0.018880 0.019531 0.020182 0.020833 0.021484 0.022135 0.022786 0.023438 0.024089 0.024740 0.025391 0.026042 0.026693 0.027344 0.027995 0.028646 0.029297 0.029948 0.030599 0.031250 0.031901 0.032552 0.033203 0.033854 0.034505 0.035156 0.035807 0.036458 0.037109 0.037760 0.038411 0.039062 0.039714 0.040365 0.041016 0.041667 0.042318 0.042969 0.043620 0.044271 0.044922 0.045573 0.046224 0.046875 0.047526 0.048177 0.048828 0.049479 0.050130 0.050781 0.051432 0.052083 0.052734 0.053385 0.054036 0.054688 0.055339 0.055990 0.056641 0.057292 0.057943 0.058594 0.059245 0.059896 0.060547 0.061198 0.061849 0.062500 0.063151 0.063802 0.064453 0.065104 0.065755 0.066406 0.067057 0.067708 0.068359 0.069010 0.069661 0.070312 0.070964 0.071615 0.072266 0.072917 0.073568 0.074219 0.074870 0.075521 0.076172 0.076823 0.077474 0.078125 0.078776 0.079427 0.080078 0.080729 0.081380 0.082031 0.082682 0.083333 0.083984 0.084635 0.085286 0.085938 0.086589 0.087240 0.087891 0.088542 0.089193 0.089844 0.090495 0.091146 0.091797 0.092448 0.093099 0.093750 0.094401 0.095052 0.095703 0.096354 0.097005 0.097656 0.098307 0.098958 0.099609 0.100260 0.100911 0.101562 0.102214 0.102865 0.103516 0.104167 0.104818 0.105469 0.106120 0.106771 0.107422 0.108073 0.108724 0.109375 0.110026 0.110677 0.111328 0.111979 0.112630 0.113281 0.113932 0.114583 0.115234 0.115885 0.116536 0.117188 0.117839 0.118490 0.119141 0.119792 0.120443 0.121094 0.121745 0.122396 0.123047 0.123698 0.124349 0.125000 0.125651 0.126302 0.126953 0.127604 0.128255 0.128906 0.129557 0.130208 0.130859 0.131510 0.132161 0.132812 0.133464 0.134115 0.134766 0.135417 0.136068 0.136719 0.137370 0.138021 0.138672 0.139323 0.139974 0.140625 0.141276 0.141927 0.142578 0.143229 0.143880 0.144531 0.145182 0.145833 0.146484 0.147135 0.147786 0.148438 0.149089 0.149740 0.150391 0.151042 0.151693 0.152344 0.152995 0.153646 0.154297 0.154948 0.155599 0.156250 0.156901 0.157552 0.158203 0.158854 0.159505 0.160156 0.160807 0.161458 0.162109 0.162760 0.163411 0.164062 0.164714 0.165365 0.166016 0.166667 0.167318 0.167969 0.168620 0.169271 0.169922 0.170573 0.171224 0.171875 0.172526 0.173177 0.173828 0.174479 0.175130 0.175781 0.176432 0.177083 0.177734 0.178385 0.179036 0.179688 0.180339 0.180990 0.181641 0.182292 0.182943 0.183594 0.184245 0.184896 0.185547 0.186198 0.186849 0.187500 0.188151 0.188802 0.189453 0.190104 0.190755 0.191406 0.192057 0.192708 0.193359 0.194010 0.194661 0.195312 0.195964 0.196615 0.197266 0.197917 0.198568 0.199219 0.199870 0.200521 0.201172 0.201823 0.202474 0.203125 0.203776 0.204427 0.205078 0.205729 0.206380 0.207031 0.207682 0.208333 0.208984 0.209635 0.210286 0.210938 0.211589 0.212240 0.212891 0.213542 0.214193 0.214844 0.215495 0.216146 0.216797 0.217448 0.218099 0.218750 0.219401 0.220052 0.220703 0.221354 0.222005 0.222656 0.223307 0.223958 0.224609 0.225260 0.225911 0.226562 0.227214 0.227865 0.228516 0.229167 0.229818 0.230469 0.231120 0.231771 0.232422 0.233073 0.233724 0.234375 0.235026 0.235677
       0.36049        0.36049        0.36049        0.36049        0.36049        0.36049        0.36049        0.36049        0.36049        0.36049        0.36049        0.36049        0.36049        0.36049        0.36049        0.36049        0.36049        0.36049        0.36049        0.36049        0.36049        0.36049        0.36049        0.36049        0.36049        0.36049        0.36049        0.36049        0.36049        0.36049        0.36049        0.36049        0.36049        0.36049        0.36049        0.36049        0.36049        0.36049        0.36049        0.36049        0.36049        0.36049        0.36049        0.36049        0.36049        0.36049        0.36049        0.36049        0.36049        0.36049        0.36049        0.58161        1.00112        0.80480        0.06894       -0.24234       -0.19480       -0.35084       -0.35422       -0.31486       -0.36306       -0.08489       -0.31386       -0.28203       -0.50259       -0.52397       -0.62349       -0.66283       -0.68198       -0.80892       -0.73289       -0.73337       -0.64633       -0.65561       -0.59466       -0.55928       -0.57226       -0.45689       -0.33357       -0.29600       -0.17102       -0.03170        0.07531        0.26477        0.37159        0.41540        0.45378        0.56385        0.69265        0.60248        0.61317        0.54968        0.70497        0.65197        0.61257        0.66691        0.61219        0.54867        0.35818        0.31019        0.22795        0.15253        0.05436        0.04329       -0.08125        0.01380        0.01216        0.06159        0.13445        0.17922        0.22485        0.41068        0.48907        0.60903        0.61900        0.68200        0.67879        0.74679        0.72322        0.62920        0.60245        0.63588        0.53370        0.41323        0.35683        0.26864        0.15260        0.14816        0.06699        0.08895        0.02335        0.11919        0.18264        0.36758        0.45353        0.44589        0.50946        0.58673        0.59292        0.55723        0.65583        0.57605        0.50603        0.47945        0.41889        0.28684        0.26422        0.18034        0.13296        0.11985        0.16040        0.17628        0.28760        0.35187        0.46583        0.45372        0.53333        0.56384        0.56121        0.56518        0.55447        0.46457        0.39338        0.31607        0.26324        0.21681        0.19854        0.19117        0.23005        0.29237        0.28543        0.37801        0.46076        0.49346        0.52586        0.51375        0.51375        0.46106        0.40374        0.33923        0.27404        0.26208        0.23469        0.22174        0.25313        0.33626        0.37946        0.42905        0.51736        0.48632        0.49351        0.45934        0.40420        0.39498        0.35553        0.33603        0.24531        0.24328        0.28947        0.33755        0.35410        0.40028        0.43457        0.48219        0.43080        0.42381        0.40217        0.40710        0.36087        0.32309        0.30140        0.34066        0.33699        0.33315        0.35918        0.39217        0.37086        0.42095        0.43972        0.38932        0.33142        0.28599        0.26914        0.29985        0.28668        0.33067        0.35979        0.39375        0.45636        0.41755        0.42800        0.40987        0.35169        0.36403        0.35130        0.29288        0.31486        0.34120        0.34984        0.37718        0.39632        0.39149        0.38274        0.36502        0.36061        0.31647        0.30311        0.26845        0.29251        0.31854        0.32317        0.35344        0.38379        0.39258        0.35833        0.31390        0.30250        0.28618        0.27089        0.27786        0.33337        0.34065        0.35587        0.34351        0.36416        0.35448        0.31098        0.29197        0.32293        0.32022        0.31600        0.36183        0.33476        0.34289        0.40581        0.35091        0.38055        0.33327        0.27147        0.30816        0.34523        0.35770        0.33088        0.34336        0.39053        0.38501        0.38528        0.37604        0.30778        0.28225        0.36120        0.28783        0.36599        0.36813        0.37143        0.32908        0.34488        0.34178        0.33233        0.32152        0.32097        0.32784        0.34271        0.40897        0.33017        0.38552        0.32265        0.30625        0.27219        0.32695        0.34674        0.31916        0.34632        0.33745        0.27890        0.25851        0.36800        0.28287        0.27727        0.31385        0.36775        0.33692        0.30036        0.25227        0.28904        0.32375        0.34097        0.32804        0.34823        0.29300        0.32060        0.27365        0.22277        0.24163        0.27886        0.33850        0.33157        0.33165        0.28706        0.30965        0.27888        0.25130        0.28848        0.33685        0.23069        0.26035        0.28988        0.28470        0.24048        0.25981        0.18693        0.25480        0.21237        0.21410        0.31215        0.31435        0.21013        0.24120        0.21199        0.18753        0.09661       -0.53458       -0.93792
2.382946 2.356566 2.330339 2.304267 2.278348 2.252583 2.226972 2.201514 2.176210 2.151061 2.126065 2.101222 2.076534 2.051999 2.027618 2.003391 1.979318 1.955398 1.931633 1.908021 1.884562 1.861258 1.838108 1.815111 1.792268 1.769579 1.747043 1.724662 1.702434 1.680360 1.658440 1.636673 1.615061 1.593602 1.572297 1.551146 1.530148 1.509305 1.488615 1.468079 1.447697 1.427468 1.407394 1.387473 1.367706 1.348092 1.328633 1.309327 1.290175 1.271177 1.252333 1.377540 1.776007 1.650230 1.008103 0.581338 0.640976 0.489684 0.392160 0.517376 0.354118 0.634258 0.473384 0.440838 0.234282 0.115547 0.089443 0.032526 -0.024012 -0.159412 -0.067977 -0.210471 -0.046447 -0.094577 -0.049276 0.027124 -0.086665 0.041723 0.120958 0.129258 0.217794 0.401116 0.396282 0.653412 0.643360 0.768610 0.736020 0.847184 0.906988 0.920266 0.830221 0.753293 0.905929 0.890501 0.818106 0.851014 0.780073 0.782742 0.530933 0.453692 0.417091 0.304313 0.236827 0.190638 0.074466 0.096568 0.098041 0.151710 0.193483 0.255737 0.212771 0.443356 0.441131 0.595878 0.591692 0.674496 0.651049 0.648579 0.725644 0.573626 0.456921 0.660602 0.469522 0.356066 0.305985 0.238716 0.087717 0.065775 0.003886 0.010208 -0.120616 0.044268 0.004337 0.198810 0.269978 0.295094 0.314223 0.399734 0.417509 0.423739 0.410942 0.451149 0.352271 0.289740 0.319062 0.118137 0.106595 0.065880 -0.019785 -0.093869 -0.023893 0.010645 0.018321 0.097531 0.259068 0.199541 0.275580 0.356975 0.376945 0.388849 0.407100 0.324895 0.237963 0.213889 0.065397 0.096447 0.014988 0.022647 0.031462 0.081265 0.127720 0.129444 0.213803 0.260535 0.322508 0.275892 0.342859 0.266524 0.200811 0.150403 0.123320 0.021498 0.066737 0.000601 0.026283 0.068150 0.110252 0.182956 0.244809 0.277307 0.209857 0.229998 0.203659 0.101880 0.125155 0.108157 0.016213 -0.023790 -0.014042 0.072124 0.033475 0.145425 0.108310 0.178539 0.195400 0.140519 0.115446 0.118631 0.117906 0.056181 0.021516 0.033385 0.080147 0.032900 0.079529 0.054415 0.095940 0.095106 0.142901 0.119382 0.075175 0.030561 -0.049236 0.004784 -0.011413 0.017759 0.042679 0.066566 0.129907 0.147777 0.106507 0.121757 0.128025 0.058108 0.059904 0.047202 0.010203 0.048337 0.039222 0.072249 0.096213 0.089425 0.103242 0.084860 0.071126 0.073634 0.006140 0.026058 -0.025084 0.012468 0.042876 0.036233 0.077760 0.105868 0.096208 0.052986 0.020246 0.016023 -0.003364 -0.005774 0.003652 0.038476 0.072451 0.047638 0.075734 0.088200 0.067430 0.024351 0.018084 0.054612 0.031205 0.043454 0.088079 0.049488 0.047864 0.100057 0.061483 0.115460 0.042771 -0.046828 0.033833 0.059972 0.072320 0.034835 0.055335 0.130093 0.078366 0.098922 0.099606 -0.000502 0.013110 0.084843 -0.025189 0.098738 0.084390 0.069445 0.013694 0.066997 0.027722 0.020738 0.007377 0.026479 0.015260 0.021421 0.035093 0.009601 0.051833 -0.051202 -0.040083 -0.059277 -0.008463 -0.020263 -0.054084 0.024109 -0.049103 -0.075605 -0.087881 0.044120 -0.079474 -0.080669 -0.006798 0.023608 -0.008253 -0.025857 -0.086263 -0.009177 0.024954 -0.004168 0.004685 0.012245 0.023046 0.020158 -0.024918 -0.068967 -0.042913 -0.000045 0.041439 0.050108 0.057594 -0.013131 0.090666 -0.024675 -0.036614 0.016842 0.062073 -0.019969 -0.051312 0.009054 0.027056 -0.021761 -0.000443 -0.067540 -0.025423 -0.112985 0.204040 0.322971 0.284337 0.182171 0.274737 0.188061 0.128384 0.094930 -0.869713
0.072396 0.072957 0.074639 0.077443 0.081367 0.086410 0.092570 0.099847 0.108236 0.117734 0.128337 0.140039 0.152833 0.166710 0.181661 0.197672 0.214729 0.232815 0.251909 0.271988 0.293025 0.314988 0.337843 0.361549 0.386061 0.411329 0.437297 0.463901 0.491073 0.518738 0.546811 0.575204 0.603816 0.632542 0.661267 0.689868 0.718214 0.746164 0.773570 0.800275 0.826115 0.850916 0.874498 0.896673 0.917249 0.936027 0.952802 0.967369 0.979518 0.989039 0.995722 0.999362 0.999754 0.996703 0.990020 0.979528 0.965063 0.946478 0.923641 0.896446 0.864807 0.828669 0.788004 0.742817 0.693153 0.639090 0.580750 0.518299 0.451947 0.381953 0.308623 0.232315 0.153437 0.072445 0.010153 0.093802 0.177899 0.261799 0.344819 0.426239 0.505310 0.581259 0.653299 0.720635 0.782472 0.838027 0.886542 0.927286 0.959579 0.982796 0.996381 0.999861 0.992859 0.975103 0.946442 0.906851 0.856447 0.795492 0.724401 0.643749 0.554270 0.456856 0.352561 0.242586 0.128275 0.011103 0.107340 0.225369 0.341227 0.453106 0.559179 0.657630 0.746687 0.824654 0.889951 0.941148 0.977000 0.996485 0.998835 0.983565 0.950503 0.899809 0.831991 0.747917 0.648813 0.536265 0.412195 0.278847 0.138752 0.005316 0.150385 0.293346 0.431014 0.560203 0.677804 0.780857 0.866639 0.932741 0.977143 0.998292 0.995159 0.967297 0.914879 0.838730 0.740329 0.621807 0.485917 0.335985 0.175846 0.009755 0.157719 0.321808 0.477690 0.620619 0.746087 0.849968 0.928668 0.979268 0.999640 0.988560 0.945787 0.872112 0.769381 0.640475 0.489256 0.320475 0.139645 0.047134 0.233358 0.412350 0.577498 0.722502 0.841628 0.929956 0.983596 0.999889 0.977560 0.916821 0.819433 0.688684 0.529320 0.347402 0.150105 0.054546 0.257995 0.451499 0.626510 0.775061 0.890155 0.966103 0.998848 0.986212 0.928062 0.826399 0.685333 0.510973 0.311194 0.095311 0.126324 0.342808 0.543225 0.717192 0.855431 0.950277 0.996147 0.989909 0.931130 0.822196 0.668280 0.477147 0.258810 0.025050 0.211207 0.436584 0.638009 0.803497 0.922886 0.988500 0.995696 0.943238 0.833489 0.672370 0.469122 0.235820 0.013296 0.262662 0.496349 0.699087 0.857288 0.959988 0.999669 0.972862 0.880510 0.728039 0.525116 0.285111 0.024265 0.239365 0.487143 0.701175 0.865626 0.967935 0.999844 0.958127 0.844984 0.668032 0.439873 0.177289 0.099952 0.370541 0.613269 0.808687 0.940726 0.998075 0.975229 0.873103 0.699134 0.466836 0.194859 0.094467 0.376904 0.628345 0.826870 0.954726 0.999984 0.957740 0.830745 0.629359 0.370810 0.077835 0.223281 0.505010 0.741120 0.909135 0.992567 0.982619 0.879230 0.691293 0.436035 0.137534 0.175455 0.472241 0.723198 0.902755 0.992095 0.981215 0.870182 0.669370 0.398634 0.085459 0.237723 0.536877 0.779937 0.940305 0.999852 0.951099 0.798284 0.557178 0.253600 0.079226 0.404232 0.684632 0.888093 0.990574 0.979280 0.854414 0.629447 0.329843 0.009692 0.349134 0.647825 0.869371 0.986164 0.982952 0.858996 0.628485 0.319100 0.031169 0.378568 0.679036 0.893812 0.994537 0.967157 0.814051 0.554092 0.220496 0.143256 0.489002 0.770274 0.948579 0.998825 0.913013 0.701705 0.392956 0.028768 0.340475 0.662942 0.892648 0.996127 0.957483 0.781039 0.491129 0.128954 0.253096 0.598953 0.857112 0.988380 0.972025 0.809258 0.523498 0.157230 0.234110 0.590453 0.856298 0.989480 0.968038 0.794069 0.493869 0.114223 0.284716 0.638865 0.890506 0.997837
1.000000 1.000000 1.000000 1.000000 1.000000 1.000000 1.000000 1.000000 1.000000 1.000000 1.000000 1.000000 1.000000 1.000000 1.000000 1.000000 1.000000 1.000000 1.000000 1.000000 1.000000 1.000000 1.000000 1.000000 1.000000 1.000000 1.000000 1.000000 1.000000 1.000000 1.000000 1.000000 1.000000 1.000000 1.000000 1.000000 1.000000 1.000000 1.000000 1.000000 1.000000 1.000000 1.000000 1.000000 1.000000 1.000000 1.000000 1.000000 1.000000 1.000000 1.000000 1.000000 0.942469 0.942469 0.942469 0.942469 0.942469 0.942469 0.942469 0.942469 0.942469 0.942469 0.942469 0.942469 0.942469 0.942469 0.942469 0.942469 0.942469 0.942469 0.942469 0.942469 0.942469 0.942469 0.942469 0.942469 0.942469 0.942469 0.942469 0.942469 0.942469 0.942469 0.942469 0.942469 0.942469 0.942469 0.942469 0.942469 0.942469 0.942469 0.942469 0.924799 0.927257 0.927894 0.931187 0.931817 0.930482 0.932442 0.932709 0.933515 0.934329 0.935693 0.937318 0.938871 0.940601 0.945079 0.951380 0.951633 0.954524 0.954947 0.955631 0.969586 0.970278 0.971392 0.971833 0.971990 0.972049 0.972149 0.972880 0.972992 0.972728 0.972233 0.970591 0.972572 0.978022 0.977985 0.977613 0.977701 0.977934 0.977945 0.978921 0.979133 0.977895 0.975623 0.975437 0.974935 0.975009 0.975312 0.974513 0.973241 0.974601 0.974607 0.974748 0.975105 0.975178 0.971518 0.971782 0.969873 0.964696 0.958665 0.956124 0.952406 0.953570 0.955796 0.955370 0.952722 0.948307 0.946058 0.945170 0.946751 0.944302 0.944508 0.945484 0.946185 0.946979 0.947030 0.938258 0.936626 0.934746 0.934570 0.937127 0.940128 0.939738 0.935894 0.935734 0.933378 0.934458 0.927780 0.914076 0.908617 0.908158 0.907544 0.911022 0.916072 0.911695 0.907065 0.902627 0.880507 0.867505 0.864546 0.867042 0.868458 0.870515 0.878062 0.870285 0.865694 0.863665 0.861096 0.861545 0.863178 0.864481 0.862957 0.861115 0.861430 0.862096 0.860190 0.859484 0.856003 0.854547 0.852623 0.852548 0.845552 0.845123 0.846817 0.848483 0.849941 0.850349 0.849466 0.852015 0.841118 0.845335 0.843938 0.847823 0.843159 0.847265 0.848240 0.843774 0.832738 0.825444 0.826919 0.835564 0.821798 0.828001 0.836203 0.844104 0.845360 0.840599 0.836670 0.831322 0.834937 0.839146 0.859299 0.804444 0.806485 0.814804 0.815241 0.809379 0.808803 0.805844 0.794299 0.792474 0.807630 0.792906 0.783889 0.783535 0.783081 0.775209 0.757202 0.759494 0.753925 0.748285 0.729380 0.738057 0.740404 0.716919 0.713754 0.677934 0.680914 0.683099 0.678175 0.637168 0.624482 0.632441 0.639118 0.645914 0.615667 0.579566 0.583101 0.583919 0.572583 0.577841 0.574501 0.571054 0.571696 0.568779 0.555272 0.541562 0.519413 0.509924 0.418658 0.429376 0.414934 0.420072 0.426754 0.415454 0.416355 0.403288 0.418260 0.390460 0.345177 0.339729 0.345950 0.360730 0.359804 0.367873 0.375363 0.390009 0.385829 0.358094 0.378253 0.393588 0.371411 0.375712 0.404776 0.409056 0.389016 0.366455 0.360358 0.390950 0.380371 0.367154 0.339202 0.360939 0.312953 0.339274 0.344047 0.308320 0.268952 0.244200 0.240402 0.272474 0.156639 0.171830 0.171830 0.171830 0.171830 0.171830 0.171830 0.171830 0.146034 0.146034 0.146034 0.146034 0.146034 0.146034 0.146034 0.146034 0.156658 0.156658 0.156658 0.156658 0.156658 0.156658 0.156658 0.156658 0.156658 0.156658 0.156658 0.156658 0.156658 0.156658 0.156658 0.156658
0.000000 0.000000 0.000000 0.000000 0.000000 0.000000 0.000000 0.000000 0.000000 0.000000 0.000000 0.000000 0.000000 0.000000 0.000000 0.000000 0.000000 0.000000 0.000000 0.000000 0.000000 0.000000 0.000000 0.000000 0.000000 0.000000 0.000000 0.000000 0.000000 0.000000 0.000000 0.000000 0.000000 0.000000 0.000000 0.000000 0.000000 0.000000 0.000000 0.000000 0.000000 0.000000 0.000000 0.000000 0.000000 0.000000 0.000000 0.000000 0.000000 0.000000 0.000000 0.000000 0.203069 0.203069 0.203069 0.203069 0.203069 0.203069 0.203069 0.203069 0.203069 0.203069 0.203069 0.203069 0.203069 0.203069 0.203069 0.203069 0.203069 0.203069 0.203069 0.203069 0.203069 0.203069 0.203069 0.203069 0.203069 0.203069 0.203069 0.203069 0.203069 0.203069 0.203069 0.203069 0.203069 0.203069 0.203069 0.203069 0.203069 0.203069 0.203069 0.234082 0.234082 0.234082 0.234082 0.234082 0.234082 0.234082 0.234082 0.234082 0.234082 0.234082 0.234082 0.234082 0.234082 0.234082 0.234082 0.234082 0.234082 0.234082 0.234082 0.234082 0.234082 0.234082 0.234082 0.234082 0.234082 0.234082 0.248069 0.248069 0.248069 0.248069 0.248069 0.248069 0.248069 0.248069 0.248069 0.248069 0.248069 0.248069 0.248069 0.248069 0.248069 0.248069 0.248069 0.248069 0.248069 0.248069 0.248069 0.248069 0.256074 0.256074 0.256074 0.256074 0.256074 0.256074 0.256074 0.256074 0.256074 0.256074 0.256074 0.256074 0.256074 0.256074 0.256074 0.256074 0.256074 0.256074 0.256074 0.269680 0.269680 0.269680 0.269680 0.269680 0.269680 0.269680 0.269680 0.269680 0.269680 0.269680 0.269680 0.269680 0.269680 0.269680 0.269680 0.264906 0.264906 0.264906 0.264906 0.264906 0.264906 0.264906 0.264906 0.264906 0.264906 0.264906 0.264906 0.264906 0.264906 0.264906 0.264906 0.269680 0.269680 0.269680 0.269680 0.269680 0.269680 0.269680 0.269680 0.269680 0.269680 0.269680 0.269680 0.269680 0.269680 0.274721 0.274721 0.274721 0.274721 0.274721 0.274721 0.274721 0.274721 0.274721 0.274721 0.274721 0.274721 0.274721 0.264906 0.264906 0.264906 0.264906 0.264906 0.264906 0.264906 0.264906 0.264906 0.264906 0.264906 0.264906 0.264906 0.280056 0.280056 0.280056 0.280056 0.280056 0.280056 0.280056 0.280056 0.280056 0.280056 0.280056 0.264906 0.264906 0.264906 0.264906 0.264906 0.264906 0.264906 0.264906 0.264906 0.264906 0.264906 0.264906 0.269680 0.269680 0.269680 0.269680 0.269680 0.269680 0.269680 0.269680 0.269680 0.269680 0.269680 0.274721 0.274721 0.274721 0.274721 0.274721 0.274721 0.274721 0.274721 0.274721 0.274721 0.269680 0.269680 0.269680 0.269680 0.269680 0.269680 0.269680 0.269680 0.269680 0.269680 0.264906 0.264906 0.264906 0.264906 0.264906 0.264906 0.264906 0.264906 0.264906 0.264906 0.269680 0.269680 0.269680 0.269680 0.269680 0.269680 0.269680 0.269680 0.269680 0.264906 0.264906 0.264906 0.264906 0.264906 0.264906 0.264906 0.264906 0.264906 0.260378 0.260378 0.260378 0.260378 0.260378 0.260378 0.260378 0.260378 0.260378 0.269680 0.269680 0.269680 0.269680 0.269680 0.269680 0.269680 0.269680 0.251976 0.251976 0.251976 0.251976 0.251976 0.251976 0.251976 0.251976 0.251976 0.264906 0.264906 0.264906 0.264906 0.264906 0.264906 0.264906 0.264906 0.260378 0.260378 0.260378 0.260378 0.260378 0.260378 0.260378 0.260378 0.260378 0.260378 0.260378 0.260378 0.260378 0.260378 0.260378 0.260378
