# Output from CTFFind version 4.1.9, run on 2019-11-02 12:26:03
# Input file: stack6_ub_averaged_1500.mrc ; Number of micrographs: 1
# Pixel size: 3.000 Angstroms ; acceleration voltage: 300.0 keV ; spherical aberration: 0.00 mm ; amplitude contrast: 0.07
# Box size: 512 pixels ; min. res.: 30.0 Angstroms ; max. res.: 5.0 Angstroms ; min. def.: 5000.0 um; max. def. 50000.0 um; num. frames averaged: 1
# 6 lines per micrograph: #1 - spatial frequency (1/Angstroms); #2 - 1D rotational average of spectrum (assuming no astigmatism); #3 - 1D rotational average of spectrum; #4 - CTF fit; #5 - cross-correlation between spectrum and CTF fit; #6 - 2sigma of expected cross correlation of noise
0.000000 0.000651 0.001302 0.001953 0.002604 0.003255 0.003906 0.004557 0.005208 0.005859 0.006510 0.007161 0.007812 0.008464 0.009115 0.009766 0.010417 0.011068 0.011719 0.012370 0.013021 0.013672 0.014323 0.014974 0.015625 0.016276 0.016927 0.017578 0.018229 0.018880 0.019531 0.020182 0.020833 0.021484 0.022135 0.022786 0.023438 0.024089 0.024740 0.025391 0.026042 0.026693 0.027344 0.027995 0.028646 0.029297 0.029948 0.030599 0.031250 0.031901 0.032552 0.033203 0.033854 0.034505 0.035156 0.035807 0.036458 0.037109 0.037760 0.038411 0.039062 0.039714 0.040365 0.041016 0.041667 0.042318 0.042969 0.043620 0.044271 0.044922 0.045573 0.046224 0.046875 0.047526 0.048177 0.048828 0.049479 0.050130 0.050781 0.051432 0.052083 0.052734 0.053385 0.054036 0.054688 0.055339 0.055990 0.056641 0.057292 0.057943 0.058594 0.059245 0.059896 0.060547 0.061198 0.061849 0.062500 0.063151 0.063802 0.064453 0.065104 0.065755 0.066406 0.067057 0.067708 0.068359 0.069010 0.069661 0.070312 0.070964 0.071615 0.072266 0.072917 0.073568 0.074219 0.074870 0.075521 0.076172 0.076823 0.077474 0.078125 0.078776 0.079427 0.080078 0.080729 0.081380 0.082031 0.082682 0.083333 0.083984 0.084635 0.085286 0.085938 0.086589 0.087240 0.087891 0.088542 0.089193 0.089844 0.090495 0.091146 0.091797 0.092448 0.093099 0.093750 0.094401 0.095052 0.095703 0.096354 0.097005 0.097656 0.098307 0.098958 0.099609 0.100260 0.100911 0.101562 0.102214 0.102865 0.103516 0.104167 0.104818 0.105469 0.106120 0.106771 0.107422 0.108073 0.108724 0.109375 0.110026 0.110677 0.111328 0.111979 0.112630 0.113281 0.113932 0.114583 0.115234 0.115885 0.116536 0.117188 0.117839 0.118490 0.119141 0.119792 0.120443 0.121094 0.121745 0.122396 0.123047 0.123698 0.124349 0.125000 0.125651 0.126302 0.126953 0.127604 0.128255 0.128906 0.129557 0.130208 0.130859 0.131510 0.132161 0.132812 0.133464 0.134115 0.134766 0.135417 0.136068 0.136719 0.137370 0.138021 0.138672 0.139323 0.139974 0.140625 0.141276 0.141927 0.142578 0.143229 0.143880 0.144531 0.145182 0.145833 0.146484 0.147135 0.147786 0.148438 0.149089 0.149740 0.150391 0.151042 0.151693 0.152344 0.152995 0.153646 0.154297 0.154948 0.155599 0.156250 0.156901 0.157552 0.158203 0.158854 0.159505 0.160156 0.160807 0.161458 0.162109 0.162760 0.163411 0.164062 0.164714 0.165365 0.166016 0.166667 0.167318 0.167969 0.168620 0.169271 0.169922 0.170573 0.171224 0.171875 0.172526 0.173177 0.173828 0.174479 0.175130 0.175781 0.176432 0.177083 0.177734 0.178385 0.179036 0.179688 0.180339 0.180990 0.181641 0.182292 0.182943 0.183594 0.184245 0.184896 0.185547 0.186198 0.186849 0.187500 0.188151 0.188802 0.189453 0.190104 0.190755 0.191406 0.192057 0.192708 0.193359 0.194010 0.194661 0.195312 0.195964 0.196615 0.197266 0.197917 0.198568 0.199219 0.199870 0.200521 0.201172 0.201823 0.202474 0.203125 0.203776 0.204427 0.205078 0.205729 0.206380 0.207031 0.207682 0.208333 0.208984 0.209635 0.210286 0.210938 0.211589 0.212240 0.212891 0.213542 0.214193 0.214844 0.215495 0.216146 0.216797 0.217448 0.218099 0.218750 0.219401 0.220052 0.220703 0.221354 0.222005 0.222656 0.223307 0.223958 0.224609 0.225260 0.225911 0.226562 0.227214 0.227865 0.228516 0.229167 0.229818 0.230469 0.231120 0.231771 0.232422 0.233073 0.233724 0.234375 0.235026 0.235677
       0.31258        0.31258        0.31258        0.31258        0.31258        0.31258        0.31258        0.31258        0.31258        0.31258        0.31258        0.31258        0.31258        0.31258        0.31258        0.31258        0.31258        0.31258        0.31258        0.31258        0.31258        0.31258        0.31258        0.31258        0.31258        0.31258        0.31258        0.31258        0.31258        0.31258        0.31258        0.31258        0.31258        0.31258        0.31258        0.31258        0.31258        0.31258        0.31258        0.31258        0.31258        0.31258        0.31258        0.31258        0.31258        0.31258        0.31258        0.31258        0.31258        0.31258        0.31258        0.63617        0.82127        0.41789        0.31297        0.19046       -0.10440        0.11305       -0.00214        0.03504        0.11903        0.33695        0.42517        0.40771        0.22556       -0.01084        0.04844        0.07205       -0.16502       -0.17789       -0.08606       -0.10643       -0.29090       -0.18668       -0.30136       -0.25590       -0.28423       -0.39930       -0.47526       -0.47755       -0.41971       -0.33613       -0.43882       -0.36668       -0.40644       -0.34687       -0.27320       -0.19757       -0.19174       -0.13407       -0.09371        0.03758        0.08568        0.25020        0.28102        0.37106        0.40316        0.52006        0.58970        0.60717        0.74206        0.70099        0.74160        0.64974        0.66698        0.69868        0.63418        0.61592        0.60984        0.43733        0.40076        0.36081        0.32516        0.22255        0.13379        0.06086        0.05941        0.00007       -0.07843       -0.03117       -0.03078       -0.06829        0.06238        0.16527        0.25485        0.32280        0.33693        0.43277        0.54883        0.59382        0.54499        0.67053        0.56608        0.54484        0.59853        0.64309        0.53254        0.46067        0.40796        0.37503        0.25047        0.21578        0.13178        0.11692        0.05677        0.06047        0.11110        0.17005        0.14549        0.18010        0.21860        0.24103        0.33510        0.45978        0.49468        0.49890        0.52250        0.57834        0.56994        0.52308        0.42564        0.38559        0.36781        0.27193        0.24827        0.21737        0.20736        0.20567        0.18454        0.16081        0.12554        0.19310        0.25171        0.35015        0.38517        0.40598        0.46384        0.53725        0.47767        0.48268        0.42227        0.40289        0.38441        0.36410        0.29056        0.25964        0.20074        0.23293        0.21769        0.19268        0.21792        0.22392        0.24341        0.29956        0.40265        0.40362        0.37160        0.39121        0.45654        0.48538        0.42742        0.35413        0.32756        0.28082        0.26264        0.24754        0.21294        0.28591        0.29365        0.29660        0.31699        0.31214        0.35075        0.37290        0.37308        0.37460        0.35828        0.31979        0.33600        0.31811        0.29826        0.28057        0.27212        0.21887        0.27411        0.27438        0.30370        0.32329        0.34664        0.37844        0.34160        0.32232        0.36051        0.36993        0.26846        0.29634        0.30568        0.24468        0.21191        0.25934        0.27169        0.27712        0.30070        0.30666        0.33544        0.33618        0.36393        0.32768        0.32262        0.31049        0.29460        0.27657        0.25121        0.25505        0.25828        0.27568        0.29905        0.29634        0.30326        0.31562        0.32669        0.26374        0.30599        0.27032        0.26437        0.27971        0.26484        0.26256        0.26717        0.31208        0.28563        0.31788        0.28704        0.27503        0.30604        0.30982        0.33036        0.31501        0.29238        0.25523        0.26949        0.27390        0.26693        0.31277        0.31721        0.34005        0.32121        0.30805        0.26140        0.28108        0.21057        0.20711        0.24158        0.25829        0.25541        0.28962        0.31108        0.29614        0.34819        0.31157        0.26660        0.23779        0.23739        0.28911        0.31108        0.30473        0.26761        0.27998        0.25995        0.32333        0.28528        0.25284        0.26857        0.25478        0.29177        0.25180        0.28937        0.33026        0.28818        0.21903        0.23566        0.28629        0.32301        0.27509        0.26613        0.24414        0.27638        0.29246        0.37683        0.29413        0.27694        0.25226        0.26335        0.22246        0.17548        0.25158        0.23035        0.20793        0.18931        0.19713        0.23926        0.22787        0.23800        0.19032        0.25413        0.22482        0.20517        0.17808        0.16998        0.19685        0.23840        0.14783        0.06390        0.19419        0.20895        0.15861        0.24641        0.14585        0.20921        0.22150       -0.06274       -0.45900       -0.91915
2.852732 2.824656 2.796725 2.768938 2.741295 2.713797 2.686443 2.659234 2.632170 2.605249 2.578474 2.551842 2.525356 2.499013 2.472815 2.446762 2.420853 2.395089 2.369469 2.343993 2.318662 2.293475 2.268433 2.243536 2.218782 2.194174 2.169709 2.145390 2.121214 2.097183 2.073297 2.049555 2.025957 2.002504 1.979196 1.956032 1.933012 1.910137 1.887406 1.864820 1.842378 1.820081 1.797928 1.775920 1.754056 1.732337 1.710762 1.689331 1.668045 1.646904 1.625906 1.922590 2.280674 1.701821 1.742705 1.382259 0.944297 1.199941 1.021445 1.073548 1.032108 1.492771 1.519564 1.546082 1.280088 0.942154 0.824336 1.009359 0.718382 0.491544 0.586095 0.678936 0.421089 0.488874 0.323608 0.368519 0.244665 0.162251 -0.038882 -0.000788 0.024456 0.080685 0.036484 0.070762 -0.038971 0.026921 0.112136 0.225065 0.287233 0.208009 0.317727 0.548780 0.452807 0.727104 0.789249 0.879859 0.909046 1.122344 1.142749 1.174283 1.329841 1.237218 1.372621 1.194208 1.116430 1.299906 1.145930 1.054106 1.127687 0.889740 0.744002 0.681718 0.675130 0.457545 0.395922 0.256765 0.229551 0.089685 -0.009476 0.085745 0.025312 -0.064663 0.112575 0.251816 0.304247 0.466022 0.487064 0.556837 0.724487 0.824525 0.663506 0.959995 0.799368 0.667561 0.767440 0.805350 0.712356 0.639892 0.448675 0.500068 0.279463 0.193450 0.139502 0.004139 -0.018841 -0.106260 -0.014696 0.026226 0.090632 -0.053487 0.250690 0.095852 0.209517 0.379988 0.441472 0.529726 0.439305 0.575224 0.626026 0.517353 0.389504 0.334071 0.322922 0.146890 0.137958 0.015567 0.089403 0.031739 -0.001473 -0.022927 -0.124332 -0.011545 0.022356 0.112176 0.296291 0.200418 0.354822 0.372392 0.424695 0.429789 0.372178 0.327242 0.229163 0.302693 0.165042 0.154971 0.006935 0.043617 0.061092 -0.026281 -0.012725 0.014056 0.056737 0.073474 0.211110 0.308262 0.241605 0.206348 0.378182 0.408110 0.350427 0.241279 0.175622 0.150381 0.080526 0.075929 0.020776 0.019915 0.136274 0.052074 0.187858 0.089412 0.142384 0.233711 0.210553 0.221810 0.209115 0.198756 0.121827 0.163474 0.121781 0.094267 0.108371 -0.000801 0.033460 0.089539 0.049968 0.148891 0.125444 0.210681 0.208335 0.137526 0.130435 0.232673 0.118062 0.074896 0.086670 0.057023 -0.000172 -0.028341 0.042426 0.070260 0.029426 0.116702 0.109969 0.122914 0.129990 0.179351 0.114756 0.078994 0.099968 0.081293 0.022504 0.013933 0.029907 -0.003791 0.067532 0.100339 0.060814 0.071284 0.142051 0.080432 0.016708 0.113383 0.025559 0.032019 0.062175 0.019466 0.016417 0.058953 0.086289 0.029354 0.110315 0.050142 0.028621 0.118441 0.069838 0.094597 0.088483 0.024343 -0.005718 0.007969 0.046490 0.012571 0.067274 0.102971 0.093439 0.062683 0.136295 -0.004663 0.029311 -0.090765 -0.017709 -0.043604 0.010018 0.020048 0.037353 0.071795 0.083017 0.110258 0.020644 -0.010539 -0.057558 -0.074261 0.070970 0.048389 0.054124 -0.015585 0.003457 -0.032011 0.073449 0.016361 -0.059331 -0.011307 -0.071876 0.031672 -0.041528 0.030837 0.069407 -0.010855 -0.070665 -0.039014 0.094863 0.044213 0.011983 0.003633 -0.048125 0.073053 0.076609 0.177651 0.051132 0.018755 0.028723 0.064999 -0.052073 -0.048831 0.059642 0.025796 -0.020423 -0.033341 -0.032916 0.098430 -0.042708 0.075705 0.002792 0.130882 -0.006188 0.061152 -0.082560 -0.008558 -0.033066 0.109829 -0.008510 -0.170683 0.286366 0.309108 0.224612 0.411887 0.173978 0.273631 0.390610 -0.086619 -1.288613
0.072396 0.072834 0.074148 0.076338 0.079403 0.083342 0.088156 0.093841 0.100398 0.107823 0.116115 0.125271 0.135286 0.146156 0.157876 0.170440 0.183839 0.198065 0.213108 0.228956 0.245594 0.263009 0.281181 0.300090 0.319715 0.340030 0.361007 0.382614 0.404817 0.427579 0.450856 0.474605 0.498774 0.523310 0.548154 0.573244 0.598511 0.623883 0.649282 0.674626 0.699825 0.724788 0.749415 0.773604 0.797246 0.820226 0.842427 0.863725 0.883994 0.903102 0.920913 0.937291 0.952094 0.965179 0.976401 0.985617 0.992681 0.997450 0.999781 0.999536 0.996580 0.990785 0.982026 0.970190 0.955171 0.936875 0.915219 0.890134 0.861568 0.829483 0.793863 0.754709 0.712045 0.665919 0.616402 0.563591 0.507612 0.448615 0.386784 0.322330 0.255496 0.186552 0.115804 0.043586 0.029740 0.103779 0.178111 0.252289 0.325842 0.398277 0.469082 0.537731 0.603684 0.666395 0.725314 0.779894 0.829594 0.873887 0.912266 0.944248 0.969382 0.987256 0.997504 0.999812 0.993926 0.979654 0.956880 0.925562 0.885743 0.837553 0.781214 0.717042 0.645449 0.566947 0.482144 0.391745 0.296548 0.197440 0.095393 0.008548 0.113270 0.217602 0.320330 0.420211 0.515984 0.606390 0.690187 0.766171 0.833191 0.890172 0.936134 0.970210 0.991666 0.999918 0.994550 0.975328 0.942216 0.895382 0.835209 0.762299 0.677477 0.581780 0.476463 0.362976 0.242958 0.118213 0.009312 0.137555 0.264371 0.387566 0.504934 0.614300 0.713564 0.800736 0.873989 0.931698 0.972479 0.995233 0.999174 0.983866 0.949243 0.895628 0.823745 0.734718 0.630065 0.511686 0.381831 0.243069 0.098244 0.049582 0.197185 0.341250 0.478448 0.605509 0.719305 0.816935 0.895801 0.953686 0.988827 0.999974 0.986446 0.948168 0.885699 0.800240 0.693629 0.568315 0.427313 0.274148 0.112770 0.052537 0.217265 0.376802 0.526560 0.662112 0.779331 0.874518 0.944530 0.986901 0.999935 0.982790 0.935533 0.859174 0.755661 0.627854 0.479466 0.314965 0.139459 0.041456 0.221866 0.395735 0.557096 0.700274 0.820083 0.912031 0.972501 0.998912 0.989844 0.945129 0.865899 0.754585 0.614868 0.451583 0.270567 0.078463 0.117499 0.309782 0.490825 0.653339 0.790615 0.896817 0.967235 0.998530 0.988903 0.938224 0.848086 0.721791 0.564255 0.381850 0.182162 0.026302 0.234471 0.433094 0.613155 0.766293 0.885205 0.964010 0.998571 0.986736 0.928497 0.826056 0.683772 0.508023 0.306943 0.090070 0.132086 0.348545 0.548392 0.721345 0.858287 0.951777 0.996484 0.989516 0.930645 0.822390 0.669957 0.481024 0.265398 0.034524 0.199092 0.422565 0.623330 0.789867 0.912383 0.983416 0.998327 0.955640 0.857215 0.708214 0.516897 0.294179 0.053065 0.192088 0.426438 0.635526 0.806202 0.927475 0.991245 0.992900 0.931689 0.810863 0.637568 0.422473 0.179157 0.076718 0.328383 0.559078 0.753145 0.897146 0.980811 0.997824 0.946351 0.829270 0.654086 0.432504 0.179704 0.086669 0.347702 0.584560 0.779857 0.918952 0.991098 0.990327 0.915996 0.772960 0.571330 0.325817 0.054726 0.221400 0.481295 0.704622 0.873589 0.974402 0.998452 0.943116 0.812091 0.615245 0.367937 0.089882 0.196378 0.467275 0.700164 0.875239 0.977255 0.996931 0.931856 0.786845 0.573676 0.310213 0.018968 0.274775 0.545145 0.767958 0.922924 0.995553 0.978575 0.872759 0.687000 0.437662 0.147226 0.157686 0.448722 0.698432 0.882875 0.983983 0.991395 0.903615 0.728326 0.481827 0.187606 0.125837 0.427698 0.687902 0.880124
1.000000 1.000000 1.000000 1.000000 1.000000 1.000000 1.000000 1.000000 1.000000 1.000000 1.000000 1.000000 1.000000 1.000000 1.000000 1.000000 1.000000 1.000000 1.000000 1.000000 1.000000 1.000000 1.000000 1.000000 1.000000 1.000000 1.000000 1.000000 1.000000 1.000000 1.000000 1.000000 1.000000 1.000000 1.000000 1.000000 1.000000 1.000000 1.000000 1.000000 1.000000 1.000000 1.000000 1.000000 1.000000 1.000000 1.000000 1.000000 1.000000 1.000000 1.000000 1.000000 0.834481 0.834481 0.834481 0.834481 0.834481 0.834481 0.834481 0.811833 0.811833 0.811833 0.811833 0.811833 0.811833 0.811833 0.811833 0.811833 0.811833 0.811833 0.811833 0.811833 0.811833 0.811833 0.811833 0.811833 0.811833 0.811833 0.811833 0.811833 0.811833 0.811833 0.811833 0.811833 0.811833 0.811833 0.811833 0.811833 0.811833 0.811833 0.811833 0.811833 0.811833 0.811833 0.811833 0.811833 0.811833 0.811833 0.811833 0.811833 0.811833 0.811833 0.811833 0.951587 0.952263 0.944595 0.943476 0.941708 0.938516 0.934030 0.933565 0.934920 0.935131 0.935776 0.937977 0.939055 0.940802 0.942078 0.942982 0.943841 0.951900 0.955513 0.955931 0.955462 0.950834 0.957434 0.956595 0.956433 0.957220 0.957524 0.958240 0.958118 0.957949 0.957396 0.956249 0.956973 0.956826 0.956100 0.955067 0.952741 0.952725 0.952267 0.952388 0.953346 0.954034 0.954675 0.955188 0.955146 0.955333 0.955314 0.955215 0.950162 0.950194 0.943746 0.944438 0.945622 0.945316 0.944254 0.942849 0.942899 0.942760 0.942667 0.942459 0.942687 0.923396 0.922810 0.922841 0.922941 0.915219 0.904335 0.897220 0.890595 0.891509 0.895535 0.900470 0.900768 0.897689 0.896788 0.880505 0.884230 0.871305 0.868406 0.856690 0.867074 0.869207 0.870717 0.865747 0.865132 0.863866 0.861976 0.853079 0.857147 0.857380 0.853000 0.849635 0.847445 0.846478 0.847933 0.852725 0.849250 0.844902 0.842224 0.830342 0.821009 0.819817 0.822432 0.830211 0.842323 0.842730 0.841996 0.834672 0.830835 0.823832 0.817130 0.814896 0.816808 0.814020 0.817981 0.816164 0.822910 0.812861 0.808089 0.813147 0.822302 0.827836 0.830615 0.832961 0.830853 0.830073 0.814659 0.815339 0.805831 0.756967 0.760519 0.748957 0.748854 0.739055 0.737738 0.733856 0.734377 0.728832 0.713478 0.725816 0.718121 0.692238 0.700158 0.693595 0.681291 0.660309 0.664930 0.679654 0.687859 0.686867 0.690835 0.679312 0.678892 0.691236 0.692021 0.699213 0.693741 0.692021 0.684824 0.686606 0.676900 0.677004 0.672397 0.671317 0.671882 0.668271 0.657573 0.665170 0.662356 0.657042 0.647826 0.604376 0.566473 0.546552 0.539159 0.521513 0.497014 0.514673 0.522275 0.503825 0.495297 0.476998 0.437115 0.429590 0.428057 0.404045 0.386968 0.365347 0.336701 0.344286 0.346181 0.349529 0.336558 0.334894 0.319666 0.278356 0.269058 0.230914 0.245823 0.266568 0.253630 0.230729 0.233129 0.244424 0.240735 0.252745 0.251189 0.265067 0.220249 0.167674 0.181828 0.178189 0.189384 0.172491 0.146642 0.171850 0.158650 0.168795 0.171747 0.132462 0.102259 0.082595 0.057204 0.062575 0.087368 0.103863 0.096907 0.074511 -0.014637 0.018357 0.046170 0.046170 0.046170 0.046170 0.046170 0.046170 0.046170 0.046170 0.046170 0.046170 0.046170 -0.020164 -0.020164 -0.020164 -0.020164 -0.020164 -0.020164 -0.020164 -0.020164 -0.020164 -0.020164 -0.020164 -0.020164 -0.020164 -0.020164 -0.020164 -0.020164 -0.020164 -0.020164 -0.020164
0.000000 0.000000 0.000000 0.000000 0.000000 0.000000 0.000000 0.000000 0.000000 0.000000 0.000000 0.000000 0.000000 0.000000 0.000000 0.000000 0.000000 0.000000 0.000000 0.000000 0.000000 9401.000000 0.000000 0.000000 0.000000 0.000000 0.000000 0.000000 0.000000 0.000000 0.000000 0.000000 0.000000 0.000000 0.000000 0.000000 0.000000 0.000000 0.000000 0.000000 0.000000 0.000000 0.000000 0.000000 0.000000 0.000000 0.000000 0.000000 0.000000 0.000000 0.000000 0.000000 0.173422 0.173422 0.173422 0.173422 0.173422 0.173422 0.173422 0.191565 0.191565 0.191565 0.191565 0.191565 0.191565 0.191565 0.191565 0.191565 0.191565 0.191565 0.191565 0.191565 0.191565 0.191565 0.191565 0.191565 0.191565 0.191565 0.191565 0.191565 0.191565 0.191565 0.191565 0.191565 0.191565 0.191565 0.191565 0.191565 0.191565 0.191565 0.191565 0.191565 0.191565 0.191565 0.191565 0.191565 0.191565 0.191565 0.191565 0.191565 0.191565 0.191565 0.191565 0.219529 0.219529 0.219529 0.219529 0.219529 0.219529 0.219529 0.219529 0.219529 0.219529 0.219529 0.219529 0.219529 0.219529 0.219529 0.219529 0.219529 0.219529 0.219529 0.219529 0.219529 0.219529 0.219529 0.219529 0.219529 0.219529 0.219529 0.219529 0.219529 0.219529 0.219529 0.237356 0.237356 0.237356 0.237356 0.237356 0.237356 0.237356 0.237356 0.237356 0.237356 0.237356 0.237356 0.237356 0.237356 0.237356 0.237356 0.237356 0.237356 0.237356 0.237356 0.237356 0.237356 0.237356 0.237356 0.244339 0.244339 0.244339 0.244339 0.244339 0.244339 0.244339 0.244339 0.244339 0.244339 0.244339 0.244339 0.244339 0.244339 0.244339 0.244339 0.244339 0.244339 0.244339 0.244339 0.244339 0.248069 0.248069 0.248069 0.248069 0.248069 0.248069 0.248069 0.248069 0.248069 0.248069 0.248069 0.248069 0.248069 0.248069 0.248069 0.248069 0.248069 0.248069 0.248069 0.248069 0.248069 0.248069 0.248069 0.248069 0.248069 0.248069 0.248069 0.248069 0.248069 0.248069 0.248069 0.248069 0.248069 0.248069 0.248069 0.248069 0.248069 0.256074 0.256074 0.256074 0.256074 0.256074 0.256074 0.256074 0.256074 0.256074 0.256074 0.256074 0.256074 0.256074 0.256074 0.256074 0.256074 0.256074 0.256074 0.256074 0.256074 0.256074 0.256074 0.256074 0.256074 0.256074 0.256074 0.256074 0.256074 0.256074 0.256074 0.256074 0.256074 0.256074 0.256074 0.256074 0.256074 0.256074 0.256074 0.256074 0.256074 0.256074 0.256074 0.256074 0.256074 0.256074 0.260378 0.260378 0.260378 0.260378 0.260378 0.260378 0.260378 0.260378 0.260378 0.260378 0.260378 0.260378 0.260378 0.256074 0.256074 0.256074 0.256074 0.256074 0.256074 0.256074 0.256074 0.256074 0.256074 0.256074 0.256074 0.256074 0.260378 0.260378 0.260378 0.260378 0.260378 0.260378 0.260378 0.260378 0.260378 0.260378 0.260378 0.260378 0.251976 0.251976 0.251976 0.251976 0.251976 0.251976 0.251976 0.251976 0.251976 0.251976 0.251976 0.251976 0.256074 0.256074 0.256074 0.256074 0.256074 0.256074 0.256074 0.256074 0.256074 0.256074 0.256074 0.251976 0.251976 0.251976 0.251976 0.251976 0.251976 0.251976 0.251976 0.251976 0.251976 0.251976 0.248069 0.248069 0.248069 0.248069 0.248069 0.248069 0.248069 0.248069 0.248069 0.248069 0.248069 0.256074 0.256074 0.256074 0.256074 0.256074 0.256074 0.256074 0.256074 0.256074 0.256074 0.256074 0.256074 0.256074 0.256074 0.256074 0.256074 0.256074 0.256074 0.256074
