# Output from CTFFind version 4.1.9, run on 2019-11-02 12:25:11
# Input file: stack1_ub_averaged_750.mrc ; Number of micrographs: 1
# Pixel size: 3.000 Angstroms ; acceleration voltage: 300.0 keV ; spherical aberration: 0.00 mm ; amplitude contrast: 0.07
# Box size: 512 pixels ; min. res.: 30.0 Angstroms ; max. res.: 5.0 Angstroms ; min. def.: 5000.0 um; max. def. 50000.0 um; num. frames averaged: 1
# 6 lines per micrograph: #1 - spatial frequency (1/Angstroms); #2 - 1D rotational average of spectrum (assuming no astigmatism); #3 - 1D rotational average of spectrum; #4 - CTF fit; #5 - cross-correlation between spectrum and CTF fit; #6 - 2sigma of expected cross correlation of noise
0.000000 0.000651 0.001302 0.001953 0.002604 0.003255 0.003906 0.004557 0.005208 0.005859 0.006510 0.007161 0.007812 0.008464 0.009115 0.009766 0.010417 0.011068 0.011719 0.012370 0.013021 0.013672 0.014323 0.014974 0.015625 0.016276 0.016927 0.017578 0.018229 0.018880 0.019531 0.020182 0.020833 0.021484 0.022135 0.022786 0.023438 0.024089 0.024740 0.025391 0.026042 0.026693 0.027344 0.027995 0.028646 0.029297 0.029948 0.030599 0.031250 0.031901 0.032552 0.033203 0.033854 0.034505 0.035156 0.035807 0.036458 0.037109 0.037760 0.038411 0.039062 0.039714 0.040365 0.041016 0.041667 0.042318 0.042969 0.043620 0.044271 0.044922 0.045573 0.046224 0.046875 0.047526 0.048177 0.048828 0.049479 0.050130 0.050781 0.051432 0.052083 0.052734 0.053385 0.054036 0.054688 0.055339 0.055990 0.056641 0.057292 0.057943 0.058594 0.059245 0.059896 0.060547 0.061198 0.061849 0.062500 0.063151 0.063802 0.064453 0.065104 0.065755 0.066406 0.067057 0.067708 0.068359 0.069010 0.069661 0.070312 0.070964 0.071615 0.072266 0.072917 0.073568 0.074219 0.074870 0.075521 0.076172 0.076823 0.077474 0.078125 0.078776 0.079427 0.080078 0.080729 0.081380 0.082031 0.082682 0.083333 0.083984 0.084635 0.085286 0.085938 0.086589 0.087240 0.087891 0.088542 0.089193 0.089844 0.090495 0.091146 0.091797 0.092448 0.093099 0.093750 0.094401 0.095052 0.095703 0.096354 0.097005 0.097656 0.098307 0.098958 0.099609 0.100260 0.100911 0.101562 0.102214 0.102865 0.103516 0.104167 0.104818 0.105469 0.106120 0.106771 0.107422 0.108073 0.108724 0.109375 0.110026 0.110677 0.111328 0.111979 0.112630 0.113281 0.113932 0.114583 0.115234 0.115885 0.116536 0.117188 0.117839 0.118490 0.119141 0.119792 0.120443 0.121094 0.121745 0.122396 0.123047 0.123698 0.124349 0.125000 0.125651 0.126302 0.126953 0.127604 0.128255 0.128906 0.129557 0.130208 0.130859 0.131510 0.132161 0.132812 0.133464 0.134115 0.134766 0.135417 0.136068 0.136719 0.137370 0.138021 0.138672 0.139323 0.139974 0.140625 0.141276 0.141927 0.142578 0.143229 0.143880 0.144531 0.145182 0.145833 0.146484 0.147135 0.147786 0.148438 0.149089 0.149740 0.150391 0.151042 0.151693 0.152344 0.152995 0.153646 0.154297 0.154948 0.155599 0.156250 0.156901 0.157552 0.158203 0.158854 0.159505 0.160156 0.160807 0.161458 0.162109 0.162760 0.163411 0.164062 0.164714 0.165365 0.166016 0.166667 0.167318 0.167969 0.168620 0.169271 0.169922 0.170573 0.171224 0.171875 0.172526 0.173177 0.173828 0.174479 0.175130 0.175781 0.176432 0.177083 0.177734 0.178385 0.179036 0.179688 0.180339 0.180990 0.181641 0.182292 0.182943 0.183594 0.184245 0.184896 0.185547 0.186198 0.186849 0.187500 0.188151 0.188802 0.189453 0.190104 0.190755 0.191406 0.192057 0.192708 0.193359 0.194010 0.194661 0.195312 0.195964 0.196615 0.197266 0.197917 0.198568 0.199219 0.199870 0.200521 0.201172 0.201823 0.202474 0.203125 0.203776 0.204427 0.205078 0.205729 0.206380 0.207031 0.207682 0.208333 0.208984 0.209635 0.210286 0.210938 0.211589 0.212240 0.212891 0.213542 0.214193 0.214844 0.215495 0.216146 0.216797 0.217448 0.218099 0.218750 0.219401 0.220052 0.220703 0.221354 0.222005 0.222656 0.223307 0.223958 0.224609 0.225260 0.225911 0.226562 0.227214 0.227865 0.228516 0.229167 0.229818 0.230469 0.231120 0.231771 0.232422 0.233073 0.233724 0.234375 0.235026 0.235677
       0.33185        0.33185        0.33185        0.33185        0.33185        0.33185        0.33185        0.33185        0.33185        0.33185        0.33185        0.33185        0.33185        0.33185        0.33185        0.33185        0.33185        0.33185        0.33185        0.33185        0.33185        0.33185        0.33185        0.33185        0.33185        0.33185        0.33185        0.33185        0.33185        0.33185        0.33185        0.33185        0.33185        0.33185        0.33185        0.33185        0.33185        0.33185        0.33185        0.33185        0.33185        0.33185        0.33185        0.33185        0.33185        0.33185        0.33185        0.33185        0.33185        0.33185        0.33185        0.50234        0.71921        0.42835        0.18887       -0.08132       -0.26232       -0.06962       -0.13497       -0.05351       -0.00386       -0.14878       -0.09265       -0.05478       -0.00559       -0.15344       -0.22295       -0.34832       -0.46262       -0.55762       -0.51750       -0.44769       -0.37222       -0.54741       -0.45258       -0.62279       -0.50452       -0.47550       -0.39048       -0.38744       -0.34056       -0.25274       -0.16225       -0.13785        0.03161       -0.01310        0.11735        0.16624        0.30500        0.41004        0.46254        0.49932        0.54110        0.54963        0.68928        0.64400        0.67518        0.59070        0.55542        0.65332        0.52702        0.42543        0.38107        0.32019        0.22727        0.26052        0.24925        0.10619        0.08123       -0.00088       -0.00638        0.03703       -0.00560        0.07297        0.10055        0.23121        0.28365        0.29945        0.37843        0.56154        0.53489        0.57772        0.66828        0.70160        0.62898        0.63451        0.63171        0.55604        0.57515        0.39923        0.34330        0.26443        0.18310        0.07136        0.14260        0.11823        0.09041        0.10513        0.20882        0.21383        0.31605        0.35970        0.41177        0.49083        0.58238        0.54123        0.55411        0.60655        0.53594        0.45945        0.48004        0.32477        0.24766        0.25818        0.24026        0.14019        0.14169        0.15077        0.21742        0.24293        0.32900        0.36478        0.39071        0.46800        0.44509        0.47971        0.45374        0.46633        0.44549        0.40680        0.38410        0.35092        0.31034        0.28758        0.20406        0.19348        0.21927        0.26888        0.26692        0.34924        0.37404        0.35629        0.41007        0.45125        0.44423        0.42412        0.43999        0.37448        0.33333        0.28203        0.26177        0.28989        0.26810        0.29234        0.29948        0.34666        0.34195        0.39372        0.40176        0.42634        0.40843        0.43082        0.40223        0.36219        0.28097        0.29078        0.30589        0.26996        0.25351        0.32357        0.36784        0.34125        0.35282        0.35822        0.35432        0.40812        0.40202        0.36122        0.33770        0.30705        0.30950        0.31665        0.31771        0.29984        0.28365        0.33528        0.35885        0.37730        0.33255        0.32976        0.33424        0.34403        0.30640        0.28274        0.30504        0.31272        0.33727        0.31808        0.32802        0.35751        0.32761        0.31133        0.32581        0.30071        0.26395        0.25168        0.26620        0.30716        0.32115        0.35149        0.30200        0.31148        0.33246        0.29258        0.31390        0.28394        0.28105        0.29086        0.29671        0.30759        0.34213        0.32781        0.33065        0.33686        0.31053        0.33347        0.31974        0.31888        0.30746        0.28140        0.29089        0.30870        0.29082        0.32457        0.33547        0.33453        0.32243        0.33993        0.31773        0.27829        0.25040        0.26753        0.32923        0.35497        0.34216        0.31332        0.29181        0.29765        0.31237        0.24851        0.29822        0.30657        0.33401        0.29796        0.31393        0.28549        0.33585        0.33893        0.34209        0.31760        0.29111        0.31564        0.39903        0.32752        0.31097        0.31009        0.28649        0.28266        0.29993        0.26708        0.31437        0.23639        0.27200        0.29516        0.31389        0.29383        0.26747        0.29566        0.23507        0.22158        0.26285        0.29979        0.30556        0.27052        0.28239        0.33150        0.25978        0.21746        0.30585        0.27333        0.25709        0.28373        0.39239        0.29354        0.28526        0.24535        0.25135        0.26835        0.24540        0.23492        0.17557        0.25938        0.23090        0.24580        0.31668        0.26605        0.35229        0.29144        0.23301        0.22107        0.21148        0.23469        0.31078        0.23193        0.13387        0.16747        0.23739        0.24815        0.30361        0.26820        0.02668       -0.44123       -0.91599
2.690632 2.662202 2.633924 2.605799 2.577826 2.550006 2.522339 2.494824 2.467462 2.440252 2.413195 2.386290 2.359538 2.332939 2.306492 2.280197 2.254055 2.228066 2.202229 2.176545 2.151014 2.125635 2.100408 2.075334 2.050413 2.025644 2.001028 1.976564 1.952253 1.928094 1.904088 1.880235 1.856534 1.832985 1.809590 1.786346 1.763256 1.740318 1.717532 1.694899 1.672418 1.650091 1.627915 1.605892 1.584022 1.562304 1.540739 1.519327 1.498067 1.476959 1.456004 1.526467 1.828979 1.512345 1.192167 0.939755 0.545321 0.910667 0.631994 0.874434 0.925464 0.588931 0.710652 0.776184 0.815761 0.629267 0.535013 0.346681 0.103719 0.081414 0.045193 0.085565 0.302019 -0.034712 0.079907 -0.135085 -0.012765 -0.017997 0.084680 0.057814 0.102284 0.175093 0.281087 0.249736 0.481957 0.396342 0.547225 0.524778 0.766828 0.788687 0.878193 0.922117 0.940131 0.942813 1.108847 0.940773 1.136901 0.944475 0.850451 1.014055 0.846430 0.756190 0.613842 0.593353 0.456268 0.413061 0.507503 0.264748 0.195535 0.156271 0.012959 0.209178 -0.004226 0.117595 0.181327 0.259794 0.331801 0.344435 0.421932 0.539695 0.660274 0.539608 0.736102 0.864881 0.637735 0.694073 0.664993 0.595035 0.536534 0.467113 0.296458 0.213033 0.114919 -0.042161 -0.022786 0.057779 -0.098650 -0.058920 0.049190 0.054217 0.110656 0.221715 0.238157 0.306914 0.432552 0.441244 0.436819 0.479040 0.443264 0.323148 0.333734 0.241992 0.048332 0.061846 0.018790 -0.051659 -0.098170 -0.102519 -0.015748 -0.056168 0.069295 0.123193 0.120886 0.260994 0.228947 0.245589 0.290321 0.243422 0.241160 0.210578 0.175992 0.108364 0.101296 0.027465 0.009717 -0.120585 -0.054634 -0.001035 0.004851 0.018022 0.098588 0.084064 0.134692 0.181370 0.252666 0.173511 0.185799 0.109630 0.139650 0.018677 -0.030534 0.019562 -0.020573 -0.001372 -0.005984 0.033784 0.079906 0.053706 0.150003 0.100639 0.161890 0.062843 0.146282 0.091632 -0.012261 -0.061848 -0.015364 -0.037002 -0.076218 -0.067951 0.048237 0.058177 -0.008093 0.046899 0.062176 0.072266 0.144338 0.067889 0.062419 0.044531 -0.027391 0.024435 0.003380 0.011443 0.002598 -0.010475 0.040218 0.062160 0.068454 0.028772 0.044559 0.018789 0.057378 -0.011528 -0.018830 0.019508 0.006947 0.061552 0.032022 0.039479 0.053964 0.041743 0.016879 0.027748 -0.004522 -0.046830 -0.031911 -0.027702 0.023264 0.040001 0.095163 -0.003654 0.048009 0.065857 -0.009354 0.062779 0.009722 0.010993 0.038310 0.052121 0.037166 0.094718 0.057896 0.072657 0.089229 0.062525 0.067718 0.066062 0.083149 0.031292 -0.005735 0.044419 0.037811 0.049775 0.065480 0.086007 0.012975 0.064323 0.071056 0.007129 0.008087 -0.067856 -0.027623 0.106766 0.073902 0.043134 0.038255 -0.025303 0.046749 0.021362 -0.065857 0.048046 0.038728 0.069364 0.031079 0.008172 0.004439 0.057845 0.040206 0.016102 0.034445 -0.036510 0.062973 0.119855 0.005993 -0.009812 0.001390 -0.007876 -0.035568 -0.019734 -0.054827 0.002567 -0.095047 -0.023742 -0.034298 0.022271 -0.034176 -0.070172 0.029364 -0.080310 -0.060851 -0.074157 0.047123 0.010212 -0.001175 -0.008905 0.077118 -0.027521 -0.066520 0.053505 -0.004483 0.017185 0.013616 0.197314 -0.016011 0.023774 0.003625 -0.002579 -0.000545 -0.021155 -0.014660 -0.146466 0.025194 -0.035910 0.003686 0.029451 -0.006579 0.138955 0.014137 -0.025411 -0.051816 -0.028086 -0.068017 0.075622 0.276687 0.158208 0.213449 0.229429 0.336682 0.333956 0.320413 0.033773 -1.071912
0.072396 0.072910 0.074452 0.077021 0.080617 0.085239 0.090885 0.097555 0.105245 0.113952 0.123674 0.134405 0.146140 0.158872 0.172593 0.187293 0.202961 0.219582 0.237142 0.255620 0.274997 0.295247 0.316344 0.338255 0.360946 0.384377 0.408504 0.433277 0.458644 0.484544 0.510912 0.537677 0.564762 0.592082 0.619548 0.647061 0.674517 0.701806 0.728807 0.755395 0.781438 0.806795 0.831320 0.854860 0.877255 0.898340 0.917946 0.935897 0.952014 0.966117 0.978022 0.987545 0.994501 0.998709 0.999991 0.998171 0.993082 0.984564 0.972470 0.956662 0.937017 0.913432 0.885818 0.854111 0.818269 0.778277 0.734148 0.685925 0.633684 0.577536 0.517629 0.454150 0.387325 0.317419 0.244744 0.169649 0.092528 0.013816 0.066009 0.146434 0.226904 0.306833 0.385603 0.462567 0.537058 0.608393 0.675877 0.738811 0.796500 0.848262 0.893436 0.931389 0.961528 0.983311 0.996254 0.999942 0.994040 0.978303 0.952584 0.916843 0.871156 0.815720 0.750861 0.677033 0.594829 0.504974 0.408327 0.305875 0.198733 0.088126 0.024612 0.138057 0.250711 0.361020 0.467392 0.568224 0.661925 0.746943 0.821794 0.885088 0.935561 0.972103 0.993786 0.999892 0.989935 0.963688 0.921195 0.862791 0.789110 0.701088 0.599963 0.487267 0.364810 0.234661 0.099117 0.039330 0.178037 0.314256 0.445189 0.568045 0.680102 0.778772 0.861665 0.926652 0.971930 0.996080 0.998116 0.977533 0.934339 0.869086 0.782873 0.677354 0.554714 0.417641 0.269279 0.113169 0.046834 0.206647 0.362055 0.508831 0.642850 0.760206 0.857339 0.931150 0.979116 0.999381 0.990851 0.953251 0.887175 0.794100 0.676377 0.537196 0.380517 0.210974 0.033749 0.145571 0.321171 0.487194 0.637933 0.768043 0.872736 0.947973 0.990640 0.998691 0.971271 0.908784 0.812936 0.686717 0.534335 0.361099 0.173262 0.022194 0.217803 0.405896 0.578907 0.729675 0.851760 0.939735 0.989449 0.998249 0.965144 0.890913 0.778128 0.631105 0.455775 0.259475 0.050661 0.161434 0.367204 0.557099 0.722081 0.854066 0.946345 0.993950 0.993958 0.945699 0.850869 0.713516 0.539919 0.338335 0.118642 0.108121 0.330296 0.536204 0.714760 0.856092 0.952111 0.997015 0.987673 0.923887 0.808493 0.647291 0.448810 0.223897 0.014841 0.253721 0.478759 0.676489 0.834795 0.943675 0.995917 0.987626 0.918560 0.792254 0.615904 0.400024 0.157859 0.095384 0.343471 0.570180 0.760359 0.900988 0.982089 0.997503 0.945409 0.828570 0.654275 0.433943 0.182449 0.082847 0.343268 0.580117 0.776054 0.916374 0.990174 0.991261 0.918733 0.777194 0.576548 0.331386 0.059981 0.217028 0.478183 0.702877 0.872997 0.974442 0.998355 0.941973 0.809005 0.609499 0.359158 0.078193 0.210269 0.482063 0.713997 0.885889 0.982353 0.994267 0.919716 0.764341 0.541019 0.268898 0.028178 0.323704 0.590866 0.804986 0.945851 0.999687 0.960610 0.831357 0.623233 0.355233 0.052405 0.256441 0.541429 0.774525 0.932338 0.998538 0.965657 0.836030 0.621790 0.343852 0.029966 0.287964 0.577126 0.807169 0.953458 0.999802 0.940352 0.780463 0.536363 0.233624 0.095404 0.414986 0.689889 0.889284 0.990279 0.980667 0.860529 0.642489 0.350543 0.017524 0.318485 0.618488 0.847115 0.976867 0.991528 0.888344 0.678623 0.386669 0.047100 0.299163 0.609776 0.846176 0.978445 0.989207 0.876076 0.652250 0.345154 0.006774 0.358799 0.665540 0.886852 0.993162 0.969572 0.818111 0.557793 0.222432 0.143647 0.491342 0.773373 0.950763 0.998349
1.000000 1.000000 1.000000 1.000000 1.000000 1.000000 1.000000 1.000000 1.000000 1.000000 1.000000 1.000000 1.000000 1.000000 1.000000 1.000000 1.000000 1.000000 1.000000 1.000000 1.000000 1.000000 1.000000 1.000000 1.000000 1.000000 1.000000 1.000000 1.000000 1.000000 1.000000 1.000000 1.000000 1.000000 1.000000 1.000000 1.000000 1.000000 1.000000 1.000000 1.000000 1.000000 1.000000 1.000000 1.000000 1.000000 1.000000 1.000000 1.000000 1.000000 1.000000 1.000000 0.920897 0.920897 0.907913 0.907913 0.907913 0.907913 0.907913 0.907913 0.907913 0.907913 0.907913 0.907913 0.907913 0.907913 0.907913 0.907913 0.907913 0.907913 0.907913 0.907913 0.907913 0.907913 0.907913 0.907913 0.907913 0.907913 0.907913 0.907913 0.907913 0.907913 0.907913 0.907913 0.907913 0.907913 0.907913 0.907913 0.907913 0.907913 0.907913 0.907913 0.907913 0.907913 0.907913 0.904891 0.909604 0.911415 0.909792 0.913289 0.913358 0.912676 0.913053 0.912720 0.913035 0.914386 0.924869 0.935874 0.947122 0.947210 0.952325 0.956725 0.959179 0.960141 0.961823 0.968380 0.967071 0.966566 0.967254 0.968724 0.970868 0.969562 0.969182 0.972343 0.973012 0.971379 0.969182 0.968576 0.967975 0.968074 0.967697 0.967585 0.967461 0.967967 0.968183 0.967873 0.968017 0.968066 0.969085 0.970242 0.972603 0.973596 0.973437 0.972327 0.970392 0.974417 0.975278 0.975002 0.974940 0.974462 0.974735 0.962527 0.957203 0.957124 0.953901 0.953044 0.950316 0.948656 0.946560 0.946770 0.945854 0.945914 0.941886 0.928438 0.914586 0.903462 0.924433 0.909077 0.897766 0.873683 0.874269 0.870956 0.871492 0.864282 0.857970 0.853197 0.850403 0.851868 0.848284 0.851932 0.849007 0.836435 0.839335 0.836367 0.808747 0.790920 0.775503 0.776418 0.773703 0.774861 0.774341 0.771047 0.779398 0.771111 0.769375 0.761133 0.741856 0.708049 0.694430 0.704776 0.714378 0.712805 0.709057 0.693851 0.661348 0.673886 0.694487 0.692218 0.694845 0.685438 0.678360 0.679287 0.680439 0.676463 0.669123 0.668171 0.667342 0.676609 0.680836 0.676339 0.666262 0.651230 0.638928 0.625909 0.638782 0.649053 0.616689 0.610817 0.599108 0.592325 0.578439 0.547618 0.547670 0.524344 0.514306 0.518544 0.521932 0.515761 0.523835 0.525243 0.508692 0.530116 0.538637 0.565094 0.547957 0.546950 0.548675 0.555470 0.540472 0.524222 0.519835 0.520730 0.532597 0.561801 0.603486 0.590589 0.578036 0.565469 0.578003 0.546348 0.554578 0.575387 0.552622 0.484834 0.434265 0.432504 0.392866 0.390794 0.380732 0.371786 0.375336 0.366039 0.354659 0.341250 0.329000 0.273810 0.233633 0.215661 0.194539 0.199718 0.213381 0.206310 0.195186 0.219286 0.266809 0.268023 0.259606 0.232867 0.238319 0.209584 0.222601 0.248835 0.204186 0.196373 0.187481 0.160215 0.157605 0.121893 0.143026 0.062477 0.040186 0.038716 0.054290 0.065032 0.061054 0.063273 0.034527 0.055637 0.052425 0.025094 0.015041 0.032261 0.018644 -0.012987 -0.000351 0.014428 0.003400 -0.021049 0.000018 0.019043 0.034192 0.025849 0.022610 0.078986 0.108929 0.096351 0.097747 0.090575 0.100806 0.079475 0.073042 0.059059 0.048304 0.000574 -0.028760 -0.028760 -0.023618 -0.023618 -0.023618 -0.023618 -0.023618 -0.023618 -0.023618 -0.023618 -0.023618 -0.027191 -0.027191 -0.027191 -0.027191 -0.027191 -0.027191 -0.027191 -0.027191 -0.027191 -0.001465 -0.001465 -0.001465 -0.001465 -0.001465 -0.001465 -0.001465 -0.001465 -0.001465
0.000000 0.000000 0.000000 0.000000 0.000000 0.000000 0.000000 0.000000 0.000000 0.000000 0.000000 0.000000 0.000000 0.000000 0.000000 0.000000 0.000000 0.000000 0.000000 0.000000 0.000000 0.000000 0.000000 0.000000 0.000000 0.000000 0.000000 0.000000 0.000000 0.000000 0.000000 0.000000 0.000000 0.000000 0.000000 0.000000 0.000000 0.000000 0.000000 0.000000 0.000000 0.000000 0.000000 0.000000 0.000000 0.000000 0.000000 0.000000 0.000000 0.000000 0.000000 0.000000 0.181818 0.181818 0.199007 0.199007 0.199007 0.199007 0.199007 0.199007 0.199007 0.199007 0.199007 0.199007 0.199007 0.199007 0.199007 0.199007 0.199007 0.199007 0.199007 0.199007 0.199007 0.199007 0.199007 0.199007 0.199007 0.199007 0.199007 0.199007 0.199007 0.199007 0.199007 0.199007 0.199007 0.199007 0.199007 0.199007 0.199007 0.199007 0.199007 0.199007 0.199007 0.199007 0.199007 0.230940 0.230940 0.230940 0.230940 0.230940 0.230940 0.230940 0.230940 0.230940 0.230940 0.230940 0.230940 0.230940 0.230940 0.230940 0.230940 0.230940 0.230940 0.230940 0.230940 0.230940 0.230940 0.230940 0.230940 0.230940 0.230940 0.230940 0.230940 0.244339 0.244339 0.244339 0.244339 0.244339 0.244339 0.244339 0.244339 0.244339 0.244339 0.244339 0.244339 0.244339 0.244339 0.244339 0.244339 0.244339 0.244339 0.244339 0.244339 0.244339 0.244339 0.244339 0.251976 0.251976 0.251976 0.251976 0.251976 0.251976 0.251976 0.251976 0.251976 0.251976 0.251976 0.251976 0.251976 0.251976 0.251976 0.251976 0.251976 0.251976 0.251976 0.251976 0.264906 0.264906 0.264906 0.264906 0.264906 0.264906 0.264906 0.264906 0.264906 0.264906 0.264906 0.264906 0.264906 0.264906 0.264906 0.264906 0.264906 0.264906 0.264906 0.264906 0.264906 0.264906 0.264906 0.264906 0.264906 0.264906 0.264906 0.264906 0.264906 0.264906 0.264906 0.264906 0.264906 0.264906 0.264906 0.264906 0.264906 0.264906 0.264906 0.264906 0.264906 0.264906 0.264906 0.264906 0.264906 0.264906 0.264906 0.264906 0.264906 0.264906 0.264906 0.264906 0.264906 0.264906 0.264906 0.264906 0.264906 0.264906 0.264906 0.264906 0.264906 0.264906 0.264906 0.264906 0.264906 0.264906 0.264906 0.264906 0.264906 0.264906 0.264906 0.264906 0.264906 0.264906 0.264906 0.269680 0.269680 0.269680 0.269680 0.269680 0.269680 0.269680 0.269680 0.269680 0.269680 0.269680 0.269680 0.264906 0.264906 0.264906 0.264906 0.264906 0.264906 0.264906 0.264906 0.264906 0.264906 0.264906 0.264906 0.269680 0.269680 0.269680 0.269680 0.269680 0.269680 0.269680 0.269680 0.269680 0.269680 0.269680 0.264906 0.264906 0.264906 0.264906 0.264906 0.264906 0.264906 0.264906 0.264906 0.264906 0.264906 0.256074 0.256074 0.256074 0.256074 0.256074 0.256074 0.256074 0.256074 0.256074 0.256074 0.256074 0.264906 0.264906 0.264906 0.264906 0.264906 0.264906 0.264906 0.264906 0.264906 0.264906 0.269680 0.269680 0.269680 0.269680 0.269680 0.269680 0.269680 0.269680 0.269680 0.256074 0.256074 0.256074 0.256074 0.256074 0.256074 0.256074 0.256074 0.256074 0.256074 0.260378 0.260378 0.260378 0.260378 0.260378 0.260378 0.260378 0.260378 0.260378 0.256074 0.256074 0.256074 0.256074 0.256074 0.256074 0.256074 0.256074 0.256074 0.251976 0.251976 0.251976 0.251976 0.251976 0.251976 0.251976 0.251976 0.251976 0.264906 0.264906 0.264906 0.264906 0.264906 0.264906 0.264906 0.264906 0.264906
