# Output from CTFFind version 4.1.9, run on 2019-11-03 18:52:16
# Input file: stack10_ub_averaged_3000.mrc ; Number of micrographs: 1
# Pixel size: 3.000 Angstroms ; acceleration voltage: 300.0 keV ; spherical aberration: 0.00 mm ; amplitude contrast: 0.07
# Box size: 512 pixels ; min. res.: 30.0 Angstroms ; max. res.: 5.0 Angstroms ; min. def.: 5000.0 um; max. def. 50000.0 um; num. frames averaged: 1
# 6 lines per micrograph: #1 - spatial frequency (1/Angstroms); #2 - 1D rotational average of spectrum (assuming no astigmatism); #3 - 1D rotational average of spectrum; #4 - CTF fit; #5 - cross-correlation between spectrum and CTF fit; #6 - 2sigma of expected cross correlation of noise
0.000000 0.000651 0.001302 0.001953 0.002604 0.003255 0.003906 0.004557 0.005208 0.005859 0.006510 0.007161 0.007812 0.008464 0.009115 0.009766 0.010417 0.011068 0.011719 0.012370 0.013021 0.013672 0.014323 0.014974 0.015625 0.016276 0.016927 0.017578 0.018229 0.018880 0.019531 0.020182 0.020833 0.021484 0.022135 0.022786 0.023438 0.024089 0.024740 0.025391 0.026042 0.026693 0.027344 0.027995 0.028646 0.029297 0.029948 0.030599 0.031250 0.031901 0.032552 0.033203 0.033854 0.034505 0.035156 0.035807 0.036458 0.037109 0.037760 0.038411 0.039062 0.039714 0.040365 0.041016 0.041667 0.042318 0.042969 0.043620 0.044271 0.044922 0.045573 0.046224 0.046875 0.047526 0.048177 0.048828 0.049479 0.050130 0.050781 0.051432 0.052083 0.052734 0.053385 0.054036 0.054688 0.055339 0.055990 0.056641 0.057292 0.057943 0.058594 0.059245 0.059896 0.060547 0.061198 0.061849 0.062500 0.063151 0.063802 0.064453 0.065104 0.065755 0.066406 0.067057 0.067708 0.068359 0.069010 0.069661 0.070312 0.070964 0.071615 0.072266 0.072917 0.073568 0.074219 0.074870 0.075521 0.076172 0.076823 0.077474 0.078125 0.078776 0.079427 0.080078 0.080729 0.081380 0.082031 0.082682 0.083333 0.083984 0.084635 0.085286 0.085938 0.086589 0.087240 0.087891 0.088542 0.089193 0.089844 0.090495 0.091146 0.091797 0.092448 0.093099 0.093750 0.094401 0.095052 0.095703 0.096354 0.097005 0.097656 0.098307 0.098958 0.099609 0.100260 0.100911 0.101562 0.102214 0.102865 0.103516 0.104167 0.104818 0.105469 0.106120 0.106771 0.107422 0.108073 0.108724 0.109375 0.110026 0.110677 0.111328 0.111979 0.112630 0.113281 0.113932 0.114583 0.115234 0.115885 0.116536 0.117188 0.117839 0.118490 0.119141 0.119792 0.120443 0.121094 0.121745 0.122396 0.123047 0.123698 0.124349 0.125000 0.125651 0.126302 0.126953 0.127604 0.128255 0.128906 0.129557 0.130208 0.130859 0.131510 0.132161 0.132812 0.133464 0.134115 0.134766 0.135417 0.136068 0.136719 0.137370 0.138021 0.138672 0.139323 0.139974 0.140625 0.141276 0.141927 0.142578 0.143229 0.143880 0.144531 0.145182 0.145833 0.146484 0.147135 0.147786 0.148438 0.149089 0.149740 0.150391 0.151042 0.151693 0.152344 0.152995 0.153646 0.154297 0.154948 0.155599 0.156250 0.156901 0.157552 0.158203 0.158854 0.159505 0.160156 0.160807 0.161458 0.162109 0.162760 0.163411 0.164062 0.164714 0.165365 0.166016 0.166667 0.167318 0.167969 0.168620 0.169271 0.169922 0.170573 0.171224 0.171875 0.172526 0.173177 0.173828 0.174479 0.175130 0.175781 0.176432 0.177083 0.177734 0.178385 0.179036 0.179688 0.180339 0.180990 0.181641 0.182292 0.182943 0.183594 0.184245 0.184896 0.185547 0.186198 0.186849 0.187500 0.188151 0.188802 0.189453 0.190104 0.190755 0.191406 0.192057 0.192708 0.193359 0.194010 0.194661 0.195312 0.195964 0.196615 0.197266 0.197917 0.198568 0.199219 0.199870 0.200521 0.201172 0.201823 0.202474 0.203125 0.203776 0.204427 0.205078 0.205729 0.206380 0.207031 0.207682 0.208333 0.208984 0.209635 0.210286 0.210938 0.211589 0.212240 0.212891 0.213542 0.214193 0.214844 0.215495 0.216146 0.216797 0.217448 0.218099 0.218750 0.219401 0.220052 0.220703 0.221354 0.222005 0.222656 0.223307 0.223958 0.224609 0.225260 0.225911 0.226562 0.227214 0.227865 0.228516 0.229167 0.229818 0.230469 0.231120 0.231771 0.232422 0.233073 0.233724 0.234375 0.235026 0.235677
       0.33902        0.33902        0.33902        0.33902        0.33902        0.33902        0.33902        0.33902        0.33902        0.33902        0.33902        0.33902        0.33902        0.33902        0.33902        0.33902        0.33902        0.33902        0.33902        0.33902        0.33902        0.33902        0.33902        0.33902        0.33902        0.33902        0.33902        0.33902        0.33902        0.33902        0.33902        0.33902        0.33902        0.33902        0.33902        0.33902        0.33902        0.33902        0.33902        0.33902        0.33902        0.33902        0.33902        0.33902        0.33902        0.33902        0.33902        0.33902        0.33902        0.33902        0.33902        0.60469        0.75305        0.12982       -0.35132       -0.56811       -0.62618       -0.71582       -0.79266       -0.79182       -0.77720       -0.76092       -0.75783       -0.91219       -1.06021       -1.07522       -1.05939       -1.06183       -1.07063       -0.88944       -0.84074       -0.74255       -0.61526       -0.57836       -0.32796       -0.31462       -0.11972       -0.01662        0.06615        0.18088        0.25321        0.39494        0.37332        0.63728        0.63244        0.68347        0.61611        0.59009        0.55264        0.52280        0.51642        0.39943        0.21918        0.19756        0.11358        0.02155       -0.06262       -0.07966       -0.02661       -0.01877        0.07320        0.12050        0.15073        0.20564        0.39104        0.45492        0.56115        0.53050        0.63723        0.75195        0.65377        0.65998        0.60549        0.50636        0.46623        0.30021        0.24417        0.11886        0.03357        0.00409       -0.04785       -0.02727        0.13075        0.17540        0.32967        0.38507        0.44444        0.66184        0.65667        0.67539        0.65351        0.65606        0.64225        0.60267        0.37650        0.24485        0.16126        0.13330        0.05872        0.07554        0.08373        0.23271        0.27262        0.35041        0.50207        0.57539        0.58324        0.59564        0.61057        0.56884        0.40798        0.36134        0.28579        0.19524        0.17000        0.15431        0.18936        0.20841        0.28672        0.41632        0.41331        0.52489        0.56328        0.52969        0.46491        0.43344        0.34960        0.25782        0.19003        0.15142        0.14528        0.21415        0.28859        0.35743        0.42155        0.42706        0.59388        0.57807        0.47674        0.40967        0.34047        0.28218        0.28120        0.23425        0.23891        0.25490        0.30361        0.30022        0.39223        0.48541        0.47183        0.45115        0.40521        0.37148        0.30358        0.27783        0.26635        0.27374        0.28487        0.35122        0.40935        0.42696        0.41441        0.43935        0.36398        0.34237        0.30589        0.25916        0.26255        0.29334        0.33472        0.34793        0.37074        0.41632        0.42405        0.39309        0.33995        0.30006        0.27583        0.29724        0.31976        0.33431        0.35126        0.40945        0.36923        0.37025        0.34554        0.33284        0.30414        0.25415        0.27621        0.28291        0.31155        0.37032        0.37440        0.38155        0.38825        0.36122        0.30130        0.32633        0.28707        0.28023        0.31231        0.34826        0.33381        0.33276        0.32848        0.34392        0.30421        0.30385        0.30087        0.29052        0.31438        0.31493        0.34489        0.31497        0.29785        0.29850        0.29629        0.30153        0.28512        0.30657        0.31130        0.31780        0.35170        0.33572        0.31258        0.30499        0.31664        0.29595        0.32558        0.33343        0.35363        0.39781        0.34279        0.33135        0.32709        0.30012        0.27193        0.28589        0.32982        0.32417        0.34828        0.34424        0.28924        0.30265        0.27552        0.28479        0.29742        0.30597        0.31712        0.34032        0.30045        0.30094        0.30830        0.27621        0.31728        0.30554        0.31120        0.34082        0.34894        0.31754        0.27923        0.23078        0.25747        0.31928        0.33714        0.34464        0.35994        0.33184        0.29697        0.28544        0.30614        0.31900        0.32204        0.30653        0.34984        0.30382        0.28868        0.27724        0.31567        0.29284        0.30045        0.25643        0.29053        0.33734        0.24550        0.27640        0.30101        0.30963        0.33807        0.27355        0.28017        0.28575        0.27884        0.34359        0.32151        0.28802        0.17571        0.20913        0.19510        0.26194        0.28886        0.26372        0.29748        0.42192        0.28775        0.18705        0.22576        0.34932        0.20414        0.20892        0.23973        0.25457        0.19026        0.11955        0.23201        0.23999        0.23501        0.14212        0.06768       -0.47712       -0.49688
2.893014 2.857767 2.822745 2.787947 2.753374 2.719026 2.684902 2.651002 2.617328 2.583877 2.550652 2.517650 2.484874 2.452322 2.419995 2.387892 2.356014 2.324360 2.292931 2.261726 2.230746 2.199991 2.169460 2.139154 2.109072 2.079215 2.049582 2.020175 1.990991 1.962032 1.933298 1.904789 1.876503 1.848443 1.820607 1.792996 1.765609 1.738447 1.711509 1.684796 1.658307 1.632043 1.606004 1.580189 1.554599 1.529233 1.504092 1.479176 1.454484 1.430017 1.405774 1.527950 1.834510 1.134208 0.802550 0.483828 0.433684 0.390798 0.241402 0.216541 0.188843 0.218861 0.179136 0.101567 -0.090134 -0.134308 -0.157034 -0.140493 -0.254042 -0.089135 -0.039376 0.012404 0.082901 0.079613 0.314074 0.314084 0.393242 0.569625 0.505378 0.705543 0.630512 0.838635 0.751510 0.963417 0.954164 0.981475 0.884156 0.942913 0.810753 0.796677 0.783192 0.696152 0.514721 0.456887 0.355389 0.317112 0.216794 0.143243 0.205982 0.167168 0.255096 0.241127 0.315843 0.281367 0.429926 0.523052 0.551430 0.568133 0.599587 0.722065 0.627254 0.647220 0.633289 0.430633 0.483054 0.277546 0.276208 0.099115 0.070517 0.008145 -0.051959 -0.093238 0.034758 0.069504 0.174237 0.279973 0.258487 0.427792 0.506588 0.488533 0.456257 0.513175 0.460065 0.489364 0.253294 0.164361 0.034359 0.007400 -0.033471 -0.089849 -0.034510 0.006785 0.088318 0.126886 0.235819 0.345048 0.339226 0.481030 0.440856 0.466777 0.337870 0.239772 0.173591 0.149172 0.057622 0.041292 0.087061 0.080373 0.107387 0.237148 0.243536 0.296825 0.378395 0.344809 0.282467 0.235957 0.225106 0.114091 0.052898 -0.012034 -0.036152 0.023977 0.060464 0.115200 0.213743 0.183764 0.306176 0.334933 0.301845 0.173616 0.181624 0.082190 0.052375 0.069001 0.016259 0.032368 0.050473 0.069227 0.078188 0.197913 0.240733 0.199333 0.133972 0.160414 0.050180 0.061638 0.013945 0.007998 0.033753 0.055588 0.112445 0.155736 0.116521 0.133963 0.150715 0.040851 0.066303 0.015444 -0.030988 -0.016002 0.061646 0.051982 0.064012 0.097959 0.117776 0.138574 0.063204 0.068928 0.015492 -0.010374 0.051364 0.057609 0.048276 0.079151 0.116736 0.088398 0.080505 0.046749 0.038487 0.028403 -0.042959 0.020395 0.006327 0.043045 0.069232 0.104563 0.071427 0.095979 0.033049 0.019414 0.018787 -0.004501 -0.003499 0.024539 0.053419 0.028031 0.024975 0.054646 0.038959 -0.002694 0.019177 -0.011036 0.012051 0.006516 0.022007 0.027792 -0.001226 0.002053 -0.021433 -0.021239 -0.002046 -0.020830 -0.015345 -0.003402 0.003926 0.047429 0.006800 -0.004891 -0.003896 0.002442 -0.006746 0.014718 0.011143 0.054020 0.080767 -0.013047 0.017886 0.019997 -0.020019 -0.033718 -0.003312 0.013341 0.018265 0.049428 0.016465 -0.009909 0.019839 -0.035350 -0.020306 0.002478 0.008524 0.035423 0.033544 0.001234 0.009540 0.004768 0.000264 0.010962 0.011891 0.059115 0.052910 0.044914 0.027764 -0.013637 -0.054300 -0.016064 0.035624 0.013131 0.061447 0.047857 0.026522 -0.008025 -0.018783 0.025100 0.007556 -0.005337 -0.011033 0.024356 -0.006321 -0.035354 -0.036950 0.002064 -0.017250 -0.013526 -0.088102 -0.001373 0.042855 -0.086994 -0.055630 -0.008384 0.045582 0.005913 -0.032144 -0.009497 -0.013036 -0.028039 0.056931 0.010380 -0.022663 -0.114608 -0.047610 -0.077632 -0.025830 0.024110 -0.087827 0.063787 0.153158 0.007633 -0.042182 -0.017704 0.047548 -0.053273 0.019865 0.017035 0.050289 -0.015647 -0.027387 0.069960 0.190976 0.244744 0.035820 0.065879 -0.425253
0.072396 0.073044 0.074989 0.078229 0.082764 0.088591 0.095710 0.104117 0.113808 0.124777 0.137020 0.150526 0.165287 0.181289 0.198517 0.216954 0.236576 0.257359 0.279271 0.302279 0.326340 0.351410 0.377433 0.404352 0.432097 0.460593 0.489755 0.519491 0.549696 0.580259 0.611054 0.641949 0.672797 0.703441 0.733715 0.763437 0.792418 0.820455 0.847337 0.872842 0.896737 0.918782 0.938730 0.956328 0.971318 0.983440 0.992433 0.998038 1.000000 0.998070 0.992013 0.981602 0.966631 0.946913 0.922285 0.892614 0.857797 0.817771 0.772511 0.722039 0.666425 0.605793 0.540324 0.470256 0.395893 0.317603 0.235818 0.151040 0.063837 0.025157 0.115242 0.205660 0.295594 0.384177 0.470499 0.553611 0.632544 0.706310 0.773921 0.834403 0.886805 0.930225 0.963815 0.986810 0.998539 0.998445 0.986102 0.961234 0.923730 0.873658 0.811277 0.737052 0.651652 0.555966 0.451093 0.338341 0.219223 0.095436 0.031148 0.158517 0.284537 0.406992 0.523619 0.632152 0.730369 0.816139 0.887472 0.942577 0.979908 0.998215 0.996593 0.974525 0.931916 0.869123 0.786977 0.686788 0.570347 0.439908 0.298160 0.148183 0.006600 0.162509 0.315671 0.462131 0.597939 0.719275 0.822555 0.904549 0.962495 0.994204 0.998163 0.973610 0.920602 0.840057 0.733773 0.604413 0.455469 0.291189 0.116476 0.063247 0.242186 0.414366 0.573830 0.714846 0.832127 0.921047 0.977841 0.999790 0.985373 0.934382 0.847996 0.728798 0.580740 0.409048 0.220068 0.021056 0.180081 0.375091 0.555715 0.714038 0.842859 0.936039 0.988820 0.998106 0.962674 0.883316 0.762886 0.606253 0.420154 0.212947 0.005734 0.225404 0.435220 0.624512 0.783346 0.903065 0.976802 0.999907 0.970300 0.888674 0.758573 0.586311 0.380721 0.152753 0.085067 0.319302 0.536356 0.723277 0.868544 0.962827 0.999630 0.975804 0.891864 0.752090 0.564400 0.339972 0.092632 0.161939 0.407190 0.626766 0.805616 0.931070 0.993786 0.988519 0.914633 0.776302 0.582386 0.345940 0.083426 0.186400 0.443783 0.669424 0.845954 0.959316 0.999962 0.963742 0.852406 0.673661 0.440751 0.171564 0.112660 0.388973 0.634555 0.828628 0.954258 0.999930 0.960695 0.838801 0.643729 0.391577 0.103844 0.194341 0.476352 0.716461 0.892216 0.986623 0.989883 0.900543 0.725875 0.481433 0.189816 0.121340 0.421910 0.682200 0.875891 0.982807 0.991114 0.898779 0.714046 0.454892 0.147397 0.176741 0.483446 0.739818 0.917724 0.996985 0.967805 0.832135 0.603779 0.307175 0.025085 0.355734 0.646973 0.864835 0.983218 0.987172 0.874955 0.658582 0.362756 0.022211 0.322243 0.628565 0.858643 0.983125 0.985324 0.863641 0.632162 0.319243 0.035768 0.387375 0.689712 0.902569 0.996866 0.958808 0.792117 0.517957 0.172489 0.197738 0.541951 0.812113 0.969718 0.991447 0.872848 0.629416 0.294849 0.083411 0.450757 0.753270 0.945695 0.998380 0.902076 0.669808 0.335416 0.051134 0.431054 0.745621 0.945318 0.997811 0.893425 0.647205 0.297054 0.101820 0.485469 0.791405 0.968865 0.987447 0.842592 0.556925 0.177036 0.233842 0.606241 0.876204 0.996392 0.944661 0.728451 0.384124 0.028840 0.437885 0.770064 0.965131 0.986672 0.829240 0.519995 0.114397 0.313479 0.684307 0.928279 0.998413 0.879940 0.593775 0.193220 0.245615 0.638121 0.907483 0.999916 0.895719 0.613860 0.208995 0.238821 0.639730 0.912128 0.999447 0.882263 0.583033 0.162233 0.293455 0.688875 0.940239 0.993136 0.834689 0.497112 0.051654 0.406139
1.000000 1.000000 1.000000 1.000000 1.000000 1.000000 1.000000 1.000000 1.000000 1.000000 1.000000 1.000000 1.000000 1.000000 1.000000 1.000000 1.000000 1.000000 1.000000 1.000000 1.000000 1.000000 1.000000 1.000000 1.000000 1.000000 1.000000 1.000000 1.000000 1.000000 1.000000 1.000000 1.000000 1.000000 1.000000 1.000000 1.000000 1.000000 1.000000 1.000000 1.000000 1.000000 1.000000 1.000000 1.000000 1.000000 1.000000 1.000000 1.000000 1.000000 1.000000 1.000000 0.961078 0.961078 0.961078 0.961078 0.961078 0.961078 0.961078 0.961078 0.961078 0.961078 0.961078 0.961078 0.961078 0.961078 0.961078 0.961078 0.961078 0.961078 0.961078 0.961078 0.961078 0.961078 0.961078 0.961078 0.961078 0.961078 0.961078 0.961078 0.961078 0.961078 0.961078 0.961078 0.961078 0.952313 0.953253 0.955229 0.955855 0.955714 0.955245 0.954820 0.955117 0.957111 0.959992 0.961913 0.963885 0.961720 0.964116 0.965910 0.965873 0.966166 0.964568 0.972655 0.971824 0.972037 0.972929 0.973344 0.973508 0.973592 0.973771 0.974214 0.973953 0.973364 0.972807 0.972317 0.972105 0.971843 0.974061 0.974027 0.974812 0.975022 0.975083 0.975063 0.975121 0.975473 0.976962 0.971551 0.971805 0.970205 0.972320 0.973575 0.974272 0.974611 0.975044 0.975199 0.972982 0.969411 0.968094 0.963848 0.960694 0.960242 0.963354 0.964341 0.964472 0.962807 0.962419 0.956440 0.956407 0.956411 0.950696 0.954250 0.955202 0.955477 0.941679 0.936600 0.927505 0.923907 0.924481 0.930722 0.929613 0.921376 0.905483 0.880815 0.876049 0.873012 0.871853 0.865781 0.866850 0.863351 0.865467 0.870698 0.873278 0.870079 0.860728 0.855860 0.855775 0.863817 0.858032 0.857633 0.860116 0.866502 0.868870 0.858904 0.873152 0.870719 0.877260 0.883788 0.886377 0.883587 0.882129 0.878370 0.875834 0.874500 0.871243 0.873153 0.846908 0.838498 0.838421 0.839199 0.842065 0.841968 0.841088 0.834168 0.837609 0.813920 0.818622 0.818576 0.825565 0.828609 0.826281 0.817733 0.807465 0.812021 0.827771 0.853682 0.857520 0.850482 0.849274 0.847381 0.848639 0.837636 0.828484 0.816509 0.814168 0.805289 0.809022 0.815743 0.811068 0.795976 0.796990 0.804305 0.781980 0.763425 0.735147 0.749423 0.728721 0.722153 0.718220 0.687947 0.689161 0.661434 0.649213 0.655816 0.657210 0.651214 0.641169 0.664565 0.679502 0.661815 0.659860 0.643608 0.639582 0.633920 0.625404 0.621258 0.617485 0.645175 0.654785 0.658076 0.654917 0.602477 0.607248 0.599629 0.600600 0.608350 0.610601 0.602240 0.587351 0.589631 0.594481 0.586846 0.587383 0.600513 0.598900 0.564717 0.553308 0.554054 0.568997 0.558221 0.549583 0.559356 0.551455 0.551384 0.550875 0.524080 0.558813 0.552048 0.556728 0.552671 0.568645 0.541498 0.509740 0.538529 0.541405 0.536459 0.525981 0.513642 0.496678 0.392701 0.408589 0.388444 0.361529 0.397888 0.397360 0.403584 0.391064 0.388332 0.380938 0.402350 0.408197 0.392502 0.386577 0.384110 0.419194 0.416924 0.357373 0.359577 0.349585 0.359569 0.354122 0.338676 0.359992 0.309049 0.330703 0.297092 0.278427 0.259698 0.224707 0.257605 0.234877 0.219283 0.199993 0.209609 0.229160 0.252238 0.248925 0.255730 0.255730 0.255730 0.255730 0.255730 0.255730 0.255730 0.255730 0.255730 0.255730 0.255730 0.255730 0.255730 0.255730 0.260100 0.260100 0.260100 0.260100 0.260100 0.260100 0.260100 0.260100 0.260100 0.260100 0.260100 0.260100
0.000000 0.000000 0.000000 0.000000 0.000000 0.000000 0.000000 0.000000 0.000000 0.000000 0.000000 0.000000 0.000000 0.000000 0.000000 0.000000 0.000000 0.000000 0.000000 0.000000 0.000000 0.000000 0.000000 0.000000 0.000000 0.000000 0.000000 0.000000 0.000000 0.000000 0.000000 0.000000 0.000000 0.000000 0.000000 0.000000 0.000000 0.000000 0.000000 0.000000 0.000000 0.000000 0.000000 0.000000 0.000000 0.000000 0.000000 0.000000 0.000000 0.000000 0.000000 0.000000 0.212000 0.212000 0.212000 0.212000 0.212000 0.212000 0.212000 0.212000 0.212000 0.212000 0.212000 0.212000 0.212000 0.212000 0.212000 0.212000 0.212000 0.212000 0.212000 0.212000 0.212000 0.212000 0.212000 0.212000 0.212000 0.212000 0.212000 0.212000 0.212000 0.212000 0.212000 0.212000 0.212000 0.244339 0.244339 0.244339 0.244339 0.244339 0.244339 0.244339 0.244339 0.244339 0.244339 0.244339 0.244339 0.244339 0.244339 0.244339 0.244339 0.244339 0.244339 0.244339 0.244339 0.244339 0.244339 0.244339 0.244339 0.244339 0.260378 0.260378 0.260378 0.260378 0.260378 0.260378 0.260378 0.260378 0.260378 0.260378 0.260378 0.260378 0.260378 0.260378 0.260378 0.260378 0.260378 0.260378 0.260378 0.260378 0.264906 0.264906 0.264906 0.264906 0.264906 0.264906 0.264906 0.264906 0.264906 0.264906 0.264906 0.264906 0.264906 0.264906 0.264906 0.264906 0.264906 0.264906 0.280056 0.280056 0.280056 0.280056 0.280056 0.280056 0.280056 0.280056 0.280056 0.280056 0.280056 0.280056 0.280056 0.280056 0.280056 0.280056 0.280056 0.280056 0.280056 0.280056 0.280056 0.280056 0.280056 0.280056 0.280056 0.280056 0.280056 0.280056 0.280056 0.269680 0.269680 0.269680 0.269680 0.269680 0.269680 0.269680 0.269680 0.269680 0.269680 0.269680 0.269680 0.269680 0.269680 0.285714 0.285714 0.285714 0.285714 0.285714 0.285714 0.285714 0.285714 0.285714 0.285714 0.285714 0.285714 0.274721 0.274721 0.274721 0.274721 0.274721 0.274721 0.274721 0.274721 0.274721 0.274721 0.274721 0.274721 0.280056 0.280056 0.280056 0.280056 0.280056 0.280056 0.280056 0.280056 0.280056 0.280056 0.280056 0.285714 0.285714 0.285714 0.285714 0.285714 0.285714 0.285714 0.285714 0.285714 0.285714 0.280056 0.280056 0.280056 0.280056 0.280056 0.280056 0.280056 0.280056 0.280056 0.280056 0.274721 0.274721 0.274721 0.274721 0.274721 0.274721 0.274721 0.274721 0.274721 0.274721 0.280056 0.280056 0.280056 0.280056 0.280056 0.280056 0.280056 0.280056 0.280056 0.274721 0.274721 0.274721 0.274721 0.274721 0.274721 0.274721 0.274721 0.274721 0.269680 0.269680 0.269680 0.269680 0.269680 0.269680 0.269680 0.269680 0.269680 0.280056 0.280056 0.280056 0.280056 0.280056 0.280056 0.280056 0.280056 0.274721 0.274721 0.274721 0.274721 0.274721 0.274721 0.274721 0.274721 0.269680 0.269680 0.269680 0.269680 0.269680 0.269680 0.269680 0.269680 0.269680 0.269680 0.269680 0.269680 0.269680 0.269680 0.269680 0.269680 0.264906 0.264906 0.264906 0.264906 0.264906 0.264906 0.264906 0.264906 0.274721 0.274721 0.274721 0.274721 0.274721 0.274721 0.274721 0.269680 0.269680 0.269680 0.269680 0.269680 0.269680 0.269680 0.264906 0.264906 0.264906 0.264906 0.264906 0.264906 0.264906 0.264906 0.264906 0.264906 0.264906 0.264906 0.264906 0.264906 0.260378 0.260378 0.260378 0.260378 0.260378 0.260378 0.260378 0.260378 0.260378 0.260378 0.260378 0.260378
