# Output from CTFFind version 4.1.9, run on 2019-11-03 18:52:16
# Input file: stack14_ub_averaged_3000.mrc ; Number of micrographs: 1
# Pixel size: 3.000 Angstroms ; acceleration voltage: 300.0 keV ; spherical aberration: 0.00 mm ; amplitude contrast: 0.07
# Box size: 512 pixels ; min. res.: 30.0 Angstroms ; max. res.: 5.0 Angstroms ; min. def.: 5000.0 um; max. def. 50000.0 um; num. frames averaged: 1
# 6 lines per micrograph: #1 - spatial frequency (1/Angstroms); #2 - 1D rotational average of spectrum (assuming no astigmatism); #3 - 1D rotational average of spectrum; #4 - CTF fit; #5 - cross-correlation between spectrum and CTF fit; #6 - 2sigma of expected cross correlation of noise
0.000000 0.000651 0.001302 0.001953 0.002604 0.003255 0.003906 0.004557 0.005208 0.005859 0.006510 0.007161 0.007812 0.008464 0.009115 0.009766 0.010417 0.011068 0.011719 0.012370 0.013021 0.013672 0.014323 0.014974 0.015625 0.016276 0.016927 0.017578 0.018229 0.018880 0.019531 0.020182 0.020833 0.021484 0.022135 0.022786 0.023438 0.024089 0.024740 0.025391 0.026042 0.026693 0.027344 0.027995 0.028646 0.029297 0.029948 0.030599 0.031250 0.031901 0.032552 0.033203 0.033854 0.034505 0.035156 0.035807 0.036458 0.037109 0.037760 0.038411 0.039062 0.039714 0.040365 0.041016 0.041667 0.042318 0.042969 0.043620 0.044271 0.044922 0.045573 0.046224 0.046875 0.047526 0.048177 0.048828 0.049479 0.050130 0.050781 0.051432 0.052083 0.052734 0.053385 0.054036 0.054688 0.055339 0.055990 0.056641 0.057292 0.057943 0.058594 0.059245 0.059896 0.060547 0.061198 0.061849 0.062500 0.063151 0.063802 0.064453 0.065104 0.065755 0.066406 0.067057 0.067708 0.068359 0.069010 0.069661 0.070312 0.070964 0.071615 0.072266 0.072917 0.073568 0.074219 0.074870 0.075521 0.076172 0.076823 0.077474 0.078125 0.078776 0.079427 0.080078 0.080729 0.081380 0.082031 0.082682 0.083333 0.083984 0.084635 0.085286 0.085938 0.086589 0.087240 0.087891 0.088542 0.089193 0.089844 0.090495 0.091146 0.091797 0.092448 0.093099 0.093750 0.094401 0.095052 0.095703 0.096354 0.097005 0.097656 0.098307 0.098958 0.099609 0.100260 0.100911 0.101562 0.102214 0.102865 0.103516 0.104167 0.104818 0.105469 0.106120 0.106771 0.107422 0.108073 0.108724 0.109375 0.110026 0.110677 0.111328 0.111979 0.112630 0.113281 0.113932 0.114583 0.115234 0.115885 0.116536 0.117188 0.117839 0.118490 0.119141 0.119792 0.120443 0.121094 0.121745 0.122396 0.123047 0.123698 0.124349 0.125000 0.125651 0.126302 0.126953 0.127604 0.128255 0.128906 0.129557 0.130208 0.130859 0.131510 0.132161 0.132812 0.133464 0.134115 0.134766 0.135417 0.136068 0.136719 0.137370 0.138021 0.138672 0.139323 0.139974 0.140625 0.141276 0.141927 0.142578 0.143229 0.143880 0.144531 0.145182 0.145833 0.146484 0.147135 0.147786 0.148438 0.149089 0.149740 0.150391 0.151042 0.151693 0.152344 0.152995 0.153646 0.154297 0.154948 0.155599 0.156250 0.156901 0.157552 0.158203 0.158854 0.159505 0.160156 0.160807 0.161458 0.162109 0.162760 0.163411 0.164062 0.164714 0.165365 0.166016 0.166667 0.167318 0.167969 0.168620 0.169271 0.169922 0.170573 0.171224 0.171875 0.172526 0.173177 0.173828 0.174479 0.175130 0.175781 0.176432 0.177083 0.177734 0.178385 0.179036 0.179688 0.180339 0.180990 0.181641 0.182292 0.182943 0.183594 0.184245 0.184896 0.185547 0.186198 0.186849 0.187500 0.188151 0.188802 0.189453 0.190104 0.190755 0.191406 0.192057 0.192708 0.193359 0.194010 0.194661 0.195312 0.195964 0.196615 0.197266 0.197917 0.198568 0.199219 0.199870 0.200521 0.201172 0.201823 0.202474 0.203125 0.203776 0.204427 0.205078 0.205729 0.206380 0.207031 0.207682 0.208333 0.208984 0.209635 0.210286 0.210938 0.211589 0.212240 0.212891 0.213542 0.214193 0.214844 0.215495 0.216146 0.216797 0.217448 0.218099 0.218750 0.219401 0.220052 0.220703 0.221354 0.222005 0.222656 0.223307 0.223958 0.224609 0.225260 0.225911 0.226562 0.227214 0.227865 0.228516 0.229167 0.229818 0.230469 0.231120 0.231771 0.232422 0.233073 0.233724 0.234375 0.235026 0.235677
       0.30774        0.30774        0.30774        0.30774        0.30774        0.30774        0.30774        0.30774        0.30774        0.30774        0.30774        0.30774        0.30774        0.30774        0.30774        0.30774        0.30774        0.30774        0.30774        0.30774        0.30774        0.30774        0.30774        0.30774        0.30774        0.30774        0.30774        0.30774        0.30774        0.30774        0.30774        0.30774        0.30774        0.30774        0.30774        0.30774        0.30774        0.30774        0.30774        0.30774        0.30774        0.30774        0.30774        0.30774        0.30774        0.30774        0.30774        0.30774        0.30774        0.30774        0.30774        0.43398        0.54499        0.19571       -0.14365       -0.34931       -0.39539       -0.47253       -0.60741       -0.61306       -0.61066       -0.58347       -0.57266       -0.58598       -0.71509       -0.81052       -0.81098       -0.83521       -0.78126       -0.85415       -0.69495       -0.79761       -0.74501       -0.56600       -0.47813       -0.36886       -0.22858       -0.12219       -0.13999        0.09901        0.25509        0.24041        0.33025        0.45412        0.47314        0.57950        0.49072        0.62783        0.61307        0.61976        0.51453        0.41519        0.33285        0.27741        0.25443        0.17682        0.09166        0.07029       -0.05929       -0.03865       -0.06676       -0.07909       -0.01527        0.04491        0.13202        0.18340        0.36744        0.45578        0.53485        0.59080        0.55594        0.65113        0.70242        0.62888        0.53867        0.49266        0.50067        0.38973        0.29739        0.17292        0.09127        0.02949       -0.02075       -0.05163        0.05604        0.12152        0.22939        0.34717        0.44445        0.55487        0.54842        0.61247        0.64340        0.58415        0.52812        0.54293        0.43258        0.34993        0.25309        0.16972        0.10440        0.03219        0.06918        0.09090        0.17972        0.28565        0.31389        0.42121        0.46881        0.46389        0.50233        0.53998        0.43471        0.43732        0.31965        0.19351        0.21043        0.10202        0.13056        0.13377        0.15737        0.25697        0.33662        0.44213        0.43852        0.42239        0.48411        0.46904        0.44745        0.41336        0.34808        0.21722        0.14361        0.23942        0.24846        0.21257        0.22777        0.34625        0.41142        0.47615        0.49335        0.44188        0.39035        0.35679        0.27831        0.28085        0.23268        0.23853        0.18904        0.24534        0.27059        0.35346        0.37481        0.43666        0.41948        0.37341        0.34527        0.34118        0.26857        0.23604        0.23252        0.25375        0.26847        0.33624        0.36553        0.35206        0.36175        0.39074        0.38080        0.36655        0.25725        0.26169        0.24878        0.24136        0.26000        0.23269        0.31872        0.40736        0.36790        0.33515        0.35075        0.29908        0.27643        0.26823        0.23553        0.27251        0.32072        0.30850        0.33294        0.32696        0.35115        0.34887        0.32004        0.31350        0.26345        0.28756        0.26501        0.28019        0.31193        0.31529        0.29297        0.31325        0.32355        0.29787        0.28328        0.25425        0.27971        0.27324        0.26807        0.33211        0.31694        0.26440        0.29514        0.27715        0.26968        0.23090        0.23966        0.30538        0.28640        0.30265        0.28658        0.31772        0.28339        0.23962        0.27495        0.28502        0.27344        0.26305        0.31381        0.35861        0.35830        0.31752        0.31024        0.27423        0.28982        0.27233        0.27443        0.29478        0.30169        0.30745        0.26737        0.25923        0.26428        0.28163        0.26809        0.27949        0.29341        0.33126        0.31476        0.28603        0.29303        0.28494        0.26219        0.26431        0.25503        0.29493        0.29543        0.30351        0.25739        0.20349        0.23809        0.23725        0.24032        0.28678        0.30633        0.28616        0.24817        0.25298        0.26528        0.25415        0.22891        0.23376        0.27733        0.27591        0.35512        0.30712        0.24718        0.26381        0.24289        0.24338        0.29695        0.30463        0.29367        0.24637        0.31401        0.27351        0.24986        0.27734        0.28474        0.27688        0.29091        0.23735        0.24254        0.28466        0.26934        0.24964        0.22800        0.23423        0.24545        0.22561        0.19233        0.16112        0.23641        0.26754        0.20306        0.26316        0.31050        0.21930        0.26154        0.27067        0.33522        0.29627        0.18257        0.28632        0.20945        0.18434        0.28032        0.18505        0.11045        0.03951       -0.00251       -0.31337       -0.14060
2.492672 2.465074 2.437638 2.410363 2.383250 2.356298 2.329508 2.302880 2.276413 2.250107 2.223964 2.197981 2.172161 2.146502 2.121004 2.095668 2.070494 2.045481 2.020630 1.995940 1.971412 1.947045 1.922840 1.898797 1.874915 1.851194 1.827636 1.804239 1.781003 1.757929 1.735016 1.712265 1.689676 1.667248 1.644982 1.622877 1.600934 1.579153 1.557533 1.536074 1.514778 1.493642 1.472669 1.451857 1.431206 1.410717 1.390390 1.370224 1.350220 1.330377 1.310696 1.421209 1.543212 1.189098 0.787529 0.457137 0.537975 0.356842 0.133777 0.204346 0.149140 0.090964 0.179777 0.128968 0.037971 -0.198121 -0.194733 -0.206424 -0.181432 -0.305085 -0.049417 -0.295344 -0.223576 -0.026403 0.005251 0.121108 0.291175 0.366210 0.347715 0.464385 0.752938 0.710313 0.770922 0.855389 0.909173 1.017554 0.971590 0.942105 1.034645 0.981159 0.969119 0.684222 0.769118 0.555906 0.578306 0.483074 0.348078 0.332139 0.158134 0.211529 0.110555 0.088388 0.192690 0.194667 0.241437 0.342432 0.467912 0.641429 0.645803 0.659076 0.788019 0.719146 0.792272 0.737287 0.667562 0.598155 0.603146 0.455461 0.393452 0.210151 0.164002 0.026408 -0.017082 -0.070669 -0.064148 0.127399 0.131609 0.329885 0.358316 0.451547 0.554740 0.547859 0.614045 0.611462 0.464963 0.525760 0.340608 0.365261 0.213709 0.091781 0.015177 -0.049187 -0.067739 -0.046822 -0.009604 0.148054 0.190481 0.238565 0.357723 0.334805 0.421611 0.503864 0.391387 0.352375 0.300323 0.101342 0.078468 0.036474 -0.020817 0.016938 -0.007174 0.089384 0.157812 0.304768 0.284693 0.313226 0.341907 0.337299 0.311544 0.301419 0.226845 0.104131 -0.037419 0.026711 0.089723 0.040771 0.021859 0.102336 0.194022 0.286111 0.256993 0.313089 0.168600 0.215752 0.102602 0.075814 0.018207 -0.006843 0.020514 -0.025656 0.009215 0.111672 0.140241 0.187897 0.203399 0.159451 0.143566 0.101653 0.097866 -0.032915 0.004732 -0.019423 0.012310 0.053381 0.094812 0.128592 0.111880 0.131103 0.144500 0.158745 0.082284 -0.012134 0.002483 -0.001460 -0.002011 -0.010358 -0.010225 0.110462 0.162626 0.094037 0.105424 0.084717 0.007792 0.009367 -0.019056 -0.017703 0.031134 0.060457 0.034553 0.071268 0.086013 0.073303 0.101279 0.064527 0.002954 0.013045 0.036890 -0.022482 0.026234 0.052482 0.028888 0.040173 0.052316 0.042127 0.021968 0.009245 -0.032409 0.017008 -0.016523 0.013920 0.077448 0.026834 -0.002328 0.000270 0.023858 -0.021541 -0.066720 -0.009309 0.031484 0.027415 0.020405 0.029350 0.055406 -0.008687 -0.023740 0.020381 0.023588 0.014340 -0.016302 0.076733 0.095854 0.074656 0.060566 0.042933 -0.010412 0.039729 -0.014870 0.033005 0.046357 0.022491 0.058475 -0.011526 0.024243 -0.004041 0.014207 0.042291 0.001187 0.045740 0.097723 0.023874 0.064632 0.035986 0.024306 -0.001086 0.013706 0.015227 0.053292 0.023253 0.055852 -0.057852 -0.042257 -0.001952 -0.056528 -0.033563 0.030937 0.068047 0.027519 -0.047644 -0.012111 0.027280 -0.008801 -0.037391 -0.032353 0.069173 -0.032297 0.130953 0.018231 0.014132 0.018614 -0.032231 0.014497 0.055005 0.047604 0.067067 -0.014563 0.079115 0.056561 -0.025411 0.061024 0.026657 0.077946 0.050583 -0.000800 -0.006136 0.043886 0.023172 -0.021826 -0.085167 -0.018627 -0.067461 -0.045400 -0.089981 -0.134052 -0.039401 -0.017913 -0.135613 -0.026341 0.071658 -0.046846 0.002476 0.023071 0.128440 0.061024 -0.074600 0.096289 0.026441 -0.046152 0.173790 0.153606 0.237920 -0.072704 0.004761 -0.149822
0.072396 0.073021 0.074895 0.078017 0.082387 0.088004 0.094865 0.102967 0.112308 0.122882 0.134683 0.147704 0.161936 0.177367 0.193984 0.211770 0.230705 0.250766 0.271926 0.294152 0.317408 0.341653 0.366838 0.392909 0.419805 0.447458 0.475792 0.504723 0.534156 0.563991 0.594115 0.624406 0.654734 0.684956 0.714918 0.744459 0.773405 0.801571 0.828763 0.854777 0.879401 0.902412 0.923582 0.942676 0.959452 0.973666 0.985072 0.993423 0.998474 0.999985 0.997722 0.991462 0.980993 0.966120 0.946667 0.922481 0.893435 0.859432 0.820411 0.776346 0.727254 0.673199 0.614290 0.550693 0.482624 0.410362 0.334242 0.254661 0.172081 0.087023 0.000072 0.088127 0.176873 0.265408 0.352929 0.438585 0.521494 0.600743 0.675405 0.744542 0.807226 0.862544 0.909621 0.947625 0.975792 0.993437 0.999972 0.994921 0.977939 0.948825 0.907536 0.854201 0.789131 0.712826 0.625985 0.529504 0.424478 0.312195 0.194126 0.071915 0.052640 0.177611 0.300966 0.420598 0.534365 0.640126 0.735781 0.819323 0.888879 0.942759 0.979502 0.997927 0.997168 0.976720 0.936466 0.876713 0.798200 0.702116 0.590093 0.464201 0.326915 0.181084 0.029885 0.123250 0.274692 0.420710 0.557556 0.681568 0.789270 0.877483 0.943425 0.984812 0.999952 0.987826 0.948152 0.881431 0.788979 0.672924 0.536185 0.382422 0.215952 0.041654 0.135173 0.308956 0.474023 0.624793 0.755968 0.862732 0.940948 0.987330 0.999610 0.976666 0.918617 0.826878 0.704166 0.554456 0.382886 0.195605 0.000423 0.197662 0.388289 0.564502 0.718843 0.844535 0.935796 0.988131 0.998591 0.965960 0.890891 0.775956 0.625599 0.446024 0.244966 0.031392 0.184874 0.393592 0.584594 0.748288 0.876156 0.961231 0.998515 0.985313 0.921465 0.809455 0.654376 0.463763 0.247273 0.016241 0.216899 0.439253 0.638194 0.802088 0.921012 0.987388 0.996524 0.946993 0.840846 0.683606 0.484060 0.253823 0.006723 0.242014 0.476664 0.682020 0.844399 0.952583 0.998661 0.978668 0.892990 0.746482 0.548295 0.311372 0.051672 0.212858 0.463505 0.682110 0.852421 0.961333 0.999979 0.964521 0.856609 0.683425 0.457317 0.194998 0.083621 0.356897 0.603134 0.802309 0.937765 0.997660 0.976100 0.873811 0.698278 0.463322 0.188113 0.104320 0.388972 0.640982 0.837824 0.961401 0.999774 0.948433 0.810928 0.598766 0.330594 0.030650 0.273354 0.552752 0.780648 0.934550 0.998686 0.965735 0.837784 0.626390 0.351674 0.040542 0.275883 0.565319 0.797647 0.948098 0.999999 0.946753 0.792822 0.553528 0.253713 0.074747 0.396228 0.675206 0.880224 0.987525 0.983937 0.868648 0.653628 0.362557 0.028400 0.310250 0.613566 0.845198 0.976710 0.991218 0.885721 0.671825 0.374669 0.030153 0.319286 0.629853 0.861899 0.985089 0.982521 0.853235 0.612726 0.291316 0.069496 0.422282 0.719875 0.921736 0.999605 0.941640 0.754440 0.462557 0.105501 0.267434 0.603924 0.855931 0.986703 0.976293 0.824842 0.553015 0.199431 0.184609 0.542472 0.820526 0.976277 0.985037 0.844094 0.573610 0.214019 0.179802 0.546776 0.829096 0.981418 0.978362 0.818992 0.527511 0.149858 0.253280 0.616126 0.878550 0.996154 0.948041 0.740801 0.407991 0.004992 0.400009 0.737457 0.948451 0.995223 0.868157 0.588095 0.203241 0.218833 0.602919 0.879563 0.997769 0.934664 0.700262 0.336280 0.090962 0.502416 0.820881 0.985579 0.964029 0.758787 0.407653 0.022941 0.450220 0.790938 0.977638 0.972290 0.774393 0.421786 0.016176 0.452012
1.000000 1.000000 1.000000 1.000000 1.000000 1.000000 1.000000 1.000000 1.000000 1.000000 1.000000 1.000000 1.000000 1.000000 1.000000 1.000000 1.000000 1.000000 1.000000 1.000000 1.000000 1.000000 1.000000 1.000000 1.000000 1.000000 1.000000 1.000000 1.000000 1.000000 1.000000 1.000000 1.000000 1.000000 1.000000 1.000000 1.000000 1.000000 1.000000 1.000000 1.000000 1.000000 1.000000 1.000000 1.000000 1.000000 1.000000 1.000000 1.000000 1.000000 1.000000 1.000000 0.943602 0.943602 0.943602 0.943602 0.943602 0.943602 0.943602 0.943602 0.943602 0.943602 0.943602 0.943602 0.943602 0.943602 0.943602 0.943602 0.943602 0.943602 0.943602 0.943602 0.943602 0.943602 0.943602 0.943602 0.943602 0.943602 0.943602 0.943602 0.943602 0.943602 0.943602 0.943602 0.943602 0.943602 0.943602 0.922985 0.924475 0.928169 0.929382 0.929714 0.945994 0.946064 0.947344 0.950649 0.952634 0.954293 0.955307 0.963939 0.967039 0.966419 0.966330 0.963543 0.984785 0.983875 0.983375 0.983533 0.984447 0.984686 0.984507 0.984909 0.986261 0.985792 0.985006 0.984115 0.983341 0.983232 0.984075 0.982527 0.982592 0.983225 0.983834 0.983735 0.984096 0.984447 0.984494 0.984883 0.985617 0.981339 0.980688 0.979336 0.978295 0.978260 0.977925 0.977496 0.976029 0.975823 0.974831 0.975035 0.974898 0.974539 0.972721 0.973452 0.973235 0.969813 0.968888 0.966649 0.964776 0.951080 0.938654 0.933248 0.933281 0.930756 0.932303 0.921262 0.920689 0.914168 0.912421 0.913419 0.916125 0.916601 0.904826 0.886048 0.878533 0.871111 0.874182 0.876629 0.874458 0.867479 0.864288 0.862526 0.869124 0.870778 0.875657 0.874330 0.869503 0.865284 0.862060 0.856806 0.857027 0.853184 0.855153 0.853373 0.836182 0.844552 0.845744 0.852870 0.859708 0.858632 0.835835 0.795487 0.792192 0.793544 0.793787 0.791609 0.795982 0.803825 0.811803 0.808444 0.811552 0.820325 0.803106 0.808821 0.814272 0.814477 0.795757 0.776693 0.771924 0.766946 0.759375 0.745277 0.739315 0.740815 0.736081 0.735681 0.730122 0.723587 0.710034 0.706626 0.671223 0.674208 0.668112 0.651806 0.653904 0.654561 0.650132 0.633405 0.629947 0.616317 0.610453 0.604116 0.607511 0.599158 0.605113 0.614791 0.601970 0.588813 0.570375 0.566006 0.568693 0.522900 0.527482 0.554607 0.592365 0.585775 0.568489 0.591178 0.584692 0.569962 0.560240 0.535061 0.524850 0.538558 0.543136 0.520184 0.523985 0.509576 0.516455 0.526134 0.500019 0.523923 0.495376 0.485311 0.490015 0.513628 0.525838 0.500529 0.466220 0.472289 0.477186 0.499389 0.516501 0.503754 0.522756 0.528581 0.520656 0.485630 0.487000 0.506217 0.505959 0.508656 0.497702 0.499867 0.462740 0.424688 0.426630 0.394401 0.380232 0.382391 0.375830 0.346620 0.343567 0.336375 0.362746 0.357137 0.376630 0.342678 0.352535 0.300426 0.303312 0.248890 0.271961 0.267000 0.271222 0.289860 0.282512 0.285523 0.289050 0.320784 0.325176 0.289755 0.271279 0.248215 0.262954 0.237324 0.216381 0.233126 0.225685 0.217594 0.145330 0.149534 0.140527 0.167953 0.188188 0.179042 0.141513 0.136139 0.109737 0.097320 0.094128 0.071499 0.019458 0.007065 0.020781 0.057347 0.118299 0.118299 0.118299 0.118299 0.118299 0.118299 0.118299 0.118299 0.120698 0.120698 0.120698 0.120698 0.120698 0.120698 0.120698 0.120698 0.120698 0.120698 0.120698 0.120698 0.120698 0.120698 0.120698 0.120698 0.120698 0.120698 0.120698
0.000000 0.000000 0.000000 0.000000 0.000000 0.000000 0.000000 0.000000 0.000000 0.000000 0.000000 0.000000 0.000000 0.000000 0.000000 0.000000 0.000000 0.000000 0.000000 0.000000 0.000000 0.000000 0.000000 0.000000 0.000000 0.000000 0.000000 0.000000 0.000000 0.000000 0.000000 0.000000 0.000000 0.000000 0.000000 0.000000 0.000000 0.000000 0.000000 0.000000 0.000000 0.000000 0.000000 0.000000 0.000000 0.000000 0.000000 0.000000 0.000000 0.000000 0.000000 0.000000 0.207390 0.207390 0.207390 0.207390 0.207390 0.207390 0.207390 0.207390 0.207390 0.207390 0.207390 0.207390 0.207390 0.207390 0.207390 0.207390 0.207390 0.207390 0.207390 0.207390 0.207390 0.207390 0.207390 0.207390 0.207390 0.207390 0.207390 0.207390 0.207390 0.207390 0.207390 0.207390 0.207390 0.207390 0.207390 0.244339 0.244339 0.244339 0.244339 0.244339 0.244339 0.244339 0.244339 0.244339 0.244339 0.244339 0.244339 0.244339 0.244339 0.244339 0.244339 0.244339 0.244339 0.244339 0.244339 0.244339 0.244339 0.244339 0.244339 0.244339 0.256074 0.256074 0.256074 0.256074 0.256074 0.256074 0.256074 0.256074 0.256074 0.256074 0.256074 0.256074 0.256074 0.256074 0.256074 0.256074 0.256074 0.256074 0.256074 0.256074 0.256074 0.269680 0.269680 0.269680 0.269680 0.269680 0.269680 0.269680 0.269680 0.269680 0.269680 0.269680 0.269680 0.269680 0.269680 0.269680 0.269680 0.269680 0.269680 0.269680 0.269680 0.269680 0.269680 0.269680 0.269680 0.269680 0.269680 0.269680 0.269680 0.269680 0.269680 0.269680 0.269680 0.269680 0.269680 0.269680 0.269680 0.269680 0.269680 0.269680 0.269680 0.269680 0.269680 0.269680 0.269680 0.269680 0.269680 0.269680 0.269680 0.280056 0.280056 0.280056 0.280056 0.280056 0.280056 0.280056 0.280056 0.280056 0.280056 0.280056 0.280056 0.280056 0.274721 0.274721 0.274721 0.274721 0.274721 0.274721 0.274721 0.274721 0.274721 0.274721 0.274721 0.274721 0.274721 0.274721 0.274721 0.274721 0.274721 0.274721 0.274721 0.274721 0.274721 0.274721 0.274721 0.274721 0.274721 0.280056 0.280056 0.280056 0.280056 0.280056 0.280056 0.280056 0.280056 0.280056 0.280056 0.280056 0.285714 0.285714 0.285714 0.285714 0.285714 0.285714 0.285714 0.285714 0.285714 0.285714 0.269680 0.269680 0.269680 0.269680 0.269680 0.269680 0.269680 0.269680 0.269680 0.269680 0.269680 0.285714 0.285714 0.285714 0.285714 0.285714 0.285714 0.285714 0.285714 0.285714 0.269680 0.269680 0.269680 0.269680 0.269680 0.269680 0.269680 0.269680 0.269680 0.269680 0.274721 0.274721 0.274721 0.274721 0.274721 0.274721 0.274721 0.274721 0.274721 0.269680 0.269680 0.269680 0.269680 0.269680 0.269680 0.269680 0.269680 0.269680 0.264906 0.264906 0.264906 0.264906 0.264906 0.264906 0.264906 0.264906 0.264906 0.274721 0.274721 0.274721 0.274721 0.274721 0.274721 0.274721 0.274721 0.269680 0.269680 0.269680 0.269680 0.269680 0.269680 0.269680 0.269680 0.269680 0.269680 0.269680 0.269680 0.269680 0.269680 0.269680 0.269680 0.264906 0.264906 0.264906 0.264906 0.264906 0.264906 0.264906 0.264906 0.274721 0.274721 0.274721 0.274721 0.274721 0.274721 0.274721 0.256074 0.256074 0.256074 0.256074 0.256074 0.256074 0.256074 0.256074 0.264906 0.264906 0.264906 0.264906 0.264906 0.264906 0.264906 0.264906 0.264906 0.264906 0.264906 0.264906 0.264906 0.264906 0.264906 0.264906 0.264906 0.264906 0.264906
