# Output from CTFFind version 4.1.9, run on 2019-11-03 18:51:31
# Input file: stack5_ub_averaged_750.mrc ; Number of micrographs: 1
# Pixel size: 3.000 Angstroms ; acceleration voltage: 300.0 keV ; spherical aberration: 0.00 mm ; amplitude contrast: 0.07
# Box size: 512 pixels ; min. res.: 30.0 Angstroms ; max. res.: 5.0 Angstroms ; min. def.: 5000.0 um; max. def. 50000.0 um; num. frames averaged: 1
# 6 lines per micrograph: #1 - spatial frequency (1/Angstroms); #2 - 1D rotational average of spectrum (assuming no astigmatism); #3 - 1D rotational average of spectrum; #4 - CTF fit; #5 - cross-correlation between spectrum and CTF fit; #6 - 2sigma of expected cross correlation of noise
0.000000 0.000651 0.001302 0.001953 0.002604 0.003255 0.003906 0.004557 0.005208 0.005859 0.006510 0.007161 0.007812 0.008464 0.009115 0.009766 0.010417 0.011068 0.011719 0.012370 0.013021 0.013672 0.014323 0.014974 0.015625 0.016276 0.016927 0.017578 0.018229 0.018880 0.019531 0.020182 0.020833 0.021484 0.022135 0.022786 0.023438 0.024089 0.024740 0.025391 0.026042 0.026693 0.027344 0.027995 0.028646 0.029297 0.029948 0.030599 0.031250 0.031901 0.032552 0.033203 0.033854 0.034505 0.035156 0.035807 0.036458 0.037109 0.037760 0.038411 0.039062 0.039714 0.040365 0.041016 0.041667 0.042318 0.042969 0.043620 0.044271 0.044922 0.045573 0.046224 0.046875 0.047526 0.048177 0.048828 0.049479 0.050130 0.050781 0.051432 0.052083 0.052734 0.053385 0.054036 0.054688 0.055339 0.055990 0.056641 0.057292 0.057943 0.058594 0.059245 0.059896 0.060547 0.061198 0.061849 0.062500 0.063151 0.063802 0.064453 0.065104 0.065755 0.066406 0.067057 0.067708 0.068359 0.069010 0.069661 0.070312 0.070964 0.071615 0.072266 0.072917 0.073568 0.074219 0.074870 0.075521 0.076172 0.076823 0.077474 0.078125 0.078776 0.079427 0.080078 0.080729 0.081380 0.082031 0.082682 0.083333 0.083984 0.084635 0.085286 0.085938 0.086589 0.087240 0.087891 0.088542 0.089193 0.089844 0.090495 0.091146 0.091797 0.092448 0.093099 0.093750 0.094401 0.095052 0.095703 0.096354 0.097005 0.097656 0.098307 0.098958 0.099609 0.100260 0.100911 0.101562 0.102214 0.102865 0.103516 0.104167 0.104818 0.105469 0.106120 0.106771 0.107422 0.108073 0.108724 0.109375 0.110026 0.110677 0.111328 0.111979 0.112630 0.113281 0.113932 0.114583 0.115234 0.115885 0.116536 0.117188 0.117839 0.118490 0.119141 0.119792 0.120443 0.121094 0.121745 0.122396 0.123047 0.123698 0.124349 0.125000 0.125651 0.126302 0.126953 0.127604 0.128255 0.128906 0.129557 0.130208 0.130859 0.131510 0.132161 0.132812 0.133464 0.134115 0.134766 0.135417 0.136068 0.136719 0.137370 0.138021 0.138672 0.139323 0.139974 0.140625 0.141276 0.141927 0.142578 0.143229 0.143880 0.144531 0.145182 0.145833 0.146484 0.147135 0.147786 0.148438 0.149089 0.149740 0.150391 0.151042 0.151693 0.152344 0.152995 0.153646 0.154297 0.154948 0.155599 0.156250 0.156901 0.157552 0.158203 0.158854 0.159505 0.160156 0.160807 0.161458 0.162109 0.162760 0.163411 0.164062 0.164714 0.165365 0.166016 0.166667 0.167318 0.167969 0.168620 0.169271 0.169922 0.170573 0.171224 0.171875 0.172526 0.173177 0.173828 0.174479 0.175130 0.175781 0.176432 0.177083 0.177734 0.178385 0.179036 0.179688 0.180339 0.180990 0.181641 0.182292 0.182943 0.183594 0.184245 0.184896 0.185547 0.186198 0.186849 0.187500 0.188151 0.188802 0.189453 0.190104 0.190755 0.191406 0.192057 0.192708 0.193359 0.194010 0.194661 0.195312 0.195964 0.196615 0.197266 0.197917 0.198568 0.199219 0.199870 0.200521 0.201172 0.201823 0.202474 0.203125 0.203776 0.204427 0.205078 0.205729 0.206380 0.207031 0.207682 0.208333 0.208984 0.209635 0.210286 0.210938 0.211589 0.212240 0.212891 0.213542 0.214193 0.214844 0.215495 0.216146 0.216797 0.217448 0.218099 0.218750 0.219401 0.220052 0.220703 0.221354 0.222005 0.222656 0.223307 0.223958 0.224609 0.225260 0.225911 0.226562 0.227214 0.227865 0.228516 0.229167 0.229818 0.230469 0.231120 0.231771 0.232422 0.233073 0.233724 0.234375 0.235026 0.235677
       0.35308        0.35308        0.35308        0.35308        0.35308        0.35308        0.35308        0.35308        0.35308        0.35308        0.35308        0.35308        0.35308        0.35308        0.35308        0.35308        0.35308        0.35308        0.35308        0.35308        0.35308        0.35308        0.35308        0.35308        0.35308        0.35308        0.35308        0.35308        0.35308        0.35308        0.35308        0.35308        0.35308        0.35308        0.35308        0.35308        0.35308        0.35308        0.35308        0.35308        0.35308        0.35308        0.35308        0.35308        0.35308        0.35308        0.35308        0.35308        0.35308        0.35308        0.35308        0.53315        0.89263        0.66458        0.18755        0.21545        0.03558        0.07873       -0.02019        0.04065        0.17539        0.43808        0.45143        0.23914        0.26538        0.05823        0.00393       -0.02532       -0.13110       -0.13408       -0.10763        0.03267       -0.08729       -0.06083       -0.11703       -0.20604       -0.20244       -0.31036       -0.26015       -0.26923       -0.22855       -0.26230       -0.25631       -0.30123       -0.37661       -0.29972       -0.24725       -0.12747       -0.10003       -0.00940        0.12435        0.17171        0.10067        0.28649        0.43275        0.35376        0.48802        0.65113        0.57570        0.58942        0.67159        0.59150        0.69100        0.71128        0.76053        0.62768        0.63132        0.68346        0.66654        0.49915        0.48693        0.50619        0.38192        0.29106        0.18692        0.13932        0.09504        0.02199        0.13253        0.06355        0.08300        0.07369        0.13877        0.10761        0.20262        0.26685        0.34800        0.38673        0.46639        0.56294        0.57762        0.67673        0.72839        0.63664        0.62675        0.68349        0.58237        0.47966        0.49177        0.40500        0.38000        0.32163        0.24299        0.19122        0.16408        0.16838        0.07063        0.15372        0.17682        0.14469        0.16373        0.29166        0.40415        0.42477        0.45177        0.47399        0.51697        0.59323        0.53963        0.57564        0.56054        0.49144        0.42539        0.35288        0.38719        0.29892        0.22582        0.27284        0.28349        0.22752        0.18804        0.27143        0.29758        0.31533        0.37949        0.41897        0.47023        0.47277        0.52536        0.54272        0.44608        0.42026        0.41505        0.45686        0.40123        0.28336        0.31479        0.28060        0.29119        0.29949        0.32527        0.30434        0.30059        0.35083        0.33041        0.38338        0.44428        0.47122        0.40281        0.37276        0.44089        0.42482        0.35593        0.33997        0.32417        0.34899        0.34915        0.33163        0.26719        0.33037        0.37430        0.32438        0.34199        0.41525        0.44271        0.43432        0.45630        0.39893        0.39215        0.36665        0.30471        0.29889        0.24528        0.26262        0.31871        0.30183        0.34491        0.33658        0.34917        0.36537        0.36615        0.37690        0.40255        0.40453        0.37309        0.35904        0.33456        0.32872        0.30352        0.34310        0.30259        0.29900        0.31254        0.35149        0.36754        0.38297        0.40727        0.37722        0.37097        0.34351        0.31654        0.28705        0.30105        0.28985        0.31002        0.29882        0.31878        0.31629        0.34638        0.31890        0.35332        0.33513        0.38926        0.34392        0.34374        0.29766        0.32042        0.28596        0.29642        0.29112        0.30294        0.32299        0.31726        0.32272        0.31041        0.31945        0.33115        0.37587        0.30497        0.32276        0.29092        0.33135        0.30729        0.33137        0.32796        0.33044        0.33550        0.32389        0.34940        0.37581        0.34547        0.31866        0.31227        0.34016        0.29741        0.34991        0.30670        0.32851        0.37150        0.40596        0.35472        0.38832        0.34244        0.32646        0.30945        0.34109        0.31754        0.32195        0.33870        0.29163        0.28540        0.32297        0.35200        0.30338        0.31606        0.35448        0.34613        0.26138        0.29676        0.34709        0.30090        0.21616        0.31999        0.31337        0.25573        0.27353        0.26597        0.30400        0.27565        0.23642        0.19955        0.26333        0.27299        0.25922        0.31979        0.39553        0.33218        0.27846        0.27695        0.26601        0.29696        0.25387        0.25433        0.25878        0.23775        0.27373        0.24999        0.26172        0.26551        0.27609        0.27149        0.29564        0.25872        0.18783        0.22895        0.24112        0.26206        0.20395        0.19459        0.11391        0.16138       -0.42420       -0.79009
2.935209 2.906475 2.877886 2.849442 2.821142 2.792987 2.764977 2.737112 2.709391 2.681815 2.654384 2.627097 2.599955 2.572958 2.546105 2.519397 2.492834 2.466416 2.440142 2.414013 2.388029 2.362189 2.336494 2.310944 2.285538 2.260278 2.235161 2.210190 2.185363 2.160681 2.136144 2.111751 2.087503 2.063400 2.039442 2.015628 1.991959 1.968434 1.945055 1.921820 1.898729 1.875784 1.852983 1.830327 1.807815 1.785448 1.763226 1.741149 1.719216 1.697428 1.675785 1.751735 2.508757 2.263686 1.286143 1.306919 1.154126 1.268392 0.945494 0.914464 1.141055 1.635824 1.502677 1.374713 1.175213 0.968608 0.810716 0.747257 0.570503 0.591344 0.521990 0.793568 0.612059 0.587660 0.491117 0.331951 0.290570 0.183266 0.184147 0.186422 0.190149 0.089757 0.170795 0.049161 -0.063703 0.029045 -0.003800 0.217477 0.265177 0.325575 0.564411 0.655959 0.483578 0.705931 0.917080 0.912769 0.936264 1.290798 1.182468 1.069273 1.317092 1.187437 1.119864 1.265112 1.408912 1.095847 1.035106 1.198712 1.237125 0.849145 0.873473 0.868078 0.741312 0.508811 0.411893 0.251758 0.255019 -0.042430 0.187852 0.159379 0.111202 0.035121 0.221709 0.067184 0.191494 0.252755 0.497094 0.446383 0.510637 0.778879 0.674969 0.863099 0.995761 0.876343 0.689330 0.964232 0.781136 0.509624 0.572100 0.411747 0.454550 0.283255 0.107530 0.144293 -0.054639 0.041888 -0.153326 -0.071319 -0.010210 -0.040435 -0.114671 0.052296 0.293499 0.312819 0.351991 0.350322 0.435329 0.518816 0.534082 0.495281 0.469146 0.493884 0.289066 0.153743 0.291032 0.136613 -0.016113 -0.057934 0.062371 -0.013651 -0.135100 -0.041044 0.055216 0.009903 0.138067 0.163245 0.292035 0.289445 0.300199 0.475038 0.329108 0.292369 0.188113 0.332296 0.276002 0.090556 0.060577 0.038005 0.041447 0.015458 0.136310 0.060310 0.041805 0.047862 0.160205 0.081539 0.194559 0.313079 0.231089 0.085734 0.241296 0.179326 0.171135 0.045826 0.018310 0.100145 0.081415 0.067933 -0.030634 -0.030010 0.099642 0.080511 -0.018843 0.112958 0.169289 0.240785 0.156153 0.241157 0.126342 0.118103 0.042596 -0.023826 -0.027569 -0.140866 0.008001 -0.002255 0.014105 0.048218 0.077577 0.072826 0.129163 0.083528 0.120722 0.131974 0.156199 0.090494 0.047575 0.076529 -0.003672 0.046220 0.022034 0.039050 -0.053426 0.053267 0.073169 0.114280 0.142574 0.186843 0.121763 0.124190 0.052270 0.013652 0.007300 0.023311 0.003330 0.048666 -0.004662 0.050414 0.058539 0.053169 0.053095 0.118880 0.081340 0.198968 0.006121 0.093500 0.009066 0.067903 -0.034593 0.039539 -0.017732 0.014833 0.054580 0.049975 0.025432 0.040568 -0.001372 0.088918 0.097240 -0.015653 0.014528 -0.037557 0.034799 0.035360 0.003099 0.055451 0.010298 0.046152 0.025812 0.075776 0.084492 -0.005394 0.022954 -0.022583 0.065840 -0.071519 0.063180 -0.039805 0.003885 0.101814 0.188784 0.051854 0.109750 -0.009163 0.034281 -0.015254 0.029306 0.047282 -0.047382 0.081317 -0.091012 -0.032374 0.124610 0.065241 0.014008 0.026731 0.128201 0.046586 -0.055133 0.094200 0.071755 0.024193 -0.165351 0.102763 0.017089 -0.073481 -0.014080 0.012189 0.073444 -0.020538 -0.059815 -0.094940 0.063074 0.013146 -0.022494 0.087720 0.257891 0.079849 0.074268 0.085868 -0.013824 0.108099 0.032957 0.083546 0.048748 0.099828 0.092608 0.071319 0.173963 0.128494 0.151445 0.206296 0.151718 0.227497 0.066959 0.353067 0.377200 0.393490 0.311990 0.292265 0.049053 0.255236 -1.206196
0.072396 0.072830 0.074133 0.076305 0.079344 0.083250 0.088022 0.093660 0.100161 0.107524 0.115746 0.124825 0.134756 0.145535 0.157157 0.169616 0.182904 0.197013 0.211932 0.227650 0.244154 0.261428 0.279455 0.298216 0.317688 0.337846 0.358664 0.380111 0.402153 0.424753 0.447870 0.471460 0.495474 0.519859 0.544558 0.569510 0.594648 0.619901 0.645194 0.670445 0.695568 0.720472 0.745062 0.769234 0.792884 0.815900 0.838166 0.859562 0.879961 0.899237 0.917255 0.933880 0.948975 0.962397 0.974005 0.983657 0.991208 0.996516 0.999442 0.999846 0.997596 0.992562 0.984621 0.973657 0.959565 0.942246 0.921618 0.897608 0.870158 0.839229 0.804797 0.766859 0.725431 0.680553 0.632289 0.580725 0.525977 0.468185 0.407522 0.344184 0.278402 0.210435 0.140571 0.069130 0.003538 0.077055 0.151017 0.224991 0.298519 0.371123 0.442305 0.511550 0.578328 0.642104 0.702335 0.758479 0.809999 0.856369 0.897079 0.931640 0.959595 0.980519 0.994032 0.999799 0.997544 0.987048 0.968165 0.940819 0.905014 0.860839 0.808470 0.748177 0.680320 0.605361 0.523853 0.436446 0.343886 0.247005 0.146721 0.044032 0.059995 0.164232 0.267500 0.368586 0.466252 0.559250 0.646344 0.726323 0.798020 0.860330 0.912234 0.952810 0.981259 0.996920 0.999287 0.988026 0.962989 0.924223 0.871985 0.806742 0.729179 0.640197 0.540909 0.432631 0.316871 0.195314 0.069800 0.057703 0.185125 0.310324 0.431125 0.545357 0.650895 0.745697 0.827853 0.895623 0.947479 0.982149 0.998645 0.996306 0.974817 0.934237 0.875010 0.797976 0.704367 0.595800 0.474258 0.342062 0.201832 0.056445 0.091023 0.237357 0.379272 0.513490 0.636811 0.746198 0.838859 0.912316 0.964487 0.993753 0.999010 0.979728 0.935976 0.868454 0.778491 0.668038 0.539641 0.396389 0.241858 0.080022 0.084833 0.248226 0.405599 0.552441 0.684425 0.797544 0.888232 0.953493 0.991013 0.999251 0.977513 0.926011 0.845879 0.739176 0.608850 0.458675 0.293155 0.117404 0.063002 0.242202 0.414229 0.573218 0.713606 0.830333 0.919045 0.976261 0.999531 0.987557 0.940279 0.858917 0.745962 0.605136 0.441280 0.260212 0.068531 0.126599 0.317732 0.497405 0.658438 0.794238 0.899067 0.968313 0.998710 0.988515 0.937623 0.847626 0.721792 0.564982 0.383482 0.184778 0.022744 0.230124 0.428234 0.608160 0.761622 0.881371 0.961545 0.997982 0.988467 0.932888 0.833299 0.693891 0.520843 0.322079 0.106938 0.114261 0.330691 0.531553 0.706612 0.846745 0.944426 0.994166 0.992847 0.939954 0.837671 0.690834 0.506747 0.294853 0.066278 0.166738 0.391479 0.595451 0.767087 0.896418 0.975684 0.999836 0.966892 0.878132 0.738106 0.554449 0.337513 0.099810 0.144684 0.381330 0.595706 0.774502 0.906357 0.982624 0.997972 0.950806 0.843460 0.682138 0.476621 0.239701 0.013565 0.266787 0.503302 0.707286 0.864801 0.964813 0.999986 0.967285 0.868273 0.709122 0.500279 0.255846 0.007348 0.270867 0.515943 0.724833 0.882121 0.975893 0.998686 0.948147 0.827318 0.644528 0.412888 0.149411 0.126214 0.393049 0.630508 0.819962 0.946222 0.998821 0.972936 0.869898 0.697214 0.468104 0.200543 0.084095 0.362703 0.612336 0.812091 0.944909 0.999075 0.969330 0.857449 0.672232 0.428903 0.147922 0.146687 0.429350 0.675171 0.862148 0.973178 0.997695 0.932755 0.783454 0.562619 0.289812 0.010363 0.310412 0.582467 0.800882 0.944689 0.999677 0.959882 0.828315 0.616850 0.345246 0.039388 0.271137 0.555879
1.000000 1.000000 1.000000 1.000000 1.000000 1.000000 1.000000 1.000000 1.000000 1.000000 1.000000 1.000000 1.000000 1.000000 1.000000 1.000000 1.000000 1.000000 1.000000 1.000000 1.000000 1.000000 1.000000 1.000000 1.000000 1.000000 1.000000 1.000000 1.000000 1.000000 1.000000 1.000000 1.000000 1.000000 1.000000 1.000000 1.000000 1.000000 1.000000 1.000000 1.000000 1.000000 1.000000 1.000000 1.000000 1.000000 1.000000 1.000000 1.000000 1.000000 1.000000 1.000000 0.830351 0.830351 0.830351 0.830351 0.830351 0.830351 0.830351 0.823552 0.823552 0.823552 0.823552 0.823552 0.823552 0.823552 0.823552 0.823552 0.823552 0.823552 0.823552 0.823552 0.823552 0.823552 0.823552 0.823552 0.823552 0.823552 0.823552 0.823552 0.823552 0.823552 0.823552 0.823552 0.823552 0.823552 0.823552 0.823552 0.823552 0.823552 0.823552 0.823552 0.823552 0.823552 0.823552 0.823552 0.823552 0.823552 0.823552 0.823552 0.823552 0.823552 0.823552 0.823552 0.938534 0.937255 0.938979 0.938002 0.935055 0.939563 0.936057 0.939544 0.940650 0.940849 0.941473 0.942254 0.943446 0.944673 0.950141 0.952145 0.952153 0.952393 0.950996 0.953239 0.950116 0.947041 0.939136 0.931750 0.927617 0.925023 0.926879 0.928408 0.926438 0.926996 0.928892 0.929290 0.925942 0.924856 0.923216 0.922381 0.921358 0.920732 0.921189 0.922343 0.922336 0.922166 0.920323 0.920181 0.920602 0.920298 0.920146 0.917834 0.919364 0.922096 0.893814 0.888109 0.880996 0.880013 0.873934 0.881146 0.879878 0.877745 0.875620 0.876057 0.876712 0.873238 0.841391 0.840504 0.835574 0.831181 0.811913 0.798458 0.797120 0.797883 0.797252 0.806870 0.810276 0.811092 0.808304 0.783114 0.768170 0.766498 0.763129 0.767112 0.767085 0.771825 0.770250 0.768705 0.763576 0.757482 0.754885 0.756414 0.744614 0.737678 0.732833 0.730354 0.729750 0.729536 0.731119 0.728594 0.731772 0.738593 0.740114 0.730862 0.724703 0.728846 0.732451 0.727635 0.724440 0.720945 0.714092 0.707992 0.700311 0.695723 0.695553 0.702011 0.698817 0.697824 0.694606 0.691454 0.656560 0.686928 0.691553 0.694522 0.708953 0.716819 0.720740 0.718465 0.709245 0.691844 0.692857 0.686809 0.676068 0.678967 0.667197 0.673011 0.674298 0.671443 0.691816 0.674534 0.667972 0.669119 0.666199 0.675350 0.656902 0.651740 0.623902 0.618528 0.597898 0.591200 0.585588 0.603464 0.584029 0.574909 0.562385 0.573691 0.568547 0.573248 0.577522 0.586781 0.587031 0.582068 0.570094 0.551788 0.543561 0.466875 0.480975 0.470354 0.457540 0.466142 0.489206 0.513016 0.505453 0.510873 0.507499 0.510012 0.488014 0.466594 0.449496 0.442946 0.402351 0.415324 0.446039 0.457031 0.450491 0.424448 0.380099 0.329638 0.323970 0.309274 0.270103 0.293427 0.307020 0.306406 0.301388 0.303131 0.255330 0.278054 0.287709 0.278218 0.280843 0.207183 0.232111 0.246286 0.249918 0.262403 0.201862 0.190340 0.203134 0.195359 0.154050 0.171910 0.230846 0.238689 0.206633 0.211541 0.201021 0.186917 0.153422 0.133467 0.131090 0.140307 0.091150 0.058099 0.060535 0.030952 0.056085 0.024536 0.049180 0.098820 0.120361 0.098273 0.121770 0.121770 0.121770 0.058232 0.058232 0.058232 0.058232 0.058232 0.058232 0.058232 0.058232 0.058232 0.058232 0.130517 0.130517 0.130517 0.130517 0.130517 0.130517 0.130517 0.130517 0.130517 0.130517 0.130517 0.130517 0.130517 0.130517 0.130517 0.130517 0.130517 0.130517
0.000000 0.000000 0.000000 0.000000 0.000000 0.000000 0.000000 0.000000 0.000000 0.000000 0.000000 0.000000 0.000000 0.000000 0.000000 0.000000 0.000000 0.000000 0.000000 0.000000 0.000000 0.000000 0.000000 0.000000 0.000000 0.000000 0.000000 0.000000 0.000000 0.000000 0.000000 0.000000 0.000000 0.000000 0.000000 0.000000 0.000000 0.000000 0.000000 0.000000 0.000000 0.000000 0.000000 0.000000 0.000000 0.000000 0.000000 0.000000 0.000000 0.000000 0.000000 0.000000 0.173422 0.173422 0.173422 0.173422 0.173422 0.173422 0.173422 0.189832 0.189832 0.189832 0.189832 0.189832 0.189832 0.189832 0.189832 0.189832 0.189832 0.189832 0.189832 0.189832 0.189832 0.189832 0.189832 0.189832 0.189832 0.189832 0.189832 0.189832 0.189832 0.189832 0.189832 0.189832 0.189832 0.189832 0.189832 0.189832 0.189832 0.189832 0.189832 0.189832 0.189832 0.189832 0.189832 0.189832 0.189832 0.189832 0.189832 0.189832 0.189832 0.189832 0.189832 0.189832 0.222222 0.222222 0.222222 0.222222 0.222222 0.222222 0.222222 0.222222 0.222222 0.222222 0.222222 0.222222 0.222222 0.222222 0.222222 0.222222 0.222222 0.222222 0.222222 0.222222 0.222222 0.222222 0.222222 0.222222 0.222222 0.222222 0.222222 0.222222 0.222222 0.222222 0.234082 0.234082 0.234082 0.234082 0.234082 0.234082 0.234082 0.234082 0.234082 0.234082 0.234082 0.234082 0.234082 0.234082 0.234082 0.234082 0.234082 0.234082 0.234082 0.234082 0.234082 0.234082 0.234082 0.234082 0.234082 0.244339 0.244339 0.244339 0.244339 0.244339 0.244339 0.244339 0.244339 0.244339 0.244339 0.244339 0.244339 0.244339 0.244339 0.244339 0.244339 0.244339 0.244339 0.244339 0.244339 0.244339 0.248069 0.248069 0.248069 0.248069 0.248069 0.248069 0.248069 0.248069 0.248069 0.248069 0.248069 0.248069 0.248069 0.248069 0.248069 0.248069 0.248069 0.248069 0.248069 0.248069 0.248069 0.248069 0.248069 0.248069 0.248069 0.248069 0.248069 0.248069 0.248069 0.248069 0.248069 0.248069 0.248069 0.248069 0.248069 0.248069 0.248069 0.256074 0.256074 0.256074 0.256074 0.256074 0.256074 0.256074 0.256074 0.256074 0.256074 0.256074 0.256074 0.256074 0.256074 0.256074 0.256074 0.256074 0.256074 0.256074 0.256074 0.256074 0.256074 0.256074 0.256074 0.256074 0.256074 0.256074 0.256074 0.256074 0.256074 0.256074 0.256074 0.256074 0.256074 0.256074 0.256074 0.256074 0.256074 0.256074 0.256074 0.256074 0.256074 0.256074 0.256074 0.256074 0.260378 0.260378 0.260378 0.260378 0.260378 0.260378 0.260378 0.260378 0.260378 0.260378 0.260378 0.260378 0.260378 0.256074 0.256074 0.256074 0.256074 0.256074 0.256074 0.256074 0.256074 0.256074 0.256074 0.256074 0.256074 0.256074 0.248069 0.248069 0.248069 0.248069 0.248069 0.248069 0.248069 0.248069 0.248069 0.248069 0.248069 0.248069 0.248069 0.264906 0.264906 0.264906 0.264906 0.264906 0.264906 0.264906 0.264906 0.264906 0.264906 0.264906 0.248069 0.248069 0.248069 0.248069 0.248069 0.248069 0.248069 0.248069 0.248069 0.248069 0.248069 0.248069 0.251976 0.251976 0.251976 0.251976 0.251976 0.251976 0.251976 0.251976 0.251976 0.251976 0.251976 0.260378 0.260378 0.260378 0.260378 0.260378 0.260378 0.260378 0.260378 0.260378 0.260378 0.244339 0.244339 0.244339 0.244339 0.244339 0.244339 0.244339 0.244339 0.244339 0.244339 0.244339 0.244339 0.244339 0.244339 0.244339 0.244339 0.244339 0.244339
