# Output from CTFFind version 4.1.9, run on 2019-11-03 18:51:42
# Input file: stack18_ub_averaged_1000.mrc ; Number of micrographs: 1
# Pixel size: 3.000 Angstroms ; acceleration voltage: 300.0 keV ; spherical aberration: 0.00 mm ; amplitude contrast: 0.07
# Box size: 512 pixels ; min. res.: 30.0 Angstroms ; max. res.: 5.0 Angstroms ; min. def.: 5000.0 um; max. def. 50000.0 um; num. frames averaged: 1
# 6 lines per micrograph: #1 - spatial frequency (1/Angstroms); #2 - 1D rotational average of spectrum (assuming no astigmatism); #3 - 1D rotational average of spectrum; #4 - CTF fit; #5 - cross-correlation between spectrum and CTF fit; #6 - 2sigma of expected cross correlation of noise
0.000000 0.000651 0.001302 0.001953 0.002604 0.003255 0.003906 0.004557 0.005208 0.005859 0.006510 0.007161 0.007812 0.008464 0.009115 0.009766 0.010417 0.011068 0.011719 0.012370 0.013021 0.013672 0.014323 0.014974 0.015625 0.016276 0.016927 0.017578 0.018229 0.018880 0.019531 0.020182 0.020833 0.021484 0.022135 0.022786 0.023438 0.024089 0.024740 0.025391 0.026042 0.026693 0.027344 0.027995 0.028646 0.029297 0.029948 0.030599 0.031250 0.031901 0.032552 0.033203 0.033854 0.034505 0.035156 0.035807 0.036458 0.037109 0.037760 0.038411 0.039062 0.039714 0.040365 0.041016 0.041667 0.042318 0.042969 0.043620 0.044271 0.044922 0.045573 0.046224 0.046875 0.047526 0.048177 0.048828 0.049479 0.050130 0.050781 0.051432 0.052083 0.052734 0.053385 0.054036 0.054688 0.055339 0.055990 0.056641 0.057292 0.057943 0.058594 0.059245 0.059896 0.060547 0.061198 0.061849 0.062500 0.063151 0.063802 0.064453 0.065104 0.065755 0.066406 0.067057 0.067708 0.068359 0.069010 0.069661 0.070312 0.070964 0.071615 0.072266 0.072917 0.073568 0.074219 0.074870 0.075521 0.076172 0.076823 0.077474 0.078125 0.078776 0.079427 0.080078 0.080729 0.081380 0.082031 0.082682 0.083333 0.083984 0.084635 0.085286 0.085938 0.086589 0.087240 0.087891 0.088542 0.089193 0.089844 0.090495 0.091146 0.091797 0.092448 0.093099 0.093750 0.094401 0.095052 0.095703 0.096354 0.097005 0.097656 0.098307 0.098958 0.099609 0.100260 0.100911 0.101562 0.102214 0.102865 0.103516 0.104167 0.104818 0.105469 0.106120 0.106771 0.107422 0.108073 0.108724 0.109375 0.110026 0.110677 0.111328 0.111979 0.112630 0.113281 0.113932 0.114583 0.115234 0.115885 0.116536 0.117188 0.117839 0.118490 0.119141 0.119792 0.120443 0.121094 0.121745 0.122396 0.123047 0.123698 0.124349 0.125000 0.125651 0.126302 0.126953 0.127604 0.128255 0.128906 0.129557 0.130208 0.130859 0.131510 0.132161 0.132812 0.133464 0.134115 0.134766 0.135417 0.136068 0.136719 0.137370 0.138021 0.138672 0.139323 0.139974 0.140625 0.141276 0.141927 0.142578 0.143229 0.143880 0.144531 0.145182 0.145833 0.146484 0.147135 0.147786 0.148438 0.149089 0.149740 0.150391 0.151042 0.151693 0.152344 0.152995 0.153646 0.154297 0.154948 0.155599 0.156250 0.156901 0.157552 0.158203 0.158854 0.159505 0.160156 0.160807 0.161458 0.162109 0.162760 0.163411 0.164062 0.164714 0.165365 0.166016 0.166667 0.167318 0.167969 0.168620 0.169271 0.169922 0.170573 0.171224 0.171875 0.172526 0.173177 0.173828 0.174479 0.175130 0.175781 0.176432 0.177083 0.177734 0.178385 0.179036 0.179688 0.180339 0.180990 0.181641 0.182292 0.182943 0.183594 0.184245 0.184896 0.185547 0.186198 0.186849 0.187500 0.188151 0.188802 0.189453 0.190104 0.190755 0.191406 0.192057 0.192708 0.193359 0.194010 0.194661 0.195312 0.195964 0.196615 0.197266 0.197917 0.198568 0.199219 0.199870 0.200521 0.201172 0.201823 0.202474 0.203125 0.203776 0.204427 0.205078 0.205729 0.206380 0.207031 0.207682 0.208333 0.208984 0.209635 0.210286 0.210938 0.211589 0.212240 0.212891 0.213542 0.214193 0.214844 0.215495 0.216146 0.216797 0.217448 0.218099 0.218750 0.219401 0.220052 0.220703 0.221354 0.222005 0.222656 0.223307 0.223958 0.224609 0.225260 0.225911 0.226562 0.227214 0.227865 0.228516 0.229167 0.229818 0.230469 0.231120 0.231771 0.232422 0.233073 0.233724 0.234375 0.235026 0.235677
       0.32927        0.32927        0.32927        0.32927        0.32927        0.32927        0.32927        0.32928        0.32927        0.32927        0.32927        0.32927        0.32928        0.32927        0.32927        0.32927        0.32928        0.32927        0.32927        0.32928        0.32927        0.32927        0.32927        0.32928        0.32928        0.32928        0.32927        0.32928        0.32927        0.32928        0.32927        0.32927        0.32927        0.32928        0.32927        0.32927        0.32928        0.32927        0.32928        0.32927        0.32928        0.32927        0.32928        0.32927        0.32927        0.32927        0.32928        0.32927        0.32928        0.32928        0.32927        0.68184        1.09061        0.55450        0.11324       -0.01388       -0.20394       -0.14037       -0.17532       -0.22093       -0.14364       -0.05226       -0.00316        0.10622        0.00925       -0.08416       -0.10607       -0.29337       -0.26712       -0.37207       -0.18866       -0.34418       -0.44200       -0.36421       -0.33936       -0.44616       -0.46642       -0.46987       -0.46230       -0.56906       -0.53941       -0.41736       -0.31423       -0.32230       -0.32718       -0.23284       -0.13094        0.07036        0.12934        0.22046        0.26078        0.33608        0.35806        0.39971        0.52066        0.58982        0.68182        0.76201        0.65951        0.72181        0.71798        0.64334        0.70091        0.61267        0.56358        0.49541        0.41448        0.33306        0.30623        0.23145        0.09791        0.02222       -0.00733       -0.04759       -0.07258       -0.06573       -0.08302       -0.01863        0.08334        0.13626        0.30047        0.40699        0.42947        0.43801        0.51150        0.68498        0.63302        0.67918        0.76619        0.74727        0.75167        0.55577        0.51169        0.43531        0.42904        0.35678        0.23236        0.18325        0.06293       -0.00596        0.06999        0.02376        0.09247        0.15035        0.21028        0.30753        0.38195        0.45878        0.54081        0.56854        0.57019        0.56083        0.59865        0.55993        0.40296        0.38356        0.38637        0.37255        0.25035        0.22754        0.18938        0.12600        0.09644        0.10785        0.17263        0.25075        0.30313        0.35808        0.39744        0.51036        0.44922        0.52650        0.56180        0.52826        0.49859        0.43844        0.35100        0.31028        0.34527        0.28019        0.28627        0.17223        0.19694        0.21128        0.22753        0.30902        0.39689        0.40483        0.45326        0.47200        0.43683        0.45490        0.44652        0.41227        0.36473        0.30618        0.24008        0.25276        0.28944        0.21909        0.28441        0.28977        0.28194        0.33330        0.36935        0.43659        0.42922        0.37318        0.39703        0.36609        0.35654        0.31851        0.28956        0.24226        0.26023        0.25531        0.27638        0.28798        0.31888        0.36371        0.39117        0.42852        0.39967        0.37194        0.34431        0.29576        0.31327        0.28370        0.25102        0.21878        0.28999        0.29572        0.34407        0.34647        0.34800        0.36958        0.33885        0.40386        0.34084        0.33946        0.34590        0.26416        0.27016        0.28466        0.29565        0.29787        0.33025        0.30885        0.36670        0.36064        0.34345        0.32909        0.33776        0.31686        0.30003        0.23765        0.21905        0.22625        0.26184        0.29457        0.32496        0.31830        0.36292        0.34766        0.29582        0.30222        0.28801        0.27950        0.26402        0.23613        0.26153        0.26432        0.28336        0.31961        0.35829        0.37233        0.31474        0.28596        0.31989        0.30368        0.25672        0.32388        0.29752        0.29709        0.32181        0.31577        0.32020        0.37186        0.35271        0.35040        0.30499        0.30310        0.29168        0.29321        0.33004        0.29172        0.29474        0.35346        0.35517        0.31796        0.32910        0.32029        0.31432        0.25367        0.25435        0.32123        0.29892        0.32402        0.32519        0.27737        0.27351        0.28729        0.26912        0.28837        0.29269        0.29509        0.25728        0.24587        0.30319        0.32407        0.28032        0.27517        0.27034        0.23570        0.27723        0.24416        0.25711        0.30555        0.25850        0.26563        0.21285        0.24853        0.26928        0.25106        0.27602        0.25548        0.21262        0.23599        0.27762        0.26007        0.32572        0.26685        0.21985        0.20803        0.26430        0.21064        0.24442        0.30906        0.20483        0.19151        0.17319        0.27501        0.28488        0.38270        0.27643        0.18629        0.35818        0.33836        0.12397        0.04457       -0.14499       -0.43657       -0.54585
2.692139 2.665108 2.638218 2.611471 2.584866 2.558403 2.532081 2.505902 2.479865 2.453969 2.428215 2.402604 2.377134 2.351806 2.326620 2.301576 2.276674 2.251914 2.227295 2.202819 2.178485 2.154292 2.130242 2.106333 2.082566 2.058941 2.035459 2.012118 1.988919 1.965862 1.942946 1.920173 1.897542 1.875052 1.852705 1.830499 1.808436 1.786514 1.764734 1.743097 1.721601 1.700247 1.679035 1.657965 1.637036 1.616250 1.595606 1.575103 1.554743 1.534524 1.514447 1.667989 2.371134 1.911831 1.120617 1.158999 0.870074 0.826330 0.772255 0.748772 0.783762 0.852923 0.954862 0.984215 0.890832 0.807350 0.805438 0.488603 0.537881 0.362210 0.571085 0.426410 0.258062 0.343089 0.324987 0.246220 0.151451 0.121685 0.185528 0.027411 -0.052027 0.131879 0.264246 0.204546 0.178469 0.241458 0.369199 0.559696 0.594102 0.682797 0.798318 0.756313 0.879046 0.774359 0.961921 1.029594 1.090106 1.257072 1.077645 1.149606 1.096606 1.125176 1.033665 0.970985 0.901461 0.857915 0.732386 0.629700 0.586752 0.467254 0.378448 0.240695 0.156179 0.141479 0.104248 0.083740 0.048758 0.077774 0.193990 0.153209 0.413315 0.533032 0.531380 0.515098 0.618120 0.766944 0.772949 0.676660 0.838939 0.805237 0.992710 0.578640 0.589194 0.468101 0.482347 0.358877 0.282008 0.158547 0.084558 -0.093309 0.006358 -0.071034 -0.011120 0.034805 0.091201 0.206862 0.242487 0.401931 0.396135 0.489292 0.504472 0.482985 0.553267 0.553969 0.316850 0.309911 0.225637 0.301831 0.208401 0.051627 0.062747 0.049789 -0.070730 -0.088589 -0.026271 0.079834 0.092436 0.197720 0.201121 0.298970 0.343507 0.317839 0.422032 0.492623 0.324867 0.341377 0.284820 0.191287 0.181299 0.166818 0.109554 0.102271 -0.020263 0.050411 0.046719 0.074534 0.205699 0.215607 0.296955 0.303504 0.328356 0.256926 0.277006 0.273623 0.200678 0.173724 0.086704 0.002694 0.133192 0.011422 0.074567 0.096663 0.064334 0.065179 0.178974 0.175428 0.243675 0.248338 0.140106 0.169313 0.119306 0.098537 0.055798 0.036660 -0.033433 0.027696 0.012640 0.034224 0.031948 0.100857 0.104869 0.179396 0.180107 0.146656 0.072128 0.062210 0.054178 0.027251 0.045435 -0.067835 -0.029526 0.049928 0.007953 0.123133 0.054606 0.101351 0.079736 0.183457 0.151861 0.084933 0.090439 0.119961 -0.025659 0.036747 0.037673 0.053023 0.059689 0.075297 0.055226 0.136110 0.097884 0.105375 0.070824 0.125044 0.059211 0.022288 -0.029514 -0.029359 -0.021468 0.011332 0.042226 0.095917 0.057098 0.116015 0.073070 0.000617 0.025805 0.013338 -0.011594 -0.031538 -0.044245 -0.004344 -0.021572 0.009359 0.033566 0.109916 0.035566 0.050013 -0.026015 0.050006 0.000838 -0.038801 0.063798 -0.011959 -0.004102 0.060544 -0.015975 0.061171 0.054403 0.070124 0.043509 -0.015324 -0.018551 0.009125 -0.036666 0.026382 -0.018701 -0.009935 0.066087 -0.015124 0.055212 0.010804 0.022534 -0.009588 -0.038555 -0.072616 0.061802 -0.007569 0.035365 0.010295 -0.022783 0.029627 0.022626 0.015194 0.022057 0.014615 0.034118 -0.002505 -0.027219 0.045396 0.094343 0.014345 0.010968 0.003721 -0.023957 0.005034 -0.026024 0.005308 0.093501 -0.044766 0.013687 -0.066525 0.024389 -0.014623 -0.010055 -0.010447 -0.010945 -0.045974 -0.058705 0.068597 -0.025155 0.043057 -0.011814 -0.062241 -0.087813 0.002402 -0.082510 -0.026286 0.020967 -0.099234 0.243230 0.212152 0.295358 0.271484 0.419964 0.334814 0.217261 0.383027 0.490361 0.129012 0.102954 -0.155481 -0.600295
0.072396 0.072869 0.074288 0.076653 0.079963 0.084218 0.089416 0.095556 0.102636 0.110653 0.119605 0.129489 0.140298 0.152029 0.164674 0.178226 0.192675 0.208010 0.224219 0.241287 0.259197 0.277930 0.297463 0.317773 0.338830 0.360604 0.383059 0.406157 0.429856 0.454107 0.478860 0.504057 0.529637 0.555533 0.581673 0.607979 0.634367 0.660748 0.687027 0.713102 0.738866 0.764204 0.788997 0.813121 0.836443 0.858827 0.880131 0.900210 0.918912 0.936082 0.951563 0.965195 0.976816 0.986262 0.993372 0.997985 0.999941 0.999086 0.995270 0.988349 0.978188 0.964662 0.947656 0.927071 0.902820 0.874835 0.843065 0.807483 0.768080 0.724876 0.677915 0.627270 0.573042 0.515367 0.454410 0.390371 0.323486 0.254024 0.182293 0.108633 0.033424 0.042924 0.119963 0.197215 0.274173 0.350300 0.425036 0.497800 0.567995 0.635012 0.698235 0.757047 0.810839 0.859011 0.900985 0.936209 0.964165 0.984381 0.996434 0.999960 0.994663 0.980325 0.956806 0.924062 0.882140 0.831194 0.771483 0.703377 0.627359 0.544026 0.454089 0.358371 0.257803 0.153415 0.046334 0.062230 0.170996 0.278622 0.383724 0.484894 0.580715 0.669785 0.750740 0.822272 0.883157 0.932278 0.968644 0.991422 0.999949 0.993759 0.972600 0.936448 0.885522 0.820291 0.741480 0.650072 0.547301 0.434645 0.313811 0.186712 0.055449 0.077731 0.210458 0.340293 0.464757 0.581394 0.687812 0.781738 0.861073 0.923938 0.968734 0.994179 0.999360 0.983764 0.947311 0.890374 0.813793 0.718876 0.607391 0.481538 0.343930 0.197531 0.045614 0.108314 0.260588 0.407473 0.545251 0.670320 0.779295 0.869105 0.937086 0.981074 0.999483 0.991370 0.956492 0.895338 0.809147 0.699903 0.570304 0.423713 0.264086 0.095876 0.076084 0.246713 0.410833 0.563316 0.699265 0.814168 0.904056 0.965665 0.996554 0.995233 0.961235 0.895178 0.798780 0.674842 0.527188 0.360569 0.180521 0.006792 0.194795 0.376722 0.545855 0.695785 0.820660 0.915426 0.976054 0.999727 0.984993 0.931872 0.841901 0.718125 0.565024 0.388380 0.195076 0.007152 0.210012 0.404994 0.583721 0.738327 0.861804 0.948350 0.993659 0.995162 0.952203 0.866124 0.740270 0.579897 0.391979 0.184943 0.031697 0.247761 0.452871 0.636957 0.790764 0.906330 0.977429 0.999934 0.972095 0.894695 0.771086 0.607090 0.410764 0.192042 0.037745 0.266443 0.481702 0.671655 0.825582 0.934543 0.991930 0.993900 0.939683 0.831701 0.675528 0.479644 0.255018 0.014534 0.227728 0.457313 0.660247 0.823909 0.937838 0.994448 0.989572 0.922818 0.797695 0.621494 0.404909 0.161454 0.093361 0.342999 0.570955 0.761860 0.902542 0.982982 0.997067 0.943119 0.824116 0.647605 0.425296 0.172326 0.093719 0.354009 0.589790 0.783757 0.921347 0.991886 0.989468 0.913515 0.768957 0.565981 0.319391 0.047588 0.228781 0.488357 0.710728 0.878068 0.976599 0.997796 0.939189 0.804712 0.604526 0.354331 0.074216 0.212940 0.483280 0.713976 0.885177 0.981765 0.994767 0.922262 0.769708 0.549636 0.280703 0.013828 0.308038 0.575635 0.792305 0.937969 0.998701 0.968149 0.848282 0.649399 0.389327 0.091933 0.215033 0.502479 0.742737 0.912266 0.994018 0.979244 0.868524 0.671912 0.408136 0.102903 0.213533 0.509334 0.754297 0.922961 0.997335 0.968913 0.839756 0.622490 0.339188 0.019244 0.303647 0.594968 0.823121 0.962885 0.998304 0.924622 0.749023 0.490084 0.175916 0.158788 0.476538 0.741235 0.922325 0.998396 0.959833 0.810153 0.565857
1.000000 1.000000 1.000000 1.000000 1.000000 1.000000 1.000000 1.000000 1.000000 1.000000 1.000000 1.000000 1.000000 1.000000 1.000000 1.000000 1.000000 1.000000 1.000000 1.000000 1.000000 1.000000 1.000000 1.000000 1.000000 1.000000 1.000000 1.000000 1.000000 1.000000 1.000000 1.000000 1.000000 1.000000 1.000000 1.000000 1.000000 1.000000 1.000000 1.000000 1.000000 1.000000 1.000000 1.000000 1.000000 1.000000 1.000000 1.000000 1.000000 1.000000 1.000000 1.000000 0.883687 0.883687 0.883687 0.883687 0.883687 0.871693 0.871693 0.871693 0.871693 0.871693 0.871693 0.871693 0.871693 0.871693 0.871693 0.871693 0.871693 0.871693 0.871693 0.871693 0.871693 0.871693 0.871693 0.871693 0.871693 0.871693 0.871693 0.871693 0.871693 0.871693 0.871693 0.871693 0.871693 0.871693 0.871693 0.871693 0.871693 0.871693 0.871693 0.871693 0.871693 0.871693 0.871693 0.871693 0.871693 0.871693 0.871693 0.953159 0.957516 0.958425 0.958116 0.957348 0.956534 0.955905 0.955561 0.956195 0.959086 0.959856 0.965778 0.967481 0.968124 0.974644 0.974160 0.973171 0.971477 0.970054 0.970089 0.963787 0.962435 0.960912 0.961149 0.964717 0.964623 0.964459 0.964408 0.964556 0.964940 0.965030 0.965567 0.965281 0.964964 0.963994 0.963082 0.962364 0.962018 0.962173 0.962696 0.963583 0.964620 0.965114 0.965749 0.966225 0.966391 0.966244 0.965826 0.965236 0.964655 0.966575 0.964764 0.961106 0.962688 0.962692 0.962988 0.963470 0.964614 0.965279 0.961231 0.960142 0.959621 0.956552 0.954296 0.948780 0.940710 0.935513 0.937985 0.939382 0.939866 0.934062 0.921111 0.918627 0.912360 0.911657 0.909157 0.903933 0.905259 0.908093 0.899552 0.897738 0.891921 0.887339 0.882824 0.881529 0.883053 0.878834 0.880888 0.881660 0.881083 0.879585 0.879840 0.882573 0.884862 0.880495 0.869782 0.863698 0.862702 0.864173 0.863840 0.870408 0.871534 0.862266 0.860064 0.850716 0.845067 0.843012 0.839143 0.842636 0.842899 0.845810 0.845093 0.830835 0.833639 0.826105 0.824761 0.825498 0.818720 0.814782 0.812018 0.808028 0.797407 0.796661 0.799679 0.804402 0.804934 0.799507 0.800969 0.809798 0.803645 0.813570 0.818726 0.822066 0.831580 0.829953 0.829648 0.829248 0.829343 0.808326 0.806772 0.816043 0.822447 0.824938 0.820335 0.817329 0.814917 0.812008 0.805966 0.800349 0.768324 0.768196 0.770769 0.768211 0.773153 0.717492 0.723113 0.721849 0.724023 0.694365 0.703112 0.698673 0.694798 0.705617 0.702237 0.716388 0.713810 0.696250 0.697362 0.683714 0.673654 0.655451 0.670008 0.656224 0.663437 0.671206 0.671459 0.668390 0.681901 0.657042 0.659890 0.657335 0.657924 0.619592 0.624204 0.624525 0.619597 0.592618 0.546740 0.490365 0.469790 0.470418 0.438901 0.449770 0.450035 0.429694 0.439052 0.439047 0.447329 0.442355 0.438465 0.422453 0.404200 0.336599 0.333684 0.331163 0.335021 0.331879 0.312093 0.317506 0.300147 0.337037 0.348781 0.350338 0.343595 0.333806 0.327134 0.332968 0.332199 0.336102 0.321802 0.284015 0.241375 0.246653 0.205925 0.205828 0.183817 0.160524 0.164453 0.184085 0.160789 0.188101 0.143898 0.100737 0.101081 0.105248 0.105248 0.105248 0.105248 0.105248 0.105248 0.105248 0.105248 0.103122 0.103122 0.103122 0.103122 0.103122 0.103122 0.103122 0.103122 0.103122 0.129190 0.129190 0.129190 0.129190 0.129190 0.129190 0.129190 0.129190 0.129190 0.129190 0.129190 0.129190 0.129190
0.000000 0.000000 0.000000 0.000000 0.000000 0.000000 0.000000 0.000000 0.000000 0.000000 0.000000 0.000000 0.000000 0.000000 0.000000 0.000000 0.000000 0.000000 0.000000 0.000000 0.000000 0.000000 0.000000 0.000000 0.000000 0.000000 0.000000 0.000000 0.000000 0.000000 0.000000 0.000000 0.000000 0.000000 0.000000 0.000000 0.000000 0.000000 0.000000 0.000000 0.000000 0.000000 0.000000 0.000000 0.000000 0.000000 0.000000 0.000000 0.000000 0.000000 0.000000 0.000000 0.177471 0.177471 0.177471 0.177471 0.177471 0.197066 0.197066 0.197066 0.197066 0.197066 0.197066 0.197066 0.197066 0.197066 0.197066 0.197066 0.197066 0.197066 0.197066 0.197066 0.197066 0.197066 0.197066 0.197066 0.197066 0.197066 0.197066 0.197066 0.197066 0.197066 0.197066 0.197066 0.197066 0.197066 0.197066 0.197066 0.197066 0.197066 0.197066 0.197066 0.197066 0.197066 0.197066 0.197066 0.197066 0.197066 0.197066 0.222222 0.222222 0.222222 0.222222 0.222222 0.222222 0.222222 0.222222 0.222222 0.222222 0.222222 0.222222 0.222222 0.222222 0.222222 0.222222 0.222222 0.222222 0.222222 0.222222 0.222222 0.222222 0.222222 0.222222 0.222222 0.222222 0.222222 0.222222 0.222222 0.222222 0.244339 0.244339 0.244339 0.244339 0.244339 0.244339 0.244339 0.244339 0.244339 0.244339 0.244339 0.244339 0.244339 0.244339 0.244339 0.244339 0.244339 0.244339 0.244339 0.244339 0.244339 0.244339 0.244339 0.244339 0.244339 0.244339 0.244339 0.244339 0.244339 0.244339 0.244339 0.244339 0.244339 0.244339 0.244339 0.244339 0.244339 0.244339 0.244339 0.244339 0.244339 0.244339 0.244339 0.244339 0.256074 0.256074 0.256074 0.256074 0.256074 0.256074 0.256074 0.256074 0.256074 0.256074 0.256074 0.256074 0.256074 0.256074 0.256074 0.256074 0.256074 0.256074 0.256074 0.256074 0.256074 0.256074 0.256074 0.256074 0.256074 0.256074 0.256074 0.256074 0.256074 0.256074 0.256074 0.256074 0.256074 0.256074 0.256074 0.264906 0.264906 0.264906 0.264906 0.264906 0.264906 0.264906 0.264906 0.264906 0.264906 0.264906 0.264906 0.264906 0.264906 0.264906 0.264906 0.264906 0.264906 0.264906 0.264906 0.264906 0.264906 0.264906 0.264906 0.264906 0.264906 0.264906 0.264906 0.264906 0.256074 0.256074 0.256074 0.256074 0.256074 0.256074 0.256074 0.256074 0.256074 0.256074 0.256074 0.256074 0.256074 0.256074 0.260378 0.260378 0.260378 0.260378 0.260378 0.260378 0.260378 0.260378 0.260378 0.260378 0.260378 0.260378 0.260378 0.264906 0.264906 0.264906 0.264906 0.264906 0.264906 0.264906 0.264906 0.264906 0.264906 0.264906 0.264906 0.260378 0.260378 0.260378 0.260378 0.260378 0.260378 0.260378 0.260378 0.260378 0.260378 0.260378 0.260378 0.264906 0.264906 0.264906 0.264906 0.264906 0.264906 0.264906 0.264906 0.264906 0.264906 0.264906 0.256074 0.256074 0.256074 0.256074 0.256074 0.256074 0.256074 0.256074 0.256074 0.256074 0.256074 0.251976 0.251976 0.251976 0.251976 0.251976 0.251976 0.251976 0.251976 0.251976 0.251976 0.251976 0.260378 0.260378 0.260378 0.260378 0.260378 0.260378 0.260378 0.260378 0.260378 0.260378 0.256074 0.256074 0.256074 0.256074 0.256074 0.256074 0.256074 0.256074 0.256074 0.256074 0.260378 0.260378 0.260378 0.260378 0.260378 0.260378 0.260378 0.260378 0.260378 0.244339 0.244339 0.244339 0.244339 0.244339 0.244339 0.244339 0.244339 0.244339 0.244339 0.244339 0.244339 0.244339
