# Output from CTFFind version 4.1.9, run on 2019-11-03 18:52:04
# Input file: stack7_ub_averaged_2000.mrc ; Number of micrographs: 1
# Pixel size: 3.000 Angstroms ; acceleration voltage: 300.0 keV ; spherical aberration: 0.00 mm ; amplitude contrast: 0.07
# Box size: 512 pixels ; min. res.: 30.0 Angstroms ; max. res.: 5.0 Angstroms ; min. def.: 5000.0 um; max. def. 50000.0 um; num. frames averaged: 1
# 6 lines per micrograph: #1 - spatial frequency (1/Angstroms); #2 - 1D rotational average of spectrum (assuming no astigmatism); #3 - 1D rotational average of spectrum; #4 - CTF fit; #5 - cross-correlation between spectrum and CTF fit; #6 - 2sigma of expected cross correlation of noise
0.000000 0.000651 0.001302 0.001953 0.002604 0.003255 0.003906 0.004557 0.005208 0.005859 0.006510 0.007161 0.007812 0.008464 0.009115 0.009766 0.010417 0.011068 0.011719 0.012370 0.013021 0.013672 0.014323 0.014974 0.015625 0.016276 0.016927 0.017578 0.018229 0.018880 0.019531 0.020182 0.020833 0.021484 0.022135 0.022786 0.023438 0.024089 0.024740 0.025391 0.026042 0.026693 0.027344 0.027995 0.028646 0.029297 0.029948 0.030599 0.031250 0.031901 0.032552 0.033203 0.033854 0.034505 0.035156 0.035807 0.036458 0.037109 0.037760 0.038411 0.039062 0.039714 0.040365 0.041016 0.041667 0.042318 0.042969 0.043620 0.044271 0.044922 0.045573 0.046224 0.046875 0.047526 0.048177 0.048828 0.049479 0.050130 0.050781 0.051432 0.052083 0.052734 0.053385 0.054036 0.054688 0.055339 0.055990 0.056641 0.057292 0.057943 0.058594 0.059245 0.059896 0.060547 0.061198 0.061849 0.062500 0.063151 0.063802 0.064453 0.065104 0.065755 0.066406 0.067057 0.067708 0.068359 0.069010 0.069661 0.070312 0.070964 0.071615 0.072266 0.072917 0.073568 0.074219 0.074870 0.075521 0.076172 0.076823 0.077474 0.078125 0.078776 0.079427 0.080078 0.080729 0.081380 0.082031 0.082682 0.083333 0.083984 0.084635 0.085286 0.085938 0.086589 0.087240 0.087891 0.088542 0.089193 0.089844 0.090495 0.091146 0.091797 0.092448 0.093099 0.093750 0.094401 0.095052 0.095703 0.096354 0.097005 0.097656 0.098307 0.098958 0.099609 0.100260 0.100911 0.101562 0.102214 0.102865 0.103516 0.104167 0.104818 0.105469 0.106120 0.106771 0.107422 0.108073 0.108724 0.109375 0.110026 0.110677 0.111328 0.111979 0.112630 0.113281 0.113932 0.114583 0.115234 0.115885 0.116536 0.117188 0.117839 0.118490 0.119141 0.119792 0.120443 0.121094 0.121745 0.122396 0.123047 0.123698 0.124349 0.125000 0.125651 0.126302 0.126953 0.127604 0.128255 0.128906 0.129557 0.130208 0.130859 0.131510 0.132161 0.132812 0.133464 0.134115 0.134766 0.135417 0.136068 0.136719 0.137370 0.138021 0.138672 0.139323 0.139974 0.140625 0.141276 0.141927 0.142578 0.143229 0.143880 0.144531 0.145182 0.145833 0.146484 0.147135 0.147786 0.148438 0.149089 0.149740 0.150391 0.151042 0.151693 0.152344 0.152995 0.153646 0.154297 0.154948 0.155599 0.156250 0.156901 0.157552 0.158203 0.158854 0.159505 0.160156 0.160807 0.161458 0.162109 0.162760 0.163411 0.164062 0.164714 0.165365 0.166016 0.166667 0.167318 0.167969 0.168620 0.169271 0.169922 0.170573 0.171224 0.171875 0.172526 0.173177 0.173828 0.174479 0.175130 0.175781 0.176432 0.177083 0.177734 0.178385 0.179036 0.179688 0.180339 0.180990 0.181641 0.182292 0.182943 0.183594 0.184245 0.184896 0.185547 0.186198 0.186849 0.187500 0.188151 0.188802 0.189453 0.190104 0.190755 0.191406 0.192057 0.192708 0.193359 0.194010 0.194661 0.195312 0.195964 0.196615 0.197266 0.197917 0.198568 0.199219 0.199870 0.200521 0.201172 0.201823 0.202474 0.203125 0.203776 0.204427 0.205078 0.205729 0.206380 0.207031 0.207682 0.208333 0.208984 0.209635 0.210286 0.210938 0.211589 0.212240 0.212891 0.213542 0.214193 0.214844 0.215495 0.216146 0.216797 0.217448 0.218099 0.218750 0.219401 0.220052 0.220703 0.221354 0.222005 0.222656 0.223307 0.223958 0.224609 0.225260 0.225911 0.226562 0.227214 0.227865 0.228516 0.229167 0.229818 0.230469 0.231120 0.231771 0.232422 0.233073 0.233724 0.234375 0.235026 0.235677
       0.35140        0.35140        0.35140        0.35140        0.35140        0.35140        0.35140        0.35140        0.35140        0.35140        0.35140        0.35140        0.35140        0.35140        0.35140        0.35140        0.35140        0.35140        0.35140        0.35140        0.35140        0.35140        0.35139        0.35140        0.35140        0.35140        0.35140        0.35140        0.35140        0.35140        0.35139        0.35140        0.35140        0.35140        0.35140        0.35139        0.35140        0.35140        0.35140        0.35139        0.35140        0.35140        0.35140        0.35140        0.35140        0.35140        0.35140        0.35140        0.35140        0.35140        0.35140        0.54136        0.93255        0.45483        0.23972        0.27780       -0.01139        0.08008       -0.06885        0.03172        0.20248        0.15751        0.35898        0.24181        0.05476       -0.03544       -0.03841       -0.04067       -0.20413       -0.25077       -0.17695       -0.19217       -0.14137       -0.12688       -0.30777       -0.30053       -0.32888       -0.40474       -0.46998       -0.39249       -0.27884       -0.31528       -0.33577       -0.41176       -0.23408       -0.17757       -0.19101       -0.17715       -0.02515        0.03556        0.15591        0.29009        0.33785        0.43428        0.51729        0.59876        0.59667        0.62883        0.59962        0.56896        0.66193        0.67446        0.72513        0.79874        0.64469        0.53739        0.53748        0.49494        0.43310        0.30178        0.28942        0.22020        0.12210        0.03598        0.05856        0.07316        0.07190        0.02578        0.05783        0.07240        0.16028        0.16674        0.30738        0.39184        0.34909        0.52680        0.60286        0.57528        0.63823        0.72601        0.69196        0.67713        0.66242        0.53324        0.52022        0.41442        0.42215        0.29581        0.25980        0.23147        0.15616        0.08719        0.03265        0.06773        0.16924        0.19513        0.21040        0.24695        0.37177        0.42936        0.46606        0.57333        0.57735        0.57710        0.58807        0.57187        0.53567        0.47674        0.47785        0.37933        0.26800        0.25308        0.34561        0.22694        0.11150        0.20018        0.22142        0.23277        0.33246        0.35030        0.41826        0.46315        0.49041        0.53030        0.50720        0.51911        0.48087        0.50944        0.42303        0.44168        0.36617        0.28572        0.26814        0.23047        0.19649        0.26659        0.27231        0.31969        0.32150        0.38549        0.38032        0.48235        0.47867        0.45982        0.44371        0.46717        0.43271        0.31553        0.33902        0.30899        0.31508        0.28306        0.26001        0.27137        0.33370        0.35449        0.36162        0.37332        0.40622        0.45387        0.45772        0.39716        0.41707        0.35573        0.28523        0.29577        0.33074        0.32239        0.29679        0.27904        0.32827        0.36928        0.37377        0.34596        0.40028        0.41338        0.41299        0.36380        0.35671        0.35205        0.30775        0.30042        0.30479        0.29701        0.28930        0.32029        0.35378        0.38989        0.34674        0.39845        0.36973        0.37665        0.35015        0.32394        0.34450        0.33252        0.32607        0.30276        0.30758        0.30368        0.32311        0.31241        0.35176        0.35332        0.34666        0.32715        0.28915        0.30962        0.32736        0.29626        0.28885        0.27574        0.28728        0.29857        0.35961        0.36413        0.35462        0.37002        0.37919        0.30940        0.30492        0.37647        0.30648        0.29685        0.36082        0.35876        0.33769        0.30528        0.34975        0.37246        0.34508        0.37157        0.32721        0.36546        0.29879        0.31667        0.28871        0.34149        0.33078        0.29998        0.31104        0.35906        0.35246        0.33910        0.35581        0.34835        0.29290        0.27987        0.29384        0.32133        0.31793        0.31967        0.32108        0.26075        0.32733        0.35994        0.31147        0.28995        0.33907        0.30276        0.29511        0.31209        0.34843        0.34287        0.31979        0.29679        0.28545        0.29085        0.33209        0.32850        0.28046        0.26728        0.29779        0.33353        0.30731        0.27095        0.29065        0.26308        0.24123        0.24300        0.25783        0.31383        0.35136        0.26861        0.25372        0.31760        0.32374        0.30707        0.29380        0.27304        0.26913        0.22925        0.33019        0.27071        0.25449        0.25273        0.29005        0.19489        0.19601        0.28839        0.22622        0.25542        0.23964        0.32387        0.27612        0.22167        0.26368        0.16763        0.04269        0.00493       -0.07637       -0.51138       -0.88278
2.215796 2.195430 2.175164 2.154996 2.134928 2.114960 2.095090 2.075320 2.055649 2.036078 2.016605 1.997232 1.977958 1.958784 1.939708 1.920732 1.901856 1.883078 1.864400 1.845821 1.827341 1.808960 1.790679 1.772497 1.754414 1.736431 1.718547 1.700762 1.683076 1.665489 1.648002 1.630614 1.613326 1.596136 1.579046 1.562055 1.545164 1.528371 1.511678 1.495084 1.478590 1.462194 1.445898 1.429701 1.413604 1.397606 1.381706 1.365907 1.350206 1.334605 1.319103 1.375023 2.179794 1.555454 1.032445 1.277201 0.760280 0.883937 0.622626 0.698095 0.973448 0.901676 1.126321 1.029908 0.706972 0.635977 0.483541 0.554818 0.370692 0.115914 0.395777 0.293733 0.352643 0.306880 0.129016 0.057521 0.067418 -0.034599 -0.259873 -0.122083 0.026011 0.060069 -0.072119 -0.218241 0.039808 0.081411 0.093162 0.093016 0.280150 0.318998 0.459149 0.635093 0.738386 0.838687 0.912553 1.082984 1.012803 1.043780 1.108346 0.953860 1.031431 1.090709 1.154361 1.253177 1.099196 0.928128 0.828563 0.747543 0.768170 0.565597 0.453701 0.492871 0.210522 0.199739 0.057209 0.148175 0.173858 0.077208 0.079861 0.072476 0.206051 0.174451 0.348285 0.531075 0.441213 0.547880 0.847842 0.668476 0.797441 0.876575 0.891017 0.825544 0.823257 0.677147 0.655517 0.338688 0.581650 0.300816 0.233670 0.189347 0.120848 -0.029504 -0.059334 -0.111569 0.004486 0.039213 0.139257 0.063806 0.224526 0.382741 0.405131 0.481707 0.565253 0.552585 0.688644 0.484900 0.589552 0.434451 0.459045 0.287789 0.191825 0.058812 0.226415 0.122358 -0.070550 -0.034857 0.074565 -0.021801 0.141154 0.194409 0.211384 0.339626 0.364157 0.395743 0.413030 0.457895 0.394801 0.486689 0.328894 0.384620 0.292936 0.107718 0.187111 0.031614 -0.021134 0.103087 0.067510 0.108324 0.132206 0.268423 0.206769 0.229635 0.420257 0.325998 0.293767 0.227072 0.361076 0.125461 0.115459 0.115506 0.039942 0.092090 -0.005376 -0.021223 0.056783 0.105689 0.141281 0.119570 0.120300 0.218584 0.265165 0.201892 0.163621 0.154405 0.020349 -0.006365 0.010864 0.040846 0.056674 -0.054465 -0.023676 0.083784 0.104639 0.074217 0.057296 0.133373 0.112938 0.108356 0.017642 0.047714 -0.019166 -0.009721 -0.048381 -0.046514 -0.038627 -0.079626 -0.010690 0.084668 0.038624 0.008794 0.134997 0.050767 0.053442 0.052481 -0.018861 0.020245 0.008354 0.021633 -0.031827 -0.028120 -0.010147 -0.021702 0.018431 0.037289 0.095703 0.044010 -0.005049 -0.019414 0.027242 0.053268 -0.083359 0.027694 -0.022565 -0.019291 0.007898 0.091601 0.087246 0.082155 0.106918 0.140448 -0.019657 0.026250 0.184108 -0.053180 0.041536 0.113948 0.084137 0.064987 0.010641 0.108593 0.097901 0.102446 0.111230 0.054890 0.120863 0.060070 0.024497 0.019815 0.070637 0.077205 0.012782 0.060032 0.071054 0.013981 0.102440 0.087230 0.008493 -0.038082 -0.011895 0.007352 0.017842 -0.009314 0.025377 -0.042967 -0.053039 -0.002123 0.059814 -0.035502 -0.033490 0.034456 -0.047225 -0.030374 -0.023881 0.045110 0.064910 -0.024327 -0.017092 -0.037645 -0.038579 0.042772 0.023459 -0.071158 -0.066585 -0.022671 0.041848 -0.086625 -0.078307 -0.078488 -0.091931 -0.149881 -0.092840 -0.130524 0.025468 0.061979 -0.108859 -0.065413 -0.016467 0.041108 0.025089 -0.001590 0.008443 -0.030359 -0.054768 0.151288 0.018011 0.046930 0.022375 0.099078 -0.069145 0.022063 0.124208 0.110528 0.078753 0.041313 0.247507 0.376652 0.302768 0.403390 0.237324 -0.048425 0.010109 -0.099247 -1.198037
0.072396 0.072856 0.074236 0.076536 0.079755 0.083892 0.088946 0.094917 0.101802 0.109599 0.118305 0.127918 0.138432 0.149842 0.162143 0.175327 0.189385 0.204308 0.220084 0.236698 0.254136 0.272379 0.291408 0.311198 0.331725 0.352960 0.374869 0.397418 0.420566 0.444270 0.468483 0.493151 0.518218 0.543622 0.569296 0.595168 0.621160 0.647190 0.673168 0.699002 0.724589 0.749825 0.774599 0.798793 0.822284 0.844946 0.866644 0.887242 0.906597 0.924564 0.940992 0.955732 0.968626 0.979522 0.988262 0.994690 0.998654 1.000000 0.998582 0.994257 0.986888 0.976348 0.962518 0.945291 0.924571 0.900278 0.872349 0.840737 0.805415 0.766379 0.723648 0.677265 0.627301 0.573853 0.517051 0.457051 0.394047 0.328260 0.259949 0.189404 0.116951 0.042947 0.032216 0.108114 0.184293 0.260269 0.335535 0.409555 0.481778 0.551634 0.618540 0.681907 0.741144 0.795663 0.844887 0.888253 0.925223 0.955291 0.977986 0.992886 0.999620 0.997879 0.987422 0.968083 0.939782 0.902523 0.856408 0.801637 0.738513 0.667446 0.588953 0.503660 0.412297 0.315702 0.214808 0.110645 0.004326 0.102959 0.209958 0.315369 0.417853 0.516055 0.608619 0.694211 0.771534 0.839355 0.896527 0.942006 0.974878 0.994378 0.999911 0.991068 0.967647 0.929666 0.877371 0.811247 0.732023 0.640669 0.538393 0.426633 0.307040 0.181463 0.051920 0.079425 0.210302 0.338367 0.461247 0.576585 0.682083 0.775556 0.854976 0.918526 0.964645 0.992069 0.999879 0.987529 0.954881 0.902221 0.830275 0.740214 0.633644 0.512589 0.379465 0.237039 0.088377 0.063213 0.214251 0.361164 0.500373 0.628378 0.741851 0.837727 0.913299 0.966298 0.994973 0.998161 0.975336 0.926658 0.852988 0.755897 0.637646 0.501154 0.349936 0.188026 0.019876 0.149753 0.315930 0.473691 0.618193 0.744863 0.849553 0.928692 0.979411 0.999670 0.988349 0.945320 0.871489 0.768802 0.640214 0.489632 0.321803 0.142194 0.043188 0.227979 0.405682 0.569889 0.714521 0.834061 0.923782 0.979944 0.999973 0.982600 0.927949 0.837584 0.714493 0.563014 0.388714 0.198198 0.001119 0.201293 0.394168 0.571693 0.726280 0.851136 0.940575 0.990302 0.997646 0.961723 0.883536 0.765986 0.613802 0.433376 0.232535 0.020208 0.193952 0.399993 0.588135 0.749242 0.875274 0.959723 0.997962 0.987543 0.928375 0.822797 0.675537 0.493533 0.285646 0.062252 0.165260 0.385045 0.585431 0.755549 0.885929 0.969066 0.999879 0.976063 0.898292 0.770262 0.598570 0.392415 0.163142 0.076356 0.312342 0.531022 0.719357 0.865863 0.961329 0.999450 0.977275 0.895484 0.758438 0.574000 0.353147 0.109340 0.142253 0.385691 0.605266 0.786525 0.917261 0.988358 0.994483 0.934535 0.811826 0.633970 0.412462 0.161995 0.100485 0.356898 0.589269 0.781015 0.918134 0.990290 0.991636 0.921353 0.783825 0.588441 0.349033 0.082930 0.190241 0.450002 0.676535 0.852239 0.963122 0.999978 0.959211 0.843252 0.660504 0.424810 0.154470 0.129131 0.403190 0.645308 0.835354 0.957166 0.999990 0.959502 0.838318 0.645920 0.398007 0.115279 0.178238 0.457205 0.697156 0.876682 0.979374 0.995406 0.922552 0.766554 0.540764 0.265105 0.035635 0.333978 0.602251 0.815181 0.952300 0.999999 0.952958 0.814832 0.598080 0.322952 0.015664 0.294024 0.575700 0.801266 0.947804 0.999977 0.951725 0.807069 0.579907 0.292778 0.025270 0.341581 0.623216 0.840400 0.969728 0.996775 0.917807 0.740396 0.482822 0.172303 0.157798 0.471520 0.734200
1.000000 1.000000 1.000000 1.000000 1.000000 1.000000 1.000000 1.000000 1.000000 1.000000 1.000000 1.000000 1.000000 1.000000 1.000000 1.000000 1.000000 1.000000 1.000000 1.000000 1.000000 1.000000 1.000000 1.000000 1.000000 1.000000 1.000000 1.000000 1.000000 1.000000 1.000000 1.000000 1.000000 1.000000 1.000000 1.000000 1.000000 1.000000 1.000000 1.000000 1.000000 1.000000 1.000000 1.000000 1.000000 1.000000 1.000000 1.000000 1.000000 1.000000 1.000000 1.000000 0.887743 0.887743 0.887743 0.887743 0.887743 0.877424 0.877424 0.877424 0.877424 0.877424 0.877424 0.877424 0.877424 0.877424 0.877424 0.877424 0.877424 0.877424 0.877424 0.877424 0.877424 0.877424 0.877424 0.877424 0.877424 0.877424 0.877424 0.877424 0.877424 0.877424 0.877424 0.877424 0.877424 0.877424 0.877424 0.877424 0.877424 0.877424 0.877424 0.877424 0.877424 0.877424 0.877424 0.877424 0.877424 0.877424 0.877424 0.877424 0.877424 0.919284 0.920384 0.922881 0.923868 0.923690 0.923427 0.920152 0.922085 0.939754 0.939761 0.941150 0.942327 0.943843 0.944921 0.947278 0.947518 0.950143 0.952971 0.953211 0.956931 0.969181 0.965380 0.960005 0.957788 0.958593 0.959502 0.958915 0.957258 0.957378 0.958782 0.958660 0.956602 0.956070 0.955263 0.955147 0.955107 0.954991 0.954902 0.954980 0.954973 0.954644 0.954757 0.953913 0.953849 0.953749 0.952424 0.952082 0.953108 0.955545 0.955748 0.953380 0.957633 0.955902 0.956056 0.956001 0.953611 0.954442 0.954529 0.955161 0.954763 0.951957 0.943703 0.941754 0.928208 0.921036 0.919063 0.918330 0.916987 0.921888 0.921634 0.921106 0.919340 0.916016 0.904935 0.896910 0.878034 0.873768 0.876630 0.881128 0.878552 0.878857 0.866156 0.858746 0.859216 0.856820 0.842893 0.843950 0.840095 0.836949 0.834455 0.826825 0.812774 0.817583 0.824536 0.820505 0.819825 0.824445 0.815159 0.816124 0.815581 0.817609 0.822158 0.821726 0.821194 0.814669 0.809166 0.800824 0.798970 0.788624 0.795354 0.793704 0.794512 0.774925 0.775621 0.768860 0.758116 0.763016 0.774985 0.764048 0.770093 0.766860 0.754318 0.725311 0.709550 0.701613 0.711385 0.710519 0.709452 0.685016 0.695596 0.655659 0.658139 0.645458 0.633706 0.633108 0.640797 0.640578 0.647531 0.657237 0.639206 0.629557 0.569351 0.582026 0.570616 0.561702 0.563762 0.559341 0.541638 0.563806 0.554468 0.553987 0.555775 0.555143 0.522405 0.518394 0.499695 0.505074 0.515245 0.512003 0.515430 0.474872 0.460602 0.457152 0.437688 0.426431 0.413479 0.418192 0.419221 0.429301 0.444708 0.448395 0.447551 0.441922 0.437334 0.391891 0.351374 0.321578 0.297502 0.305780 0.284188 0.309911 0.319276 0.318227 0.311022 0.324390 0.317439 0.317212 0.316679 0.338387 0.267557 0.263955 0.254681 0.265125 0.243492 0.217314 0.232988 0.217359 0.201741 0.209744 0.210451 0.270243 0.247945 0.225437 0.224664 0.262485 0.231810 0.231800 0.239753 0.252180 0.251696 0.268932 0.234740 0.239307 0.234160 0.212442 0.184604 0.208285 0.214387 0.249010 0.249739 0.231248 0.175131 0.145662 0.150422 0.109557 0.118948 0.137514 0.168030 0.173953 0.110048 0.135592 0.135592 0.135592 0.135592 0.135592 0.098852 0.098852 0.098852 0.098852 0.098852 0.098852 0.098852 0.098852 0.098852 0.098852 0.100194 0.100194 0.100194 0.100194 0.100194 0.100194 0.100194 0.100194 0.100194 0.100194 0.100194 0.100194 0.100194 0.100194 0.100194 0.100194 0.100194
0.000000 0.000000 0.000000 0.000000 0.000000 0.000000 0.000000 0.000000 0.000000 0.000000 0.000000 0.000000 0.000000 0.000000 0.000000 0.000000 0.000000 0.000000 0.000000 0.000000 0.000000 9401.000000 0.000000 0.000000 0.000000 0.000000 0.000000 0.000000 0.000000 0.000000 0.000000 0.000000 0.000000 0.000000 0.000000 0.000000 0.000000 0.000000 0.000000 0.000000 0.000000 0.000000 0.000000 0.000000 0.000000 0.000000 0.000000 0.000000 0.000000 0.000000 0.000000 0.000000 0.177471 0.177471 0.177471 0.177471 0.177471 0.191565 0.191565 0.191565 0.191565 0.191565 0.191565 0.191565 0.191565 0.191565 0.191565 0.191565 0.191565 0.191565 0.191565 0.191565 0.191565 0.191565 0.191565 0.191565 0.191565 0.191565 0.191565 0.191565 0.191565 0.191565 0.191565 0.191565 0.191565 0.191565 0.191565 0.191565 0.191565 0.191565 0.191565 0.191565 0.191565 0.191565 0.191565 0.191565 0.191565 0.191565 0.191565 0.191565 0.191565 0.225018 0.225018 0.225018 0.225018 0.225018 0.225018 0.225018 0.225018 0.225018 0.225018 0.225018 0.225018 0.225018 0.225018 0.225018 0.225018 0.225018 0.225018 0.225018 0.225018 0.225018 0.225018 0.225018 0.225018 0.225018 0.225018 0.225018 0.225018 0.225018 0.237356 0.237356 0.237356 0.237356 0.237356 0.237356 0.237356 0.237356 0.237356 0.237356 0.237356 0.237356 0.237356 0.237356 0.237356 0.237356 0.237356 0.237356 0.237356 0.237356 0.237356 0.237356 0.237356 0.237356 0.244339 0.244339 0.244339 0.244339 0.244339 0.244339 0.244339 0.244339 0.244339 0.244339 0.244339 0.244339 0.244339 0.244339 0.244339 0.244339 0.244339 0.244339 0.244339 0.244339 0.244339 0.248069 0.248069 0.248069 0.248069 0.248069 0.248069 0.248069 0.248069 0.248069 0.248069 0.248069 0.248069 0.248069 0.248069 0.248069 0.248069 0.248069 0.248069 0.248069 0.256074 0.256074 0.256074 0.256074 0.256074 0.256074 0.256074 0.256074 0.256074 0.256074 0.256074 0.256074 0.256074 0.256074 0.256074 0.256074 0.256074 0.264906 0.264906 0.264906 0.264906 0.264906 0.264906 0.264906 0.264906 0.264906 0.264906 0.264906 0.264906 0.264906 0.264906 0.264906 0.256074 0.256074 0.256074 0.256074 0.256074 0.256074 0.256074 0.256074 0.256074 0.256074 0.256074 0.256074 0.256074 0.256074 0.256074 0.256074 0.256074 0.256074 0.256074 0.256074 0.256074 0.256074 0.256074 0.256074 0.256074 0.256074 0.256074 0.256074 0.256074 0.260378 0.260378 0.260378 0.260378 0.260378 0.260378 0.260378 0.260378 0.260378 0.260378 0.260378 0.260378 0.260378 0.264906 0.264906 0.264906 0.264906 0.264906 0.264906 0.264906 0.264906 0.264906 0.264906 0.264906 0.264906 0.260378 0.260378 0.260378 0.260378 0.260378 0.260378 0.260378 0.260378 0.260378 0.260378 0.260378 0.260378 0.264906 0.264906 0.264906 0.264906 0.264906 0.264906 0.264906 0.264906 0.264906 0.264906 0.264906 0.248069 0.248069 0.248069 0.248069 0.248069 0.248069 0.248069 0.248069 0.248069 0.248069 0.248069 0.248069 0.264906 0.264906 0.264906 0.264906 0.264906 0.264906 0.264906 0.264906 0.264906 0.264906 0.248069 0.248069 0.248069 0.248069 0.248069 0.248069 0.248069 0.248069 0.248069 0.248069 0.248069 0.256074 0.256074 0.256074 0.256074 0.256074 0.256074 0.256074 0.256074 0.256074 0.256074 0.260378 0.260378 0.260378 0.260378 0.260378 0.260378 0.260378 0.260378 0.260378 0.260378 0.260378 0.260378 0.260378 0.260378 0.260378 0.260378 0.260378
