# Output from CTFFind version 4.1.9, run on 2019-11-03 18:51:53
# Input file: stack3_ub_averaged_1500.mrc ; Number of micrographs: 1
# Pixel size: 3.000 Angstroms ; acceleration voltage: 300.0 keV ; spherical aberration: 0.00 mm ; amplitude contrast: 0.07
# Box size: 512 pixels ; min. res.: 30.0 Angstroms ; max. res.: 5.0 Angstroms ; min. def.: 5000.0 um; max. def. 50000.0 um; num. frames averaged: 1
# 6 lines per micrograph: #1 - spatial frequency (1/Angstroms); #2 - 1D rotational average of spectrum (assuming no astigmatism); #3 - 1D rotational average of spectrum; #4 - CTF fit; #5 - cross-correlation between spectrum and CTF fit; #6 - 2sigma of expected cross correlation of noise
0.000000 0.000651 0.001302 0.001953 0.002604 0.003255 0.003906 0.004557 0.005208 0.005859 0.006510 0.007161 0.007812 0.008464 0.009115 0.009766 0.010417 0.011068 0.011719 0.012370 0.013021 0.013672 0.014323 0.014974 0.015625 0.016276 0.016927 0.017578 0.018229 0.018880 0.019531 0.020182 0.020833 0.021484 0.022135 0.022786 0.023438 0.024089 0.024740 0.025391 0.026042 0.026693 0.027344 0.027995 0.028646 0.029297 0.029948 0.030599 0.031250 0.031901 0.032552 0.033203 0.033854 0.034505 0.035156 0.035807 0.036458 0.037109 0.037760 0.038411 0.039062 0.039714 0.040365 0.041016 0.041667 0.042318 0.042969 0.043620 0.044271 0.044922 0.045573 0.046224 0.046875 0.047526 0.048177 0.048828 0.049479 0.050130 0.050781 0.051432 0.052083 0.052734 0.053385 0.054036 0.054688 0.055339 0.055990 0.056641 0.057292 0.057943 0.058594 0.059245 0.059896 0.060547 0.061198 0.061849 0.062500 0.063151 0.063802 0.064453 0.065104 0.065755 0.066406 0.067057 0.067708 0.068359 0.069010 0.069661 0.070312 0.070964 0.071615 0.072266 0.072917 0.073568 0.074219 0.074870 0.075521 0.076172 0.076823 0.077474 0.078125 0.078776 0.079427 0.080078 0.080729 0.081380 0.082031 0.082682 0.083333 0.083984 0.084635 0.085286 0.085938 0.086589 0.087240 0.087891 0.088542 0.089193 0.089844 0.090495 0.091146 0.091797 0.092448 0.093099 0.093750 0.094401 0.095052 0.095703 0.096354 0.097005 0.097656 0.098307 0.098958 0.099609 0.100260 0.100911 0.101562 0.102214 0.102865 0.103516 0.104167 0.104818 0.105469 0.106120 0.106771 0.107422 0.108073 0.108724 0.109375 0.110026 0.110677 0.111328 0.111979 0.112630 0.113281 0.113932 0.114583 0.115234 0.115885 0.116536 0.117188 0.117839 0.118490 0.119141 0.119792 0.120443 0.121094 0.121745 0.122396 0.123047 0.123698 0.124349 0.125000 0.125651 0.126302 0.126953 0.127604 0.128255 0.128906 0.129557 0.130208 0.130859 0.131510 0.132161 0.132812 0.133464 0.134115 0.134766 0.135417 0.136068 0.136719 0.137370 0.138021 0.138672 0.139323 0.139974 0.140625 0.141276 0.141927 0.142578 0.143229 0.143880 0.144531 0.145182 0.145833 0.146484 0.147135 0.147786 0.148438 0.149089 0.149740 0.150391 0.151042 0.151693 0.152344 0.152995 0.153646 0.154297 0.154948 0.155599 0.156250 0.156901 0.157552 0.158203 0.158854 0.159505 0.160156 0.160807 0.161458 0.162109 0.162760 0.163411 0.164062 0.164714 0.165365 0.166016 0.166667 0.167318 0.167969 0.168620 0.169271 0.169922 0.170573 0.171224 0.171875 0.172526 0.173177 0.173828 0.174479 0.175130 0.175781 0.176432 0.177083 0.177734 0.178385 0.179036 0.179688 0.180339 0.180990 0.181641 0.182292 0.182943 0.183594 0.184245 0.184896 0.185547 0.186198 0.186849 0.187500 0.188151 0.188802 0.189453 0.190104 0.190755 0.191406 0.192057 0.192708 0.193359 0.194010 0.194661 0.195312 0.195964 0.196615 0.197266 0.197917 0.198568 0.199219 0.199870 0.200521 0.201172 0.201823 0.202474 0.203125 0.203776 0.204427 0.205078 0.205729 0.206380 0.207031 0.207682 0.208333 0.208984 0.209635 0.210286 0.210938 0.211589 0.212240 0.212891 0.213542 0.214193 0.214844 0.215495 0.216146 0.216797 0.217448 0.218099 0.218750 0.219401 0.220052 0.220703 0.221354 0.222005 0.222656 0.223307 0.223958 0.224609 0.225260 0.225911 0.226562 0.227214 0.227865 0.228516 0.229167 0.229818 0.230469 0.231120 0.231771 0.232422 0.233073 0.233724 0.234375 0.235026 0.235677
       0.33426        0.33426        0.33426        0.33426        0.33426        0.33426        0.33426        0.33426        0.33426        0.33426        0.33426        0.33426        0.33426        0.33426        0.33426        0.33426        0.33426        0.33426        0.33426        0.33426        0.33426        0.33426        0.33426        0.33426        0.33426        0.33426        0.33426        0.33426        0.33426        0.33426        0.33426        0.33426        0.33426        0.33426        0.33426        0.33426        0.33426        0.33426        0.33426        0.33426        0.33426        0.33426        0.33426        0.33426        0.33426        0.33426        0.33426        0.33426        0.33426        0.33426        0.33426        0.45066        0.75841        0.36384        0.09211       -0.16629       -0.20576       -0.37075       -0.43844       -0.44893       -0.38001       -0.43075       -0.40309       -0.41393       -0.58877       -0.59613       -0.62388       -0.75692       -0.74911       -0.64389       -0.67588       -0.67516       -0.69257       -0.61792       -0.60504       -0.54741       -0.34623       -0.34607       -0.30294       -0.12474        0.01931        0.04871        0.20486        0.21503        0.39109        0.50116        0.59039        0.54012        0.60218        0.57973        0.50495        0.62104        0.60677        0.57226        0.54728        0.47953        0.38578        0.30266        0.17483        0.06787        0.00444       -0.05236       -0.04175       -0.02706        0.00291        0.00714        0.11527        0.16203        0.27022        0.33853        0.42074        0.54068        0.57111        0.64391        0.77459        0.76267        0.79053        0.75776        0.57129        0.49779        0.34725        0.35176        0.21879        0.13542        0.13394        0.08221        0.01513        0.03977        0.08467        0.18461        0.31468        0.33945        0.48591        0.55039        0.61907        0.54827        0.57447        0.57173        0.51668        0.49283        0.48631        0.36539        0.22403        0.16136        0.15287        0.16824        0.10573        0.12818        0.14898        0.21741        0.33341        0.36313        0.41164        0.50189        0.62399        0.51597        0.53245        0.46852        0.40150        0.30249        0.26814        0.23179        0.22831        0.15945        0.18838        0.20659        0.26889        0.38921        0.44811        0.45245        0.49892        0.50574        0.50145        0.46698        0.42408        0.38917        0.27597        0.23558        0.22424        0.22063        0.25997        0.31076        0.37171        0.40693        0.41374        0.42777        0.43295        0.44501        0.40922        0.36616        0.27833        0.31248        0.30283        0.31677        0.26396        0.30999        0.31371        0.40763        0.43363        0.39479        0.39743        0.36072        0.36185        0.34939        0.29504        0.23810        0.25990        0.23867        0.24065        0.31610        0.37165        0.37093        0.38514        0.37397        0.40093        0.38204        0.34727        0.27887        0.29896        0.31683        0.29346        0.33000        0.36845        0.34819        0.38319        0.34739        0.34434        0.32482        0.34244        0.32997        0.35097        0.31246        0.28995        0.32601        0.36031        0.34246        0.32518        0.31161        0.32394        0.31128        0.31973        0.32274        0.32566        0.31504        0.30590        0.33931        0.31553        0.32684        0.31856        0.34201        0.31896        0.29694        0.29250        0.29931        0.30516        0.28844        0.30781        0.36077        0.34254        0.33151        0.28175        0.31575        0.33509        0.32945        0.29502        0.27798        0.27397        0.32062        0.31038        0.31202        0.30901        0.30408        0.28613        0.28500        0.28520        0.28961        0.30830        0.33408        0.31344        0.34462        0.28594        0.26672        0.31697        0.33664        0.32047        0.30113        0.27253        0.29551        0.35415        0.37376        0.35068        0.29420        0.30303        0.35350        0.29231        0.32684        0.32119        0.30995        0.32545        0.31561        0.33387        0.32540        0.27909        0.29148        0.29450        0.29219        0.36244        0.34496        0.31743        0.30938        0.28740        0.26239        0.27532        0.29367        0.30068        0.25009        0.28768        0.28006        0.29164        0.25752        0.23079        0.25141        0.28464        0.33641        0.34940        0.33522        0.34231        0.28625        0.30031        0.28217        0.21130        0.18796        0.26502        0.27668        0.30856        0.36262        0.24645        0.27775        0.20040        0.25366        0.27260        0.33259        0.25077        0.18812        0.21216        0.27076        0.21279        0.19628        0.27115        0.27144        0.21949        0.19419        0.28102        0.24020        0.16787        0.19615        0.30655        0.14890        0.15748        0.23282       -0.00940       -0.40756       -0.50483
2.493196 2.464775 2.436522 2.408438 2.380521 2.352773 2.325192 2.297780 2.270535 2.243459 2.216550 2.189810 2.163238 2.136833 2.110597 2.084529 2.058629 2.032897 2.007333 1.981937 1.956708 1.931648 1.906756 1.882032 1.857477 1.833089 1.808869 1.784817 1.760933 1.737218 1.713670 1.690290 1.667079 1.644035 1.621159 1.598452 1.575912 1.553541 1.531337 1.509302 1.487435 1.465735 1.444204 1.422841 1.401646 1.380618 1.359759 1.339068 1.318545 1.298190 1.278003 1.428237 1.593360 1.277090 0.928769 0.789483 0.692375 0.514338 0.478241 0.362119 0.416378 0.408502 0.401426 0.351800 0.186480 0.167202 0.151090 -0.014195 -0.068463 0.058199 -0.002626 0.017275 -0.065827 0.006124 -0.015449 0.026129 0.212250 0.173823 0.150112 0.309218 0.497667 0.393137 0.653353 0.536536 0.752407 0.747128 0.943366 0.806683 0.807554 0.955823 0.745438 0.902227 0.797537 0.757034 0.801293 0.694008 0.595427 0.543993 0.370165 0.264604 0.204819 0.116100 0.083302 0.160672 0.135233 0.145159 0.165277 0.250815 0.296491 0.364205 0.450023 0.512678 0.558623 0.599960 0.689866 0.712577 0.717253 0.709328 0.550976 0.491011 0.291654 0.329282 0.160351 0.098553 0.054156 0.063508 -0.054757 -0.052660 -0.011893 0.044825 0.181962 0.154374 0.305896 0.319300 0.490428 0.368091 0.394430 0.401434 0.332237 0.335571 0.301824 0.259728 0.055912 0.039971 -0.026473 -0.021497 -0.052067 -0.053952 -0.031742 -0.029168 0.079454 0.147502 0.141677 0.227100 0.310650 0.454934 0.302410 0.328959 0.240603 0.147283 0.095357 0.065640 0.083107 0.008344 -0.031197 0.015790 0.062120 0.103650 0.255824 0.209764 0.252046 0.278035 0.265730 0.241718 0.207891 0.177254 0.088908 0.020930 -0.009607 0.001789 0.003925 0.053762 0.078567 0.168100 0.130491 0.170936 0.164872 0.183460 0.177064 0.131296 0.059113 0.037211 0.056566 0.061717 0.026060 0.030137 0.060338 0.071840 0.146054 0.150107 0.110448 0.098880 0.093200 0.101273 0.024586 0.006160 -0.009044 -0.049381 -0.021659 -0.028166 0.068662 0.075770 0.084968 0.112410 0.070711 0.069855 0.089918 0.034727 -0.012757 0.005579 0.011873 -0.011671 0.052020 0.074635 0.040225 0.077780 0.018164 0.034088 0.038444 0.013864 0.041955 0.027878 -0.010127 0.006806 0.036545 0.037037 0.037938 -0.013692 -0.015665 0.000844 -0.016647 -0.001419 -0.000339 -0.013991 -0.014366 -0.014641 0.016617 -0.011863 -0.005066 0.029723 0.006432 0.034676 -0.027206 -0.001990 -0.009534 0.012809 -0.011397 0.013651 0.044012 0.048205 0.031477 -0.042843 0.044315 0.030473 0.021810 0.005254 -0.029562 -0.015847 0.019671 0.016007 0.014318 0.010791 -0.022556 -0.005892 -0.037265 -0.007385 -0.006600 0.002430 0.021789 -0.022741 0.059811 -0.057380 -0.043873 0.004905 0.020944 0.002118 -0.026374 -0.031751 -0.033689 0.029798 0.076941 0.018071 -0.022718 0.010386 0.021364 -0.028120 0.012678 0.024880 -0.007004 0.024024 -0.012758 0.030100 0.000183 -0.033666 -0.012162 -0.008074 -0.027709 0.079023 0.039978 0.040052 0.046280 -0.010145 -0.017763 0.002133 0.017517 -0.000080 -0.068695 0.004868 -0.006528 -0.009567 -0.041514 -0.051751 -0.014314 -0.029131 0.044924 0.039788 0.023385 0.022875 -0.018364 0.025637 -0.010162 -0.076300 -0.119675 -0.010808 -0.032071 0.017982 0.062342 -0.088158 0.032913 -0.096371 0.017042 0.013865 0.091405 -0.079451 -0.022866 -0.053724 0.030570 -0.013876 -0.070703 0.038815 0.082734 0.017472 -0.041960 0.075207 0.108975 0.101764 0.178366 0.325000 0.144068 0.124967 0.211673 -0.003389 -0.453084
0.072396 0.072980 0.074730 0.077647 0.081730 0.086976 0.093386 0.100956 0.109683 0.119564 0.130593 0.142764 0.156070 0.170501 0.186044 0.202688 0.220414 0.239205 0.259037 0.279883 0.301715 0.324496 0.348188 0.372745 0.398118 0.424249 0.451077 0.478531 0.506534 0.535002 0.563841 0.592951 0.622223 0.651537 0.680767 0.709775 0.738417 0.766536 0.793970 0.820544 0.846078 0.870380 0.893256 0.914499 0.933900 0.951243 0.966309 0.978877 0.988723 0.995626 0.999365 0.999725 0.996498 0.989485 0.978498 0.963364 0.943927 0.920053 0.891630 0.858573 0.820826 0.778367 0.731211 0.679412 0.623066 0.562314 0.497346 0.428400 0.355768 0.279794 0.200878 0.119472 0.036084 0.048725 0.134343 0.220110 0.305319 0.389225 0.471047 0.549975 0.625180 0.695819 0.761048 0.820031 0.871951 0.916023 0.951507 0.977722 0.994056 0.999985 0.995084 0.979041 0.951671 0.912924 0.862901 0.801861 0.730226 0.648592 0.557726 0.458568 0.352230 0.239986 0.123267 0.003640 0.117201 0.237462 0.355270 0.468705 0.575828 0.674715 0.763497 0.840395 0.903764 0.952129 0.984225 0.999038 0.995837 0.974210 0.934090 0.875775 0.799946 0.707675 0.600421 0.480025 0.348687 0.208935 0.063588 0.084293 0.231470 0.374589 0.510261 0.635143 0.746022 0.839908 0.914119 0.966369 0.994851 0.998307 0.976094 0.928232 0.855438 0.759139 0.641469 0.505244 0.353909 0.191470 0.022401 0.148474 0.316107 0.475376 0.621244 0.748924 0.854047 0.932821 0.982190 0.999966 0.984946 0.936997 0.857110 0.747415 0.611159 0.452632 0.277061 0.090460 0.100566 0.289043 0.467877 0.630128 0.769283 0.879538 0.956053 0.995197 0.994738 0.954003 0.873962 0.757257 0.608159 0.432450 0.237222 0.030629 0.178448 0.380765 0.567120 0.728794 0.857958 0.948090 0.994328 0.993771 0.945692 0.851658 0.715540 0.543400 0.343271 0.124817 0.101108 0.322979 0.529186 0.708646 0.851417 0.949287 0.996271 0.989035 0.927170 0.813317 0.653125 0.455032 0.229867 0.009698 0.249830 0.476335 0.675490 0.834897 0.944291 0.996243 0.986725 0.915470 0.786120 0.606115 0.386340 0.140513 0.115610 0.365238 0.591629 0.779230 0.914781 0.988298 0.993875 0.930222 0.800906 0.614244 0.382847 0.122845 0.147198 0.407575 0.638870 0.823429 0.946755 0.998697 0.974378 0.874720 0.706545 0.482216 0.218805 0.063128 0.341117 0.592539 0.796498 0.935590 0.997462 0.976001 0.872022 0.693397 0.454580 0.175523 0.119908 0.405936 0.657108 0.850597 0.968326 0.998744 0.938070 0.790847 0.569745 0.294592 0.009305 0.313438 0.588731 0.808343 0.950347 0.999997 0.951384 0.808250 0.583860 0.299920 0.015429 0.330312 0.612338 0.831922 0.965480 0.998056 0.925125 0.753348 0.500121 0.191973 0.138126 0.454203 0.721217 0.908969 0.995625 0.970375 0.834938 0.603664 0.302191 0.035272 0.369732 0.661887 0.876774 0.988053 0.981359 0.856327 0.626968 0.320279 0.026775 0.371618 0.671249 0.887644 0.992675 0.971920 0.826820 0.574864 0.247670 0.112816 0.459612 0.746799 0.935643 0.999973 0.929966 0.733845 0.437162 0.079660 0.289896 0.620322 0.865104 0.989058 0.973556 0.819535 0.547784 0.196375 0.184502 0.539602 0.816618 0.974000 0.987326 0.853332 0.590840 0.238364 0.151322 0.518981 0.807904 0.972722 0.986720 0.846408 0.572532 0.207305 0.191937 0.561544 0.841762 0.986451 0.970901 0.796308 0.490097 0.101882 0.304343 0.660686 0.906696 0.999788 0.922844 0.687644 0.333404 0.079506 0.479653 0.796870 0.974640
1.000000 1.000000 1.000000 1.000000 1.000000 1.000000 1.000000 1.000000 1.000000 1.000000 1.000000 1.000000 1.000000 1.000000 1.000000 1.000000 1.000000 1.000000 1.000000 1.000000 1.000000 1.000000 1.000000 1.000000 1.000000 1.000000 1.000000 1.000000 1.000000 1.000000 1.000000 1.000000 1.000000 1.000000 1.000000 1.000000 1.000000 1.000000 1.000000 1.000000 1.000000 1.000000 1.000000 1.000000 1.000000 1.000000 1.000000 1.000000 1.000000 1.000000 1.000000 1.000000 0.952020 0.952020 0.952020 0.952020 0.952020 0.952020 0.952020 0.952020 0.952020 0.952020 0.952020 0.952020 0.952020 0.952020 0.952020 0.952020 0.952020 0.952020 0.952020 0.952020 0.952020 0.952020 0.952020 0.952020 0.952020 0.952020 0.952020 0.952020 0.952020 0.952020 0.952020 0.952020 0.952020 0.952020 0.952020 0.952020 0.952020 0.952020 0.941496 0.943433 0.944008 0.943618 0.942780 0.944356 0.944883 0.944694 0.945235 0.945982 0.947476 0.950009 0.951014 0.959063 0.968140 0.967834 0.966753 0.966952 0.965820 0.963317 0.961560 0.963223 0.967900 0.968337 0.969008 0.969158 0.968486 0.969220 0.969053 0.968406 0.967569 0.970184 0.968919 0.968893 0.969195 0.970471 0.970674 0.971081 0.971311 0.971251 0.970910 0.965882 0.965349 0.966023 0.969185 0.967461 0.966022 0.965126 0.963288 0.963395 0.964071 0.964760 0.965094 0.964730 0.963476 0.962149 0.956220 0.948220 0.946137 0.947924 0.948960 0.950176 0.947884 0.948092 0.942275 0.940325 0.945292 0.939419 0.940939 0.941798 0.943651 0.944497 0.942531 0.921586 0.905898 0.905243 0.902802 0.905864 0.904497 0.901893 0.895863 0.896888 0.898119 0.903024 0.900495 0.900514 0.898691 0.898843 0.900648 0.902782 0.906358 0.906586 0.902305 0.896408 0.894629 0.894835 0.896657 0.892435 0.891140 0.890942 0.892877 0.886095 0.888589 0.889151 0.892598 0.894060 0.897020 0.887761 0.888354 0.857885 0.846310 0.841277 0.839906 0.838014 0.826326 0.804252 0.805740 0.800987 0.798330 0.797711 0.794924 0.741906 0.688207 0.677186 0.649388 0.638778 0.620445 0.640442 0.651359 0.640133 0.637606 0.591226 0.585995 0.594469 0.595933 0.582225 0.580242 0.572247 0.547376 0.529538 0.521973 0.533102 0.548976 0.555859 0.527453 0.486376 0.445674 0.398121 0.393009 0.371572 0.347509 0.330269 0.331302 0.349751 0.368251 0.362463 0.344573 0.317270 0.340802 0.337750 0.331795 0.307434 0.336277 0.341397 0.319832 0.338876 0.327541 0.338034 0.295640 0.275094 0.240638 0.211249 0.212453 0.213164 0.230677 0.229834 0.264083 0.293906 0.287968 0.318811 0.269499 0.261763 0.272055 0.290950 0.293336 0.273989 0.236849 0.226100 0.233650 0.228485 0.229799 0.218347 0.200735 0.217509 0.234337 0.228790 0.242400 0.242346 0.188306 0.192853 0.205730 0.212552 0.207256 0.217612 0.216072 0.229674 0.184582 0.182562 0.188173 0.148284 0.156052 0.151830 0.150515 0.082217 0.057041 0.062273 0.053464 0.034836 0.045993 0.016336 -0.025087 -0.001935 0.008080 -0.013179 0.007913 0.042086 0.044792 0.044901 0.030983 0.064804 0.048331 0.032116 0.053875 0.035743 0.003877 0.007559 0.013118 0.020457 -0.004403 0.008240 0.012620 0.006887 0.046425 0.034002 -0.014733 -0.016903 -0.016903 -0.016903 -0.016903 -0.016903 0.001534 0.001534 0.001534 0.001534 0.001534 0.001534 0.001534 0.001534 -0.030380 -0.030380 -0.030380 -0.030380 -0.030380 -0.030380 -0.030380 -0.030380 -0.030380 -0.030380 -0.030380 -0.030380 -0.030380 -0.030380 -0.030380
0.000000 0.000000 0.000000 0.000000 0.000000 0.000000 0.000000 0.000000 0.000000 0.000000 0.000000 0.000000 0.000000 0.000000 0.000000 0.000000 0.000000 0.000000 0.000000 0.000000 0.000000 9401.000000 0.000000 0.000000 0.000000 0.000000 0.000000 0.000000 0.000000 0.000000 0.000000 0.000000 0.000000 0.000000 0.000000 0.000000 0.000000 0.000000 0.000000 0.000000 0.000000 0.000000 0.000000 0.000000 0.000000 0.000000 0.000000 0.000000 0.000000 0.000000 0.000000 0.000000 0.203069 0.203069 0.203069 0.203069 0.203069 0.203069 0.203069 0.203069 0.203069 0.203069 0.203069 0.203069 0.203069 0.203069 0.203069 0.203069 0.203069 0.203069 0.203069 0.203069 0.203069 0.203069 0.203069 0.203069 0.203069 0.203069 0.203069 0.203069 0.203069 0.203069 0.203069 0.203069 0.203069 0.203069 0.203069 0.203069 0.203069 0.203069 0.237356 0.237356 0.237356 0.237356 0.237356 0.237356 0.237356 0.237356 0.237356 0.237356 0.237356 0.237356 0.237356 0.237356 0.237356 0.237356 0.237356 0.237356 0.237356 0.237356 0.237356 0.237356 0.237356 0.237356 0.237356 0.237356 0.256074 0.256074 0.256074 0.256074 0.256074 0.256074 0.256074 0.256074 0.256074 0.256074 0.256074 0.256074 0.256074 0.256074 0.256074 0.256074 0.256074 0.256074 0.256074 0.256074 0.256074 0.256074 0.256074 0.256074 0.256074 0.256074 0.256074 0.256074 0.256074 0.256074 0.256074 0.256074 0.256074 0.256074 0.256074 0.256074 0.256074 0.256074 0.256074 0.256074 0.269680 0.269680 0.269680 0.269680 0.269680 0.269680 0.269680 0.269680 0.269680 0.269680 0.269680 0.269680 0.269680 0.269680 0.269680 0.269680 0.269680 0.269680 0.269680 0.269680 0.269680 0.269680 0.269680 0.269680 0.269680 0.269680 0.269680 0.269680 0.269680 0.269680 0.269680 0.269680 0.269680 0.269680 0.269680 0.269680 0.269680 0.269680 0.269680 0.269680 0.269680 0.269680 0.269680 0.269680 0.269680 0.274721 0.274721 0.274721 0.274721 0.274721 0.274721 0.274721 0.274721 0.274721 0.274721 0.274721 0.274721 0.274721 0.274721 0.274721 0.274721 0.274721 0.274721 0.274721 0.274721 0.274721 0.274721 0.274721 0.274721 0.274721 0.269680 0.269680 0.269680 0.269680 0.269680 0.269680 0.269680 0.269680 0.269680 0.269680 0.269680 0.269680 0.274721 0.274721 0.274721 0.274721 0.274721 0.274721 0.274721 0.274721 0.274721 0.274721 0.274721 0.280056 0.280056 0.280056 0.280056 0.280056 0.280056 0.280056 0.280056 0.280056 0.280056 0.264906 0.264906 0.264906 0.264906 0.264906 0.264906 0.264906 0.264906 0.264906 0.264906 0.264906 0.280056 0.280056 0.280056 0.280056 0.280056 0.280056 0.280056 0.280056 0.280056 0.264906 0.264906 0.264906 0.264906 0.264906 0.264906 0.264906 0.264906 0.264906 0.264906 0.269680 0.269680 0.269680 0.269680 0.269680 0.269680 0.269680 0.269680 0.269680 0.264906 0.264906 0.264906 0.264906 0.264906 0.264906 0.264906 0.264906 0.264906 0.274721 0.274721 0.274721 0.274721 0.274721 0.274721 0.274721 0.274721 0.256074 0.256074 0.256074 0.256074 0.256074 0.256074 0.256074 0.256074 0.256074 0.269680 0.269680 0.269680 0.269680 0.269680 0.269680 0.269680 0.269680 0.264906 0.264906 0.264906 0.264906 0.264906 0.264906 0.264906 0.264906 0.260378 0.260378 0.260378 0.260378 0.260378 0.260378 0.260378 0.260378 0.256074 0.256074 0.256074 0.256074 0.256074 0.256074 0.256074 0.256074 0.256074 0.256074 0.256074 0.256074 0.256074 0.256074 0.256074
