# Output from CTFFind version 4.1.9, run on 2019-11-03 18:51:56
# Input file: stack8_ub_averaged_1500.mrc ; Number of micrographs: 1
# Pixel size: 3.000 Angstroms ; acceleration voltage: 300.0 keV ; spherical aberration: 0.00 mm ; amplitude contrast: 0.07
# Box size: 512 pixels ; min. res.: 30.0 Angstroms ; max. res.: 5.0 Angstroms ; min. def.: 5000.0 um; max. def. 50000.0 um; num. frames averaged: 1
# 6 lines per micrograph: #1 - spatial frequency (1/Angstroms); #2 - 1D rotational average of spectrum (assuming no astigmatism); #3 - 1D rotational average of spectrum; #4 - CTF fit; #5 - cross-correlation between spectrum and CTF fit; #6 - 2sigma of expected cross correlation of noise
0.000000 0.000651 0.001302 0.001953 0.002604 0.003255 0.003906 0.004557 0.005208 0.005859 0.006510 0.007161 0.007812 0.008464 0.009115 0.009766 0.010417 0.011068 0.011719 0.012370 0.013021 0.013672 0.014323 0.014974 0.015625 0.016276 0.016927 0.017578 0.018229 0.018880 0.019531 0.020182 0.020833 0.021484 0.022135 0.022786 0.023438 0.024089 0.024740 0.025391 0.026042 0.026693 0.027344 0.027995 0.028646 0.029297 0.029948 0.030599 0.031250 0.031901 0.032552 0.033203 0.033854 0.034505 0.035156 0.035807 0.036458 0.037109 0.037760 0.038411 0.039062 0.039714 0.040365 0.041016 0.041667 0.042318 0.042969 0.043620 0.044271 0.044922 0.045573 0.046224 0.046875 0.047526 0.048177 0.048828 0.049479 0.050130 0.050781 0.051432 0.052083 0.052734 0.053385 0.054036 0.054688 0.055339 0.055990 0.056641 0.057292 0.057943 0.058594 0.059245 0.059896 0.060547 0.061198 0.061849 0.062500 0.063151 0.063802 0.064453 0.065104 0.065755 0.066406 0.067057 0.067708 0.068359 0.069010 0.069661 0.070312 0.070964 0.071615 0.072266 0.072917 0.073568 0.074219 0.074870 0.075521 0.076172 0.076823 0.077474 0.078125 0.078776 0.079427 0.080078 0.080729 0.081380 0.082031 0.082682 0.083333 0.083984 0.084635 0.085286 0.085938 0.086589 0.087240 0.087891 0.088542 0.089193 0.089844 0.090495 0.091146 0.091797 0.092448 0.093099 0.093750 0.094401 0.095052 0.095703 0.096354 0.097005 0.097656 0.098307 0.098958 0.099609 0.100260 0.100911 0.101562 0.102214 0.102865 0.103516 0.104167 0.104818 0.105469 0.106120 0.106771 0.107422 0.108073 0.108724 0.109375 0.110026 0.110677 0.111328 0.111979 0.112630 0.113281 0.113932 0.114583 0.115234 0.115885 0.116536 0.117188 0.117839 0.118490 0.119141 0.119792 0.120443 0.121094 0.121745 0.122396 0.123047 0.123698 0.124349 0.125000 0.125651 0.126302 0.126953 0.127604 0.128255 0.128906 0.129557 0.130208 0.130859 0.131510 0.132161 0.132812 0.133464 0.134115 0.134766 0.135417 0.136068 0.136719 0.137370 0.138021 0.138672 0.139323 0.139974 0.140625 0.141276 0.141927 0.142578 0.143229 0.143880 0.144531 0.145182 0.145833 0.146484 0.147135 0.147786 0.148438 0.149089 0.149740 0.150391 0.151042 0.151693 0.152344 0.152995 0.153646 0.154297 0.154948 0.155599 0.156250 0.156901 0.157552 0.158203 0.158854 0.159505 0.160156 0.160807 0.161458 0.162109 0.162760 0.163411 0.164062 0.164714 0.165365 0.166016 0.166667 0.167318 0.167969 0.168620 0.169271 0.169922 0.170573 0.171224 0.171875 0.172526 0.173177 0.173828 0.174479 0.175130 0.175781 0.176432 0.177083 0.177734 0.178385 0.179036 0.179688 0.180339 0.180990 0.181641 0.182292 0.182943 0.183594 0.184245 0.184896 0.185547 0.186198 0.186849 0.187500 0.188151 0.188802 0.189453 0.190104 0.190755 0.191406 0.192057 0.192708 0.193359 0.194010 0.194661 0.195312 0.195964 0.196615 0.197266 0.197917 0.198568 0.199219 0.199870 0.200521 0.201172 0.201823 0.202474 0.203125 0.203776 0.204427 0.205078 0.205729 0.206380 0.207031 0.207682 0.208333 0.208984 0.209635 0.210286 0.210938 0.211589 0.212240 0.212891 0.213542 0.214193 0.214844 0.215495 0.216146 0.216797 0.217448 0.218099 0.218750 0.219401 0.220052 0.220703 0.221354 0.222005 0.222656 0.223307 0.223958 0.224609 0.225260 0.225911 0.226562 0.227214 0.227865 0.228516 0.229167 0.229818 0.230469 0.231120 0.231771 0.232422 0.233073 0.233724 0.234375 0.235026 0.235677
       0.33686        0.33686        0.33686        0.33686        0.33686        0.33686        0.33686        0.33686        0.33686        0.33686        0.33686        0.33686        0.33686        0.33686        0.33686        0.33686        0.33686        0.33686        0.33686        0.33686        0.33686        0.33686        0.33686        0.33686        0.33686        0.33686        0.33686        0.33686        0.33686        0.33686        0.33686        0.33686        0.33686        0.33686        0.33686        0.33686        0.33686        0.33686        0.33686        0.33686        0.33686        0.33686        0.33686        0.33686        0.33686        0.33686        0.33686        0.33686        0.33686        0.33686        0.33686        0.73084        0.89798        0.73606        0.37671        0.15935        0.07453        0.01586        0.07053        0.18366        0.20526        0.25480        0.36460        0.22619        0.10098        0.16009        0.07980       -0.24864       -0.04597        0.05686       -0.09023       -0.04818       -0.02713       -0.04625       -0.16811       -0.18929       -0.23414       -0.33034       -0.28351       -0.33333       -0.41048       -0.39556       -0.42775       -0.42107       -0.37796       -0.42569       -0.39107       -0.30644       -0.21983       -0.10990        0.01709        0.01990        0.04555        0.15663        0.27405        0.30518        0.36042        0.46834        0.61123        0.53151        0.62533        0.80330        0.75321        0.62692        0.67716        0.78425        0.75898        0.67887        0.62736        0.64633        0.50055        0.56161        0.48249        0.44659        0.28136        0.15022        0.04572        0.02108        0.02465       -0.04980       -0.08228       -0.10744        0.03351        0.08448        0.08840        0.16187        0.21676        0.32386        0.45911        0.50809        0.49644        0.62603        0.69963        0.77372        0.79189        0.73412        0.66881        0.55032        0.56713        0.55436        0.45031        0.31652        0.31229        0.17807        0.08772        0.12168        0.12846        0.13915        0.09150        0.08269        0.17993        0.23375        0.29529        0.36454        0.39117        0.39538        0.42274        0.50055        0.59581        0.59254        0.54190        0.52089        0.50562        0.41593        0.43560        0.31376        0.29424        0.24707        0.19200        0.15757        0.19068        0.13876        0.17769        0.24055        0.30133        0.29251        0.35603        0.47223        0.44795        0.45376        0.55375        0.56529        0.47368        0.51204        0.42430        0.37218        0.35100        0.31405        0.26414        0.21997        0.21116        0.22664        0.28718        0.27547        0.30563        0.36310        0.37569        0.43339        0.43165        0.44776        0.50178        0.43611        0.37135        0.41878        0.31025        0.29938        0.29377        0.29157        0.27285        0.28364        0.20540        0.24762        0.28191        0.27792        0.36871        0.38598        0.39287        0.44927        0.42299        0.39110        0.37726        0.32472        0.30742        0.28117        0.26732        0.24311        0.29761        0.29154        0.32587        0.30892        0.33820        0.37693        0.39701        0.37143        0.35915        0.39489        0.40687        0.38631        0.32143        0.32843        0.27829        0.26812        0.28007        0.28595        0.30058        0.34442        0.34463        0.28329        0.31768        0.33000        0.31534        0.32520        0.35861        0.29827        0.29460        0.27007        0.24003        0.26162        0.28480        0.29509        0.29297        0.35667        0.37286        0.33373        0.32552        0.31079        0.33165        0.31625        0.32805        0.29997        0.31041        0.32699        0.26819        0.32740        0.33102        0.38117        0.36678        0.31012        0.35200        0.32897        0.30490        0.30591        0.21071        0.28789        0.28359        0.29585        0.33105        0.32617        0.36796        0.32442        0.34617        0.32811        0.26665        0.33469        0.33030        0.31252        0.31589        0.30898        0.25656        0.26805        0.35816        0.37118        0.32787        0.27395        0.30546        0.28170        0.30943        0.28334        0.27717        0.29483        0.35673        0.35380        0.26371        0.23592        0.29709        0.30355        0.29522        0.31640        0.29142        0.28903        0.31788        0.31616        0.26080        0.31268        0.35467        0.32355        0.24797        0.29853        0.26517        0.25015        0.21466        0.19816        0.23428        0.22282        0.27739        0.26535        0.31119        0.27897        0.23763        0.25016        0.22561        0.19891        0.16840        0.21425        0.17287        0.29296        0.35798        0.23185        0.25774        0.19576        0.16352        0.26394        0.28632        0.23322        0.25038        0.36183        0.22853        0.16545        0.33157        0.23508       -0.10114       -0.25437       -0.34788
2.499553 2.476288 2.453137 2.430100 2.407176 2.384365 2.361668 2.339085 2.316616 2.294260 2.272017 2.249889 2.227873 2.205972 2.184184 2.162510 2.140949 2.119502 2.098168 2.076948 2.055842 2.034849 2.013970 1.993204 1.972552 1.952014 1.931589 1.911278 1.891081 1.870997 1.851026 1.831170 1.811427 1.791797 1.772281 1.752879 1.733590 1.714415 1.695354 1.676406 1.657572 1.638851 1.620244 1.601751 1.583371 1.565104 1.546952 1.528913 1.510987 1.493175 1.475477 1.881391 2.160406 1.916181 1.453377 1.281290 1.057200 0.940445 1.034525 1.135846 1.086686 1.213899 1.262965 1.224710 0.894835 1.026250 0.928300 0.452789 0.631866 0.888911 0.647468 0.592106 0.657364 0.640407 0.520735 0.398662 0.359178 0.228884 0.261689 0.169543 0.173715 0.013849 0.056816 0.031924 0.028847 -0.001332 -0.023383 0.049889 0.216928 0.271959 0.468417 0.403785 0.481910 0.548615 0.712557 0.763392 0.798799 0.848431 1.090248 1.058740 1.046885 1.121622 1.378534 1.104402 0.982895 1.178738 1.254841 1.095203 0.992176 1.031933 0.850254 0.893377 0.771795 0.749408 0.632980 0.362169 0.186184 0.205148 0.146931 0.101729 -0.020640 -0.002473 0.044296 0.183036 0.155363 0.231931 0.277091 0.375748 0.590834 0.611533 0.596681 0.707973 0.836873 0.894868 0.989067 0.829680 0.833885 0.630746 0.630640 0.673411 0.562601 0.349032 0.315934 0.148866 0.071006 0.022682 0.065000 0.015763 0.054465 -0.074509 0.057908 0.119554 0.198672 0.258994 0.313003 0.302545 0.360588 0.349233 0.479169 0.575232 0.481768 0.476128 0.497232 0.306904 0.380943 0.245862 0.122403 0.140216 0.044788 0.001912 -0.041012 -0.017223 -0.084552 0.074087 0.057062 0.136788 0.157969 0.194457 0.412721 0.228274 0.375514 0.504849 0.368047 0.362461 0.270142 0.264434 0.175384 0.150524 0.081761 0.025239 0.025669 -0.071600 0.062883 0.057258 0.063127 0.155123 0.135550 0.229852 0.246050 0.206618 0.317488 0.342876 0.199333 0.187260 0.200328 0.083039 0.089810 0.048886 0.091014 0.064184 0.024503 -0.037501 0.030562 0.074243 0.066769 0.189276 0.177449 0.211141 0.279128 0.192252 0.202608 0.117894 0.065381 0.096005 0.035660 0.009173 -0.026966 0.096056 0.039740 0.088568 0.061864 0.105180 0.165964 0.153513 0.159670 0.119222 0.166269 0.184446 0.120453 0.022686 0.079466 -0.018887 0.005590 0.013361 0.025866 0.048434 0.094372 0.072777 -0.026433 0.074611 0.074917 0.063397 0.091511 0.098333 0.013621 0.059926 -0.031114 -0.016095 -0.019643 0.015858 0.017753 0.038671 0.143978 0.084037 0.086789 -0.030830 0.064869 0.028449 0.016469 0.049176 -0.009808 0.006324 0.035615 -0.062404 0.048070 0.049516 0.119286 0.045370 0.022322 0.095019 -0.009046 0.003746 0.020205 -0.130347 0.002701 -0.033775 -0.007040 0.064619 0.005013 0.115672 0.034796 0.042534 -0.009004 -0.037402 0.054398 -0.027135 0.036185 0.025679 -0.031215 -0.059070 -0.053667 0.083777 0.070931 0.058410 -0.062380 -0.012057 0.023244 0.033156 -0.003126 -0.045143 0.055924 0.065076 0.104985 -0.024972 -0.014034 0.060017 0.061120 0.051406 0.120157 0.063727 0.054154 0.071906 0.117132 0.019332 0.121124 0.172762 0.093133 0.061332 0.112386 -0.002255 0.057620 -0.043113 -0.023922 0.017778 -0.032261 0.083441 0.032898 0.104681 0.087944 -0.007464 0.050385 -0.017769 -0.050651 -0.099383 -0.009671 -0.077643 0.102908 0.136377 0.272625 0.319003 0.197088 0.216604 0.332237 0.377084 0.293276 0.289225 0.451566 0.207527 0.141530 0.396875 0.324680 -0.122849 -0.429478
0.072396 0.072823 0.074103 0.076236 0.079222 0.083061 0.087750 0.093290 0.099678 0.106913 0.114992 0.123913 0.133672 0.144265 0.155687 0.167932 0.180993 0.194861 0.209527 0.224980 0.241208 0.258195 0.275925 0.294379 0.313538 0.333376 0.353868 0.374986 0.396696 0.418963 0.441750 0.465012 0.488705 0.512777 0.537175 0.561839 0.586707 0.611711 0.636778 0.661831 0.686788 0.711562 0.736061 0.760188 0.783841 0.806914 0.829295 0.850869 0.871516 0.891112 0.909529 0.926636 0.942300 0.956385 0.968751 0.979262 0.987776 0.994156 0.998262 0.999960 0.999117 0.995605 0.989300 0.980086 0.967854 0.952504 0.933948 0.912108 0.886920 0.858335 0.826319 0.790858 0.751955 0.709636 0.663946 0.614956 0.562760 0.507478 0.449258 0.388274 0.324730 0.258856 0.190915 0.121196 0.050018 0.022270 0.095294 0.168651 0.241916 0.314636 0.386343 0.456546 0.524740 0.590410 0.653031 0.712075 0.767013 0.817325 0.862500 0.902044 0.935485 0.962380 0.982323 0.994945 0.999928 0.997006 0.985974 0.966692 0.939092 0.903184 0.859057 0.806888 0.746940 0.679570 0.605225 0.524446 0.437867 0.346211 0.250289 0.150992 0.049290 0.053782 0.157128 0.259604 0.360027 0.457195 0.549892 0.636913 0.717075 0.789234 0.852307 0.905287 0.947264 0.977439 0.995145 0.999864 0.991238 0.969089 0.933426 0.884455 0.822588 0.748445 0.662854 0.566853 0.461672 0.348737 0.229643 0.106143 0.019878 0.146431 0.271445 0.392809 0.508404 0.616141 0.713997 0.800066 0.872587 0.929995 0.970953 0.994389 0.999534 0.985944 0.953526 0.902557 0.833690 0.747960 0.646782 0.531927 0.405509 0.269951 0.127940 0.017613 0.163636 0.306956 0.444365 0.572699 0.688907 0.790129 0.873777 0.937602 0.979763 0.998893 0.994146 0.965240 0.912490 0.836817 0.739752 0.623416 0.490489 0.344158 0.188050 0.026153 0.137286 0.297863 0.451139 0.592764 0.718599 0.824852 0.908195 0.965879 0.995839 0.996776 0.968227 0.910607 0.825227 0.714286 0.580828 0.428682 0.262358 0.086930 0.092109 0.269020 0.437995 0.593350 0.729723 0.842268 0.926834 0.980139 0.999909 0.984991 0.935434 0.852523 0.738769 0.597867 0.434585 0.254627 0.064445 0.128978 0.318382 0.496499 0.656340 0.791468 0.896282 0.966256 0.998158 0.990220 0.942253 0.855703 0.733643 0.580686 0.402841 0.207296 0.002145 0.203934 0.402046 0.583459 0.739999 0.864428 0.950801 0.994769 0.993826 0.947477 0.857314 0.727007 0.562180 0.370206 0.159896 0.058880 0.275654 0.479849 0.661299 0.810775 0.920459 0.984393 0.998820 0.962444 0.876559 0.745048 0.574254 0.372707 0.150723 0.080097 0.307456 0.519026 0.703109 0.849304 0.949118 0.996494 0.988209 0.924131 0.807306 0.643860 0.442728 0.215193 0.025711 0.265937 0.491225 0.687954 0.843998 0.949482 0.997447 0.984355 0.910389 0.779531 0.599402 0.380869 0.137423 0.115612 0.362041 0.585827 0.772138 0.908362 0.984998 0.996353 0.941024 0.822089 0.646996 0.427162 0.177264 0.085689 0.343507 0.578070 0.772601 0.912907 0.988444 0.993167 0.926063 0.791339 0.598233 0.360438 0.095179 0.177989 0.438627 0.666905 0.845171 0.959318 0.999971 0.963307 0.851483 0.672583 0.440111 0.172037 0.110560 0.385108 0.629351 0.823166 0.950260 0.999586 0.966376 0.852670 0.667275 0.425181 0.146394 0.145653 0.426050 0.670535 0.857603 0.970456 0.998559 0.938713 0.795476 0.580914 0.313669 0.017403 0.281259 0.555088 0.778763 0.931228 0.997750 0.971412 0.853916 0.655591 0.394582
1.000000 1.000000 1.000000 1.000000 1.000000 1.000000 1.000000 1.000000 1.000000 1.000000 1.000000 1.000000 1.000000 1.000000 1.000000 1.000000 1.000000 1.000000 1.000000 1.000000 1.000000 1.000000 1.000000 1.000000 1.000000 1.000000 1.000000 1.000000 1.000000 1.000000 1.000000 1.000000 1.000000 1.000000 1.000000 1.000000 1.000000 1.000000 1.000000 1.000000 1.000000 1.000000 1.000000 1.000000 1.000000 1.000000 1.000000 1.000000 1.000000 1.000000 1.000000 1.000000 0.830668 0.830668 0.830668 0.830668 0.830668 0.830668 0.830668 0.830668 0.805189 0.805189 0.805189 0.805189 0.805189 0.805189 0.805189 0.805189 0.805189 0.805189 0.805189 0.805189 0.805189 0.805189 0.805189 0.805189 0.805189 0.805189 0.805189 0.805189 0.805189 0.805189 0.805189 0.805189 0.805189 0.805189 0.805189 0.805189 0.805189 0.805189 0.805189 0.805189 0.805189 0.805189 0.805189 0.805189 0.805189 0.805189 0.805189 0.805189 0.805189 0.805189 0.805189 0.805189 0.805189 0.954337 0.953385 0.954345 0.953222 0.956300 0.956647 0.956637 0.956533 0.956807 0.956629 0.956667 0.956863 0.957417 0.958678 0.959385 0.960133 0.960117 0.963580 0.962351 0.961234 0.960697 0.957326 0.954967 0.953767 0.953644 0.954217 0.955656 0.956993 0.955966 0.955267 0.955455 0.956610 0.955081 0.953627 0.952792 0.951898 0.952379 0.951222 0.950662 0.950550 0.950913 0.951385 0.952425 0.952688 0.952937 0.953061 0.953131 0.953281 0.952871 0.952414 0.953915 0.950820 0.948442 0.946450 0.943097 0.946268 0.944425 0.944354 0.944095 0.945011 0.944514 0.944461 0.944730 0.934979 0.926496 0.922610 0.909799 0.905915 0.903531 0.903347 0.902368 0.904768 0.903323 0.901009 0.899090 0.892355 0.890188 0.897820 0.894079 0.887793 0.884718 0.887736 0.886953 0.886175 0.878655 0.866789 0.863965 0.861462 0.862179 0.866235 0.855401 0.855602 0.855018 0.849690 0.846108 0.848671 0.846316 0.847480 0.838509 0.836574 0.829205 0.832645 0.826427 0.825374 0.833308 0.836994 0.841723 0.840775 0.836846 0.833370 0.825450 0.768489 0.765528 0.760136 0.765468 0.758506 0.754612 0.742674 0.746790 0.740203 0.737499 0.759951 0.768543 0.778363 0.780358 0.772881 0.764263 0.758774 0.759137 0.764120 0.729500 0.736303 0.736416 0.734174 0.721329 0.722573 0.705139 0.683023 0.674035 0.674152 0.681593 0.684021 0.687840 0.684885 0.681471 0.675657 0.669520 0.661809 0.679867 0.649692 0.645073 0.634869 0.611926 0.620228 0.622107 0.622401 0.631323 0.624299 0.607244 0.599889 0.561579 0.525131 0.527496 0.505904 0.474214 0.484038 0.501324 0.515630 0.456934 0.429745 0.414728 0.399922 0.403950 0.404281 0.473379 0.452430 0.449004 0.456245 0.419945 0.380558 0.366114 0.357859 0.322213 0.288433 0.272862 0.284379 0.289888 0.279214 0.266853 0.240633 0.274916 0.291325 0.311062 0.316856 0.333645 0.317970 0.305836 0.341781 0.357075 0.368288 0.361890 0.377829 0.387812 0.369619 0.361692 0.362032 0.362230 0.387790 0.387906 0.385451 0.408563 0.372162 0.385008 0.365138 0.366917 0.361633 0.325981 0.311852 0.307819 0.301699 0.279793 0.262375 0.261301 0.277336 0.291405 0.277397 0.294936 0.296244 0.296244 0.296244 0.296244 0.296244 0.296244 0.272667 0.272667 0.272667 0.272667 0.272667 0.272667 0.272667 0.272667 0.272667 0.272667 0.258031 0.258031 0.258031 0.258031 0.258031 0.258031 0.258031 0.258031 0.258031 0.258031 0.258031 0.258031 0.258031 0.258031 0.258031
0.000000 0.000000 0.000000 0.000000 0.000000 0.000000 0.000000 0.000000 0.000000 0.000000 0.000000 0.000000 0.000000 0.000000 0.000000 0.000000 0.000000 0.000000 0.000000 0.000000 0.000000 9401.000000 0.000000 0.000000 0.000000 0.000000 0.000000 0.000000 0.000000 0.000000 0.000000 0.000000 0.000000 0.000000 0.000000 0.000000 0.000000 0.000000 0.000000 0.000000 0.000000 0.000000 0.000000 0.000000 0.000000 0.000000 0.000000 0.000000 0.000000 0.000000 0.000000 0.000000 0.172133 0.172133 0.172133 0.172133 0.172133 0.172133 0.172133 0.172133 0.189832 0.189832 0.189832 0.189832 0.189832 0.189832 0.189832 0.189832 0.189832 0.189832 0.189832 0.189832 0.189832 0.189832 0.189832 0.189832 0.189832 0.189832 0.189832 0.189832 0.189832 0.189832 0.189832 0.189832 0.189832 0.189832 0.189832 0.189832 0.189832 0.189832 0.189832 0.189832 0.189832 0.189832 0.189832 0.189832 0.189832 0.189832 0.189832 0.189832 0.189832 0.189832 0.189832 0.189832 0.189832 0.222222 0.222222 0.222222 0.222222 0.222222 0.222222 0.222222 0.222222 0.222222 0.222222 0.222222 0.222222 0.222222 0.222222 0.222222 0.222222 0.222222 0.222222 0.222222 0.222222 0.222222 0.222222 0.222222 0.222222 0.222222 0.222222 0.222222 0.222222 0.222222 0.222222 0.234082 0.234082 0.234082 0.234082 0.234082 0.234082 0.234082 0.234082 0.234082 0.234082 0.234082 0.234082 0.234082 0.234082 0.234082 0.234082 0.234082 0.234082 0.234082 0.234082 0.234082 0.234082 0.234082 0.234082 0.234082 0.240772 0.240772 0.240772 0.240772 0.240772 0.240772 0.240772 0.240772 0.240772 0.240772 0.240772 0.240772 0.240772 0.240772 0.240772 0.240772 0.240772 0.240772 0.240772 0.240772 0.240772 0.240772 0.248069 0.248069 0.248069 0.248069 0.248069 0.248069 0.248069 0.248069 0.248069 0.248069 0.248069 0.248069 0.248069 0.248069 0.248069 0.248069 0.248069 0.248069 0.248069 0.248069 0.248069 0.248069 0.248069 0.248069 0.248069 0.248069 0.248069 0.248069 0.248069 0.248069 0.248069 0.248069 0.248069 0.248069 0.248069 0.248069 0.248069 0.256074 0.256074 0.256074 0.256074 0.256074 0.256074 0.256074 0.256074 0.256074 0.256074 0.256074 0.256074 0.256074 0.256074 0.256074 0.256074 0.256074 0.256074 0.256074 0.256074 0.256074 0.256074 0.256074 0.256074 0.256074 0.256074 0.256074 0.256074 0.256074 0.256074 0.256074 0.256074 0.256074 0.256074 0.256074 0.256074 0.256074 0.256074 0.256074 0.256074 0.256074 0.256074 0.256074 0.256074 0.256074 0.251976 0.251976 0.251976 0.251976 0.251976 0.251976 0.251976 0.251976 0.251976 0.251976 0.251976 0.251976 0.251976 0.251976 0.256074 0.256074 0.256074 0.256074 0.256074 0.256074 0.256074 0.256074 0.256074 0.256074 0.256074 0.256074 0.256074 0.260378 0.260378 0.260378 0.260378 0.260378 0.260378 0.260378 0.260378 0.260378 0.260378 0.260378 0.260378 0.251976 0.251976 0.251976 0.251976 0.251976 0.251976 0.251976 0.251976 0.251976 0.251976 0.251976 0.251976 0.248069 0.248069 0.248069 0.248069 0.248069 0.248069 0.248069 0.248069 0.248069 0.248069 0.248069 0.248069 0.251976 0.251976 0.251976 0.251976 0.251976 0.251976 0.251976 0.251976 0.251976 0.251976 0.251976 0.260378 0.260378 0.260378 0.260378 0.260378 0.260378 0.260378 0.260378 0.260378 0.260378 0.244339 0.244339 0.244339 0.244339 0.244339 0.244339 0.244339 0.244339 0.244339 0.244339 0.244339 0.244339 0.244339 0.244339 0.244339
