# Output from CTFFind version 4.1.9, run on 2019-11-03 18:51:43
# Input file: stack5_ub_averaged_1000.mrc ; Number of micrographs: 1
# Pixel size: 3.000 Angstroms ; acceleration voltage: 300.0 keV ; spherical aberration: 0.00 mm ; amplitude contrast: 0.07
# Box size: 512 pixels ; min. res.: 30.0 Angstroms ; max. res.: 5.0 Angstroms ; min. def.: 5000.0 um; max. def. 50000.0 um; num. frames averaged: 1
# 6 lines per micrograph: #1 - spatial frequency (1/Angstroms); #2 - 1D rotational average of spectrum (assuming no astigmatism); #3 - 1D rotational average of spectrum; #4 - CTF fit; #5 - cross-correlation between spectrum and CTF fit; #6 - 2sigma of expected cross correlation of noise
0.000000 0.000651 0.001302 0.001953 0.002604 0.003255 0.003906 0.004557 0.005208 0.005859 0.006510 0.007161 0.007812 0.008464 0.009115 0.009766 0.010417 0.011068 0.011719 0.012370 0.013021 0.013672 0.014323 0.014974 0.015625 0.016276 0.016927 0.017578 0.018229 0.018880 0.019531 0.020182 0.020833 0.021484 0.022135 0.022786 0.023438 0.024089 0.024740 0.025391 0.026042 0.026693 0.027344 0.027995 0.028646 0.029297 0.029948 0.030599 0.031250 0.031901 0.032552 0.033203 0.033854 0.034505 0.035156 0.035807 0.036458 0.037109 0.037760 0.038411 0.039062 0.039714 0.040365 0.041016 0.041667 0.042318 0.042969 0.043620 0.044271 0.044922 0.045573 0.046224 0.046875 0.047526 0.048177 0.048828 0.049479 0.050130 0.050781 0.051432 0.052083 0.052734 0.053385 0.054036 0.054688 0.055339 0.055990 0.056641 0.057292 0.057943 0.058594 0.059245 0.059896 0.060547 0.061198 0.061849 0.062500 0.063151 0.063802 0.064453 0.065104 0.065755 0.066406 0.067057 0.067708 0.068359 0.069010 0.069661 0.070312 0.070964 0.071615 0.072266 0.072917 0.073568 0.074219 0.074870 0.075521 0.076172 0.076823 0.077474 0.078125 0.078776 0.079427 0.080078 0.080729 0.081380 0.082031 0.082682 0.083333 0.083984 0.084635 0.085286 0.085938 0.086589 0.087240 0.087891 0.088542 0.089193 0.089844 0.090495 0.091146 0.091797 0.092448 0.093099 0.093750 0.094401 0.095052 0.095703 0.096354 0.097005 0.097656 0.098307 0.098958 0.099609 0.100260 0.100911 0.101562 0.102214 0.102865 0.103516 0.104167 0.104818 0.105469 0.106120 0.106771 0.107422 0.108073 0.108724 0.109375 0.110026 0.110677 0.111328 0.111979 0.112630 0.113281 0.113932 0.114583 0.115234 0.115885 0.116536 0.117188 0.117839 0.118490 0.119141 0.119792 0.120443 0.121094 0.121745 0.122396 0.123047 0.123698 0.124349 0.125000 0.125651 0.126302 0.126953 0.127604 0.128255 0.128906 0.129557 0.130208 0.130859 0.131510 0.132161 0.132812 0.133464 0.134115 0.134766 0.135417 0.136068 0.136719 0.137370 0.138021 0.138672 0.139323 0.139974 0.140625 0.141276 0.141927 0.142578 0.143229 0.143880 0.144531 0.145182 0.145833 0.146484 0.147135 0.147786 0.148438 0.149089 0.149740 0.150391 0.151042 0.151693 0.152344 0.152995 0.153646 0.154297 0.154948 0.155599 0.156250 0.156901 0.157552 0.158203 0.158854 0.159505 0.160156 0.160807 0.161458 0.162109 0.162760 0.163411 0.164062 0.164714 0.165365 0.166016 0.166667 0.167318 0.167969 0.168620 0.169271 0.169922 0.170573 0.171224 0.171875 0.172526 0.173177 0.173828 0.174479 0.175130 0.175781 0.176432 0.177083 0.177734 0.178385 0.179036 0.179688 0.180339 0.180990 0.181641 0.182292 0.182943 0.183594 0.184245 0.184896 0.185547 0.186198 0.186849 0.187500 0.188151 0.188802 0.189453 0.190104 0.190755 0.191406 0.192057 0.192708 0.193359 0.194010 0.194661 0.195312 0.195964 0.196615 0.197266 0.197917 0.198568 0.199219 0.199870 0.200521 0.201172 0.201823 0.202474 0.203125 0.203776 0.204427 0.205078 0.205729 0.206380 0.207031 0.207682 0.208333 0.208984 0.209635 0.210286 0.210938 0.211589 0.212240 0.212891 0.213542 0.214193 0.214844 0.215495 0.216146 0.216797 0.217448 0.218099 0.218750 0.219401 0.220052 0.220703 0.221354 0.222005 0.222656 0.223307 0.223958 0.224609 0.225260 0.225911 0.226562 0.227214 0.227865 0.228516 0.229167 0.229818 0.230469 0.231120 0.231771 0.232422 0.233073 0.233724 0.234375 0.235026 0.235677
       0.35334        0.35334        0.35334        0.35334        0.35334        0.35334        0.35334        0.35334        0.35334        0.35334        0.35334        0.35334        0.35334        0.35334        0.35334        0.35334        0.35334        0.35334        0.35334        0.35334        0.35334        0.35334        0.35334        0.35334        0.35334        0.35334        0.35334        0.35334        0.35334        0.35334        0.35334        0.35334        0.35334        0.35334        0.35334        0.35334        0.35334        0.35334        0.35334        0.35334        0.35334        0.35334        0.35334        0.35334        0.35334        0.35334        0.35334        0.35334        0.35334        0.35334        0.35334        0.53389        0.89318        0.66531        0.18870        0.21535        0.03547        0.07877       -0.01946        0.04151        0.17645        0.43833        0.45202        0.23939        0.26579        0.05841        0.00447       -0.02582       -0.13136       -0.13481       -0.10782        0.03243       -0.08737       -0.06052       -0.11557       -0.20538       -0.20179       -0.31087       -0.26006       -0.26880       -0.22833       -0.26266       -0.25718       -0.30110       -0.37574       -0.29973       -0.24739       -0.12827       -0.10101       -0.00853        0.12594        0.17140        0.10120        0.28527        0.43376        0.35547        0.48864        0.65142        0.57544        0.58952        0.67262        0.59136        0.69142        0.71145        0.76052        0.62842        0.63105        0.68417        0.66774        0.50000        0.48744        0.50683        0.38259        0.29166        0.18535        0.13977        0.09513        0.02380        0.13272        0.06472        0.08365        0.07377        0.13877        0.10783        0.20331        0.26743        0.34830        0.38643        0.46602        0.56391        0.57833        0.67691        0.72799        0.63604        0.62745        0.68355        0.58165        0.48105        0.49190        0.40611        0.38070        0.32146        0.24239        0.19210        0.16421        0.16863        0.07041        0.15466        0.17658        0.14407        0.16354        0.29107        0.40384        0.42439        0.45253        0.47383        0.51700        0.59208        0.54081        0.57545        0.56110        0.49210        0.42621        0.35353        0.38654        0.29869        0.22480        0.27216        0.28400        0.22848        0.18852        0.27071        0.29744        0.31707        0.37968        0.42024        0.47129        0.47375        0.52457        0.54240        0.44564        0.42027        0.41558        0.45727        0.40255        0.28526        0.31354        0.28106        0.29238        0.29898        0.32599        0.30527        0.29980        0.35007        0.32886        0.38307        0.44490        0.47180        0.40284        0.37369        0.44107        0.42481        0.35668        0.34218        0.32531        0.34914        0.34958        0.33123        0.26693        0.33070        0.37450        0.32554        0.34237        0.41542        0.44336        0.43423        0.45506        0.39904        0.39242        0.36622        0.30390        0.29892        0.24641        0.26206        0.31746        0.30247        0.34614        0.33710        0.34849        0.36527        0.36748        0.37787        0.40408        0.40496        0.37419        0.35967        0.33580        0.33029        0.30426        0.34297        0.30370        0.29978        0.31239        0.35100        0.36754        0.38444        0.40781        0.37697        0.37135        0.34270        0.31622        0.28781        0.30169        0.28952        0.31051        0.29941        0.31869        0.31708        0.34570        0.31798        0.35309        0.33557        0.38864        0.34459        0.34367        0.29760        0.32129        0.28744        0.29603        0.28950        0.30101        0.32313        0.31887        0.32249        0.31034        0.32046        0.33250        0.37470        0.30521        0.32311        0.29066        0.33224        0.30983        0.33153        0.32835        0.33207        0.33680        0.32630        0.34971        0.37438        0.34481        0.31749        0.31160        0.34032        0.29718        0.34897        0.30683        0.32879        0.37215        0.40756        0.35394        0.38806        0.34279        0.32890        0.31031        0.34017        0.31677        0.31933        0.34005        0.29376        0.28536        0.32181        0.35258        0.30400        0.31563        0.35165        0.34707        0.26362        0.29507        0.35051        0.30038        0.21891        0.32241        0.31391        0.25431        0.27479        0.26765        0.30575        0.27531        0.23660        0.20295        0.26415        0.27080        0.25895        0.32160        0.39831        0.33155        0.27829        0.27747        0.26734        0.29805        0.25499        0.24797        0.25742        0.23527        0.27143        0.24890        0.26292        0.26450        0.27727        0.27258        0.29421        0.26176        0.18625        0.22969        0.23344        0.26018        0.20946        0.19371        0.09934        0.16508       -0.42600       -0.79682
2.941133 2.912308 2.883628 2.855093 2.826704 2.798460 2.770362 2.742408 2.714600 2.686937 2.659420 2.632048 2.604821 2.577739 2.550803 2.524012 2.497367 2.470867 2.444511 2.418302 2.392238 2.366319 2.340545 2.314916 2.289433 2.264096 2.238903 2.213856 2.188954 2.164197 2.139586 2.115120 2.090800 2.066624 2.042594 2.018710 1.994970 1.971376 1.947928 1.924624 1.901466 1.878453 1.855586 1.832863 1.810287 1.787855 1.765569 1.743428 1.721432 1.699582 1.677877 1.754648 2.511720 2.266968 1.289418 1.308103 1.154486 1.268924 0.947819 0.916690 1.143624 1.637199 1.504328 1.376091 1.176663 0.969349 0.812130 0.746727 0.570552 0.590403 0.521892 0.793177 0.611857 0.587368 0.493861 0.332656 0.291376 0.182016 0.184132 0.186327 0.189719 0.088527 0.169006 0.048951 -0.063369 0.028061 -0.004473 0.216046 0.262248 0.325156 0.567405 0.654337 0.484659 0.703860 0.915975 0.916076 0.936407 1.292285 1.182020 1.066963 1.320185 1.186782 1.119968 1.263954 1.409618 1.095509 1.034097 1.199583 1.238509 0.849845 0.873690 0.868124 0.740673 0.511212 0.406400 0.251384 0.254444 -0.041131 0.187081 0.158663 0.111273 0.034029 0.220245 0.065467 0.191344 0.253409 0.495958 0.444982 0.508963 0.778055 0.675499 0.862800 0.995292 0.874572 0.688759 0.962770 0.779419 0.510367 0.571144 0.410755 0.456539 0.280693 0.106185 0.143499 -0.057031 0.041846 -0.155531 -0.071313 -0.012082 -0.043517 -0.116022 0.050244 0.291722 0.310027 0.351386 0.349687 0.434946 0.514735 0.536759 0.490293 0.468279 0.494050 0.288323 0.152390 0.289162 0.135844 -0.020167 -0.060251 0.058896 -0.012208 -0.136778 -0.042159 0.051285 0.010622 0.137823 0.162586 0.293392 0.289969 0.298026 0.473929 0.326437 0.290708 0.187562 0.331526 0.274577 0.094876 0.058269 0.035110 0.042194 0.014711 0.133689 0.061560 0.041346 0.044483 0.157317 0.079043 0.193196 0.319430 0.225716 0.085932 0.241307 0.179218 0.170892 0.046269 0.022760 0.099861 0.081456 0.066648 -0.030457 -0.031520 0.098318 0.082592 -0.018114 0.112705 0.170049 0.241049 0.154767 0.240568 0.127713 0.118983 0.042568 -0.025048 -0.026177 -0.140139 0.007209 -0.003656 0.017481 0.049815 0.077843 0.072764 0.130139 0.085168 0.122877 0.132948 0.157903 0.091678 0.049041 0.078975 -0.002514 0.046050 0.022430 0.041792 -0.054062 0.052524 0.071835 0.115033 0.145920 0.186536 0.120115 0.123478 0.050103 0.012493 0.007967 0.022904 0.002676 0.049049 -0.004972 0.048201 0.060064 0.051236 0.050106 0.115137 0.082511 0.197552 0.004811 0.093633 0.006988 0.068297 -0.033204 0.034861 -0.020038 0.009344 0.056477 0.050968 0.024570 0.032877 0.006073 0.089062 0.095000 -0.015775 0.014703 -0.037422 0.036180 0.039442 0.001555 0.057107 0.012806 0.048182 0.030342 0.072066 0.081632 -0.005632 0.019208 -0.022156 0.064781 -0.072080 0.061989 -0.040182 0.004922 0.100248 0.196355 0.049368 0.110067 -0.006738 0.038235 -0.013091 0.028363 0.046120 -0.052502 0.072407 -0.068939 -0.035304 0.119815 0.069236 0.014101 0.025842 0.123260 0.049143 -0.052366 0.090290 0.079562 0.022105 -0.160149 0.104652 0.013428 -0.082118 -0.014668 0.011512 0.070859 -0.025912 -0.061287 -0.093339 0.058730 0.010478 -0.025465 0.088634 0.261694 0.077226 0.075295 0.087419 -0.010181 0.108942 0.039229 0.076164 0.054299 0.095553 0.096969 0.078910 0.186909 0.137424 0.163899 0.221380 0.160145 0.250551 0.114129 0.304584 0.365446 0.394984 0.322477 0.280310 0.015771 0.261097 -1.217363
0.072396 0.072830 0.074133 0.076304 0.079343 0.083249 0.088021 0.093659 0.100159 0.107522 0.115744 0.124821 0.134752 0.145530 0.157152 0.169610 0.182897 0.197005 0.211923 0.227640 0.244143 0.261416 0.279442 0.298201 0.317672 0.337829 0.358646 0.380092 0.402132 0.424731 0.447847 0.471435 0.495448 0.519832 0.544530 0.569480 0.594618 0.619870 0.645162 0.670412 0.695535 0.720439 0.745027 0.769200 0.792850 0.815866 0.838133 0.859529 0.879929 0.899206 0.917226 0.933853 0.948950 0.962375 0.973986 0.983641 0.991195 0.996508 0.999438 0.999848 0.997603 0.992575 0.984640 0.973683 0.959598 0.942288 0.921667 0.897665 0.870224 0.839304 0.804882 0.766953 0.725535 0.680667 0.632412 0.580858 0.526119 0.468338 0.407683 0.344355 0.278581 0.210621 0.140765 0.069330 0.003333 0.076846 0.150805 0.224776 0.298304 0.370910 0.442094 0.511343 0.578128 0.641912 0.702152 0.758308 0.809842 0.856228 0.896955 0.931537 0.959513 0.980461 0.993999 0.999793 0.997566 0.987100 0.968247 0.940932 0.905158 0.861015 0.808677 0.748414 0.680588 0.605656 0.524175 0.436792 0.344253 0.247390 0.147121 0.044443 0.059577 0.163812 0.267084 0.368178 0.465856 0.558874 0.645992 0.726001 0.797732 0.860084 0.912032 0.952658 0.981161 0.996879 0.999307 0.988108 0.963134 0.924432 0.872256 0.807074 0.729569 0.640641 0.541402 0.433166 0.317443 0.195914 0.070418 0.057077 0.184500 0.309710 0.430534 0.544802 0.650385 0.745244 0.827466 0.895312 0.947253 0.982014 0.998607 0.996369 0.974983 0.934505 0.875379 0.798441 0.704922 0.596436 0.474963 0.342823 0.202635 0.057274 0.090187 0.236532 0.378477 0.512743 0.636132 0.745606 0.838368 0.911942 0.964244 0.993648 0.999052 0.979918 0.936315 0.868936 0.779108 0.668778 0.540488 0.397322 0.242854 0.081057 0.083788 0.247199 0.404619 0.551538 0.683628 0.796877 0.887719 0.953153 0.990860 0.999295 0.977758 0.926454 0.846510 0.739982 0.609808 0.459759 0.294333 0.118641 0.061747 0.240969 0.413062 0.572158 0.712690 0.829598 0.918520 0.975969 0.999488 0.987771 0.940749 0.859630 0.746899 0.606266 0.442565 0.261606 0.069987 0.125140 0.316325 0.496105 0.657301 0.793311 0.898393 0.967924 0.998630 0.988752 0.938175 0.848476 0.722912 0.566329 0.385002 0.186408 0.021070 0.228481 0.426695 0.606796 0.760500 0.880546 0.961060 0.997868 0.988736 0.933535 0.834301 0.695208 0.522417 0.323841 0.108802 0.112383 0.328893 0.529925 0.705242 0.845706 0.943778 0.993950 0.993083 0.940639 0.838775 0.692307 0.508518 0.296832 0.068360 0.164665 0.389528 0.593736 0.765705 0.895455 0.975203 0.999874 0.967454 0.879195 0.739617 0.556330 0.339656 0.102091 0.142396 0.379177 0.593823 0.773006 0.905351 0.982176 0.998122 0.951555 0.844769 0.683935 0.478796 0.242122 0.011051 0.264349 0.501102 0.705472 0.863503 0.964126 0.999969 0.967949 0.869585 0.711000 0.502602 0.258456 0.004629 0.268229 0.513578 0.722917 0.880802 0.975275 0.998827 0.949048 0.828924 0.646731 0.415530 0.152295 0.123300 0.390328 0.628196 0.818244 0.945243 0.998669 0.973636 0.871407 0.699425 0.470846 0.203602 0.080958 0.359754 0.609815 0.810220 0.943849 0.998930 0.970126 0.859132 0.674671 0.431898 0.151222 0.143362 0.426295 0.672660 0.860412 0.972380 0.997924 0.934004 0.785623 0.565527 0.293198 0.006804 0.307005 0.579539 0.798709 0.943489 0.999578 0.960908 0.830384 0.619776 0.348759 0.043150 0.267489 0.552707
1.000000 1.000000 1.000000 1.000000 1.000000 1.000000 1.000000 1.000000 1.000000 1.000000 1.000000 1.000000 1.000000 1.000000 1.000000 1.000000 1.000000 1.000000 1.000000 1.000000 1.000000 1.000000 1.000000 1.000000 1.000000 1.000000 1.000000 1.000000 1.000000 1.000000 1.000000 1.000000 1.000000 1.000000 1.000000 1.000000 1.000000 1.000000 1.000000 1.000000 1.000000 1.000000 1.000000 1.000000 1.000000 1.000000 1.000000 1.000000 1.000000 1.000000 1.000000 1.000000 0.829947 0.829947 0.829947 0.829947 0.829947 0.829947 0.829947 0.823530 0.823530 0.823530 0.823530 0.823530 0.823530 0.823530 0.823530 0.823530 0.823530 0.823530 0.823530 0.823530 0.823530 0.823530 0.823530 0.823530 0.823530 0.823530 0.823530 0.823530 0.823530 0.823530 0.823530 0.823530 0.823530 0.823530 0.823530 0.823530 0.823530 0.823530 0.823530 0.823530 0.823530 0.823530 0.823530 0.823530 0.823530 0.823530 0.823530 0.823530 0.823530 0.823530 0.823530 0.823530 0.938444 0.937175 0.938895 0.937906 0.934942 0.939456 0.935974 0.939463 0.940566 0.940763 0.941385 0.942166 0.943360 0.944589 0.950065 0.952073 0.952081 0.952323 0.950922 0.953148 0.950034 0.946947 0.939008 0.931581 0.927470 0.924900 0.926755 0.928283 0.926296 0.926857 0.928777 0.929170 0.925799 0.924719 0.923070 0.922226 0.920699 0.919918 0.920376 0.921536 0.921530 0.921354 0.919507 0.919383 0.919805 0.919495 0.919335 0.917006 0.918554 0.921300 0.892923 0.887176 0.880078 0.879112 0.872976 0.880132 0.878911 0.876757 0.874646 0.875081 0.875739 0.871670 0.839899 0.839010 0.834042 0.829592 0.810344 0.797640 0.796306 0.797102 0.796775 0.806454 0.809836 0.810723 0.808070 0.783048 0.768103 0.766406 0.763093 0.767055 0.766944 0.771702 0.770270 0.768787 0.763627 0.757385 0.754762 0.756231 0.744674 0.737930 0.732790 0.730242 0.729640 0.729432 0.731112 0.728898 0.732252 0.739004 0.740504 0.731254 0.725155 0.729165 0.732693 0.728200 0.724914 0.721673 0.714781 0.708707 0.700898 0.696286 0.696167 0.702618 0.699033 0.698401 0.694857 0.691588 0.655869 0.685822 0.690556 0.693456 0.707963 0.715624 0.719671 0.717356 0.708490 0.691000 0.690824 0.684064 0.673663 0.676683 0.664061 0.669281 0.670293 0.667402 0.687381 0.671426 0.664727 0.665153 0.662592 0.671534 0.653755 0.645983 0.623211 0.617649 0.597232 0.590398 0.584348 0.602092 0.580657 0.569298 0.556668 0.567490 0.563514 0.569544 0.575564 0.584821 0.585461 0.580507 0.568345 0.550935 0.542155 0.465339 0.479538 0.468960 0.456518 0.465191 0.488242 0.512861 0.501874 0.506692 0.502025 0.508680 0.492848 0.474994 0.457537 0.450603 0.410907 0.423747 0.454106 0.465588 0.459713 0.434796 0.391996 0.339976 0.331092 0.316841 0.278714 0.301323 0.314666 0.313006 0.308701 0.309610 0.262527 0.286322 0.295830 0.286938 0.289557 0.217117 0.241248 0.254707 0.260939 0.267210 0.206683 0.195523 0.208463 0.201558 0.162362 0.182468 0.226584 0.227590 0.191975 0.196553 0.189521 0.181329 0.153682 0.131559 0.127865 0.134072 0.086703 0.052908 0.055241 0.029030 0.057636 0.027585 0.051757 0.099808 0.118316 0.096311 0.120736 0.120736 0.120736 0.057252 0.057252 0.057252 0.057252 0.057252 0.057252 0.057252 0.057252 0.057252 0.057252 0.129544 0.129544 0.129544 0.129544 0.129544 0.129544 0.129544 0.129544 0.129544 0.129544 0.129544 0.129544 0.129544 0.129544 0.129544 0.129544 0.129544 0.129544
0.000000 0.000000 0.000000 0.000000 0.000000 0.000000 0.000000 0.000000 0.000000 0.000000 0.000000 0.000000 0.000000 0.000000 0.000000 0.000000 0.000000 0.000000 0.000000 0.000000 0.000000 9401.000000 0.000000 0.000000 0.000000 0.000000 0.000000 0.000000 0.000000 0.000000 0.000000 0.000000 0.000000 0.000000 0.000000 0.000000 0.000000 0.000000 0.000000 0.000000 0.000000 0.000000 0.000000 0.000000 0.000000 0.000000 0.000000 0.000000 0.000000 0.000000 0.000000 0.000000 0.173422 0.173422 0.173422 0.173422 0.173422 0.173422 0.173422 0.189832 0.189832 0.189832 0.189832 0.189832 0.189832 0.189832 0.189832 0.189832 0.189832 0.189832 0.189832 0.189832 0.189832 0.189832 0.189832 0.189832 0.189832 0.189832 0.189832 0.189832 0.189832 0.189832 0.189832 0.189832 0.189832 0.189832 0.189832 0.189832 0.189832 0.189832 0.189832 0.189832 0.189832 0.189832 0.189832 0.189832 0.189832 0.189832 0.189832 0.189832 0.189832 0.189832 0.189832 0.189832 0.222222 0.222222 0.222222 0.222222 0.222222 0.222222 0.222222 0.222222 0.222222 0.222222 0.222222 0.222222 0.222222 0.222222 0.222222 0.222222 0.222222 0.222222 0.222222 0.222222 0.222222 0.222222 0.222222 0.222222 0.222222 0.222222 0.222222 0.222222 0.222222 0.222222 0.234082 0.234082 0.234082 0.234082 0.234082 0.234082 0.234082 0.234082 0.234082 0.234082 0.234082 0.234082 0.234082 0.234082 0.234082 0.234082 0.234082 0.234082 0.234082 0.234082 0.234082 0.234082 0.234082 0.234082 0.234082 0.244339 0.244339 0.244339 0.244339 0.244339 0.244339 0.244339 0.244339 0.244339 0.244339 0.244339 0.244339 0.244339 0.244339 0.244339 0.244339 0.244339 0.244339 0.244339 0.244339 0.244339 0.248069 0.248069 0.248069 0.248069 0.248069 0.248069 0.248069 0.248069 0.248069 0.248069 0.248069 0.248069 0.248069 0.248069 0.248069 0.248069 0.248069 0.248069 0.248069 0.248069 0.248069 0.248069 0.248069 0.248069 0.248069 0.248069 0.248069 0.248069 0.248069 0.248069 0.248069 0.248069 0.248069 0.248069 0.248069 0.248069 0.248069 0.256074 0.256074 0.256074 0.256074 0.256074 0.256074 0.256074 0.256074 0.256074 0.256074 0.256074 0.256074 0.256074 0.256074 0.256074 0.256074 0.256074 0.256074 0.256074 0.256074 0.256074 0.256074 0.256074 0.256074 0.256074 0.256074 0.256074 0.256074 0.256074 0.256074 0.256074 0.256074 0.256074 0.256074 0.256074 0.256074 0.256074 0.256074 0.256074 0.256074 0.256074 0.256074 0.256074 0.256074 0.256074 0.260378 0.260378 0.260378 0.260378 0.260378 0.260378 0.260378 0.260378 0.260378 0.260378 0.260378 0.260378 0.260378 0.256074 0.256074 0.256074 0.256074 0.256074 0.256074 0.256074 0.256074 0.256074 0.256074 0.256074 0.256074 0.256074 0.248069 0.248069 0.248069 0.248069 0.248069 0.248069 0.248069 0.248069 0.248069 0.248069 0.248069 0.248069 0.248069 0.264906 0.264906 0.264906 0.264906 0.264906 0.264906 0.264906 0.264906 0.264906 0.264906 0.264906 0.248069 0.248069 0.248069 0.248069 0.248069 0.248069 0.248069 0.248069 0.248069 0.248069 0.248069 0.248069 0.251976 0.251976 0.251976 0.251976 0.251976 0.251976 0.251976 0.251976 0.251976 0.251976 0.251976 0.260378 0.260378 0.260378 0.260378 0.260378 0.260378 0.260378 0.260378 0.260378 0.260378 0.244339 0.244339 0.244339 0.244339 0.244339 0.244339 0.244339 0.244339 0.244339 0.244339 0.244339 0.244339 0.244339 0.244339 0.244339 0.244339 0.244339 0.244339
