# Output from CTFFind version 4.1.9, run on 2019-11-03 18:52:16
# Input file: stack18_ub_averaged_3000.mrc ; Number of micrographs: 1
# Pixel size: 3.000 Angstroms ; acceleration voltage: 300.0 keV ; spherical aberration: 0.00 mm ; amplitude contrast: 0.07
# Box size: 512 pixels ; min. res.: 30.0 Angstroms ; max. res.: 5.0 Angstroms ; min. def.: 5000.0 um; max. def. 50000.0 um; num. frames averaged: 1
# 6 lines per micrograph: #1 - spatial frequency (1/Angstroms); #2 - 1D rotational average of spectrum (assuming no astigmatism); #3 - 1D rotational average of spectrum; #4 - CTF fit; #5 - cross-correlation between spectrum and CTF fit; #6 - 2sigma of expected cross correlation of noise
0.000000 0.000651 0.001302 0.001953 0.002604 0.003255 0.003906 0.004557 0.005208 0.005859 0.006510 0.007161 0.007812 0.008464 0.009115 0.009766 0.010417 0.011068 0.011719 0.012370 0.013021 0.013672 0.014323 0.014974 0.015625 0.016276 0.016927 0.017578 0.018229 0.018880 0.019531 0.020182 0.020833 0.021484 0.022135 0.022786 0.023438 0.024089 0.024740 0.025391 0.026042 0.026693 0.027344 0.027995 0.028646 0.029297 0.029948 0.030599 0.031250 0.031901 0.032552 0.033203 0.033854 0.034505 0.035156 0.035807 0.036458 0.037109 0.037760 0.038411 0.039062 0.039714 0.040365 0.041016 0.041667 0.042318 0.042969 0.043620 0.044271 0.044922 0.045573 0.046224 0.046875 0.047526 0.048177 0.048828 0.049479 0.050130 0.050781 0.051432 0.052083 0.052734 0.053385 0.054036 0.054688 0.055339 0.055990 0.056641 0.057292 0.057943 0.058594 0.059245 0.059896 0.060547 0.061198 0.061849 0.062500 0.063151 0.063802 0.064453 0.065104 0.065755 0.066406 0.067057 0.067708 0.068359 0.069010 0.069661 0.070312 0.070964 0.071615 0.072266 0.072917 0.073568 0.074219 0.074870 0.075521 0.076172 0.076823 0.077474 0.078125 0.078776 0.079427 0.080078 0.080729 0.081380 0.082031 0.082682 0.083333 0.083984 0.084635 0.085286 0.085938 0.086589 0.087240 0.087891 0.088542 0.089193 0.089844 0.090495 0.091146 0.091797 0.092448 0.093099 0.093750 0.094401 0.095052 0.095703 0.096354 0.097005 0.097656 0.098307 0.098958 0.099609 0.100260 0.100911 0.101562 0.102214 0.102865 0.103516 0.104167 0.104818 0.105469 0.106120 0.106771 0.107422 0.108073 0.108724 0.109375 0.110026 0.110677 0.111328 0.111979 0.112630 0.113281 0.113932 0.114583 0.115234 0.115885 0.116536 0.117188 0.117839 0.118490 0.119141 0.119792 0.120443 0.121094 0.121745 0.122396 0.123047 0.123698 0.124349 0.125000 0.125651 0.126302 0.126953 0.127604 0.128255 0.128906 0.129557 0.130208 0.130859 0.131510 0.132161 0.132812 0.133464 0.134115 0.134766 0.135417 0.136068 0.136719 0.137370 0.138021 0.138672 0.139323 0.139974 0.140625 0.141276 0.141927 0.142578 0.143229 0.143880 0.144531 0.145182 0.145833 0.146484 0.147135 0.147786 0.148438 0.149089 0.149740 0.150391 0.151042 0.151693 0.152344 0.152995 0.153646 0.154297 0.154948 0.155599 0.156250 0.156901 0.157552 0.158203 0.158854 0.159505 0.160156 0.160807 0.161458 0.162109 0.162760 0.163411 0.164062 0.164714 0.165365 0.166016 0.166667 0.167318 0.167969 0.168620 0.169271 0.169922 0.170573 0.171224 0.171875 0.172526 0.173177 0.173828 0.174479 0.175130 0.175781 0.176432 0.177083 0.177734 0.178385 0.179036 0.179688 0.180339 0.180990 0.181641 0.182292 0.182943 0.183594 0.184245 0.184896 0.185547 0.186198 0.186849 0.187500 0.188151 0.188802 0.189453 0.190104 0.190755 0.191406 0.192057 0.192708 0.193359 0.194010 0.194661 0.195312 0.195964 0.196615 0.197266 0.197917 0.198568 0.199219 0.199870 0.200521 0.201172 0.201823 0.202474 0.203125 0.203776 0.204427 0.205078 0.205729 0.206380 0.207031 0.207682 0.208333 0.208984 0.209635 0.210286 0.210938 0.211589 0.212240 0.212891 0.213542 0.214193 0.214844 0.215495 0.216146 0.216797 0.217448 0.218099 0.218750 0.219401 0.220052 0.220703 0.221354 0.222005 0.222656 0.223307 0.223958 0.224609 0.225260 0.225911 0.226562 0.227214 0.227865 0.228516 0.229167 0.229818 0.230469 0.231120 0.231771 0.232422 0.233073 0.233724 0.234375 0.235026 0.235677
       0.33084        0.33084        0.33084        0.33084        0.33084        0.33084        0.33084        0.33084        0.33084        0.33084        0.33084        0.33084        0.33084        0.33084        0.33084        0.33084        0.33084        0.33084        0.33084        0.33084        0.33084        0.33084        0.33084        0.33084        0.33084        0.33084        0.33084        0.33084        0.33084        0.33084        0.33084        0.33084        0.33084        0.33084        0.33084        0.33084        0.33084        0.33084        0.33084        0.33084        0.33084        0.33084        0.33084        0.33084        0.33084        0.33084        0.33084        0.33084        0.33084        0.33084        0.33084        0.68471        1.09049        0.55218        0.11524       -0.01466       -0.20282       -0.14183       -0.17619       -0.22124       -0.14530       -0.05090       -0.00198        0.10785        0.00967       -0.08160       -0.10509       -0.29118       -0.26837       -0.37093       -0.18770       -0.34308       -0.44214       -0.36185       -0.33798       -0.44164       -0.46423       -0.46775       -0.45969       -0.56969       -0.54189       -0.41727       -0.31865       -0.31997       -0.32436       -0.23065       -0.12594        0.06889        0.12749        0.22229        0.26536        0.33213        0.35574        0.39767        0.52861        0.59401        0.68577        0.76270        0.66200        0.72508        0.71757        0.64337        0.70021        0.61585        0.56912        0.50230        0.41516        0.33041        0.30304        0.23099        0.09829        0.02263       -0.00356       -0.04649       -0.07059       -0.06547       -0.08218       -0.01687        0.08584        0.13433        0.29926        0.40965        0.42894        0.44042        0.51673        0.68927        0.63211        0.68107        0.76771        0.74611        0.75731        0.56438        0.51930        0.43618        0.42893        0.35614        0.23019        0.18112        0.05874       -0.00656        0.07468        0.02875        0.09667        0.15658        0.21750        0.30786        0.38276        0.46168        0.54566        0.57470        0.57135        0.56073        0.59744        0.56236        0.39939        0.38236        0.38872        0.36892        0.24903        0.23365        0.20136        0.12504        0.09802        0.11636        0.16901        0.24879        0.29941        0.35856        0.39759        0.50919        0.45089        0.52688        0.56858        0.53159        0.50415        0.44183        0.35233        0.31369        0.34877        0.28449        0.28907        0.17534        0.19040        0.20972        0.22636        0.31088        0.39966        0.40970        0.45692        0.47488        0.43878        0.45976        0.44766        0.40911        0.36442        0.30756        0.24178        0.25281        0.28526        0.21546        0.29014        0.29129        0.28328        0.33721        0.36977        0.43925        0.43066        0.37512        0.39589        0.36961        0.35719        0.31837        0.29074        0.24380        0.26312        0.25609        0.27564        0.29070        0.32269        0.36325        0.39117        0.43060        0.40199        0.37696        0.34516        0.29552        0.31424        0.28404        0.24696        0.21874        0.29031        0.29663        0.34198        0.34924        0.35293        0.37064        0.34038        0.41142        0.34587        0.33947        0.34685        0.26530        0.27054        0.28797        0.29772        0.30321        0.33033        0.31071        0.37259        0.36158        0.34218        0.33045        0.33802        0.32057        0.29894        0.23999        0.22591        0.22795        0.26158        0.29535        0.32452        0.32185        0.37600        0.34987        0.30194        0.30555        0.28709        0.28179        0.26177        0.23435        0.26336        0.27111        0.28773        0.31616        0.35600        0.37236        0.31996        0.29044        0.31963        0.30507        0.25715        0.32508        0.29945        0.29995        0.32739        0.31541        0.31815        0.37555        0.35137        0.34794        0.29954        0.30518        0.29061        0.29475        0.32700        0.28890        0.30123        0.35043        0.35945        0.31626        0.32859        0.32104        0.32037        0.24967        0.26465        0.32517        0.29582        0.32559        0.33078        0.28679        0.27624        0.28881        0.27504        0.28147        0.29471        0.30021        0.25266        0.25264        0.30807        0.33122        0.28141        0.26449        0.26852        0.24111        0.27543        0.24071        0.25505        0.31082        0.27307        0.27832        0.21665        0.25095        0.27693        0.24630        0.27401        0.26837        0.20427        0.22850        0.26476        0.26092        0.32766        0.26558        0.21622        0.19681        0.27334        0.21381        0.23877        0.31904        0.22313        0.17652        0.17021        0.28037        0.29865        0.39757        0.27146        0.19299        0.35437        0.35093        0.11923        0.05026       -0.17038       -0.50390       -0.60637
2.694553 2.667450 2.640491 2.613673 2.586999 2.560468 2.534079 2.507833 2.481730 2.455770 2.429952 2.404277 2.378745 2.353356 2.328109 2.303006 2.278045 2.253226 2.228551 2.204018 2.179628 2.155381 2.131276 2.107314 2.083495 2.059819 2.036286 2.012895 1.989647 1.966542 1.943579 1.920760 1.898083 1.875549 1.853157 1.830909 1.808803 1.786840 1.765020 1.743342 1.721807 1.700415 1.679166 1.658059 1.637095 1.616274 1.595596 1.575061 1.554668 1.534418 1.514311 1.668670 2.367779 1.906557 1.121044 1.155678 0.871001 0.824881 0.770232 0.749005 0.780398 0.853078 0.954761 0.985283 0.889769 0.809936 0.806682 0.490166 0.535265 0.363015 0.570556 0.428760 0.256793 0.344318 0.326279 0.252145 0.152821 0.125492 0.187949 0.026210 -0.053065 0.131989 0.258127 0.206642 0.180610 0.244439 0.373657 0.557186 0.590063 0.681815 0.801290 0.750779 0.874166 0.765396 0.969729 1.030840 1.092092 1.254611 1.072884 1.154833 1.095005 1.121113 1.028799 0.968463 0.907665 0.859365 0.735566 0.624185 0.580284 0.463147 0.378354 0.237885 0.158463 0.144184 0.104869 0.082197 0.051195 0.075204 0.197595 0.150444 0.411117 0.531964 0.532896 0.512301 0.620865 0.768210 0.771866 0.660964 0.838133 0.809579 0.995083 0.586358 0.597780 0.465407 0.479808 0.358922 0.278631 0.155781 0.080258 -0.098148 0.009824 -0.067429 -0.002788 0.036916 0.099434 0.211118 0.238864 0.406823 0.395854 0.495018 0.508046 0.489978 0.541330 0.553558 0.319023 0.306042 0.232300 0.297060 0.208075 0.053443 0.077502 0.056586 -0.070365 -0.077945 -0.023853 0.077812 0.089812 0.198756 0.202820 0.301539 0.343845 0.320031 0.433871 0.499408 0.329283 0.352960 0.290370 0.196756 0.189784 0.176755 0.114673 0.115969 -0.025409 0.051976 0.053356 0.076975 0.212853 0.223979 0.304196 0.311587 0.333097 0.265925 0.286701 0.273718 0.206355 0.176495 0.093184 0.008906 0.137152 0.010585 0.082715 0.103284 0.073526 0.068138 0.186566 0.179942 0.256837 0.255047 0.140363 0.172526 0.124279 0.099981 0.058770 0.042538 -0.029473 0.030450 0.017251 0.034535 0.039248 0.105757 0.105006 0.181343 0.182920 0.145471 0.075021 0.057142 0.053428 0.025997 0.040012 -0.076056 -0.028553 0.042530 0.010861 0.113892 0.056481 0.102257 0.074316 0.184529 0.159098 0.082859 0.087291 0.116898 -0.030073 0.034739 0.035508 0.053706 0.062687 0.067257 0.052805 0.136251 0.094980 0.100873 0.068555 0.124458 0.056486 0.019554 -0.028420 -0.025908 -0.024957 0.005955 0.042062 0.089821 0.059203 0.133483 0.066375 0.006592 0.023452 0.009894 -0.011410 -0.036173 -0.047863 -0.007803 -0.014644 0.013449 0.023839 0.109715 0.036527 0.058589 -0.029953 0.056219 -0.001197 -0.035812 0.065861 -0.012637 0.000394 0.067661 -0.016112 0.057650 0.062252 0.065806 0.044753 -0.020638 -0.013547 0.009704 -0.031628 0.022519 -0.019794 0.004575 0.065403 -0.002813 0.051464 0.017080 0.017032 0.004724 -0.042163 -0.050845 0.061418 -0.010417 0.041158 0.023214 -0.005895 0.029810 0.032683 0.026799 0.020135 0.019711 0.048954 -0.003360 -0.013255 0.053659 0.112100 0.011143 0.000930 0.005369 -0.018100 0.000124 -0.022475 0.003300 0.107664 -0.034555 0.030272 -0.058153 0.027580 -0.002173 -0.015131 -0.013565 0.013118 -0.054000 -0.063677 0.051665 -0.015804 0.046153 -0.001628 -0.063931 -0.098133 0.020436 -0.073455 -0.023992 0.040004 -0.069695 0.207950 0.215175 0.290093 0.299872 0.433313 0.311470 0.223825 0.366842 0.514970 0.129206 0.102144 -0.182065 -0.665052
0.072396 0.072869 0.074289 0.076654 0.079964 0.084219 0.089418 0.095559 0.102639 0.110658 0.119611 0.129496 0.140307 0.152039 0.164686 0.178239 0.192690 0.208027 0.224238 0.241308 0.259220 0.277955 0.297491 0.317802 0.338862 0.360638 0.383096 0.406197 0.429898 0.454152 0.478906 0.504106 0.529688 0.555586 0.581728 0.608036 0.634426 0.660809 0.687089 0.713165 0.738929 0.764268 0.789061 0.813184 0.836505 0.858888 0.880191 0.900267 0.918966 0.936132 0.951609 0.965235 0.976850 0.986290 0.993392 0.997996 0.999943 0.999078 0.995250 0.988317 0.978144 0.964604 0.947584 0.926983 0.902716 0.874714 0.842927 0.807326 0.767905 0.724682 0.677702 0.627037 0.572791 0.515097 0.454121 0.390065 0.323162 0.253685 0.181939 0.108266 0.033045 0.043311 0.120358 0.197615 0.274574 0.350700 0.425432 0.498188 0.568372 0.635374 0.698578 0.757368 0.811132 0.859273 0.901212 0.936396 0.964310 0.984479 0.996482 0.999954 0.994602 0.980205 0.956627 0.923822 0.881839 0.830832 0.771060 0.702896 0.626821 0.543436 0.453451 0.357691 0.257086 0.152669 0.045566 0.063011 0.171780 0.279399 0.384485 0.485627 0.581408 0.670428 0.751321 0.822781 0.883584 0.932612 0.968877 0.991546 0.999958 0.993649 0.972367 0.936092 0.885043 0.819692 0.740767 0.649252 0.546385 0.433645 0.312741 0.185590 0.054291 0.078903 0.211625 0.341429 0.465843 0.582406 0.688727 0.782535 0.861731 0.924440 0.969063 0.994324 0.999310 0.983515 0.946860 0.889726 0.812956 0.717862 0.606216 0.480227 0.342507 0.196028 0.044064 0.109876 0.262124 0.408944 0.546617 0.671543 0.780340 0.869939 0.937681 0.981407 0.999537 0.991136 0.955967 0.894530 0.808070 0.698579 0.568763 0.421995 0.262237 0.093947 0.078038 0.248633 0.412658 0.564988 0.700727 0.815367 0.904949 0.966212 0.996729 0.995020 0.960631 0.894194 0.797439 0.673180 0.525255 0.358426 0.178240 0.009134 0.197116 0.378935 0.547876 0.697534 0.822063 0.916423 0.976597 0.999783 0.984548 0.930932 0.840491 0.716289 0.562828 0.385906 0.192419 0.009887 0.212710 0.407539 0.586001 0.740237 0.863253 0.949263 0.993983 0.994869 0.951292 0.864623 0.738236 0.577411 0.389149 0.181894 0.034826 0.250818 0.455707 0.639430 0.792743 0.907706 0.978119 0.999890 0.971304 0.893181 0.768912 0.604357 0.407604 0.188614 0.041265 0.269865 0.484836 0.674324 0.827630 0.935842 0.992392 0.993482 0.938391 0.829593 0.672709 0.476264 0.251267 0.010628 0.231561 0.460839 0.663247 0.826185 0.939239 0.994870 0.988969 0.921210 0.795164 0.618183 0.401023 0.157229 0.097656 0.347077 0.574545 0.764709 0.904445 0.983794 0.996713 0.941600 0.821516 0.644090 0.421093 0.167721 0.098401 0.358436 0.593637 0.786731 0.923218 0.992494 0.988746 0.911494 0.765767 0.561844 0.314608 0.042516 0.233754 0.492841 0.714365 0.880553 0.977715 0.997431 0.937347 0.801518 0.600218 0.349250 0.068760 0.218315 0.488122 0.717870 0.887774 0.982823 0.994170 0.920035 0.766020 0.544786 0.275100 0.019698 0.313650 0.580485 0.795940 0.940039 0.998991 0.966605 0.845018 0.644693 0.383599 0.085709 0.221168 0.507937 0.746982 0.914871 0.994701 0.977910 0.865274 0.667041 0.402102 0.096299 0.220053 0.515104 0.758718 0.925556 0.997811 0.967189 0.835979 0.617027 0.332595 0.012203 0.310388 0.600681 0.827168 0.964805 0.997856 0.921820 0.744148 0.483644 0.168611 0.166147 0.483115 0.746274 0.925227 0.998799 0.957653 0.805610 0.559449
1.000000 1.000000 1.000000 1.000000 1.000000 1.000000 1.000000 1.000000 1.000000 1.000000 1.000000 1.000000 1.000000 1.000000 1.000000 1.000000 1.000000 1.000000 1.000000 1.000000 1.000000 1.000000 1.000000 1.000000 1.000000 1.000000 1.000000 1.000000 1.000000 1.000000 1.000000 1.000000 1.000000 1.000000 1.000000 1.000000 1.000000 1.000000 1.000000 1.000000 1.000000 1.000000 1.000000 1.000000 1.000000 1.000000 1.000000 1.000000 1.000000 1.000000 1.000000 1.000000 0.883753 0.883753 0.883753 0.883753 0.883753 0.870731 0.870731 0.870731 0.870731 0.870731 0.870731 0.870731 0.870731 0.870731 0.870731 0.870731 0.870731 0.870731 0.870731 0.870731 0.870731 0.870731 0.870731 0.870731 0.870731 0.870731 0.870731 0.870731 0.870731 0.870731 0.870731 0.870731 0.870731 0.870731 0.870731 0.870731 0.870731 0.870731 0.870731 0.870731 0.870731 0.870731 0.870731 0.870731 0.870731 0.870731 0.870731 0.951876 0.956260 0.957204 0.956909 0.956139 0.955316 0.954678 0.954330 0.954259 0.957149 0.957946 0.963892 0.965627 0.966306 0.972833 0.973083 0.972087 0.970387 0.970171 0.970212 0.963975 0.962613 0.961080 0.961329 0.964887 0.964800 0.964653 0.964608 0.964759 0.965143 0.965173 0.965717 0.965443 0.965140 0.964175 0.963275 0.962564 0.962224 0.962382 0.962901 0.963781 0.964808 0.965300 0.965918 0.966386 0.966544 0.966388 0.965959 0.964885 0.960619 0.962556 0.962168 0.961956 0.963522 0.963538 0.963830 0.965136 0.966270 0.967867 0.964160 0.963306 0.962616 0.959594 0.957202 0.951833 0.943837 0.938809 0.941425 0.942648 0.943121 0.937665 0.924094 0.921770 0.915390 0.915179 0.912901 0.907514 0.909284 0.912011 0.903580 0.901085 0.895296 0.890419 0.885880 0.884684 0.886249 0.881815 0.883736 0.884298 0.882052 0.880600 0.880071 0.882751 0.885136 0.880820 0.871655 0.865553 0.864994 0.866661 0.866264 0.872780 0.872206 0.863649 0.861411 0.853261 0.848476 0.846803 0.841800 0.845255 0.845727 0.845359 0.852952 0.838991 0.833821 0.828159 0.826872 0.827204 0.820289 0.815643 0.812392 0.808078 0.797084 0.796383 0.799246 0.803831 0.803869 0.798153 0.799532 0.807929 0.800856 0.810683 0.815836 0.818617 0.828676 0.828039 0.828239 0.827649 0.824735 0.803450 0.802054 0.812525 0.819012 0.821947 0.819040 0.815706 0.808076 0.804841 0.798573 0.794951 0.758843 0.757329 0.760186 0.757655 0.762805 0.706407 0.710438 0.709326 0.711055 0.679644 0.689078 0.685415 0.684350 0.693992 0.689837 0.702274 0.698499 0.681365 0.682011 0.669090 0.656324 0.646858 0.661675 0.648223 0.656163 0.664715 0.668811 0.664853 0.687440 0.663575 0.663234 0.660743 0.661431 0.627781 0.629178 0.630335 0.626322 0.615216 0.582628 0.528743 0.509648 0.507623 0.477635 0.485255 0.485523 0.464202 0.463862 0.464089 0.472202 0.473893 0.471448 0.455767 0.450457 0.391472 0.391602 0.390201 0.392911 0.390115 0.352625 0.356754 0.333191 0.369925 0.386153 0.390224 0.384547 0.376389 0.357429 0.357990 0.357162 0.360697 0.353943 0.309625 0.266325 0.269185 0.233535 0.235685 0.214221 0.188974 0.200006 0.211839 0.187711 0.213553 0.172537 0.130404 0.129668 0.133648 0.133648 0.133648 0.133648 0.133648 0.133648 0.133648 0.133648 0.131225 0.131225 0.131225 0.131225 0.131225 0.131225 0.131225 0.131225 0.131225 0.161027 0.161027 0.161027 0.161027 0.161027 0.161027 0.161027 0.161027 0.161027 0.161027 0.161027 0.161027 0.161027
0.000000 0.000000 0.000000 0.000000 0.000000 0.000000 0.000000 0.000000 0.000000 0.000000 0.000000 0.000000 0.000000 0.000000 0.000000 0.000000 0.000000 0.000000 0.000000 0.000000 0.000000 0.000000 0.000000 0.000000 0.000000 0.000000 0.000000 0.000000 0.000000 0.000000 0.000000 0.000000 0.000000 0.000000 0.000000 0.000000 0.000000 0.000000 0.000000 0.000000 0.000000 0.000000 0.000000 0.000000 0.000000 0.000000 0.000000 0.000000 0.000000 0.000000 0.000000 0.000000 0.177471 0.177471 0.177471 0.177471 0.177471 0.197066 0.197066 0.197066 0.197066 0.197066 0.197066 0.197066 0.197066 0.197066 0.197066 0.197066 0.197066 0.197066 0.197066 0.197066 0.197066 0.197066 0.197066 0.197066 0.197066 0.197066 0.197066 0.197066 0.197066 0.197066 0.197066 0.197066 0.197066 0.197066 0.197066 0.197066 0.197066 0.197066 0.197066 0.197066 0.197066 0.197066 0.197066 0.197066 0.197066 0.197066 0.197066 0.222222 0.222222 0.222222 0.222222 0.222222 0.222222 0.222222 0.222222 0.222222 0.222222 0.222222 0.222222 0.222222 0.222222 0.222222 0.222222 0.222222 0.222222 0.222222 0.222222 0.222222 0.222222 0.222222 0.222222 0.222222 0.222222 0.222222 0.222222 0.222222 0.222222 0.244339 0.244339 0.244339 0.244339 0.244339 0.244339 0.244339 0.244339 0.244339 0.244339 0.244339 0.244339 0.244339 0.244339 0.244339 0.244339 0.244339 0.244339 0.244339 0.244339 0.244339 0.244339 0.244339 0.244339 0.244339 0.244339 0.244339 0.244339 0.244339 0.244339 0.244339 0.244339 0.244339 0.244339 0.244339 0.244339 0.244339 0.244339 0.244339 0.244339 0.244339 0.244339 0.244339 0.244339 0.256074 0.256074 0.256074 0.256074 0.256074 0.256074 0.256074 0.256074 0.256074 0.256074 0.256074 0.256074 0.256074 0.256074 0.256074 0.256074 0.256074 0.256074 0.256074 0.256074 0.256074 0.256074 0.256074 0.256074 0.256074 0.256074 0.256074 0.256074 0.256074 0.256074 0.256074 0.256074 0.256074 0.256074 0.256074 0.264906 0.264906 0.264906 0.264906 0.264906 0.264906 0.264906 0.264906 0.264906 0.264906 0.264906 0.264906 0.264906 0.264906 0.264906 0.264906 0.264906 0.264906 0.264906 0.264906 0.264906 0.264906 0.264906 0.264906 0.264906 0.264906 0.264906 0.264906 0.264906 0.256074 0.256074 0.256074 0.256074 0.256074 0.256074 0.256074 0.256074 0.256074 0.256074 0.256074 0.256074 0.256074 0.256074 0.260378 0.260378 0.260378 0.260378 0.260378 0.260378 0.260378 0.260378 0.260378 0.260378 0.260378 0.260378 0.260378 0.264906 0.264906 0.264906 0.264906 0.264906 0.264906 0.264906 0.264906 0.264906 0.264906 0.264906 0.264906 0.260378 0.260378 0.260378 0.260378 0.260378 0.260378 0.260378 0.260378 0.260378 0.260378 0.260378 0.260378 0.264906 0.264906 0.264906 0.264906 0.264906 0.264906 0.264906 0.264906 0.264906 0.264906 0.264906 0.256074 0.256074 0.256074 0.256074 0.256074 0.256074 0.256074 0.256074 0.256074 0.256074 0.256074 0.251976 0.251976 0.251976 0.251976 0.251976 0.251976 0.251976 0.251976 0.251976 0.251976 0.251976 0.260378 0.260378 0.260378 0.260378 0.260378 0.260378 0.260378 0.260378 0.260378 0.260378 0.256074 0.256074 0.256074 0.256074 0.256074 0.256074 0.256074 0.256074 0.256074 0.256074 0.260378 0.260378 0.260378 0.260378 0.260378 0.260378 0.260378 0.260378 0.260378 0.244339 0.244339 0.244339 0.244339 0.244339 0.244339 0.244339 0.244339 0.244339 0.244339 0.244339 0.244339 0.244339
