# Output from CTFFind version 4.1.9, run on 2019-11-03 18:51:10
# Input file: stack5_ub_averaged_50.mrc ; Number of micrographs: 1
# Pixel size: 3.000 Angstroms ; acceleration voltage: 300.0 keV ; spherical aberration: 0.00 mm ; amplitude contrast: 0.07
# Box size: 512 pixels ; min. res.: 30.0 Angstroms ; max. res.: 5.0 Angstroms ; min. def.: 5000.0 um; max. def. 50000.0 um; num. frames averaged: 1
# 6 lines per micrograph: #1 - spatial frequency (1/Angstroms); #2 - 1D rotational average of spectrum (assuming no astigmatism); #3 - 1D rotational average of spectrum; #4 - CTF fit; #5 - cross-correlation between spectrum and CTF fit; #6 - 2sigma of expected cross correlation of noise
0.000000 0.000651 0.001302 0.001953 0.002604 0.003255 0.003906 0.004557 0.005208 0.005859 0.006510 0.007161 0.007812 0.008464 0.009115 0.009766 0.010417 0.011068 0.011719 0.012370 0.013021 0.013672 0.014323 0.014974 0.015625 0.016276 0.016927 0.017578 0.018229 0.018880 0.019531 0.020182 0.020833 0.021484 0.022135 0.022786 0.023438 0.024089 0.024740 0.025391 0.026042 0.026693 0.027344 0.027995 0.028646 0.029297 0.029948 0.030599 0.031250 0.031901 0.032552 0.033203 0.033854 0.034505 0.035156 0.035807 0.036458 0.037109 0.037760 0.038411 0.039062 0.039714 0.040365 0.041016 0.041667 0.042318 0.042969 0.043620 0.044271 0.044922 0.045573 0.046224 0.046875 0.047526 0.048177 0.048828 0.049479 0.050130 0.050781 0.051432 0.052083 0.052734 0.053385 0.054036 0.054688 0.055339 0.055990 0.056641 0.057292 0.057943 0.058594 0.059245 0.059896 0.060547 0.061198 0.061849 0.062500 0.063151 0.063802 0.064453 0.065104 0.065755 0.066406 0.067057 0.067708 0.068359 0.069010 0.069661 0.070312 0.070964 0.071615 0.072266 0.072917 0.073568 0.074219 0.074870 0.075521 0.076172 0.076823 0.077474 0.078125 0.078776 0.079427 0.080078 0.080729 0.081380 0.082031 0.082682 0.083333 0.083984 0.084635 0.085286 0.085938 0.086589 0.087240 0.087891 0.088542 0.089193 0.089844 0.090495 0.091146 0.091797 0.092448 0.093099 0.093750 0.094401 0.095052 0.095703 0.096354 0.097005 0.097656 0.098307 0.098958 0.099609 0.100260 0.100911 0.101562 0.102214 0.102865 0.103516 0.104167 0.104818 0.105469 0.106120 0.106771 0.107422 0.108073 0.108724 0.109375 0.110026 0.110677 0.111328 0.111979 0.112630 0.113281 0.113932 0.114583 0.115234 0.115885 0.116536 0.117188 0.117839 0.118490 0.119141 0.119792 0.120443 0.121094 0.121745 0.122396 0.123047 0.123698 0.124349 0.125000 0.125651 0.126302 0.126953 0.127604 0.128255 0.128906 0.129557 0.130208 0.130859 0.131510 0.132161 0.132812 0.133464 0.134115 0.134766 0.135417 0.136068 0.136719 0.137370 0.138021 0.138672 0.139323 0.139974 0.140625 0.141276 0.141927 0.142578 0.143229 0.143880 0.144531 0.145182 0.145833 0.146484 0.147135 0.147786 0.148438 0.149089 0.149740 0.150391 0.151042 0.151693 0.152344 0.152995 0.153646 0.154297 0.154948 0.155599 0.156250 0.156901 0.157552 0.158203 0.158854 0.159505 0.160156 0.160807 0.161458 0.162109 0.162760 0.163411 0.164062 0.164714 0.165365 0.166016 0.166667 0.167318 0.167969 0.168620 0.169271 0.169922 0.170573 0.171224 0.171875 0.172526 0.173177 0.173828 0.174479 0.175130 0.175781 0.176432 0.177083 0.177734 0.178385 0.179036 0.179688 0.180339 0.180990 0.181641 0.182292 0.182943 0.183594 0.184245 0.184896 0.185547 0.186198 0.186849 0.187500 0.188151 0.188802 0.189453 0.190104 0.190755 0.191406 0.192057 0.192708 0.193359 0.194010 0.194661 0.195312 0.195964 0.196615 0.197266 0.197917 0.198568 0.199219 0.199870 0.200521 0.201172 0.201823 0.202474 0.203125 0.203776 0.204427 0.205078 0.205729 0.206380 0.207031 0.207682 0.208333 0.208984 0.209635 0.210286 0.210938 0.211589 0.212240 0.212891 0.213542 0.214193 0.214844 0.215495 0.216146 0.216797 0.217448 0.218099 0.218750 0.219401 0.220052 0.220703 0.221354 0.222005 0.222656 0.223307 0.223958 0.224609 0.225260 0.225911 0.226562 0.227214 0.227865 0.228516 0.229167 0.229818 0.230469 0.231120 0.231771 0.232422 0.233073 0.233724 0.234375 0.235026 0.235677
       0.35030        0.35030        0.35030        0.35030        0.35030        0.35030        0.35030        0.35030        0.35030        0.35030        0.35030        0.35030        0.35030        0.35030        0.35030        0.35030        0.35030        0.35030        0.35030        0.35030        0.35030        0.35030        0.35030        0.35030        0.35030        0.35030        0.35030        0.35030        0.35030        0.35030        0.35030        0.35030        0.35030        0.35030        0.35030        0.35030        0.35030        0.35030        0.35030        0.35030        0.35030        0.35030        0.35030        0.35030        0.35030        0.35030        0.35030        0.35030        0.35030        0.35030        0.35030        0.52968        0.88702        0.66117        0.18693        0.21107        0.03449        0.07568       -0.03469        0.03742        0.17066        0.43365        0.44510        0.23332        0.26316        0.05392       -0.00083       -0.03171       -0.13803       -0.13267       -0.10951        0.02619       -0.08726       -0.06801       -0.11608       -0.20591       -0.20085       -0.31033       -0.26127       -0.27043       -0.22463       -0.25017       -0.24946       -0.29536       -0.38007       -0.30075       -0.24552       -0.12103       -0.08808       -0.00908        0.12486        0.17434        0.10395        0.28560        0.43105        0.35612        0.47816        0.64473        0.57721        0.57963        0.65829        0.58181        0.67506        0.69609        0.74939        0.61789        0.62682        0.67990        0.66412        0.49254        0.47950        0.50062        0.38336        0.29370        0.18429        0.13876        0.10414        0.02265        0.13151        0.05779        0.08492        0.08250        0.13623        0.11225        0.20048        0.26433        0.33759        0.38633        0.46453        0.54383        0.56390        0.66770        0.71464        0.62116        0.61715        0.67302        0.58186        0.47493        0.48241        0.40363        0.38775        0.32839        0.23736        0.18595        0.17399        0.16675        0.07931        0.15447        0.18214        0.15336        0.17548        0.28364        0.39748        0.42435        0.44635        0.46503        0.50999        0.58872        0.53330        0.57346        0.54982        0.48769        0.43209        0.34574        0.39581        0.30476        0.22677        0.27686        0.28135        0.21749        0.19360        0.28015        0.31035        0.31677        0.37200        0.41131        0.45706        0.46319        0.51615        0.53042        0.43616        0.40440        0.41876        0.44992        0.38889        0.28484        0.31866        0.28780        0.29480        0.29745        0.32220        0.29393        0.30537        0.34150        0.33855        0.37387        0.43759        0.46131        0.40934        0.37113        0.43981        0.43074        0.34857        0.32013        0.31772        0.34995        0.34484        0.33414        0.27220        0.33025        0.36763        0.32152        0.33897        0.41886        0.44252        0.42186        0.45980        0.40646        0.38498        0.37694        0.31118        0.29047        0.24611        0.26619        0.31456        0.29970        0.34518        0.33982        0.35316        0.36123        0.35263        0.37543        0.39364        0.39308        0.36479        0.35078        0.32611        0.32330        0.30295        0.34205        0.29667        0.29673        0.31297        0.34002        0.36519        0.37274        0.40283        0.37496        0.37374        0.35018        0.32418        0.28082        0.29510        0.29298        0.29922        0.28772        0.30917        0.31115        0.34906        0.32398        0.34466        0.31776        0.36672        0.33454        0.34075        0.30444        0.31230        0.28317        0.29241        0.30429        0.30520        0.32430        0.32034        0.33887        0.30610        0.31400        0.32912        0.36959        0.30123        0.32813        0.29109        0.32595        0.30247        0.34426        0.33226        0.32410        0.34187        0.31893        0.33658        0.36945        0.34507        0.31085        0.31622        0.33937        0.29810        0.34967        0.31132        0.32056        0.36378        0.40254        0.36762        0.39367        0.35198        0.31252        0.31390        0.33600        0.30968        0.32725        0.33281        0.27911        0.28465        0.31534        0.34626        0.30598        0.31341        0.36139        0.32407        0.25581        0.29708        0.32485        0.29470        0.22205        0.30315        0.29345        0.25215        0.28691        0.25663        0.28615        0.27764        0.24480        0.19658        0.26319        0.26812        0.25036        0.30661        0.36096        0.32427        0.27286        0.27608        0.27434        0.31878        0.26278        0.28579        0.27925        0.26357        0.29459        0.25501        0.25196        0.26538        0.24774        0.27438        0.28410        0.23219        0.18026        0.21327        0.25885        0.22575        0.15802        0.22845        0.07033        0.07586       -0.42419       -0.77908
2.943119 2.914379 2.885783 2.857330 2.829022 2.800859 2.772839 2.744963 2.717232 2.689645 2.662201 2.634902 2.607748 2.580737 2.553870 2.527148 2.500569 2.474135 2.447845 2.421699 2.395697 2.369839 2.344125 2.318556 2.293131 2.267849 2.242712 2.217719 2.192870 2.168166 2.143605 2.119189 2.094917 2.070788 2.046804 2.022964 1.999268 1.975717 1.952309 1.929046 1.905927 1.882951 1.860120 1.837434 1.814891 1.792492 1.770238 1.748127 1.726161 1.704339 1.682661 1.757019 2.513108 2.269458 1.296682 1.309559 1.163385 1.277493 0.932759 0.921306 1.143127 1.642265 1.499129 1.379676 1.184091 0.970233 0.814830 0.751337 0.567973 0.602828 0.530248 0.790659 0.620634 0.586950 0.503946 0.338519 0.303906 0.198078 0.184847 0.197499 0.200423 0.119904 0.189922 0.072345 -0.063233 0.039131 0.000380 0.239414 0.296845 0.337307 0.567749 0.674457 0.498029 0.714364 0.925074 0.926023 0.932875 1.281521 1.194462 1.074862 1.294592 1.183821 1.110579 1.248190 1.397232 1.086823 1.039200 1.200296 1.242912 0.847403 0.871362 0.864402 0.745729 0.519821 0.425117 0.254487 0.267916 -0.021542 0.186692 0.155066 0.125684 0.051373 0.227213 0.081363 0.197823 0.257404 0.488937 0.450553 0.510526 0.769023 0.651795 0.858660 0.978411 0.848955 0.699551 0.951558 0.787343 0.510493 0.562392 0.407348 0.469520 0.308653 0.103103 0.134469 -0.041986 0.052158 -0.135771 -0.062684 0.001433 -0.026354 -0.081240 0.051827 0.277843 0.315912 0.354315 0.339767 0.422478 0.524651 0.543617 0.490385 0.461781 0.479361 0.324955 0.150143 0.296104 0.160253 -0.002687 -0.054691 0.084935 -0.033716 -0.122392 -0.028193 0.071908 0.036470 0.133237 0.161316 0.272651 0.281883 0.299765 0.455938 0.318285 0.268877 0.172287 0.351072 0.249965 0.082566 0.079937 0.042280 0.053362 0.023561 0.128254 0.045014 0.044156 0.049870 0.150345 0.094566 0.173508 0.308012 0.231672 0.090879 0.217608 0.211436 0.168641 0.026664 -0.006537 0.106740 0.077498 0.064762 -0.025635 -0.014562 0.087660 0.079017 -0.028161 0.109237 0.185682 0.226959 0.144465 0.233807 0.133571 0.097491 0.065495 -0.038177 -0.035192 -0.143130 0.009677 -0.025162 0.009462 0.047080 0.075955 0.066810 0.111164 0.063840 0.113325 0.116912 0.129672 0.084078 0.041454 0.052908 -0.004862 0.049749 0.011637 0.028440 -0.055310 0.051755 0.055256 0.109653 0.119394 0.189914 0.115690 0.126571 0.065629 0.020350 0.001397 0.011886 0.010883 0.027175 -0.022988 0.039650 0.048949 0.057591 0.065587 0.093944 0.053290 0.150880 0.003977 0.082524 0.022732 0.044327 -0.038155 0.041607 -0.005501 0.013396 0.045110 0.056331 0.043563 0.022232 -0.016323 0.080256 0.076272 -0.012138 0.008102 -0.037796 0.026688 0.022277 0.024934 0.043243 -0.005287 0.048162 0.006541 0.068019 0.089928 -0.015889 0.015112 -0.016605 0.076635 -0.081197 0.073348 -0.025186 -0.017810 0.130893 0.083788 0.091823 0.107209 0.013344 0.024024 0.007176 0.023971 0.032049 -0.029613 0.072424 -0.112312 -0.035273 0.082611 0.061408 -0.004563 0.016761 0.104111 -0.007283 -0.077278 0.077369 0.011805 -0.001052 -0.172159 0.107572 -0.058559 -0.102695 -0.018374 -0.053703 0.027542 -0.030523 -0.061477 -0.140430 0.038302 -0.036295 -0.080141 0.031256 0.167304 0.061033 0.021051 0.058723 -0.004005 0.141373 0.026997 0.122316 0.089969 0.101119 0.121974 0.067976 0.172127 0.131836 0.121453 0.224102 0.171070 0.202112 0.089851 0.318830 0.403190 0.312983 0.265108 0.350326 -0.023926 0.122718 -1.189815
0.072396 0.072831 0.074134 0.076305 0.079345 0.083252 0.088026 0.093665 0.100167 0.107532 0.115756 0.124836 0.134769 0.145551 0.157175 0.169637 0.182927 0.197039 0.211961 0.227683 0.244190 0.261467 0.279498 0.298262 0.317738 0.337901 0.358723 0.380173 0.402219 0.424823 0.447944 0.471538 0.495556 0.519944 0.544647 0.569603 0.594744 0.620000 0.645296 0.670549 0.695674 0.720580 0.745170 0.769343 0.792993 0.816008 0.838273 0.859666 0.880062 0.899333 0.917347 0.933966 0.949053 0.962467 0.974066 0.983707 0.991246 0.996541 0.999452 0.999841 0.997573 0.992520 0.984559 0.973574 0.959458 0.942116 0.921462 0.897425 0.869948 0.838990 0.804529 0.766560 0.725102 0.680193 0.631897 0.580302 0.525523 0.467702 0.407009 0.343644 0.277835 0.209843 0.139957 0.068497 0.004189 0.077720 0.151692 0.225671 0.299201 0.371802 0.442975 0.512206 0.578965 0.642716 0.702915 0.759022 0.810498 0.856817 0.897470 0.931968 0.959854 0.980704 0.994136 0.999818 0.997473 0.986885 0.967905 0.940461 0.904556 0.860281 0.807813 0.747422 0.679472 0.604423 0.522831 0.435349 0.342720 0.245781 0.145450 0.042727 0.061321 0.165564 0.268823 0.369883 0.467506 0.560444 0.647461 0.727345 0.798929 0.861112 0.912871 0.953289 0.981567 0.997047 0.999223 0.987766 0.962528 0.923561 0.871123 0.805688 0.727941 0.638787 0.539343 0.430929 0.315056 0.193413 0.067838 0.059694 0.187111 0.312270 0.432996 0.547119 0.652511 0.747134 0.829078 0.896606 0.948195 0.982574 0.998762 0.996103 0.974288 0.933382 0.873836 0.796497 0.702604 0.593781 0.472019 0.339643 0.199281 0.053814 0.093678 0.239976 0.381796 0.515857 0.638962 0.748077 0.840411 0.913495 0.965255 0.994078 0.998873 0.979118 0.934896 0.866918 0.776527 0.665686 0.536952 0.393426 0.238693 0.076738 0.088151 0.251485 0.408705 0.555301 0.686952 0.799655 0.889854 0.954566 0.991491 0.999103 0.976728 0.924597 0.843865 0.736610 0.605799 0.455226 0.289409 0.113479 0.066984 0.246108 0.417928 0.576580 0.716505 0.832658 0.920702 0.977175 0.999653 0.986865 0.938778 0.856642 0.742981 0.601544 0.437195 0.255778 0.063914 0.131231 0.322196 0.501522 0.662041 0.797168 0.901192 0.969530 0.998950 0.987746 0.935856 0.844912 0.718226 0.560699 0.378650 0.179596 0.028054 0.235335 0.433109 0.612474 0.765171 0.883974 0.963063 0.998324 0.987592 0.930812 0.830097 0.689694 0.515832 0.316485 0.101018 0.120219 0.336390 0.536703 0.710943 0.850020 0.946458 0.994824 0.992071 0.937758 0.834142 0.686135 0.501109 0.288563 0.059665 0.173316 0.397659 0.600880 0.771447 0.899443 0.977178 0.999686 0.965075 0.874722 0.733277 0.548460 0.330696 0.092558 0.151939 0.388150 0.601667 0.779220 0.909520 0.984006 0.997455 0.948391 0.839267 0.676408 0.469691 0.232005 0.021536 0.274514 0.510271 0.713015 0.868886 0.966948 0.999995 0.965130 0.864070 0.703126 0.492882 0.247539 0.015988 0.279225 0.523419 0.730873 0.886262 0.977801 0.998185 0.945236 0.822173 0.637502 0.404483 0.140239 0.135461 0.401664 0.637814 0.825366 0.949274 0.999242 0.970653 0.865050 0.690152 0.459364 0.190809 0.094038 0.372048 0.620294 0.817984 0.948207 0.999464 0.966734 0.852044 0.664440 0.419358 0.137429 0.157225 0.439013 0.683093 0.867596 0.975631 0.996890 0.928717 0.776503 0.553350 0.279038 0.021661 0.321195 0.591722 0.807712 0.948417 0.999905 0.956538 0.821671 0.607499 0.334062 0.027439 0.282691 0.565887
1.000000 1.000000 1.000000 1.000000 1.000000 1.000000 1.000000 1.000000 1.000000 1.000000 1.000000 1.000000 1.000000 1.000000 1.000000 1.000000 1.000000 1.000000 1.000000 1.000000 1.000000 1.000000 1.000000 1.000000 1.000000 1.000000 1.000000 1.000000 1.000000 1.000000 1.000000 1.000000 1.000000 1.000000 1.000000 1.000000 1.000000 1.000000 1.000000 1.000000 1.000000 1.000000 1.000000 1.000000 1.000000 1.000000 1.000000 1.000000 1.000000 1.000000 1.000000 1.000000 0.832399 0.832399 0.832399 0.832399 0.832399 0.832399 0.832399 0.821278 0.821278 0.821278 0.821278 0.821278 0.821278 0.821278 0.821278 0.821278 0.821278 0.821278 0.821278 0.821278 0.821278 0.821278 0.821278 0.821278 0.821278 0.821278 0.821278 0.821278 0.821278 0.821278 0.821278 0.821278 0.821278 0.821278 0.821278 0.821278 0.821278 0.821278 0.821278 0.821278 0.821278 0.821278 0.821278 0.821278 0.821278 0.821278 0.821278 0.821278 0.821278 0.821278 0.821278 0.821278 0.938183 0.936876 0.938633 0.937702 0.934812 0.941057 0.937454 0.939612 0.940726 0.940931 0.941341 0.941762 0.942960 0.944192 0.949643 0.951638 0.951645 0.951884 0.951396 0.950846 0.948562 0.945327 0.941859 0.934337 0.930230 0.931497 0.933180 0.934618 0.932681 0.933218 0.935316 0.935670 0.932426 0.931402 0.929893 0.929162 0.928430 0.927866 0.928322 0.929431 0.929395 0.929248 0.927407 0.927162 0.927582 0.924729 0.924696 0.922403 0.923860 0.926476 0.898527 0.897559 0.893779 0.895752 0.890272 0.895549 0.896821 0.894712 0.892584 0.893013 0.893580 0.891330 0.861515 0.859924 0.858776 0.855153 0.830603 0.811163 0.809485 0.810267 0.809481 0.818332 0.821796 0.823071 0.820421 0.791805 0.778007 0.776778 0.775587 0.779458 0.778578 0.783000 0.782334 0.780250 0.777277 0.770816 0.768469 0.770085 0.756767 0.752505 0.747873 0.744427 0.746796 0.745100 0.746527 0.739147 0.743345 0.750930 0.745959 0.738240 0.733328 0.737998 0.741212 0.729021 0.725575 0.721553 0.714643 0.708409 0.700499 0.696723 0.696808 0.703567 0.699052 0.702034 0.697549 0.695040 0.668438 0.703657 0.692466 0.697394 0.707538 0.717963 0.721623 0.718796 0.708978 0.694844 0.702590 0.698072 0.683661 0.686640 0.682786 0.694134 0.696899 0.693830 0.712513 0.689104 0.683050 0.682397 0.680326 0.702651 0.695649 0.684019 0.644551 0.638746 0.620739 0.614577 0.611680 0.629607 0.613424 0.607248 0.595835 0.606083 0.584363 0.589645 0.587084 0.595500 0.594559 0.590214 0.580993 0.564046 0.552967 0.464203 0.478665 0.463246 0.453736 0.461085 0.479916 0.496627 0.500166 0.506632 0.505953 0.495169 0.463720 0.438553 0.420925 0.417626 0.372480 0.378743 0.405314 0.416585 0.407020 0.383441 0.332521 0.297076 0.297498 0.316763 0.305853 0.300156 0.310840 0.243487 0.285749 0.276318 0.257281 0.252904 0.206781 0.181719 0.199842 0.195702 0.166505 0.122909 0.117936 0.132476 0.137681 0.151913 0.188309 0.204589 0.194693 0.184046 0.194489 0.201986 0.170723 0.170911 0.158677 0.149414 0.146665 0.135766 0.130441 0.139248 0.087381 0.048489 0.050472 0.022332 0.053690 0.020509 0.047994 0.106463 0.137841 0.112110 0.134865 0.134865 0.134865 0.062425 0.062425 0.062425 0.062425 0.062425 0.062425 0.062425 0.062425 0.062425 0.062425 0.140220 0.140220 0.140220 0.140220 0.140220 0.140220 0.140220 0.140220 0.140220 0.140220 0.140220 0.140220 0.140220 0.140220 0.140220 0.140220 0.140220 0.140220
0.000000 0.000000 0.000000 0.000000 0.000000 0.000000 0.000000 0.000000 0.000000 0.000000 0.000000 0.000000 0.000000 0.000000 0.000000 0.000000 0.000000 0.000000 0.000000 0.000000 0.000000 0.000000 0.000000 0.000000 0.000000 0.000000 0.000000 0.000000 0.000000 0.000000 0.000000 0.000000 0.000000 0.000000 0.000000 0.000000 0.000000 0.000000 0.000000 0.000000 0.000000 0.000000 0.000000 0.000000 0.000000 0.000000 0.000000 0.000000 0.000000 0.000000 0.000000 0.000000 0.173422 0.173422 0.173422 0.173422 0.173422 0.173422 0.173422 0.189832 0.189832 0.189832 0.189832 0.189832 0.189832 0.189832 0.189832 0.189832 0.189832 0.189832 0.189832 0.189832 0.189832 0.189832 0.189832 0.189832 0.189832 0.189832 0.189832 0.189832 0.189832 0.189832 0.189832 0.189832 0.189832 0.189832 0.189832 0.189832 0.189832 0.189832 0.189832 0.189832 0.189832 0.189832 0.189832 0.189832 0.189832 0.189832 0.189832 0.189832 0.189832 0.189832 0.189832 0.189832 0.222222 0.222222 0.222222 0.222222 0.222222 0.222222 0.222222 0.222222 0.222222 0.222222 0.222222 0.222222 0.222222 0.222222 0.222222 0.222222 0.222222 0.222222 0.222222 0.222222 0.222222 0.222222 0.222222 0.222222 0.222222 0.222222 0.222222 0.222222 0.222222 0.222222 0.234082 0.234082 0.234082 0.234082 0.234082 0.234082 0.234082 0.234082 0.234082 0.234082 0.234082 0.234082 0.234082 0.234082 0.234082 0.234082 0.234082 0.234082 0.234082 0.234082 0.234082 0.234082 0.234082 0.234082 0.234082 0.244339 0.244339 0.244339 0.244339 0.244339 0.244339 0.244339 0.244339 0.244339 0.244339 0.244339 0.244339 0.244339 0.244339 0.244339 0.244339 0.244339 0.244339 0.244339 0.244339 0.244339 0.248069 0.248069 0.248069 0.248069 0.248069 0.248069 0.248069 0.248069 0.248069 0.248069 0.248069 0.248069 0.248069 0.248069 0.248069 0.248069 0.248069 0.248069 0.248069 0.248069 0.248069 0.248069 0.248069 0.248069 0.248069 0.248069 0.248069 0.248069 0.248069 0.248069 0.248069 0.248069 0.248069 0.248069 0.248069 0.248069 0.248069 0.256074 0.256074 0.256074 0.256074 0.256074 0.256074 0.256074 0.256074 0.256074 0.256074 0.256074 0.256074 0.256074 0.256074 0.256074 0.256074 0.256074 0.256074 0.256074 0.256074 0.256074 0.256074 0.256074 0.256074 0.256074 0.256074 0.256074 0.256074 0.256074 0.256074 0.256074 0.256074 0.256074 0.256074 0.256074 0.256074 0.256074 0.256074 0.256074 0.256074 0.256074 0.256074 0.256074 0.256074 0.256074 0.260378 0.260378 0.260378 0.260378 0.260378 0.260378 0.260378 0.260378 0.260378 0.260378 0.260378 0.260378 0.260378 0.256074 0.256074 0.256074 0.256074 0.256074 0.256074 0.256074 0.256074 0.256074 0.256074 0.256074 0.256074 0.256074 0.260378 0.260378 0.260378 0.260378 0.260378 0.260378 0.260378 0.260378 0.260378 0.260378 0.260378 0.260378 0.251976 0.251976 0.251976 0.251976 0.251976 0.251976 0.251976 0.251976 0.251976 0.251976 0.251976 0.251976 0.248069 0.248069 0.248069 0.248069 0.248069 0.248069 0.248069 0.248069 0.248069 0.248069 0.248069 0.248069 0.251976 0.251976 0.251976 0.251976 0.251976 0.251976 0.251976 0.251976 0.251976 0.251976 0.251976 0.260378 0.260378 0.260378 0.260378 0.260378 0.260378 0.260378 0.260378 0.260378 0.260378 0.244339 0.244339 0.244339 0.244339 0.244339 0.244339 0.244339 0.244339 0.244339 0.244339 0.244339 0.244339 0.244339 0.244339 0.244339 0.244339 0.244339 0.244339
