# Output from CTFFind version 4.1.9, run on 2019-11-03 18:51:30
# Input file: stack20_ub_averaged_750.mrc ; Number of micrographs: 1
# Pixel size: 3.000 Angstroms ; acceleration voltage: 300.0 keV ; spherical aberration: 0.00 mm ; amplitude contrast: 0.07
# Box size: 512 pixels ; min. res.: 30.0 Angstroms ; max. res.: 5.0 Angstroms ; min. def.: 5000.0 um; max. def. 50000.0 um; num. frames averaged: 1
# 6 lines per micrograph: #1 - spatial frequency (1/Angstroms); #2 - 1D rotational average of spectrum (assuming no astigmatism); #3 - 1D rotational average of spectrum; #4 - CTF fit; #5 - cross-correlation between spectrum and CTF fit; #6 - 2sigma of expected cross correlation of noise
0.000000 0.000651 0.001302 0.001953 0.002604 0.003255 0.003906 0.004557 0.005208 0.005859 0.006510 0.007161 0.007812 0.008464 0.009115 0.009766 0.010417 0.011068 0.011719 0.012370 0.013021 0.013672 0.014323 0.014974 0.015625 0.016276 0.016927 0.017578 0.018229 0.018880 0.019531 0.020182 0.020833 0.021484 0.022135 0.022786 0.023438 0.024089 0.024740 0.025391 0.026042 0.026693 0.027344 0.027995 0.028646 0.029297 0.029948 0.030599 0.031250 0.031901 0.032552 0.033203 0.033854 0.034505 0.035156 0.035807 0.036458 0.037109 0.037760 0.038411 0.039062 0.039714 0.040365 0.041016 0.041667 0.042318 0.042969 0.043620 0.044271 0.044922 0.045573 0.046224 0.046875 0.047526 0.048177 0.048828 0.049479 0.050130 0.050781 0.051432 0.052083 0.052734 0.053385 0.054036 0.054688 0.055339 0.055990 0.056641 0.057292 0.057943 0.058594 0.059245 0.059896 0.060547 0.061198 0.061849 0.062500 0.063151 0.063802 0.064453 0.065104 0.065755 0.066406 0.067057 0.067708 0.068359 0.069010 0.069661 0.070312 0.070964 0.071615 0.072266 0.072917 0.073568 0.074219 0.074870 0.075521 0.076172 0.076823 0.077474 0.078125 0.078776 0.079427 0.080078 0.080729 0.081380 0.082031 0.082682 0.083333 0.083984 0.084635 0.085286 0.085938 0.086589 0.087240 0.087891 0.088542 0.089193 0.089844 0.090495 0.091146 0.091797 0.092448 0.093099 0.093750 0.094401 0.095052 0.095703 0.096354 0.097005 0.097656 0.098307 0.098958 0.099609 0.100260 0.100911 0.101562 0.102214 0.102865 0.103516 0.104167 0.104818 0.105469 0.106120 0.106771 0.107422 0.108073 0.108724 0.109375 0.110026 0.110677 0.111328 0.111979 0.112630 0.113281 0.113932 0.114583 0.115234 0.115885 0.116536 0.117188 0.117839 0.118490 0.119141 0.119792 0.120443 0.121094 0.121745 0.122396 0.123047 0.123698 0.124349 0.125000 0.125651 0.126302 0.126953 0.127604 0.128255 0.128906 0.129557 0.130208 0.130859 0.131510 0.132161 0.132812 0.133464 0.134115 0.134766 0.135417 0.136068 0.136719 0.137370 0.138021 0.138672 0.139323 0.139974 0.140625 0.141276 0.141927 0.142578 0.143229 0.143880 0.144531 0.145182 0.145833 0.146484 0.147135 0.147786 0.148438 0.149089 0.149740 0.150391 0.151042 0.151693 0.152344 0.152995 0.153646 0.154297 0.154948 0.155599 0.156250 0.156901 0.157552 0.158203 0.158854 0.159505 0.160156 0.160807 0.161458 0.162109 0.162760 0.163411 0.164062 0.164714 0.165365 0.166016 0.166667 0.167318 0.167969 0.168620 0.169271 0.169922 0.170573 0.171224 0.171875 0.172526 0.173177 0.173828 0.174479 0.175130 0.175781 0.176432 0.177083 0.177734 0.178385 0.179036 0.179688 0.180339 0.180990 0.181641 0.182292 0.182943 0.183594 0.184245 0.184896 0.185547 0.186198 0.186849 0.187500 0.188151 0.188802 0.189453 0.190104 0.190755 0.191406 0.192057 0.192708 0.193359 0.194010 0.194661 0.195312 0.195964 0.196615 0.197266 0.197917 0.198568 0.199219 0.199870 0.200521 0.201172 0.201823 0.202474 0.203125 0.203776 0.204427 0.205078 0.205729 0.206380 0.207031 0.207682 0.208333 0.208984 0.209635 0.210286 0.210938 0.211589 0.212240 0.212891 0.213542 0.214193 0.214844 0.215495 0.216146 0.216797 0.217448 0.218099 0.218750 0.219401 0.220052 0.220703 0.221354 0.222005 0.222656 0.223307 0.223958 0.224609 0.225260 0.225911 0.226562 0.227214 0.227865 0.228516 0.229167 0.229818 0.230469 0.231120 0.231771 0.232422 0.233073 0.233724 0.234375 0.235026 0.235677
       0.32638        0.32638        0.32638        0.32638        0.32638        0.32638        0.32638        0.32638        0.32638        0.32638        0.32638        0.32638        0.32638        0.32638        0.32638        0.32638        0.32638        0.32638        0.32638        0.32638        0.32638        0.32638        0.32638        0.32638        0.32638        0.32638        0.32638        0.32638        0.32638        0.32638        0.32638        0.32638        0.32638        0.32638        0.32638        0.32638        0.32638        0.32638        0.32638        0.32638        0.32638        0.32638        0.32638        0.32638        0.32638        0.32638        0.32638        0.32638        0.32638        0.32638        0.32638        0.67740        0.99675        0.53096        0.23075        0.13477        0.10356        0.03519        0.16029        0.21651        0.14917        0.32345        0.45685        0.41224        0.21736        0.05235        0.00200        0.12474        0.11630        0.01535        0.12913        0.00365        0.04319        0.07824        0.16909        0.01531       -0.08100       -0.11811       -0.10978       -0.19120       -0.39162       -0.29147       -0.33198       -0.29836       -0.37337       -0.29773       -0.35122       -0.25938       -0.30211       -0.30159       -0.26851       -0.18068       -0.17783       -0.02531       -0.03387        0.06229        0.24309        0.32169        0.46962        0.41567        0.43051        0.56116        0.61120        0.69839        0.55178        0.63264        0.67157        0.76336        0.65874        0.69876        0.72668        0.72413        0.59244        0.55204        0.51972        0.49433        0.39901        0.30776        0.20458        0.20031        0.05301       -0.03025       -0.04607       -0.02187       -0.06819       -0.01294       -0.00974        0.05408        0.08817        0.18193        0.27522        0.41217        0.44306        0.50723        0.51998        0.55924        0.60008        0.63228        0.70237        0.63318        0.63577        0.58978        0.54939        0.49496        0.42437        0.39654        0.35628        0.31303        0.22357        0.18703        0.08526        0.06808        0.01812        0.07914        0.19792        0.22572        0.26316        0.27568        0.35431        0.40019        0.46630        0.52950        0.55701        0.53283        0.55686        0.54424        0.50117        0.47817        0.43559        0.40775        0.32611        0.30663        0.20292        0.21913        0.18480        0.15121        0.22419        0.21454        0.18931        0.26346        0.31064        0.27100        0.38809        0.38731        0.47261        0.45601        0.44085        0.46241        0.47445        0.42451        0.39976        0.31329        0.30505        0.28513        0.23610        0.25646        0.22722        0.25393        0.29343        0.25666        0.30377        0.35205        0.36139        0.36255        0.45473        0.39875        0.39205        0.37966        0.36777        0.41398        0.35803        0.33865        0.28763        0.25447        0.26133        0.25898        0.25204        0.29323        0.28062        0.33234        0.33174        0.35832        0.38579        0.38446        0.40128        0.37650        0.34972        0.31804        0.29135        0.30394        0.29706        0.29305        0.26538        0.24656        0.28973        0.29662        0.29750        0.34950        0.36649        0.33388        0.39416        0.36030        0.33706        0.31139        0.29698        0.28557        0.30909        0.28271        0.28180        0.26664        0.25110        0.30154        0.28003        0.30690        0.30877        0.32090        0.29678        0.33489        0.33377        0.29852        0.32496        0.32026        0.25182        0.26316        0.26972        0.26588        0.27821        0.27848        0.28609        0.31344        0.32349        0.33822        0.28591        0.32223        0.33041        0.27116        0.30472        0.25666        0.30515        0.28852        0.30531        0.34945        0.33554        0.33767        0.32043        0.31174        0.33853        0.31537        0.29612        0.32473        0.28647        0.28393        0.24790        0.32715        0.31226        0.33552        0.28292        0.28937        0.32132        0.30139        0.29469        0.32713        0.29011        0.31589        0.26016        0.25768        0.32966        0.29754        0.27239        0.35307        0.30698        0.29837        0.26645        0.33026        0.32417        0.26943        0.27506        0.23949        0.28784        0.30633        0.32152        0.28864        0.23584        0.23051        0.22400        0.29505        0.27438        0.26790        0.28497        0.29513        0.28182        0.22451        0.20502        0.27048        0.32494        0.25433        0.26820        0.25710        0.29145        0.23681        0.25284        0.23748        0.24441        0.24624        0.19694        0.21305        0.20716        0.17200        0.19259        0.22184        0.18509        0.15853        0.18028        0.18248        0.30598        0.14316        0.11598        0.30817        0.07854        0.08276       -0.03200       -0.30740       -0.65924
1.480357 1.470092 1.459863 1.449671 1.439516 1.429397 1.419315 1.409269 1.399259 1.389287 1.379350 1.369451 1.359587 1.349761 1.339970 1.330217 1.320500 1.310819 1.301175 1.291567 1.281996 1.272462 1.262964 1.253503 1.244078 1.234689 1.225337 1.216022 1.206743 1.197501 1.188295 1.179126 1.169993 1.160897 1.151837 1.142814 1.133827 1.124877 1.115964 1.107087 1.098246 1.089442 1.080675 1.071944 1.063249 1.054592 1.045970 1.037385 1.028837 1.020325 1.011850 1.349349 1.896229 1.229026 0.860014 0.794200 0.620673 0.684918 0.682230 0.846147 0.685884 1.022745 1.023233 1.068873 0.809873 0.539186 0.438180 0.662996 0.747883 0.409074 0.556490 0.498659 0.527651 0.501100 0.585506 0.476610 0.357900 0.290947 0.235728 0.185984 -0.060350 0.040717 -0.072843 0.017478 -0.080485 -0.009264 -0.104156 0.000108 -0.002592 0.025795 -0.092608 0.035762 0.120076 0.221688 0.186459 0.348743 0.472846 0.650287 0.805923 0.720175 0.761336 0.886440 0.899197 1.082259 0.927041 0.950686 0.907058 1.133248 1.001181 1.074757 0.997314 1.079198 0.874730 0.886731 0.789706 0.766853 0.611726 0.566563 0.366866 0.394817 0.233966 0.094892 0.060708 0.101938 0.020282 -0.003986 0.079233 0.105133 0.180891 0.251193 0.306905 0.565676 0.526864 0.636939 0.646292 0.675188 0.777542 0.716226 0.867052 0.734754 0.816834 0.690823 0.700564 0.645650 0.452510 0.477313 0.478940 0.295566 0.360930 0.154114 0.123761 0.061254 -0.049043 -0.032786 0.165421 0.172108 0.220452 0.271513 0.264502 0.454535 0.319510 0.601002 0.528378 0.571217 0.529622 0.528043 0.462705 0.450515 0.408408 0.342096 0.253023 0.262632 0.135337 0.083155 0.103998 0.011636 0.056661 0.081101 0.066360 0.066170 0.185797 0.122646 0.225110 0.244564 0.369511 0.334423 0.336637 0.301425 0.374523 0.322609 0.276774 0.214022 0.106370 0.162206 0.071203 0.032878 0.095622 0.003939 0.105161 0.080068 0.073204 0.177275 0.142043 0.194449 0.197907 0.303535 0.196955 0.168214 0.150361 0.212510 0.189358 0.123474 0.099401 0.047542 -0.018483 0.031328 -0.010226 0.012185 0.074052 0.056189 0.112693 0.073467 0.167121 0.116906 0.161999 0.217273 0.114366 0.131537 0.065296 0.068258 0.061466 0.078799 0.030982 -0.025198 0.050701 0.050352 0.060162 0.075296 0.129994 0.095409 0.101508 0.172989 0.122337 0.048019 0.088350 0.026042 0.015884 0.061865 0.004442 0.025383 -0.022366 0.036175 0.012862 0.010818 0.055959 0.058025 0.040556 0.023867 0.102498 0.040027 0.011168 0.071102 0.019357 -0.039353 -0.011644 -0.018590 -0.019015 0.008009 -0.014921 0.022470 0.037828 0.053883 0.047121 -0.035288 0.067613 0.038522 -0.029184 -0.001534 -0.004145 -0.002614 -0.002355 0.045070 0.066330 0.093879 0.049605 0.019712 0.068326 0.087527 0.066315 0.020086 0.087519 0.008948 0.031403 -0.025289 0.107490 0.053576 0.094576 -0.013875 0.078507 0.021661 0.059349 0.039894 0.089469 0.067927 0.060182 -0.018305 0.024963 0.104145 0.040220 0.026911 0.144559 0.056820 0.057727 -0.014558 0.150089 0.077550 0.003395 0.057326 -0.046830 0.073146 0.073996 0.074117 0.100316 -0.011583 -0.070114 0.006335 0.047002 0.040996 0.020951 0.061616 0.035838 0.057911 -0.026261 -0.037499 0.050224 0.113499 0.017257 0.007099 0.072936 0.029286 0.063393 0.027593 0.050267 0.004779 0.029867 -0.016328 -0.009961 0.312165 0.197143 0.248717 0.253938 0.223015 0.188145 0.199246 0.219667 0.486449 0.175748 0.044784 0.509246 0.112373 0.166892 -0.037643 -0.790739
0.072396 0.072799 0.074006 0.076018 0.078834 0.082454 0.086876 0.092101 0.098126 0.104951 0.112572 0.120988 0.130195 0.140191 0.150969 0.162527 0.174856 0.187951 0.201803 0.216403 0.231740 0.247801 0.264573 0.282040 0.300184 0.318984 0.338419 0.358465 0.379093 0.400275 0.421977 0.444162 0.466792 0.489825 0.513213 0.536908 0.560854 0.584995 0.609268 0.633608 0.657944 0.682203 0.706303 0.730164 0.753696 0.776808 0.799403 0.821381 0.842637 0.863063 0.882547 0.900973 0.918222 0.934174 0.948705 0.961689 0.972999 0.982508 0.990089 0.995614 0.998957 0.999995 0.998607 0.994678 0.988094 0.978750 0.966549 0.951399 0.933220 0.911942 0.887505 0.859866 0.828992 0.794870 0.757501 0.716905 0.673122 0.626211 0.576255 0.523358 0.467648 0.409277 0.348423 0.285289 0.220104 0.153122 0.084624 0.014916 0.055670 0.126779 0.198033 0.269031 0.339354 0.408565 0.476209 0.541822 0.604927 0.665045 0.721689 0.774378 0.822636 0.865996 0.904007 0.936240 0.962291 0.981784 0.994385 0.999799 0.997777 0.988127 0.970712 0.945458 0.912361 0.871486 0.822973 0.767043 0.703996 0.634212 0.558157 0.476377 0.389500 0.298233 0.203358 0.105727 0.006256 0.094080 0.194259 0.293218 0.389868 0.483100 0.571804 0.654877 0.731245 0.799869 0.859768 0.910032 0.949837 0.978462 0.995304 0.999890 0.991895 0.971150 0.937652 0.891575 0.833272 0.763286 0.682342 0.591349 0.491398 0.383746 0.269812 0.151157 0.029469 0.093462 0.215768 0.335527 0.450798 0.559646 0.660186 0.750608 0.829216 0.894464 0.944991 0.979650 0.997542 0.998040 0.980817 0.945862 0.893492 0.824363 0.739471 0.640144 0.528031 0.405080 0.273515 0.135798 0.005415 0.147319 0.287011 0.421556 0.548043 0.663653 0.765726 0.851821 0.919789 0.967825 0.994529 0.998949 0.980623 0.939611 0.876508 0.792452 0.689119 0.568695 0.433846 0.287666 0.133614 0.024565 0.182920 0.337400 0.483944 0.618605 0.737650 0.837672 0.915697 0.969277 0.996584 0.996476 0.968556 0.913210 0.831621 0.725761 0.598359 0.452848 0.293279 0.124226 0.049348 0.222220 0.389068 0.544639 0.683905 0.802248 0.895614 0.960662 0.994899 0.996791 0.965844 0.902650 0.808905 0.687384 0.541875 0.377085 0.198491 0.012183 0.175348 0.357424 0.527423 0.679021 0.806435 0.904658 0.969666 0.998604 0.989927 0.943500 0.860640 0.744112 0.598060 0.427880 0.240037 0.041844 0.158824 0.353828 0.535103 0.694989 0.826571 0.923987 0.982711 0.999784 0.973986 0.905936 0.798115 0.654808 0.481959 0.286951 0.078310 0.134661 0.342275 0.534918 0.703487 0.839836 0.937187 0.990491 0.996714 0.955038 0.866957 0.736264 0.568924 0.372825 0.157441 0.066610 0.288083 0.495663 0.678544 0.827008 0.932963 0.990405 0.995792 0.948292 0.849897 0.705381 0.522112 0.309704 0.079545 0.155791 0.383230 0.589921 0.763968 0.895131 0.975464 0.999821 0.966229 0.876073 0.734098 0.548198 0.329028 0.089411 0.156372 0.393443 0.607202 0.784261 0.913286 0.985765 0.996602 0.944523 0.832239 0.666365 0.457075 0.217526 0.036946 0.289779 0.524258 0.724628 0.877181 0.971202 0.999790 0.960394 0.855088 0.690531 0.477601 0.230715 0.033101 0.295358 0.537410 0.741766 0.893395 0.980854 0.997207 0.940625 0.814632 0.627947 0.393951 0.129764 0.144957 0.409475 0.643527 0.828889 0.950843 0.999380 0.970081 0.864580 0.690554 0.461236 0.194468 0.088645 0.365386 0.613229 0.811691 0.944066 0.998871 0.970911 0.861837 0.680134 0.440541
1.000000 1.000000 1.000000 1.000000 1.000000 1.000000 1.000000 1.000000 1.000000 1.000000 1.000000 1.000000 1.000000 1.000000 1.000000 1.000000 1.000000 1.000000 1.000000 1.000000 1.000000 1.000000 1.000000 1.000000 1.000000 1.000000 1.000000 1.000000 1.000000 1.000000 1.000000 1.000000 1.000000 1.000000 1.000000 1.000000 1.000000 1.000000 1.000000 1.000000 1.000000 1.000000 1.000000 1.000000 1.000000 1.000000 1.000000 1.000000 1.000000 1.000000 1.000000 1.000000 0.803342 0.803342 0.803342 0.803342 0.803342 0.803342 0.803342 0.803342 0.803342 0.780947 0.780947 0.780947 0.780947 0.780947 0.780947 0.780947 0.780947 0.780947 0.780947 0.780947 0.780947 0.780947 0.780947 0.780947 0.780947 0.780947 0.780947 0.780947 0.780947 0.780947 0.780947 0.780947 0.780947 0.780947 0.780947 0.780947 0.780947 0.780947 0.780947 0.780947 0.780947 0.780947 0.780947 0.780947 0.780947 0.780947 0.780947 0.780947 0.780947 0.780947 0.780947 0.780947 0.780947 0.780947 0.780947 0.780947 0.943021 0.943251 0.944263 0.952634 0.953391 0.954239 0.954045 0.953721 0.953940 0.954050 0.953581 0.954152 0.954720 0.955599 0.965726 0.966464 0.970013 0.970051 0.969930 0.969558 0.968905 0.975513 0.974823 0.974777 0.973644 0.972810 0.972752 0.973646 0.968008 0.967706 0.967361 0.974776 0.968753 0.968152 0.967188 0.964893 0.964042 0.963320 0.963229 0.962827 0.962783 0.963014 0.962946 0.963311 0.963702 0.963861 0.963921 0.959024 0.959249 0.958263 0.957661 0.947075 0.948918 0.943597 0.941227 0.932790 0.929631 0.935894 0.930982 0.929380 0.928582 0.928511 0.928559 0.928726 0.926898 0.922843 0.917245 0.916167 0.915389 0.913422 0.912394 0.914377 0.911699 0.913559 0.918571 0.920414 0.919779 0.917145 0.914496 0.906291 0.896773 0.897054 0.892619 0.895355 0.897363 0.888370 0.884438 0.872121 0.865616 0.862633 0.859919 0.859965 0.864976 0.862170 0.861512 0.859926 0.857787 0.859173 0.853258 0.852885 0.839794 0.837874 0.845151 0.818603 0.813107 0.804213 0.798007 0.799089 0.804702 0.803470 0.807712 0.804908 0.796836 0.780251 0.771119 0.760379 0.751162 0.740615 0.749696 0.746647 0.734514 0.748680 0.734423 0.756173 0.758623 0.764511 0.775587 0.775856 0.766124 0.761329 0.757254 0.753073 0.750673 0.697387 0.751789 0.701007 0.701310 0.694455 0.685371 0.674266 0.669443 0.674812 0.678205 0.670365 0.662933 0.654034 0.652129 0.641998 0.641411 0.658029 0.624372 0.626447 0.607094 0.626402 0.580160 0.578013 0.579447 0.543294 0.525309 0.505514 0.501837 0.495615 0.495710 0.490349 0.486897 0.463341 0.477573 0.492843 0.469878 0.477698 0.472071 0.485035 0.473033 0.467098 0.421199 0.420924 0.416914 0.427233 0.433724 0.427730 0.465897 0.437411 0.433608 0.441123 0.449198 0.435947 0.371864 0.359448 0.347289 0.330346 0.319100 0.200576 0.201536 0.197177 0.210689 0.231641 0.215549 0.195102 0.234417 0.225158 0.220235 0.230689 0.222189 0.213562 0.175724 0.177016 0.153163 0.109262 0.108670 0.097447 0.081804 0.061829 0.056354 0.070440 0.089729 0.082393 0.072750 0.040482 -0.004696 -0.002195 -0.012882 -0.022394 0.033102 0.018885 0.018885 0.018885 0.018885 0.018885 0.024548 0.024548 0.024548 0.024548 0.024548 0.024548 0.024548 0.024548 0.024548 0.024548 0.024548 0.024548 0.018885 0.018885 0.018885 0.018885 0.018885 0.018885 0.018885 0.018885 0.018885 0.018885 0.018885 0.018885 0.018885 0.018885 0.018885
0.000000 0.000000 0.000000 0.000000 0.000000 0.000000 0.000000 0.000000 0.000000 0.000000 0.000000 0.000000 0.000000 0.000000 0.000000 0.000000 0.000000 0.000000 0.000000 0.000000 0.000000 9401.000000 0.000000 0.000000 0.000000 0.000000 0.000000 0.000000 0.000000 0.000000 0.000000 0.000000 0.000000 0.000000 0.000000 0.000000 0.000000 0.000000 0.000000 0.000000 0.000000 0.000000 0.000000 0.000000 0.000000 0.000000 0.000000 0.000000 0.000000 0.000000 0.000000 0.000000 0.170872 0.170872 0.170872 0.170872 0.170872 0.170872 0.170872 0.170872 0.170872 0.186501 0.186501 0.186501 0.186501 0.186501 0.186501 0.186501 0.186501 0.186501 0.186501 0.186501 0.186501 0.186501 0.186501 0.186501 0.186501 0.186501 0.186501 0.186501 0.186501 0.186501 0.186501 0.186501 0.186501 0.186501 0.186501 0.186501 0.186501 0.186501 0.186501 0.186501 0.186501 0.186501 0.186501 0.186501 0.186501 0.186501 0.186501 0.186501 0.186501 0.186501 0.186501 0.186501 0.186501 0.186501 0.186501 0.186501 0.219529 0.219529 0.219529 0.219529 0.219529 0.219529 0.219529 0.219529 0.219529 0.219529 0.219529 0.219529 0.219529 0.219529 0.219529 0.219529 0.219529 0.219529 0.219529 0.219529 0.219529 0.219529 0.219529 0.219529 0.219529 0.219529 0.219529 0.219529 0.219529 0.219529 0.219529 0.230940 0.230940 0.230940 0.230940 0.230940 0.230940 0.230940 0.230940 0.230940 0.230940 0.230940 0.230940 0.230940 0.230940 0.230940 0.230940 0.230940 0.230940 0.230940 0.230940 0.230940 0.230940 0.230940 0.230940 0.230940 0.230940 0.240772 0.240772 0.240772 0.240772 0.240772 0.240772 0.240772 0.240772 0.240772 0.240772 0.240772 0.240772 0.240772 0.240772 0.240772 0.240772 0.240772 0.240772 0.240772 0.240772 0.240772 0.240772 0.244339 0.244339 0.244339 0.244339 0.244339 0.244339 0.244339 0.244339 0.244339 0.244339 0.244339 0.244339 0.244339 0.244339 0.244339 0.244339 0.244339 0.244339 0.244339 0.244339 0.248069 0.248069 0.248069 0.248069 0.248069 0.248069 0.248069 0.248069 0.248069 0.248069 0.248069 0.248069 0.248069 0.248069 0.248069 0.248069 0.248069 0.248069 0.248069 0.248069 0.248069 0.248069 0.248069 0.248069 0.248069 0.248069 0.248069 0.248069 0.248069 0.248069 0.248069 0.248069 0.248069 0.248069 0.248069 0.256074 0.256074 0.256074 0.256074 0.256074 0.256074 0.256074 0.256074 0.256074 0.256074 0.256074 0.256074 0.256074 0.256074 0.256074 0.248069 0.248069 0.248069 0.248069 0.248069 0.248069 0.248069 0.248069 0.248069 0.248069 0.248069 0.248069 0.248069 0.248069 0.248069 0.251976 0.251976 0.251976 0.251976 0.251976 0.251976 0.251976 0.251976 0.251976 0.251976 0.251976 0.251976 0.251976 0.251976 0.256074 0.256074 0.256074 0.256074 0.256074 0.256074 0.256074 0.256074 0.256074 0.256074 0.256074 0.256074 0.256074 0.248069 0.248069 0.248069 0.248069 0.248069 0.248069 0.248069 0.248069 0.248069 0.248069 0.248069 0.248069 0.248069 0.251976 0.251976 0.251976 0.251976 0.251976 0.251976 0.251976 0.251976 0.251976 0.251976 0.251976 0.251976 0.248069 0.248069 0.248069 0.248069 0.248069 0.248069 0.248069 0.248069 0.248069 0.248069 0.248069 0.248069 0.244339 0.244339 0.244339 0.244339 0.244339 0.244339 0.244339 0.244339 0.244339 0.244339 0.244339 0.244339 0.248069 0.248069 0.248069 0.248069 0.248069 0.248069 0.248069 0.248069 0.248069 0.248069 0.248069 0.248069 0.248069 0.248069 0.248069
