# Output from CTFFind version 4.1.9, run on 2019-11-03 18:52:07
# Input file: stack13_ub_averaged_2000.mrc ; Number of micrographs: 1
# Pixel size: 3.000 Angstroms ; acceleration voltage: 300.0 keV ; spherical aberration: 0.00 mm ; amplitude contrast: 0.07
# Box size: 512 pixels ; min. res.: 30.0 Angstroms ; max. res.: 5.0 Angstroms ; min. def.: 5000.0 um; max. def. 50000.0 um; num. frames averaged: 1
# 6 lines per micrograph: #1 - spatial frequency (1/Angstroms); #2 - 1D rotational average of spectrum (assuming no astigmatism); #3 - 1D rotational average of spectrum; #4 - CTF fit; #5 - cross-correlation between spectrum and CTF fit; #6 - 2sigma of expected cross correlation of noise
0.000000 0.000651 0.001302 0.001953 0.002604 0.003255 0.003906 0.004557 0.005208 0.005859 0.006510 0.007161 0.007812 0.008464 0.009115 0.009766 0.010417 0.011068 0.011719 0.012370 0.013021 0.013672 0.014323 0.014974 0.015625 0.016276 0.016927 0.017578 0.018229 0.018880 0.019531 0.020182 0.020833 0.021484 0.022135 0.022786 0.023438 0.024089 0.024740 0.025391 0.026042 0.026693 0.027344 0.027995 0.028646 0.029297 0.029948 0.030599 0.031250 0.031901 0.032552 0.033203 0.033854 0.034505 0.035156 0.035807 0.036458 0.037109 0.037760 0.038411 0.039062 0.039714 0.040365 0.041016 0.041667 0.042318 0.042969 0.043620 0.044271 0.044922 0.045573 0.046224 0.046875 0.047526 0.048177 0.048828 0.049479 0.050130 0.050781 0.051432 0.052083 0.052734 0.053385 0.054036 0.054688 0.055339 0.055990 0.056641 0.057292 0.057943 0.058594 0.059245 0.059896 0.060547 0.061198 0.061849 0.062500 0.063151 0.063802 0.064453 0.065104 0.065755 0.066406 0.067057 0.067708 0.068359 0.069010 0.069661 0.070312 0.070964 0.071615 0.072266 0.072917 0.073568 0.074219 0.074870 0.075521 0.076172 0.076823 0.077474 0.078125 0.078776 0.079427 0.080078 0.080729 0.081380 0.082031 0.082682 0.083333 0.083984 0.084635 0.085286 0.085938 0.086589 0.087240 0.087891 0.088542 0.089193 0.089844 0.090495 0.091146 0.091797 0.092448 0.093099 0.093750 0.094401 0.095052 0.095703 0.096354 0.097005 0.097656 0.098307 0.098958 0.099609 0.100260 0.100911 0.101562 0.102214 0.102865 0.103516 0.104167 0.104818 0.105469 0.106120 0.106771 0.107422 0.108073 0.108724 0.109375 0.110026 0.110677 0.111328 0.111979 0.112630 0.113281 0.113932 0.114583 0.115234 0.115885 0.116536 0.117188 0.117839 0.118490 0.119141 0.119792 0.120443 0.121094 0.121745 0.122396 0.123047 0.123698 0.124349 0.125000 0.125651 0.126302 0.126953 0.127604 0.128255 0.128906 0.129557 0.130208 0.130859 0.131510 0.132161 0.132812 0.133464 0.134115 0.134766 0.135417 0.136068 0.136719 0.137370 0.138021 0.138672 0.139323 0.139974 0.140625 0.141276 0.141927 0.142578 0.143229 0.143880 0.144531 0.145182 0.145833 0.146484 0.147135 0.147786 0.148438 0.149089 0.149740 0.150391 0.151042 0.151693 0.152344 0.152995 0.153646 0.154297 0.154948 0.155599 0.156250 0.156901 0.157552 0.158203 0.158854 0.159505 0.160156 0.160807 0.161458 0.162109 0.162760 0.163411 0.164062 0.164714 0.165365 0.166016 0.166667 0.167318 0.167969 0.168620 0.169271 0.169922 0.170573 0.171224 0.171875 0.172526 0.173177 0.173828 0.174479 0.175130 0.175781 0.176432 0.177083 0.177734 0.178385 0.179036 0.179688 0.180339 0.180990 0.181641 0.182292 0.182943 0.183594 0.184245 0.184896 0.185547 0.186198 0.186849 0.187500 0.188151 0.188802 0.189453 0.190104 0.190755 0.191406 0.192057 0.192708 0.193359 0.194010 0.194661 0.195312 0.195964 0.196615 0.197266 0.197917 0.198568 0.199219 0.199870 0.200521 0.201172 0.201823 0.202474 0.203125 0.203776 0.204427 0.205078 0.205729 0.206380 0.207031 0.207682 0.208333 0.208984 0.209635 0.210286 0.210938 0.211589 0.212240 0.212891 0.213542 0.214193 0.214844 0.215495 0.216146 0.216797 0.217448 0.218099 0.218750 0.219401 0.220052 0.220703 0.221354 0.222005 0.222656 0.223307 0.223958 0.224609 0.225260 0.225911 0.226562 0.227214 0.227865 0.228516 0.229167 0.229818 0.230469 0.231120 0.231771 0.232422 0.233073 0.233724 0.234375 0.235026 0.235677
       0.36130        0.36130        0.36130        0.36130        0.36130        0.36130        0.36130        0.36130        0.36130        0.36130        0.36130        0.36130        0.36130        0.36130        0.36130        0.36130        0.36130        0.36130        0.36130        0.36130        0.36130        0.36130        0.36130        0.36130        0.36130        0.36130        0.36130        0.36130        0.36130        0.36130        0.36130        0.36130        0.36130        0.36130        0.36130        0.36130        0.36130        0.36130        0.36130        0.36130        0.36130        0.36130        0.36130        0.36130        0.36130        0.36130        0.36130        0.36130        0.36130        0.36130        0.36130        0.58152        1.00108        0.80484        0.06968       -0.24187       -0.19456       -0.34926       -0.35301       -0.31261       -0.36162       -0.08334       -0.31252       -0.28073       -0.50107       -0.52288       -0.62118       -0.66120       -0.68059       -0.80688       -0.73112       -0.73239       -0.64447       -0.65340       -0.59347       -0.55729       -0.57183       -0.45671       -0.33115       -0.29442       -0.17052       -0.03039        0.07694        0.26585        0.37291        0.41595        0.45419        0.56423        0.69346        0.60283        0.61419        0.54962        0.70340        0.65296        0.61561        0.66932        0.61281        0.54986        0.35864        0.31227        0.22972        0.15347        0.05399        0.04428       -0.07930        0.01550        0.01365        0.06346        0.13484        0.17836        0.22631        0.41067        0.48973        0.60874        0.62177        0.68513        0.67997        0.74799        0.72360        0.62996        0.60260        0.63593        0.53497        0.41298        0.35683        0.26908        0.15375        0.14890        0.06798        0.08964        0.02490        0.12018        0.18521        0.36707        0.45357        0.44601        0.51107        0.58777        0.59151        0.55637        0.65345        0.57695        0.50772        0.48064        0.42051        0.28862        0.26512        0.18248        0.13413        0.11967        0.16204        0.17830        0.28877        0.35130        0.46735        0.45597        0.53358        0.56298        0.56070        0.56456        0.55446        0.46683        0.39717        0.31908        0.26563        0.21785        0.19822        0.19281        0.23161        0.29342        0.28657        0.37939        0.46321        0.49477        0.52678        0.51435        0.51724        0.46390        0.40607        0.34091        0.27574        0.26169        0.23568        0.22161        0.25366        0.33613        0.37954        0.42874        0.51744        0.48855        0.49273        0.45769        0.40379        0.39486        0.35635        0.33492        0.24609        0.24411        0.29069        0.33942        0.35356        0.40100        0.43474        0.48319        0.43178        0.42583        0.40056        0.40850        0.36138        0.32423        0.30293        0.34315        0.33371        0.33117        0.35833        0.39388        0.37314        0.41989        0.44137        0.39010        0.33338        0.28592        0.27009        0.30112        0.28861        0.33112        0.36147        0.39585        0.45778        0.41969        0.42854        0.41076        0.35145        0.36351        0.35340        0.29463        0.31552        0.34238        0.35172        0.37855        0.39730        0.39469        0.38465        0.36548        0.36248        0.31665        0.30370        0.26901        0.29359        0.31817        0.32439        0.35439        0.38175        0.39261        0.35920        0.31439        0.30247        0.28586        0.27053        0.27824        0.33706        0.33986        0.35673        0.34411        0.36545        0.35514        0.31260        0.29550        0.32452        0.32086        0.31673        0.36313        0.33717        0.34490        0.40925        0.34901        0.38122        0.33352        0.27441        0.31266        0.34781        0.36016        0.33021        0.34544        0.39037        0.38418        0.38701        0.37674        0.30832        0.28423        0.36041        0.28502        0.36314        0.36613        0.37141        0.33005        0.34415        0.34361        0.33417        0.32428        0.32122        0.32699        0.34555        0.40937        0.32958        0.38437        0.32264        0.30645        0.27304        0.32634        0.34773        0.32223        0.34960        0.34066        0.28146        0.25998        0.37053        0.28464        0.27818        0.31401        0.36514        0.33748        0.29995        0.25518        0.29026        0.32385        0.33929        0.33101        0.34844        0.29250        0.31995        0.27238        0.22716        0.24320        0.27935        0.33819        0.33032        0.33326        0.28614        0.31144        0.28064        0.24925        0.28952        0.33873        0.22921        0.26109        0.28203        0.28979        0.24154        0.26265        0.19077        0.25905        0.21312        0.21059        0.30815        0.30843        0.20651        0.23507        0.21539        0.19956        0.08775       -0.52977       -0.86134
2.384399 2.358003 2.331761 2.305673 2.279739 2.253959 2.228333 2.202860 2.177542 2.152377 2.127367 2.102510 2.077807 2.053258 2.028864 2.004622 1.980535 1.956602 1.932823 1.909198 1.885726 1.862409 1.839245 1.816236 1.793380 1.770678 1.748130 1.725736 1.703496 1.681410 1.659478 1.637700 1.616075 1.594605 1.573288 1.552126 1.531117 1.510262 1.489561 1.469014 1.448621 1.428382 1.408297 1.388366 1.368589 1.348965 1.329496 1.310180 1.291019 1.272011 1.253157 1.378009 1.777377 1.650877 1.008415 0.580681 0.639969 0.490401 0.390907 0.518976 0.354260 0.634614 0.473112 0.441033 0.234539 0.114583 0.090042 0.031923 -0.024864 -0.159402 -0.067966 -0.212039 -0.046664 -0.094467 -0.049934 0.027646 -0.087751 0.039594 0.121743 0.129656 0.217186 0.401804 0.397123 0.653987 0.643788 0.769847 0.735624 0.848027 0.908070 0.921061 0.831572 0.752507 0.904310 0.891448 0.821179 0.854479 0.780752 0.783529 0.531210 0.454410 0.418826 0.305089 0.235469 0.191160 0.074873 0.097914 0.097631 0.152709 0.193861 0.253481 0.213641 0.443848 0.441028 0.596085 0.592782 0.678780 0.653051 0.649765 0.726889 0.573964 0.456826 0.661527 0.470772 0.355664 0.305498 0.237804 0.089580 0.064738 0.004459 0.010194 -0.119942 0.043970 0.006452 0.198030 0.270490 0.294962 0.315132 0.401422 0.415772 0.423821 0.409029 0.451775 0.353826 0.290585 0.320612 0.119397 0.108280 0.066935 -0.018556 -0.094582 -0.023815 0.012797 0.019846 0.097327 0.258851 0.202377 0.276340 0.356619 0.377885 0.390296 0.407694 0.327215 0.240939 0.218972 0.069285 0.097723 0.016456 0.023056 0.033552 0.083721 0.128591 0.131212 0.216792 0.263233 0.324300 0.275960 0.347289 0.269316 0.204420 0.151555 0.125657 0.021968 0.067769 -0.000116 0.026803 0.067830 0.110416 0.181951 0.245304 0.278640 0.218586 0.223938 0.201570 0.100735 0.126478 0.106122 0.016114 -0.024376 -0.014611 0.073453 0.032831 0.145018 0.108524 0.177946 0.195283 0.141372 0.114302 0.116614 0.118106 0.054868 0.021979 0.035482 0.077808 0.029021 0.076082 0.053595 0.096747 0.093625 0.143051 0.118464 0.074768 0.029526 -0.051684 0.004523 -0.012381 0.018417 0.039787 0.068227 0.129719 0.147342 0.105645 0.122603 0.125848 0.058276 0.058234 0.048502 0.009795 0.047875 0.039786 0.071939 0.096867 0.088655 0.109313 0.085639 0.071705 0.073893 0.007624 0.025509 -0.024104 0.012290 0.042586 0.037796 0.078045 0.103713 0.096415 0.052508 0.019621 0.013972 -0.003454 -0.007339 0.003871 0.042316 0.069244 0.049770 0.069347 0.091491 0.067064 0.026303 0.021028 0.055349 0.031793 0.043272 0.089107 0.051069 0.048824 0.101545 0.058611 0.115434 0.042868 -0.045806 0.038060 0.061206 0.073899 0.033041 0.057249 0.127850 0.078272 0.100528 0.099450 -0.002237 0.015301 0.083013 -0.028566 0.094059 0.082258 0.068710 0.014200 0.065119 0.029609 0.022438 0.008893 0.025077 0.015227 0.018735 0.039979 0.007555 0.048911 -0.048267 -0.041641 -0.057911 -0.008995 -0.021252 -0.047221 0.021005 -0.046620 -0.075672 -0.086924 0.044966 -0.079496 -0.080147 -0.007572 0.019552 -0.008103 -0.023933 -0.082603 -0.006767 0.024696 -0.006011 0.008008 0.011990 0.023730 0.016580 -0.026392 -0.065531 -0.041994 -0.002437 0.041966 0.047780 0.059778 -0.013678 0.094083 -0.019760 -0.039989 0.021159 0.066204 -0.019265 -0.048830 0.005556 0.041183 -0.017291 0.006941 -0.058943 -0.017732 -0.105219 0.200732 0.319237 0.279184 0.182659 0.264035 0.191376 0.143106 0.087458 -0.800215
0.072396 0.072957 0.074639 0.077443 0.081367 0.086410 0.092571 0.099847 0.108237 0.117735 0.128338 0.140041 0.152835 0.166713 0.181664 0.197675 0.214733 0.232819 0.251914 0.271993 0.293031 0.314995 0.337850 0.361556 0.386069 0.411338 0.437306 0.463911 0.491084 0.518749 0.546823 0.575215 0.603828 0.632554 0.661279 0.689881 0.718227 0.746177 0.773583 0.800289 0.826128 0.850929 0.874510 0.896685 0.917261 0.936037 0.952812 0.967377 0.979525 0.989044 0.995726 0.999363 0.999753 0.996699 0.990014 0.979519 0.965051 0.946462 0.923622 0.896423 0.864781 0.828638 0.787969 0.742778 0.693109 0.639042 0.580698 0.518242 0.451886 0.381888 0.308555 0.232243 0.153361 0.072367 0.010234 0.093884 0.177982 0.261883 0.344903 0.426322 0.505391 0.581337 0.653374 0.720705 0.782536 0.838085 0.886592 0.927328 0.959612 0.982818 0.996391 0.999859 0.992844 0.975075 0.946400 0.906795 0.856377 0.795408 0.724304 0.643639 0.554147 0.456723 0.352418 0.242434 0.128117 0.010941 0.107504 0.225533 0.341388 0.453262 0.559327 0.657767 0.746809 0.824760 0.890038 0.941213 0.977042 0.996502 0.998825 0.983528 0.950438 0.899715 0.831870 0.747769 0.648641 0.536071 0.411982 0.278620 0.138514 0.005561 0.150631 0.293586 0.431244 0.560419 0.677998 0.781025 0.866775 0.932840 0.977203 0.998309 0.995131 0.967222 0.914760 0.838566 0.740124 0.621565 0.485643 0.335686 0.175530 0.009428 0.158045 0.322126 0.477988 0.620889 0.746319 0.850154 0.928801 0.979341 0.999649 0.988504 0.945664 0.871926 0.769134 0.640174 0.488911 0.320097 0.139243 0.047543 0.233762 0.412734 0.577845 0.722798 0.841863 0.930118 0.983676 0.999883 0.977463 0.916638 0.819166 0.688342 0.528915 0.346950 0.149624 0.055037 0.258476 0.451947 0.626905 0.775387 0.890391 0.966238 0.998874 0.986123 0.927860 0.826089 0.684930 0.510493 0.310657 0.094743 0.126896 0.343356 0.543718 0.717606 0.855741 0.950465 0.996201 0.989821 0.930902 0.821838 0.667806 0.476582 0.258186 0.024396 0.211854 0.437183 0.638528 0.803902 0.923149 0.988605 0.995631 0.943004 0.833094 0.671839 0.468482 0.235110 0.014034 0.263381 0.497001 0.699630 0.857681 0.960204 0.999689 0.972680 0.880135 0.727492 0.524431 0.284332 0.023445 0.240167 0.487871 0.701773 0.866050 0.968150 0.999828 0.957878 0.844515 0.667373 0.439074 0.176407 0.100852 0.371388 0.613995 0.809232 0.941043 0.998133 0.975019 0.872638 0.698443 0.465979 0.193901 0.095447 0.377826 0.629123 0.827438 0.955029 0.999989 0.957442 0.830165 0.628543 0.369832 0.076774 0.224326 0.505942 0.741850 0.909592 0.992701 0.982412 0.878695 0.690476 0.435012 0.136400 0.176589 0.473263 0.724003 0.903261 0.992242 0.980983 0.869590 0.668471 0.397514 0.084235 0.238923 0.537929 0.780722 0.940734 0.999873 0.950703 0.797507 0.556100 0.252334 0.080538 0.405442 0.685602 0.888707 0.990758 0.979004 0.853702 0.628376 0.328535 0.011088 0.350449 0.648900 0.870073 0.986401 0.982687 0.858253 0.627351 0.317707 0.032644 0.379945 0.680133 0.894486 0.994694 0.966768 0.813160 0.552808 0.218981 0.144800 0.490373 0.771280 0.949081 0.998746 0.912355 0.700549 0.391454 0.027128 0.342024 0.664184 0.893398 0.996273 0.956993 0.779975 0.489640 0.127252 0.254763 0.600345 0.858011 0.988645 0.971608 0.808213 0.521970 0.155452 0.235875 0.591924 0.857242 0.989746 0.967571 0.792931 0.492236 0.112350 0.286537 0.640332 0.891379 0.997962
1.000000 1.000000 1.000000 1.000000 1.000000 1.000000 1.000000 1.000000 1.000000 1.000000 1.000000 1.000000 1.000000 1.000000 1.000000 1.000000 1.000000 1.000000 1.000000 1.000000 1.000000 1.000000 1.000000 1.000000 1.000000 1.000000 1.000000 1.000000 1.000000 1.000000 1.000000 1.000000 1.000000 1.000000 1.000000 1.000000 1.000000 1.000000 1.000000 1.000000 1.000000 1.000000 1.000000 1.000000 1.000000 1.000000 1.000000 1.000000 1.000000 1.000000 1.000000 1.000000 0.940067 0.940067 0.940067 0.940067 0.940067 0.940067 0.940067 0.940067 0.940067 0.940067 0.940067 0.940067 0.940067 0.940067 0.940067 0.940067 0.940067 0.940067 0.940067 0.940067 0.940067 0.940067 0.940067 0.940067 0.940067 0.940067 0.940067 0.940067 0.940067 0.940067 0.940067 0.940067 0.940067 0.940067 0.940067 0.940067 0.940067 0.940067 0.940067 0.921287 0.923870 0.924606 0.927960 0.928593 0.927236 0.929177 0.929403 0.930196 0.931034 0.932455 0.934147 0.935767 0.938709 0.943247 0.949602 0.949853 0.952760 0.954984 0.955674 0.969628 0.970321 0.971436 0.971877 0.972034 0.972093 0.972193 0.972919 0.973032 0.972769 0.972275 0.970639 0.972618 0.978068 0.978031 0.977660 0.977747 0.977980 0.977992 0.978969 0.979180 0.977949 0.975666 0.975485 0.974988 0.975060 0.975362 0.974570 0.973303 0.974659 0.974669 0.974810 0.975167 0.975149 0.971126 0.971392 0.969455 0.964448 0.958383 0.955942 0.952338 0.953478 0.955708 0.955308 0.952578 0.948057 0.945564 0.944561 0.946415 0.943688 0.943777 0.944696 0.945991 0.946782 0.946836 0.938494 0.936992 0.935048 0.934921 0.937471 0.940481 0.939632 0.935935 0.935594 0.933870 0.934936 0.928304 0.913982 0.907929 0.907397 0.906454 0.909940 0.914566 0.910986 0.905358 0.900192 0.877575 0.864669 0.861290 0.863784 0.865064 0.867144 0.874639 0.866798 0.862368 0.859944 0.857086 0.856991 0.858658 0.859659 0.858049 0.856326 0.857046 0.857343 0.855425 0.855248 0.852064 0.850465 0.847833 0.847758 0.840624 0.840323 0.842154 0.844119 0.845649 0.846229 0.844903 0.848687 0.839374 0.843597 0.842464 0.845955 0.840816 0.844555 0.845565 0.840881 0.830521 0.824842 0.826205 0.835166 0.820668 0.827193 0.835600 0.843505 0.845224 0.841156 0.837715 0.834005 0.834686 0.838855 0.859452 0.805154 0.807696 0.816324 0.816049 0.810566 0.810074 0.806700 0.794524 0.792455 0.807592 0.791235 0.782156 0.782302 0.781638 0.773218 0.757747 0.759621 0.754520 0.747796 0.726474 0.734741 0.736585 0.712419 0.709291 0.673338 0.675868 0.678791 0.674138 0.633336 0.621252 0.627555 0.633239 0.638264 0.606334 0.568206 0.572993 0.573375 0.562765 0.569036 0.567699 0.563735 0.563752 0.559906 0.548845 0.535698 0.513633 0.504086 0.413718 0.424454 0.409972 0.412504 0.424409 0.412699 0.414518 0.401662 0.414641 0.383610 0.337321 0.332193 0.339370 0.354291 0.354234 0.361364 0.369906 0.385765 0.382825 0.354679 0.376247 0.391671 0.370460 0.375499 0.404613 0.405932 0.386003 0.363775 0.355154 0.382608 0.372304 0.362105 0.337784 0.356158 0.311344 0.338517 0.343644 0.308977 0.270843 0.246162 0.242578 0.272801 0.163528 0.177488 0.177488 0.177488 0.177488 0.177488 0.177488 0.177488 0.152226 0.152226 0.152226 0.152226 0.152226 0.152226 0.152226 0.152226 0.164643 0.164643 0.164643 0.164643 0.164643 0.164643 0.164643 0.164643 0.164643 0.164643 0.164643 0.164643 0.164643 0.164643 0.164643 0.164643
0.000000 0.000000 0.000000 0.000000 0.000000 0.000000 0.000000 0.000000 0.000000 0.000000 0.000000 0.000000 0.000000 0.000000 0.000000 0.000000 0.000000 0.000000 0.000000 0.000000 0.000000 0.000000 0.000000 0.000000 0.000000 0.000000 0.000000 0.000000 0.000000 0.000000 0.000000 0.000000 0.000000 0.000000 0.000000 0.000000 0.000000 0.000000 0.000000 0.000000 0.000000 0.000000 0.000000 0.000000 0.000000 0.000000 0.000000 0.000000 0.000000 0.000000 0.000000 0.000000 0.203069 0.203069 0.203069 0.203069 0.203069 0.203069 0.203069 0.203069 0.203069 0.203069 0.203069 0.203069 0.203069 0.203069 0.203069 0.203069 0.203069 0.203069 0.203069 0.203069 0.203069 0.203069 0.203069 0.203069 0.203069 0.203069 0.203069 0.203069 0.203069 0.203069 0.203069 0.203069 0.203069 0.203069 0.203069 0.203069 0.203069 0.203069 0.203069 0.234082 0.234082 0.234082 0.234082 0.234082 0.234082 0.234082 0.234082 0.234082 0.234082 0.234082 0.234082 0.234082 0.234082 0.234082 0.234082 0.234082 0.234082 0.234082 0.234082 0.234082 0.234082 0.234082 0.234082 0.234082 0.234082 0.234082 0.248069 0.248069 0.248069 0.248069 0.248069 0.248069 0.248069 0.248069 0.248069 0.248069 0.248069 0.248069 0.248069 0.248069 0.248069 0.248069 0.248069 0.248069 0.248069 0.248069 0.248069 0.248069 0.256074 0.256074 0.256074 0.256074 0.256074 0.256074 0.256074 0.256074 0.256074 0.256074 0.256074 0.256074 0.256074 0.256074 0.256074 0.256074 0.256074 0.256074 0.256074 0.269680 0.269680 0.269680 0.269680 0.269680 0.269680 0.269680 0.269680 0.269680 0.269680 0.269680 0.269680 0.269680 0.269680 0.269680 0.269680 0.264906 0.264906 0.264906 0.264906 0.264906 0.264906 0.264906 0.264906 0.264906 0.264906 0.264906 0.264906 0.264906 0.264906 0.264906 0.264906 0.269680 0.269680 0.269680 0.269680 0.269680 0.269680 0.269680 0.269680 0.269680 0.269680 0.269680 0.269680 0.269680 0.269680 0.274721 0.274721 0.274721 0.274721 0.274721 0.274721 0.274721 0.274721 0.274721 0.274721 0.274721 0.274721 0.274721 0.264906 0.264906 0.264906 0.264906 0.264906 0.264906 0.264906 0.264906 0.264906 0.264906 0.264906 0.264906 0.264906 0.280056 0.280056 0.280056 0.280056 0.280056 0.280056 0.280056 0.280056 0.280056 0.280056 0.280056 0.264906 0.264906 0.264906 0.264906 0.264906 0.264906 0.264906 0.264906 0.264906 0.264906 0.264906 0.264906 0.269680 0.269680 0.269680 0.269680 0.269680 0.269680 0.269680 0.269680 0.269680 0.269680 0.269680 0.274721 0.274721 0.274721 0.274721 0.274721 0.274721 0.274721 0.274721 0.274721 0.274721 0.269680 0.269680 0.269680 0.269680 0.269680 0.269680 0.269680 0.269680 0.269680 0.269680 0.264906 0.264906 0.264906 0.264906 0.264906 0.264906 0.264906 0.264906 0.264906 0.264906 0.269680 0.269680 0.269680 0.269680 0.269680 0.269680 0.269680 0.269680 0.269680 0.264906 0.264906 0.264906 0.264906 0.264906 0.264906 0.264906 0.264906 0.264906 0.260378 0.260378 0.260378 0.260378 0.260378 0.260378 0.260378 0.260378 0.260378 0.269680 0.269680 0.269680 0.269680 0.269680 0.269680 0.269680 0.269680 0.251976 0.251976 0.251976 0.251976 0.251976 0.251976 0.251976 0.251976 0.251976 0.264906 0.264906 0.264906 0.264906 0.264906 0.264906 0.264906 0.264906 0.260378 0.260378 0.260378 0.260378 0.260378 0.260378 0.260378 0.260378 0.260378 0.260378 0.260378 0.260378 0.260378 0.260378 0.260378 0.260378
