# Output from CTFFind version 4.1.9, run on 2019-11-03 18:51:32
# Input file: stack14_ub_averaged_750.mrc ; Number of micrographs: 1
# Pixel size: 3.000 Angstroms ; acceleration voltage: 300.0 keV ; spherical aberration: 0.00 mm ; amplitude contrast: 0.07
# Box size: 512 pixels ; min. res.: 30.0 Angstroms ; max. res.: 5.0 Angstroms ; min. def.: 5000.0 um; max. def. 50000.0 um; num. frames averaged: 1
# 6 lines per micrograph: #1 - spatial frequency (1/Angstroms); #2 - 1D rotational average of spectrum (assuming no astigmatism); #3 - 1D rotational average of spectrum; #4 - CTF fit; #5 - cross-correlation between spectrum and CTF fit; #6 - 2sigma of expected cross correlation of noise
0.000000 0.000651 0.001302 0.001953 0.002604 0.003255 0.003906 0.004557 0.005208 0.005859 0.006510 0.007161 0.007812 0.008464 0.009115 0.009766 0.010417 0.011068 0.011719 0.012370 0.013021 0.013672 0.014323 0.014974 0.015625 0.016276 0.016927 0.017578 0.018229 0.018880 0.019531 0.020182 0.020833 0.021484 0.022135 0.022786 0.023438 0.024089 0.024740 0.025391 0.026042 0.026693 0.027344 0.027995 0.028646 0.029297 0.029948 0.030599 0.031250 0.031901 0.032552 0.033203 0.033854 0.034505 0.035156 0.035807 0.036458 0.037109 0.037760 0.038411 0.039062 0.039714 0.040365 0.041016 0.041667 0.042318 0.042969 0.043620 0.044271 0.044922 0.045573 0.046224 0.046875 0.047526 0.048177 0.048828 0.049479 0.050130 0.050781 0.051432 0.052083 0.052734 0.053385 0.054036 0.054688 0.055339 0.055990 0.056641 0.057292 0.057943 0.058594 0.059245 0.059896 0.060547 0.061198 0.061849 0.062500 0.063151 0.063802 0.064453 0.065104 0.065755 0.066406 0.067057 0.067708 0.068359 0.069010 0.069661 0.070312 0.070964 0.071615 0.072266 0.072917 0.073568 0.074219 0.074870 0.075521 0.076172 0.076823 0.077474 0.078125 0.078776 0.079427 0.080078 0.080729 0.081380 0.082031 0.082682 0.083333 0.083984 0.084635 0.085286 0.085938 0.086589 0.087240 0.087891 0.088542 0.089193 0.089844 0.090495 0.091146 0.091797 0.092448 0.093099 0.093750 0.094401 0.095052 0.095703 0.096354 0.097005 0.097656 0.098307 0.098958 0.099609 0.100260 0.100911 0.101562 0.102214 0.102865 0.103516 0.104167 0.104818 0.105469 0.106120 0.106771 0.107422 0.108073 0.108724 0.109375 0.110026 0.110677 0.111328 0.111979 0.112630 0.113281 0.113932 0.114583 0.115234 0.115885 0.116536 0.117188 0.117839 0.118490 0.119141 0.119792 0.120443 0.121094 0.121745 0.122396 0.123047 0.123698 0.124349 0.125000 0.125651 0.126302 0.126953 0.127604 0.128255 0.128906 0.129557 0.130208 0.130859 0.131510 0.132161 0.132812 0.133464 0.134115 0.134766 0.135417 0.136068 0.136719 0.137370 0.138021 0.138672 0.139323 0.139974 0.140625 0.141276 0.141927 0.142578 0.143229 0.143880 0.144531 0.145182 0.145833 0.146484 0.147135 0.147786 0.148438 0.149089 0.149740 0.150391 0.151042 0.151693 0.152344 0.152995 0.153646 0.154297 0.154948 0.155599 0.156250 0.156901 0.157552 0.158203 0.158854 0.159505 0.160156 0.160807 0.161458 0.162109 0.162760 0.163411 0.164062 0.164714 0.165365 0.166016 0.166667 0.167318 0.167969 0.168620 0.169271 0.169922 0.170573 0.171224 0.171875 0.172526 0.173177 0.173828 0.174479 0.175130 0.175781 0.176432 0.177083 0.177734 0.178385 0.179036 0.179688 0.180339 0.180990 0.181641 0.182292 0.182943 0.183594 0.184245 0.184896 0.185547 0.186198 0.186849 0.187500 0.188151 0.188802 0.189453 0.190104 0.190755 0.191406 0.192057 0.192708 0.193359 0.194010 0.194661 0.195312 0.195964 0.196615 0.197266 0.197917 0.198568 0.199219 0.199870 0.200521 0.201172 0.201823 0.202474 0.203125 0.203776 0.204427 0.205078 0.205729 0.206380 0.207031 0.207682 0.208333 0.208984 0.209635 0.210286 0.210938 0.211589 0.212240 0.212891 0.213542 0.214193 0.214844 0.215495 0.216146 0.216797 0.217448 0.218099 0.218750 0.219401 0.220052 0.220703 0.221354 0.222005 0.222656 0.223307 0.223958 0.224609 0.225260 0.225911 0.226562 0.227214 0.227865 0.228516 0.229167 0.229818 0.230469 0.231120 0.231771 0.232422 0.233073 0.233724 0.234375 0.235026 0.235677
       0.30751        0.30751        0.30751        0.30751        0.30751        0.30751        0.30751        0.30751        0.30751        0.30751        0.30751        0.30751        0.30751        0.30751        0.30751        0.30751        0.30751        0.30751        0.30751        0.30751        0.30751        0.30751        0.30751        0.30751        0.30751        0.30751        0.30751        0.30751        0.30751        0.30751        0.30751        0.30751        0.30751        0.30751        0.30751        0.30751        0.30751        0.30751        0.30751        0.30751        0.30751        0.30751        0.30751        0.30751        0.30751        0.30751        0.30751        0.30751        0.30751        0.30751        0.30751        0.43263        0.54138        0.19381       -0.14327       -0.34907       -0.39303       -0.47207       -0.60483       -0.61055       -0.61147       -0.58471       -0.57154       -0.58521       -0.71382       -0.81035       -0.81013       -0.83585       -0.78350       -0.85438       -0.69420       -0.79935       -0.74835       -0.56403       -0.47584       -0.36611       -0.22865       -0.12080       -0.14057        0.09832        0.25373        0.23946        0.33422        0.45216        0.47472        0.58117        0.49409        0.62827        0.61078        0.62121        0.51791        0.41340        0.32808        0.27572        0.25352        0.17858        0.09115        0.06779       -0.06015       -0.03895       -0.06520       -0.07832       -0.01591        0.04578        0.13753        0.18623        0.36685        0.45391        0.53204        0.58485        0.55390        0.64718        0.70358        0.63309        0.53778        0.48988        0.49713        0.38559        0.29370        0.17179        0.09036        0.03081       -0.01989       -0.05159        0.05907        0.12319        0.22740        0.34792        0.44420        0.55718        0.54912        0.61108        0.64380        0.58232        0.53003        0.54584        0.43469        0.35445        0.25450        0.16977        0.10080        0.03012        0.06947        0.09770        0.18193        0.28501        0.31214        0.42154        0.47395        0.46859        0.50254        0.53829        0.43128        0.43644        0.32069        0.19034        0.21008        0.10209        0.13156        0.13514        0.15718        0.25625        0.33174        0.43911        0.43984        0.42287        0.48321        0.46804        0.44355        0.41287        0.34894        0.21736        0.14462        0.23656        0.24595        0.21343        0.22673        0.34653        0.41376        0.48246        0.49204        0.44107        0.39187        0.35525        0.27564        0.27797        0.23301        0.23609        0.18757        0.24237        0.26796        0.35377        0.37957        0.43697        0.41960        0.36934        0.33864        0.34024        0.27211        0.23708        0.23102        0.25366        0.27034        0.33762        0.36405        0.35240        0.36084        0.39112        0.38234        0.36162        0.26044        0.26071        0.25006        0.24287        0.25508        0.23476        0.31982        0.40726        0.36674        0.33758        0.35209        0.30074        0.27798        0.26624        0.23479        0.27090        0.31835        0.30625        0.33177        0.32733        0.34968        0.34732        0.32251        0.31511        0.26118        0.28486        0.26513        0.28181        0.31009        0.31625        0.29560        0.31350        0.32447        0.29684        0.28216        0.25121        0.28072        0.27399        0.27226        0.33093        0.31608        0.26448        0.29736        0.27748        0.26724        0.22901        0.23997        0.30578        0.29019        0.30261        0.29024        0.31658        0.28462        0.23853        0.27189        0.28268        0.26758        0.26003        0.31562        0.35931        0.35545        0.31846        0.31162        0.27210        0.29104        0.27216        0.27291        0.29531        0.29922        0.31174        0.26601        0.25865        0.27028        0.28085        0.26295        0.27602        0.29698        0.33629        0.31567        0.28555        0.29406        0.28902        0.26130        0.25774        0.24953        0.29132        0.29057        0.29821        0.25636        0.19945        0.24155        0.24247        0.24250        0.28593        0.30649        0.28975        0.24484        0.25180        0.26670        0.25912        0.23208        0.23044        0.27622        0.27379        0.35695        0.31151        0.24973        0.26307        0.23897        0.23295        0.29527        0.30635        0.30415        0.24301        0.31471        0.28063        0.24885        0.27110        0.27981        0.27446        0.29358        0.23433        0.24364        0.27852        0.26080        0.24176        0.21970        0.22241        0.23996        0.23279        0.19486        0.16576        0.23471        0.26108        0.21451        0.25313        0.30402        0.23071        0.26830        0.26512        0.34050        0.28948        0.19155        0.29698        0.22128        0.21614        0.30410        0.18314        0.09335        0.03989        0.03198       -0.26937       -0.17039
2.500107 2.472403 2.444863 2.417484 2.390268 2.363214 2.336323 2.309593 2.283026 2.256622 2.230380 2.204300 2.178382 2.152627 2.127034 2.101603 2.076335 2.051229 2.026285 2.001504 1.976885 1.952428 1.928134 1.904002 1.880032 1.856224 1.832579 1.809097 1.785776 1.762618 1.739622 1.716789 1.694118 1.671609 1.649262 1.627078 1.605056 1.583197 1.561499 1.539965 1.518592 1.497382 1.476334 1.455448 1.434725 1.414164 1.393766 1.373529 1.353455 1.333544 1.313794 1.424623 1.542000 1.189638 0.789520 0.459060 0.543009 0.359057 0.135644 0.208282 0.149439 0.091443 0.180163 0.129833 0.040354 -0.197634 -0.192707 -0.208323 -0.183559 -0.305307 -0.049256 -0.297192 -0.227502 -0.025740 0.008372 0.126300 0.290233 0.368567 0.348199 0.466373 0.751699 0.710213 0.776942 0.855929 0.911864 1.021190 0.976210 0.946245 1.033741 0.983077 0.975834 0.684388 0.765109 0.553639 0.578035 0.485813 0.350857 0.328480 0.157576 0.211083 0.110216 0.092119 0.191955 0.195246 0.247459 0.346403 0.466800 0.643984 0.642402 0.656337 0.785351 0.716289 0.792338 0.741924 0.672007 0.595342 0.601110 0.453489 0.387114 0.209050 0.164962 0.026249 -0.017019 -0.070853 -0.063073 0.132819 0.129248 0.329108 0.358947 0.454404 0.558760 0.548817 0.608913 0.613232 0.467171 0.529905 0.343046 0.367680 0.218520 0.093210 0.012294 -0.051684 -0.071214 -0.043158 -0.002197 0.148020 0.190629 0.238725 0.359584 0.341339 0.421648 0.504574 0.388704 0.350444 0.301267 0.099865 0.075485 0.037197 -0.019689 0.017805 -0.006404 0.090217 0.150589 0.304149 0.281086 0.316020 0.341908 0.336717 0.309369 0.300456 0.228306 0.105182 -0.039698 0.029539 0.083248 0.042145 0.021885 0.103268 0.199112 0.286298 0.267267 0.311036 0.174430 0.215090 0.101554 0.073964 0.018716 -0.009258 0.021301 -0.026190 0.006168 0.110065 0.148176 0.191066 0.210059 0.159344 0.139737 0.099696 0.103529 -0.024347 0.004569 -0.017809 0.018920 0.057974 0.099473 0.132368 0.118208 0.135218 0.152980 0.162934 0.083293 0.000074 0.002953 0.008192 0.000280 -0.005448 -0.001400 0.119373 0.164608 0.098571 0.114833 0.093220 0.011069 0.017381 -0.018298 -0.012040 0.034342 0.058821 0.041036 0.076180 0.089534 0.075863 0.103595 0.073356 0.007173 0.009615 0.043341 -0.018162 0.031236 0.055773 0.034629 0.045826 0.057345 0.043762 0.024006 0.012344 -0.032412 0.022062 -0.011773 0.023749 0.077995 0.031461 0.003407 0.004442 0.027987 -0.019005 -0.064772 -0.006572 0.036258 0.032597 0.023703 0.036315 0.051523 -0.002912 -0.026743 0.015424 0.025137 0.007025 -0.018073 0.075505 0.097822 0.068253 0.062701 0.041467 -0.013306 0.038303 -0.015990 0.028154 0.044802 0.021138 0.056714 -0.015587 0.020713 0.004475 0.005656 0.032278 -0.005920 0.046360 0.099049 0.023164 0.059453 0.033400 0.023504 -0.004294 -0.002109 0.009070 0.046236 0.016076 0.045173 -0.060013 -0.047415 -0.000396 -0.057770 -0.034793 0.030044 0.068188 0.031918 -0.050003 -0.012499 0.028200 -0.001861 -0.032143 -0.036302 0.069185 -0.033152 0.134430 0.021319 0.018237 0.015567 -0.031463 0.000434 0.056985 0.048069 0.082348 -0.018338 0.077995 0.067380 -0.025024 0.055972 0.025404 0.079130 0.059916 0.002470 -0.001845 0.040510 0.015120 -0.017732 -0.088953 -0.030870 -0.066288 -0.027818 -0.085450 -0.128031 -0.031536 -0.025810 -0.111049 -0.042615 0.065216 -0.039915 0.004029 0.011585 0.125901 0.039339 -0.083720 0.094458 0.025827 -0.027867 0.179010 0.149649 0.204356 -0.061642 0.040443 -0.181923
0.072396 0.073021 0.074895 0.078017 0.082387 0.088004 0.094865 0.102967 0.112308 0.122882 0.134683 0.147704 0.161936 0.177367 0.193984 0.211770 0.230705 0.250766 0.271926 0.294152 0.317408 0.341653 0.366838 0.392909 0.419805 0.447458 0.475792 0.504723 0.534156 0.563991 0.594115 0.624406 0.654734 0.684956 0.714918 0.744459 0.773405 0.801571 0.828763 0.854777 0.879401 0.902412 0.923582 0.942676 0.959452 0.973666 0.985072 0.993423 0.998474 0.999985 0.997722 0.991462 0.980993 0.966120 0.946667 0.922481 0.893435 0.859432 0.820411 0.776346 0.727254 0.673199 0.614290 0.550693 0.482624 0.410362 0.334242 0.254661 0.172081 0.087023 0.000072 0.088127 0.176873 0.265408 0.352929 0.438585 0.521494 0.600743 0.675405 0.744542 0.807226 0.862544 0.909621 0.947625 0.975792 0.993437 0.999972 0.994921 0.977939 0.948825 0.907536 0.854201 0.789131 0.712826 0.625985 0.529504 0.424478 0.312195 0.194126 0.071915 0.052640 0.177611 0.300966 0.420598 0.534365 0.640126 0.735781 0.819323 0.888879 0.942759 0.979502 0.997927 0.997168 0.976720 0.936466 0.876713 0.798200 0.702116 0.590093 0.464201 0.326915 0.181084 0.029885 0.123250 0.274692 0.420710 0.557556 0.681568 0.789270 0.877483 0.943425 0.984812 0.999952 0.987826 0.948152 0.881431 0.788979 0.672924 0.536185 0.382422 0.215952 0.041654 0.135173 0.308956 0.474023 0.624793 0.755968 0.862732 0.940948 0.987330 0.999610 0.976666 0.918617 0.826878 0.704166 0.554456 0.382886 0.195605 0.000423 0.197662 0.388289 0.564502 0.718843 0.844535 0.935796 0.988131 0.998591 0.965960 0.890891 0.775956 0.625599 0.446024 0.244966 0.031392 0.184874 0.393592 0.584594 0.748288 0.876156 0.961231 0.998515 0.985313 0.921465 0.809455 0.654376 0.463763 0.247273 0.016241 0.216899 0.439253 0.638194 0.802088 0.921012 0.987388 0.996524 0.946993 0.840846 0.683606 0.484060 0.253823 0.006723 0.242014 0.476664 0.682020 0.844399 0.952583 0.998661 0.978668 0.892990 0.746482 0.548295 0.311372 0.051672 0.212858 0.463505 0.682110 0.852421 0.961333 0.999979 0.964521 0.856609 0.683425 0.457317 0.194998 0.083621 0.356897 0.603134 0.802309 0.937765 0.997660 0.976100 0.873811 0.698278 0.463322 0.188113 0.104320 0.388972 0.640982 0.837824 0.961401 0.999774 0.948433 0.810928 0.598766 0.330594 0.030650 0.273354 0.552752 0.780648 0.934550 0.998686 0.965735 0.837784 0.626390 0.351674 0.040542 0.275883 0.565319 0.797647 0.948098 0.999999 0.946753 0.792822 0.553528 0.253713 0.074747 0.396228 0.675206 0.880224 0.987525 0.983937 0.868648 0.653628 0.362557 0.028400 0.310250 0.613566 0.845198 0.976710 0.991218 0.885721 0.671825 0.374669 0.030153 0.319286 0.629853 0.861899 0.985089 0.982521 0.853235 0.612726 0.291316 0.069496 0.422282 0.719875 0.921736 0.999605 0.941640 0.754440 0.462557 0.105501 0.267434 0.603924 0.855931 0.986703 0.976293 0.824842 0.553015 0.199431 0.184609 0.542472 0.820526 0.976277 0.985037 0.844094 0.573610 0.214019 0.179802 0.546776 0.829096 0.981418 0.978362 0.818992 0.527511 0.149858 0.253280 0.616126 0.878550 0.996154 0.948041 0.740801 0.407991 0.004992 0.400009 0.737457 0.948451 0.995223 0.868157 0.588095 0.203241 0.218833 0.602919 0.879563 0.997769 0.934664 0.700262 0.336280 0.090962 0.502416 0.820881 0.985579 0.964029 0.758787 0.407653 0.022941 0.450220 0.790938 0.977638 0.972290 0.774393 0.421786 0.016176 0.452012
1.000000 1.000000 1.000000 1.000000 1.000000 1.000000 1.000000 1.000000 1.000000 1.000000 1.000000 1.000000 1.000000 1.000000 1.000000 1.000000 1.000000 1.000000 1.000000 1.000000 1.000000 1.000000 1.000000 1.000000 1.000000 1.000000 1.000000 1.000000 1.000000 1.000000 1.000000 1.000000 1.000000 1.000000 1.000000 1.000000 1.000000 1.000000 1.000000 1.000000 1.000000 1.000000 1.000000 1.000000 1.000000 1.000000 1.000000 1.000000 1.000000 1.000000 1.000000 1.000000 0.942234 0.942234 0.942234 0.942234 0.942234 0.942234 0.942234 0.942234 0.942234 0.942234 0.942234 0.942234 0.942234 0.942234 0.942234 0.942234 0.942234 0.942234 0.942234 0.942234 0.942234 0.942234 0.942234 0.942234 0.942234 0.942234 0.942234 0.942234 0.942234 0.942234 0.942234 0.942234 0.942234 0.942234 0.942234 0.920938 0.922468 0.926248 0.927499 0.927839 0.944110 0.944171 0.945452 0.950969 0.952936 0.954577 0.955307 0.963939 0.967039 0.966419 0.966330 0.963543 0.984785 0.983875 0.983375 0.983533 0.984447 0.984686 0.984507 0.984909 0.986261 0.985792 0.985006 0.984115 0.983341 0.983232 0.984075 0.982527 0.982592 0.983225 0.983834 0.983735 0.984096 0.984447 0.984494 0.984883 0.985617 0.981339 0.980688 0.979336 0.978295 0.978260 0.977925 0.977496 0.976029 0.975823 0.974970 0.975176 0.975046 0.974723 0.972964 0.973605 0.973453 0.970006 0.968687 0.966933 0.965236 0.951765 0.939606 0.934692 0.934703 0.933404 0.934885 0.925160 0.924605 0.918025 0.916193 0.917151 0.919880 0.920332 0.908446 0.888997 0.881310 0.875235 0.878011 0.880361 0.877509 0.870008 0.866458 0.864983 0.871478 0.875044 0.879758 0.878339 0.873185 0.868584 0.864931 0.859912 0.860066 0.856463 0.858363 0.856415 0.839567 0.848976 0.850267 0.859611 0.866263 0.863783 0.839107 0.798694 0.795916 0.797240 0.798648 0.796142 0.800571 0.806588 0.814375 0.811492 0.816361 0.824048 0.809599 0.815174 0.820341 0.820438 0.801970 0.779127 0.773982 0.771813 0.762876 0.749208 0.743982 0.745720 0.742094 0.742309 0.736750 0.732075 0.719250 0.714947 0.678261 0.681879 0.675903 0.662800 0.667976 0.668562 0.662574 0.646440 0.643040 0.628357 0.624390 0.617669 0.621520 0.613459 0.619485 0.629811 0.621275 0.608121 0.590303 0.587930 0.587225 0.542805 0.546129 0.575744 0.615516 0.609232 0.594576 0.618051 0.612442 0.596122 0.583573 0.567758 0.557120 0.565819 0.569511 0.547694 0.551388 0.535491 0.545534 0.540109 0.511922 0.537444 0.508674 0.494268 0.500866 0.525111 0.536686 0.503835 0.465271 0.471490 0.474568 0.494869 0.512673 0.499769 0.521097 0.520503 0.509390 0.475253 0.476524 0.496635 0.495624 0.498300 0.488345 0.490258 0.456266 0.415016 0.415815 0.380603 0.366798 0.364120 0.352404 0.322836 0.311286 0.304648 0.329341 0.321563 0.344428 0.303762 0.318068 0.270270 0.270886 0.215343 0.233177 0.224783 0.231243 0.248324 0.241270 0.241723 0.242581 0.274877 0.275979 0.260322 0.240823 0.207755 0.223677 0.198368 0.176042 0.187811 0.180938 0.179906 0.110405 0.114993 0.103066 0.133322 0.153040 0.143555 0.104043 0.097482 0.074716 0.059828 0.059032 0.036780 -0.015752 -0.030465 -0.017120 0.017316 0.083599 0.083599 0.083599 0.083599 0.083599 0.083599 0.083599 0.083599 0.085906 0.085906 0.085906 0.085906 0.085906 0.085906 0.085906 0.085906 0.085906 0.085906 0.085906 0.085906 0.085906 0.085906 0.085906 0.085906 0.085906 0.085906 0.085906
0.000000 0.000000 0.000000 0.000000 0.000000 0.000000 0.000000 0.000000 0.000000 0.000000 0.000000 0.000000 0.000000 0.000000 0.000000 0.000000 0.000000 0.000000 0.000000 0.000000 0.000000 9401.000000 0.000000 0.000000 0.000000 0.000000 0.000000 0.000000 0.000000 0.000000 0.000000 0.000000 0.000000 0.000000 0.000000 0.000000 0.000000 0.000000 0.000000 0.000000 0.000000 0.000000 0.000000 0.000000 0.000000 0.000000 0.000000 0.000000 0.000000 0.000000 0.000000 0.000000 0.207390 0.207390 0.207390 0.207390 0.207390 0.207390 0.207390 0.207390 0.207390 0.207390 0.207390 0.207390 0.207390 0.207390 0.207390 0.207390 0.207390 0.207390 0.207390 0.207390 0.207390 0.207390 0.207390 0.207390 0.207390 0.207390 0.207390 0.207390 0.207390 0.207390 0.207390 0.207390 0.207390 0.207390 0.207390 0.244339 0.244339 0.244339 0.244339 0.244339 0.244339 0.244339 0.244339 0.244339 0.244339 0.244339 0.244339 0.244339 0.244339 0.244339 0.244339 0.244339 0.244339 0.244339 0.244339 0.244339 0.244339 0.244339 0.244339 0.244339 0.256074 0.256074 0.256074 0.256074 0.256074 0.256074 0.256074 0.256074 0.256074 0.256074 0.256074 0.256074 0.256074 0.256074 0.256074 0.256074 0.256074 0.256074 0.256074 0.256074 0.256074 0.269680 0.269680 0.269680 0.269680 0.269680 0.269680 0.269680 0.269680 0.269680 0.269680 0.269680 0.269680 0.269680 0.269680 0.269680 0.269680 0.269680 0.269680 0.269680 0.269680 0.269680 0.269680 0.269680 0.269680 0.269680 0.269680 0.269680 0.269680 0.269680 0.269680 0.269680 0.269680 0.269680 0.269680 0.269680 0.269680 0.269680 0.269680 0.269680 0.269680 0.269680 0.269680 0.269680 0.269680 0.269680 0.269680 0.269680 0.269680 0.280056 0.280056 0.280056 0.280056 0.280056 0.280056 0.280056 0.280056 0.280056 0.280056 0.280056 0.280056 0.280056 0.274721 0.274721 0.274721 0.274721 0.274721 0.274721 0.274721 0.274721 0.274721 0.274721 0.274721 0.274721 0.274721 0.274721 0.274721 0.274721 0.274721 0.274721 0.274721 0.274721 0.274721 0.274721 0.274721 0.274721 0.274721 0.280056 0.280056 0.280056 0.280056 0.280056 0.280056 0.280056 0.280056 0.280056 0.280056 0.280056 0.285714 0.285714 0.285714 0.285714 0.285714 0.285714 0.285714 0.285714 0.285714 0.285714 0.269680 0.269680 0.269680 0.269680 0.269680 0.269680 0.269680 0.269680 0.269680 0.269680 0.269680 0.285714 0.285714 0.285714 0.285714 0.285714 0.285714 0.285714 0.285714 0.285714 0.269680 0.269680 0.269680 0.269680 0.269680 0.269680 0.269680 0.269680 0.269680 0.269680 0.274721 0.274721 0.274721 0.274721 0.274721 0.274721 0.274721 0.274721 0.274721 0.269680 0.269680 0.269680 0.269680 0.269680 0.269680 0.269680 0.269680 0.269680 0.264906 0.264906 0.264906 0.264906 0.264906 0.264906 0.264906 0.264906 0.264906 0.274721 0.274721 0.274721 0.274721 0.274721 0.274721 0.274721 0.274721 0.269680 0.269680 0.269680 0.269680 0.269680 0.269680 0.269680 0.269680 0.269680 0.269680 0.269680 0.269680 0.269680 0.269680 0.269680 0.269680 0.264906 0.264906 0.264906 0.264906 0.264906 0.264906 0.264906 0.264906 0.274721 0.274721 0.274721 0.274721 0.274721 0.274721 0.274721 0.256074 0.256074 0.256074 0.256074 0.256074 0.256074 0.256074 0.256074 0.264906 0.264906 0.264906 0.264906 0.264906 0.264906 0.264906 0.264906 0.264906 0.264906 0.264906 0.264906 0.264906 0.264906 0.264906 0.264906 0.264906 0.264906 0.264906
