# Output from CTFFind version 4.1.9, run on 2019-11-03 18:51:52
# Input file: stack7_ub_averaged_1500.mrc ; Number of micrographs: 1
# Pixel size: 3.000 Angstroms ; acceleration voltage: 300.0 keV ; spherical aberration: 0.00 mm ; amplitude contrast: 0.07
# Box size: 512 pixels ; min. res.: 30.0 Angstroms ; max. res.: 5.0 Angstroms ; min. def.: 5000.0 um; max. def. 50000.0 um; num. frames averaged: 1
# 6 lines per micrograph: #1 - spatial frequency (1/Angstroms); #2 - 1D rotational average of spectrum (assuming no astigmatism); #3 - 1D rotational average of spectrum; #4 - CTF fit; #5 - cross-correlation between spectrum and CTF fit; #6 - 2sigma of expected cross correlation of noise
0.000000 0.000651 0.001302 0.001953 0.002604 0.003255 0.003906 0.004557 0.005208 0.005859 0.006510 0.007161 0.007812 0.008464 0.009115 0.009766 0.010417 0.011068 0.011719 0.012370 0.013021 0.013672 0.014323 0.014974 0.015625 0.016276 0.016927 0.017578 0.018229 0.018880 0.019531 0.020182 0.020833 0.021484 0.022135 0.022786 0.023438 0.024089 0.024740 0.025391 0.026042 0.026693 0.027344 0.027995 0.028646 0.029297 0.029948 0.030599 0.031250 0.031901 0.032552 0.033203 0.033854 0.034505 0.035156 0.035807 0.036458 0.037109 0.037760 0.038411 0.039062 0.039714 0.040365 0.041016 0.041667 0.042318 0.042969 0.043620 0.044271 0.044922 0.045573 0.046224 0.046875 0.047526 0.048177 0.048828 0.049479 0.050130 0.050781 0.051432 0.052083 0.052734 0.053385 0.054036 0.054688 0.055339 0.055990 0.056641 0.057292 0.057943 0.058594 0.059245 0.059896 0.060547 0.061198 0.061849 0.062500 0.063151 0.063802 0.064453 0.065104 0.065755 0.066406 0.067057 0.067708 0.068359 0.069010 0.069661 0.070312 0.070964 0.071615 0.072266 0.072917 0.073568 0.074219 0.074870 0.075521 0.076172 0.076823 0.077474 0.078125 0.078776 0.079427 0.080078 0.080729 0.081380 0.082031 0.082682 0.083333 0.083984 0.084635 0.085286 0.085938 0.086589 0.087240 0.087891 0.088542 0.089193 0.089844 0.090495 0.091146 0.091797 0.092448 0.093099 0.093750 0.094401 0.095052 0.095703 0.096354 0.097005 0.097656 0.098307 0.098958 0.099609 0.100260 0.100911 0.101562 0.102214 0.102865 0.103516 0.104167 0.104818 0.105469 0.106120 0.106771 0.107422 0.108073 0.108724 0.109375 0.110026 0.110677 0.111328 0.111979 0.112630 0.113281 0.113932 0.114583 0.115234 0.115885 0.116536 0.117188 0.117839 0.118490 0.119141 0.119792 0.120443 0.121094 0.121745 0.122396 0.123047 0.123698 0.124349 0.125000 0.125651 0.126302 0.126953 0.127604 0.128255 0.128906 0.129557 0.130208 0.130859 0.131510 0.132161 0.132812 0.133464 0.134115 0.134766 0.135417 0.136068 0.136719 0.137370 0.138021 0.138672 0.139323 0.139974 0.140625 0.141276 0.141927 0.142578 0.143229 0.143880 0.144531 0.145182 0.145833 0.146484 0.147135 0.147786 0.148438 0.149089 0.149740 0.150391 0.151042 0.151693 0.152344 0.152995 0.153646 0.154297 0.154948 0.155599 0.156250 0.156901 0.157552 0.158203 0.158854 0.159505 0.160156 0.160807 0.161458 0.162109 0.162760 0.163411 0.164062 0.164714 0.165365 0.166016 0.166667 0.167318 0.167969 0.168620 0.169271 0.169922 0.170573 0.171224 0.171875 0.172526 0.173177 0.173828 0.174479 0.175130 0.175781 0.176432 0.177083 0.177734 0.178385 0.179036 0.179688 0.180339 0.180990 0.181641 0.182292 0.182943 0.183594 0.184245 0.184896 0.185547 0.186198 0.186849 0.187500 0.188151 0.188802 0.189453 0.190104 0.190755 0.191406 0.192057 0.192708 0.193359 0.194010 0.194661 0.195312 0.195964 0.196615 0.197266 0.197917 0.198568 0.199219 0.199870 0.200521 0.201172 0.201823 0.202474 0.203125 0.203776 0.204427 0.205078 0.205729 0.206380 0.207031 0.207682 0.208333 0.208984 0.209635 0.210286 0.210938 0.211589 0.212240 0.212891 0.213542 0.214193 0.214844 0.215495 0.216146 0.216797 0.217448 0.218099 0.218750 0.219401 0.220052 0.220703 0.221354 0.222005 0.222656 0.223307 0.223958 0.224609 0.225260 0.225911 0.226562 0.227214 0.227865 0.228516 0.229167 0.229818 0.230469 0.231120 0.231771 0.232422 0.233073 0.233724 0.234375 0.235026 0.235677
       0.35071        0.35071        0.35071        0.35071        0.35071        0.35071        0.35071        0.35071        0.35071        0.35071        0.35071        0.35071        0.35071        0.35071        0.35071        0.35071        0.35071        0.35071        0.35071        0.35071        0.35071        0.35071        0.35071        0.35071        0.35071        0.35071        0.35071        0.35071        0.35071        0.35071        0.35071        0.35071        0.35071        0.35071        0.35071        0.35071        0.35071        0.35071        0.35071        0.35071        0.35071        0.35071        0.35071        0.35071        0.35071        0.35071        0.35071        0.35071        0.35071        0.35071        0.35071        0.54056        0.93194        0.45336        0.23869        0.27560       -0.01320        0.07923       -0.06991        0.03077        0.20140        0.15663        0.35857        0.24144        0.05385       -0.03689       -0.03841       -0.04139       -0.20429       -0.25085       -0.17632       -0.19243       -0.14215       -0.12744       -0.30881       -0.30160       -0.32878       -0.40484       -0.47033       -0.39313       -0.27974       -0.31581       -0.33563       -0.41184       -0.23384       -0.17829       -0.19116       -0.17720       -0.02622        0.03560        0.15462        0.28815        0.33642        0.43366        0.51736        0.59751        0.59632        0.62879        0.59899        0.56848        0.66204        0.67346        0.72535        0.79845        0.64332        0.53610        0.53667        0.49410        0.43287        0.30086        0.28946        0.21934        0.12187        0.03555        0.05823        0.07315        0.07117        0.02590        0.05804        0.07167        0.15790        0.16669        0.30661        0.39181        0.34733        0.52551        0.60103        0.57482        0.63581        0.72470        0.69086        0.67701        0.66207        0.53329        0.52036        0.41467        0.42177        0.29537        0.25998        0.23222        0.15681        0.08750        0.03195        0.06823        0.16751        0.19413        0.21005        0.24563        0.37029        0.42903        0.46470        0.57198        0.57493        0.57760        0.58914        0.57105        0.53477        0.47655        0.47816        0.37835        0.26668        0.25184        0.34441        0.22486        0.11147        0.19929        0.22056        0.23270        0.33255        0.34920        0.41557        0.46086        0.48876        0.53022        0.50650        0.51871        0.48093        0.50926        0.42149        0.44175        0.36742        0.28665        0.26771        0.22834        0.19640        0.26596        0.27214        0.31754        0.32075        0.38393        0.38043        0.48160        0.47719        0.45906        0.44318        0.46656        0.43180        0.31475        0.33788        0.30910        0.31252        0.28203        0.25901        0.26800        0.33239        0.35573        0.36207        0.37139        0.40515        0.45401        0.45574        0.39595        0.41538        0.35601        0.28494        0.29604        0.33050        0.32266        0.29549        0.27822        0.32897        0.36920        0.37265        0.34653        0.39923        0.41125        0.41227        0.36532        0.35670        0.35197        0.30698        0.29945        0.30361        0.29586        0.28899        0.31960        0.35269        0.39035        0.34628        0.39735        0.36807        0.37548        0.34937        0.32215        0.34233        0.33172        0.32463        0.30246        0.30554        0.30167        0.32250        0.31332        0.35284        0.35311        0.34442        0.32708        0.28879        0.30956        0.32793        0.29660        0.28794        0.27484        0.28702        0.29743        0.35845        0.36441        0.35258        0.36988        0.38161        0.31026        0.30599        0.37475        0.30635        0.29708        0.35905        0.35712        0.33654        0.30421        0.34816        0.37294        0.34409        0.36923        0.32570        0.36567        0.29872        0.31662        0.28694        0.33933        0.33057        0.29914        0.30859        0.35783        0.35263        0.33787        0.35465        0.34625        0.28920        0.27757        0.29294        0.31868        0.31564        0.31894        0.32220        0.26074        0.32585        0.35879        0.31199        0.28913        0.33816        0.30421        0.29727        0.31208        0.34700        0.34318        0.32038        0.29744        0.28706        0.28983        0.32794        0.32668        0.28152        0.26652        0.29880        0.33442        0.30715        0.26866        0.29044        0.26312        0.24251        0.24143        0.25821        0.31452        0.35095        0.26725        0.25109        0.31771        0.32342        0.30626        0.29507        0.27255        0.26955        0.23255        0.33382        0.26960        0.25009        0.24738        0.28267        0.18836        0.19588        0.28439        0.22314        0.25227        0.23870        0.32830        0.27793        0.22221        0.25862        0.16297        0.04834        0.00723       -0.09079       -0.52218       -0.90076
2.214270 2.193918 2.173665 2.153511 2.133456 2.113500 2.093644 2.073886 2.054228 2.034670 2.015210 1.995849 1.976588 1.957426 1.938363 1.919400 1.900535 1.881770 1.863104 1.844537 1.826069 1.807701 1.789431 1.771261 1.753190 1.735219 1.717346 1.699573 1.681898 1.664323 1.646848 1.629471 1.612194 1.595016 1.577937 1.560957 1.544076 1.527295 1.510613 1.494030 1.477546 1.461161 1.444876 1.428690 1.412603 1.396615 1.380726 1.364937 1.349247 1.333656 1.318164 1.374034 2.178852 1.553128 1.030995 1.274235 0.758193 0.883784 0.620986 0.697473 0.972125 0.900439 1.126063 1.028975 0.706790 0.633939 0.483938 0.554611 0.370797 0.115738 0.397994 0.293900 0.352253 0.306445 0.128677 0.055973 0.068514 -0.034290 -0.259297 -0.121817 0.025384 0.060288 -0.072019 -0.217212 0.041209 0.081034 0.093876 0.093734 0.278461 0.319990 0.458565 0.632619 0.736974 0.837698 0.912161 1.082927 1.011607 1.044799 1.106435 0.953797 1.031693 1.089956 1.155135 1.252497 1.098914 0.925758 0.827445 0.746911 0.768637 0.564192 0.454621 0.492617 0.210541 0.200044 0.057658 0.148422 0.173442 0.077853 0.080161 0.074484 0.202722 0.174247 0.348162 0.532385 0.439390 0.546226 0.847092 0.667434 0.795161 0.874172 0.890113 0.825365 0.824565 0.676238 0.655963 0.339840 0.582446 0.300638 0.233390 0.191522 0.122518 -0.028157 -0.058820 -0.111237 0.004242 0.038956 0.138448 0.064026 0.223061 0.382136 0.404932 0.479991 0.563728 0.551683 0.692261 0.485526 0.587945 0.435458 0.459534 0.288531 0.190519 0.059151 0.225823 0.119644 -0.070054 -0.034723 0.074220 -0.021049 0.141034 0.195894 0.209416 0.336481 0.362615 0.395682 0.413279 0.456619 0.397007 0.486764 0.327424 0.385295 0.293841 0.111169 0.188637 0.030281 -0.021904 0.102790 0.069178 0.106126 0.131148 0.267876 0.206565 0.229866 0.418677 0.325931 0.293202 0.227723 0.360837 0.125179 0.115012 0.115843 0.038560 0.090312 -0.005335 -0.022013 0.052508 0.107289 0.143892 0.119246 0.119112 0.218292 0.266857 0.199626 0.162226 0.154025 0.021286 -0.005314 0.011238 0.041847 0.057474 -0.055996 -0.023129 0.085283 0.104915 0.073308 0.058663 0.131792 0.112292 0.109330 0.020595 0.048443 -0.018780 -0.010681 -0.048532 -0.046587 -0.040170 -0.078809 -0.011171 0.084425 0.040404 0.008046 0.134209 0.049907 0.051933 0.053261 -0.021483 0.018593 0.007587 0.021024 -0.031647 -0.030657 -0.011452 -0.021455 0.021227 0.038840 0.095235 0.041532 -0.003968 -0.020398 0.029165 0.052831 -0.083182 0.026814 -0.022352 -0.020068 0.006865 0.089939 0.088463 0.079016 0.108231 0.143597 -0.017392 0.028588 0.181562 -0.051396 0.041928 0.110971 0.084497 0.063370 0.009318 0.107709 0.099661 0.099580 0.108668 0.052683 0.123021 0.059458 0.025301 0.016462 0.069238 0.078449 0.012831 0.057748 0.070769 0.015497 0.102208 0.087881 0.007291 -0.041040 -0.010965 0.007286 0.014529 -0.008435 0.027784 -0.036673 -0.051384 -0.000200 0.060722 -0.030127 -0.031698 0.037906 -0.042436 -0.023157 -0.020292 0.046763 0.065838 -0.020260 -0.011517 -0.032338 -0.036848 0.039504 0.026204 -0.066052 -0.066482 -0.015978 0.045441 -0.081145 -0.075046 -0.076066 -0.083441 -0.143788 -0.090950 -0.125313 0.031667 0.066217 -0.107371 -0.060688 -0.014521 0.044194 0.027496 0.005678 0.009729 -0.026901 -0.049125 0.161111 0.021446 0.040204 0.017890 0.088536 -0.079122 0.021768 0.116567 0.105074 0.073913 0.040205 0.250430 0.376232 0.303593 0.390739 0.235625 -0.046474 0.019899 -0.118967 -1.221804
0.072396 0.072856 0.074236 0.076536 0.079755 0.083892 0.088946 0.094917 0.101802 0.109599 0.118305 0.127918 0.138432 0.149842 0.162143 0.175327 0.189385 0.204308 0.220084 0.236698 0.254136 0.272379 0.291408 0.311198 0.331725 0.352960 0.374869 0.397418 0.420566 0.444270 0.468483 0.493151 0.518218 0.543622 0.569296 0.595168 0.621160 0.647190 0.673168 0.699002 0.724589 0.749825 0.774599 0.798793 0.822284 0.844946 0.866644 0.887242 0.906597 0.924564 0.940992 0.955732 0.968626 0.979522 0.988262 0.994690 0.998654 1.000000 0.998582 0.994257 0.986888 0.976348 0.962518 0.945291 0.924571 0.900278 0.872349 0.840737 0.805415 0.766379 0.723648 0.677265 0.627301 0.573853 0.517051 0.457051 0.394047 0.328260 0.259949 0.189404 0.116951 0.042947 0.032216 0.108114 0.184293 0.260269 0.335535 0.409555 0.481778 0.551634 0.618540 0.681907 0.741144 0.795663 0.844887 0.888253 0.925223 0.955291 0.977986 0.992886 0.999620 0.997879 0.987422 0.968083 0.939782 0.902523 0.856408 0.801637 0.738513 0.667446 0.588953 0.503660 0.412297 0.315702 0.214808 0.110645 0.004326 0.102959 0.209958 0.315369 0.417853 0.516055 0.608619 0.694211 0.771534 0.839355 0.896527 0.942006 0.974878 0.994378 0.999911 0.991068 0.967647 0.929666 0.877371 0.811247 0.732023 0.640669 0.538393 0.426633 0.307040 0.181463 0.051920 0.079425 0.210302 0.338367 0.461247 0.576585 0.682083 0.775556 0.854976 0.918526 0.964645 0.992069 0.999879 0.987529 0.954881 0.902221 0.830275 0.740214 0.633644 0.512589 0.379465 0.237039 0.088377 0.063213 0.214251 0.361164 0.500373 0.628378 0.741851 0.837727 0.913299 0.966298 0.994973 0.998161 0.975336 0.926658 0.852988 0.755897 0.637646 0.501154 0.349936 0.188026 0.019876 0.149753 0.315930 0.473691 0.618193 0.744863 0.849553 0.928692 0.979411 0.999670 0.988349 0.945320 0.871489 0.768802 0.640214 0.489632 0.321803 0.142194 0.043188 0.227979 0.405682 0.569889 0.714521 0.834061 0.923782 0.979944 0.999973 0.982600 0.927949 0.837584 0.714493 0.563014 0.388714 0.198198 0.001119 0.201293 0.394168 0.571693 0.726280 0.851136 0.940575 0.990302 0.997646 0.961723 0.883536 0.765986 0.613802 0.433376 0.232535 0.020208 0.193952 0.399993 0.588135 0.749242 0.875274 0.959723 0.997962 0.987543 0.928375 0.822797 0.675537 0.493533 0.285646 0.062252 0.165260 0.385045 0.585431 0.755549 0.885929 0.969066 0.999879 0.976063 0.898292 0.770262 0.598570 0.392415 0.163142 0.076356 0.312342 0.531022 0.719357 0.865863 0.961329 0.999450 0.977275 0.895484 0.758438 0.574000 0.353147 0.109340 0.142253 0.385691 0.605266 0.786525 0.917261 0.988358 0.994483 0.934535 0.811826 0.633970 0.412462 0.161995 0.100485 0.356898 0.589269 0.781015 0.918134 0.990290 0.991636 0.921353 0.783825 0.588441 0.349033 0.082930 0.190241 0.450002 0.676535 0.852239 0.963122 0.999978 0.959211 0.843252 0.660504 0.424810 0.154470 0.129131 0.403190 0.645308 0.835354 0.957166 0.999990 0.959502 0.838318 0.645920 0.398007 0.115279 0.178238 0.457205 0.697156 0.876682 0.979374 0.995406 0.922552 0.766554 0.540764 0.265105 0.035635 0.333978 0.602251 0.815181 0.952300 0.999999 0.952958 0.814832 0.598080 0.322952 0.015664 0.294024 0.575700 0.801266 0.947804 0.999977 0.951725 0.807069 0.579907 0.292778 0.025270 0.341581 0.623216 0.840400 0.969728 0.996775 0.917807 0.740396 0.482822 0.172303 0.157798 0.471520 0.734200
1.000000 1.000000 1.000000 1.000000 1.000000 1.000000 1.000000 1.000000 1.000000 1.000000 1.000000 1.000000 1.000000 1.000000 1.000000 1.000000 1.000000 1.000000 1.000000 1.000000 1.000000 1.000000 1.000000 1.000000 1.000000 1.000000 1.000000 1.000000 1.000000 1.000000 1.000000 1.000000 1.000000 1.000000 1.000000 1.000000 1.000000 1.000000 1.000000 1.000000 1.000000 1.000000 1.000000 1.000000 1.000000 1.000000 1.000000 1.000000 1.000000 1.000000 1.000000 1.000000 0.887517 0.887517 0.887517 0.887517 0.887517 0.877163 0.877163 0.877163 0.877163 0.877163 0.877163 0.877163 0.877163 0.877163 0.877163 0.877163 0.877163 0.877163 0.877163 0.877163 0.877163 0.877163 0.877163 0.877163 0.877163 0.877163 0.877163 0.877163 0.877163 0.877163 0.877163 0.877163 0.877163 0.877163 0.877163 0.877163 0.877163 0.877163 0.877163 0.877163 0.877163 0.877163 0.877163 0.877163 0.877163 0.877163 0.877163 0.877163 0.877163 0.919284 0.920384 0.922881 0.923868 0.923690 0.923427 0.920152 0.922085 0.939754 0.939761 0.941150 0.942327 0.943843 0.944921 0.947278 0.947518 0.950143 0.952971 0.953211 0.956931 0.969181 0.965380 0.960005 0.957788 0.958593 0.959502 0.958915 0.957258 0.957378 0.958782 0.958660 0.956602 0.956070 0.955263 0.955147 0.955107 0.954991 0.954902 0.954980 0.954973 0.954644 0.954757 0.953913 0.953849 0.953749 0.952424 0.952082 0.953108 0.955545 0.955748 0.953380 0.957633 0.955902 0.956056 0.956001 0.953611 0.954442 0.954529 0.955161 0.954778 0.951955 0.943853 0.941906 0.928415 0.921262 0.919331 0.918560 0.917322 0.922187 0.921921 0.921211 0.919576 0.916495 0.905441 0.897459 0.878459 0.874197 0.877052 0.881245 0.878444 0.878691 0.866356 0.859253 0.859749 0.857176 0.842992 0.844042 0.840281 0.837143 0.834645 0.826855 0.813116 0.817916 0.824864 0.820814 0.820074 0.824574 0.815961 0.816911 0.816317 0.818462 0.823112 0.822917 0.822766 0.816227 0.810721 0.802327 0.800751 0.790123 0.796806 0.795196 0.795979 0.776172 0.776464 0.769893 0.758039 0.762998 0.775065 0.764333 0.770347 0.766779 0.753970 0.725240 0.710727 0.703596 0.713250 0.712249 0.710747 0.686466 0.697005 0.657587 0.659855 0.647466 0.635741 0.635127 0.642812 0.641991 0.649218 0.658947 0.641295 0.631723 0.572065 0.584831 0.573381 0.564780 0.566596 0.562101 0.544220 0.566699 0.558071 0.557131 0.559263 0.558442 0.524054 0.519803 0.501421 0.505936 0.515430 0.512268 0.515821 0.475596 0.461563 0.458343 0.439987 0.428795 0.415488 0.419867 0.420761 0.430636 0.444754 0.448556 0.447270 0.443723 0.440183 0.398416 0.357270 0.327684 0.303114 0.310615 0.286949 0.312441 0.321725 0.320725 0.313629 0.327630 0.320954 0.321757 0.321476 0.343442 0.276229 0.271638 0.262075 0.272511 0.249971 0.224691 0.241020 0.224466 0.207256 0.214808 0.215417 0.275764 0.255484 0.228965 0.226237 0.263574 0.233110 0.233507 0.244695 0.257951 0.257471 0.275108 0.240600 0.245018 0.242058 0.222229 0.192195 0.216291 0.223504 0.258342 0.258951 0.236736 0.176554 0.145192 0.150009 0.111489 0.120026 0.138875 0.169305 0.175468 0.110404 0.136121 0.136121 0.136121 0.136121 0.136121 0.100800 0.100800 0.100800 0.100800 0.100800 0.100800 0.100800 0.100800 0.100800 0.100800 0.100814 0.100814 0.100814 0.100814 0.100814 0.100814 0.100814 0.100814 0.100814 0.100814 0.100814 0.100814 0.100814 0.100814 0.100814 0.100814 0.100814
0.000000 0.000000 0.000000 0.000000 0.000000 0.000000 0.000000 0.000000 0.000000 0.000000 0.000000 0.000000 0.000000 0.000000 0.000000 0.000000 0.000000 0.000000 0.000000 0.000000 0.000000 9401.000000 0.000000 0.000000 0.000000 0.000000 0.000000 0.000000 0.000000 0.000000 0.000000 0.000000 0.000000 0.000000 0.000000 0.000000 0.000000 0.000000 0.000000 0.000000 0.000000 0.000000 0.000000 0.000000 0.000000 0.000000 0.000000 0.000000 0.000000 0.000000 0.000000 0.000000 0.177471 0.177471 0.177471 0.177471 0.177471 0.191565 0.191565 0.191565 0.191565 0.191565 0.191565 0.191565 0.191565 0.191565 0.191565 0.191565 0.191565 0.191565 0.191565 0.191565 0.191565 0.191565 0.191565 0.191565 0.191565 0.191565 0.191565 0.191565 0.191565 0.191565 0.191565 0.191565 0.191565 0.191565 0.191565 0.191565 0.191565 0.191565 0.191565 0.191565 0.191565 0.191565 0.191565 0.191565 0.191565 0.191565 0.191565 0.191565 0.191565 0.225018 0.225018 0.225018 0.225018 0.225018 0.225018 0.225018 0.225018 0.225018 0.225018 0.225018 0.225018 0.225018 0.225018 0.225018 0.225018 0.225018 0.225018 0.225018 0.225018 0.225018 0.225018 0.225018 0.225018 0.225018 0.225018 0.225018 0.225018 0.225018 0.237356 0.237356 0.237356 0.237356 0.237356 0.237356 0.237356 0.237356 0.237356 0.237356 0.237356 0.237356 0.237356 0.237356 0.237356 0.237356 0.237356 0.237356 0.237356 0.237356 0.237356 0.237356 0.237356 0.237356 0.244339 0.244339 0.244339 0.244339 0.244339 0.244339 0.244339 0.244339 0.244339 0.244339 0.244339 0.244339 0.244339 0.244339 0.244339 0.244339 0.244339 0.244339 0.244339 0.244339 0.244339 0.248069 0.248069 0.248069 0.248069 0.248069 0.248069 0.248069 0.248069 0.248069 0.248069 0.248069 0.248069 0.248069 0.248069 0.248069 0.248069 0.248069 0.248069 0.248069 0.256074 0.256074 0.256074 0.256074 0.256074 0.256074 0.256074 0.256074 0.256074 0.256074 0.256074 0.256074 0.256074 0.256074 0.256074 0.256074 0.256074 0.264906 0.264906 0.264906 0.264906 0.264906 0.264906 0.264906 0.264906 0.264906 0.264906 0.264906 0.264906 0.264906 0.264906 0.264906 0.256074 0.256074 0.256074 0.256074 0.256074 0.256074 0.256074 0.256074 0.256074 0.256074 0.256074 0.256074 0.256074 0.256074 0.256074 0.256074 0.256074 0.256074 0.256074 0.256074 0.256074 0.256074 0.256074 0.256074 0.256074 0.256074 0.256074 0.256074 0.256074 0.260378 0.260378 0.260378 0.260378 0.260378 0.260378 0.260378 0.260378 0.260378 0.260378 0.260378 0.260378 0.260378 0.264906 0.264906 0.264906 0.264906 0.264906 0.264906 0.264906 0.264906 0.264906 0.264906 0.264906 0.264906 0.260378 0.260378 0.260378 0.260378 0.260378 0.260378 0.260378 0.260378 0.260378 0.260378 0.260378 0.260378 0.264906 0.264906 0.264906 0.264906 0.264906 0.264906 0.264906 0.264906 0.264906 0.264906 0.264906 0.248069 0.248069 0.248069 0.248069 0.248069 0.248069 0.248069 0.248069 0.248069 0.248069 0.248069 0.248069 0.264906 0.264906 0.264906 0.264906 0.264906 0.264906 0.264906 0.264906 0.264906 0.264906 0.248069 0.248069 0.248069 0.248069 0.248069 0.248069 0.248069 0.248069 0.248069 0.248069 0.248069 0.256074 0.256074 0.256074 0.256074 0.256074 0.256074 0.256074 0.256074 0.256074 0.256074 0.260378 0.260378 0.260378 0.260378 0.260378 0.260378 0.260378 0.260378 0.260378 0.260378 0.260378 0.260378 0.260378 0.260378 0.260378 0.260378 0.260378
