# Output from CTFFind version 4.1.9, run on 2019-11-03 18:52:04
# Input file: stack10_ub_averaged_2000.mrc ; Number of micrographs: 1
# Pixel size: 3.000 Angstroms ; acceleration voltage: 300.0 keV ; spherical aberration: 0.00 mm ; amplitude contrast: 0.07
# Box size: 512 pixels ; min. res.: 30.0 Angstroms ; max. res.: 5.0 Angstroms ; min. def.: 5000.0 um; max. def. 50000.0 um; num. frames averaged: 1
# 6 lines per micrograph: #1 - spatial frequency (1/Angstroms); #2 - 1D rotational average of spectrum (assuming no astigmatism); #3 - 1D rotational average of spectrum; #4 - CTF fit; #5 - cross-correlation between spectrum and CTF fit; #6 - 2sigma of expected cross correlation of noise
0.000000 0.000651 0.001302 0.001953 0.002604 0.003255 0.003906 0.004557 0.005208 0.005859 0.006510 0.007161 0.007812 0.008464 0.009115 0.009766 0.010417 0.011068 0.011719 0.012370 0.013021 0.013672 0.014323 0.014974 0.015625 0.016276 0.016927 0.017578 0.018229 0.018880 0.019531 0.020182 0.020833 0.021484 0.022135 0.022786 0.023438 0.024089 0.024740 0.025391 0.026042 0.026693 0.027344 0.027995 0.028646 0.029297 0.029948 0.030599 0.031250 0.031901 0.032552 0.033203 0.033854 0.034505 0.035156 0.035807 0.036458 0.037109 0.037760 0.038411 0.039062 0.039714 0.040365 0.041016 0.041667 0.042318 0.042969 0.043620 0.044271 0.044922 0.045573 0.046224 0.046875 0.047526 0.048177 0.048828 0.049479 0.050130 0.050781 0.051432 0.052083 0.052734 0.053385 0.054036 0.054688 0.055339 0.055990 0.056641 0.057292 0.057943 0.058594 0.059245 0.059896 0.060547 0.061198 0.061849 0.062500 0.063151 0.063802 0.064453 0.065104 0.065755 0.066406 0.067057 0.067708 0.068359 0.069010 0.069661 0.070312 0.070964 0.071615 0.072266 0.072917 0.073568 0.074219 0.074870 0.075521 0.076172 0.076823 0.077474 0.078125 0.078776 0.079427 0.080078 0.080729 0.081380 0.082031 0.082682 0.083333 0.083984 0.084635 0.085286 0.085938 0.086589 0.087240 0.087891 0.088542 0.089193 0.089844 0.090495 0.091146 0.091797 0.092448 0.093099 0.093750 0.094401 0.095052 0.095703 0.096354 0.097005 0.097656 0.098307 0.098958 0.099609 0.100260 0.100911 0.101562 0.102214 0.102865 0.103516 0.104167 0.104818 0.105469 0.106120 0.106771 0.107422 0.108073 0.108724 0.109375 0.110026 0.110677 0.111328 0.111979 0.112630 0.113281 0.113932 0.114583 0.115234 0.115885 0.116536 0.117188 0.117839 0.118490 0.119141 0.119792 0.120443 0.121094 0.121745 0.122396 0.123047 0.123698 0.124349 0.125000 0.125651 0.126302 0.126953 0.127604 0.128255 0.128906 0.129557 0.130208 0.130859 0.131510 0.132161 0.132812 0.133464 0.134115 0.134766 0.135417 0.136068 0.136719 0.137370 0.138021 0.138672 0.139323 0.139974 0.140625 0.141276 0.141927 0.142578 0.143229 0.143880 0.144531 0.145182 0.145833 0.146484 0.147135 0.147786 0.148438 0.149089 0.149740 0.150391 0.151042 0.151693 0.152344 0.152995 0.153646 0.154297 0.154948 0.155599 0.156250 0.156901 0.157552 0.158203 0.158854 0.159505 0.160156 0.160807 0.161458 0.162109 0.162760 0.163411 0.164062 0.164714 0.165365 0.166016 0.166667 0.167318 0.167969 0.168620 0.169271 0.169922 0.170573 0.171224 0.171875 0.172526 0.173177 0.173828 0.174479 0.175130 0.175781 0.176432 0.177083 0.177734 0.178385 0.179036 0.179688 0.180339 0.180990 0.181641 0.182292 0.182943 0.183594 0.184245 0.184896 0.185547 0.186198 0.186849 0.187500 0.188151 0.188802 0.189453 0.190104 0.190755 0.191406 0.192057 0.192708 0.193359 0.194010 0.194661 0.195312 0.195964 0.196615 0.197266 0.197917 0.198568 0.199219 0.199870 0.200521 0.201172 0.201823 0.202474 0.203125 0.203776 0.204427 0.205078 0.205729 0.206380 0.207031 0.207682 0.208333 0.208984 0.209635 0.210286 0.210938 0.211589 0.212240 0.212891 0.213542 0.214193 0.214844 0.215495 0.216146 0.216797 0.217448 0.218099 0.218750 0.219401 0.220052 0.220703 0.221354 0.222005 0.222656 0.223307 0.223958 0.224609 0.225260 0.225911 0.226562 0.227214 0.227865 0.228516 0.229167 0.229818 0.230469 0.231120 0.231771 0.232422 0.233073 0.233724 0.234375 0.235026 0.235677
       0.33918        0.33918        0.33918        0.33918        0.33918        0.33918        0.33918        0.33918        0.33918        0.33918        0.33918        0.33918        0.33918        0.33918        0.33918        0.33918        0.33918        0.33918        0.33918        0.33918        0.33918        0.33918        0.33918        0.33918        0.33918        0.33918        0.33918        0.33918        0.33918        0.33918        0.33918        0.33918        0.33918        0.33918        0.33918        0.33918        0.33918        0.33918        0.33918        0.33918        0.33918        0.33918        0.33918        0.33918        0.33918        0.33918        0.33918        0.33918        0.33918        0.33918        0.33918        0.60453        0.75270        0.12965       -0.35086       -0.56704       -0.62512       -0.71554       -0.79175       -0.79090       -0.77669       -0.76045       -0.75756       -0.91163       -1.05965       -1.07449       -1.05845       -1.06051       -1.06920       -0.88845       -0.84017       -0.74242       -0.61427       -0.57832       -0.32722       -0.31444       -0.11956       -0.01605        0.06586        0.18044        0.25325        0.39422        0.37367        0.63764        0.63278        0.68388        0.61674        0.58955        0.55265        0.52356        0.51730        0.39899        0.21943        0.19801        0.11445        0.02179       -0.06224       -0.07862       -0.02691       -0.01912        0.07339        0.12086        0.15110        0.20609        0.39143        0.45478        0.56062        0.53053        0.63684        0.75061        0.65203        0.65965        0.60531        0.50620        0.46740        0.30091        0.24447        0.11907        0.03384        0.00535       -0.04680       -0.02660        0.13100        0.17595        0.32978        0.38450        0.44406        0.66273        0.65630        0.67519        0.65280        0.65568        0.64188        0.60340        0.37682        0.24609        0.16171        0.13272        0.05830        0.07510        0.08398        0.23340        0.27263        0.35106        0.50259        0.57610        0.58397        0.59524        0.61069        0.56907        0.40823        0.36130        0.28644        0.19470        0.17039        0.15309        0.18945        0.20940        0.28706        0.41610        0.41372        0.52434        0.56333        0.53059        0.46551        0.43453        0.35032        0.25827        0.18976        0.15064        0.14576        0.21445        0.28828        0.35731        0.42178        0.42745        0.59425        0.57845        0.47673        0.41031        0.34044        0.28165        0.28089        0.23488        0.23828        0.25459        0.30394        0.29970        0.39231        0.48582        0.47175        0.45141        0.40503        0.37123        0.30313        0.27679        0.26772        0.27400        0.28560        0.35196        0.40959        0.42622        0.41422        0.44060        0.36473        0.34257        0.30556        0.25905        0.26356        0.29366        0.33534        0.34789        0.37011        0.41589        0.42434        0.39328        0.34038        0.30132        0.27612        0.29724        0.31978        0.33460        0.35164        0.40927        0.36891        0.37045        0.34534        0.33279        0.30352        0.25495        0.27667        0.28363        0.31234        0.37019        0.37395        0.38131        0.38928        0.36186        0.30175        0.32618        0.28696        0.28042        0.31193        0.34674        0.33379        0.33228        0.32836        0.34443        0.30510        0.30517        0.30111        0.29190        0.31456        0.31478        0.34588        0.31611        0.29823        0.29759        0.29649        0.30109        0.28567        0.30701        0.31276        0.31754        0.35070        0.33594        0.31195        0.30523        0.31656        0.29539        0.32629        0.33402        0.35585        0.39872        0.34227        0.33030        0.32728        0.30040        0.27335        0.28565        0.32943        0.32447        0.34834        0.34357        0.28919        0.30258        0.27559        0.28328        0.29708        0.30717        0.31705        0.34049        0.30083        0.30176        0.30894        0.27714        0.31773        0.30661        0.30944        0.34187        0.35017        0.32023        0.27886        0.22988        0.25677        0.31936        0.33527        0.34416        0.36131        0.33219        0.29784        0.28427        0.30485        0.31894        0.32259        0.30601        0.34831        0.30350        0.28914        0.28079        0.31714        0.29187        0.29991        0.25624        0.29017        0.33721        0.24514        0.27783        0.29918        0.31069        0.33730        0.27317        0.28260        0.28865        0.28102        0.34297        0.32061        0.28650        0.17649        0.20829        0.19536        0.26155        0.29064        0.26663        0.30041        0.42362        0.28625        0.18578        0.22561        0.34677        0.19993        0.20718        0.23644        0.25299        0.19055        0.12477        0.23464        0.23475        0.23175        0.14285        0.07737       -0.46811       -0.46787
2.894599 2.859327 2.824280 2.789457 2.754860 2.720487 2.686339 2.652416 2.618718 2.585244 2.551996 2.518972 2.486173 2.453598 2.421249 2.389124 2.357224 2.325549 2.294099 2.262873 2.231872 2.201096 2.170545 2.140219 2.110117 2.080240 2.050588 2.021161 1.991959 1.962981 1.934228 1.905700 1.877397 1.849318 1.821465 1.793836 1.766432 1.739252 1.712298 1.685568 1.659063 1.632783 1.606728 1.580897 1.555292 1.529911 1.504754 1.479823 1.455116 1.430635 1.406378 1.528712 1.834822 1.134488 0.802427 0.484398 0.433803 0.390581 0.241161 0.216668 0.188335 0.218693 0.178506 0.100946 -0.090675 -0.134879 -0.157312 -0.140765 -0.253967 -0.089216 -0.039826 0.011517 0.083001 0.078946 0.314131 0.313457 0.393028 0.570160 0.505236 0.704925 0.630848 0.838041 0.751875 0.963831 0.954872 0.982436 0.885076 0.942679 0.811237 0.797635 0.784056 0.696285 0.514539 0.457334 0.355683 0.317552 0.216442 0.143641 0.205910 0.166388 0.254951 0.240970 0.316260 0.281333 0.430715 0.523120 0.551314 0.568117 0.600119 0.721073 0.626145 0.647293 0.633405 0.430635 0.483786 0.278295 0.276745 0.099049 0.070400 0.008739 -0.051415 -0.092871 0.034634 0.069746 0.174904 0.279385 0.258512 0.428113 0.507873 0.488121 0.456327 0.512936 0.460986 0.489700 0.254488 0.165096 0.035240 0.007275 -0.034072 -0.090086 -0.034940 0.007619 0.088691 0.127635 0.236375 0.346308 0.340073 0.482826 0.441310 0.467354 0.339572 0.239859 0.174830 0.148993 0.058009 0.041054 0.087601 0.080575 0.108641 0.237625 0.244200 0.297676 0.378615 0.346672 0.283504 0.237399 0.226708 0.115235 0.053286 -0.012013 -0.036401 0.025680 0.060064 0.116442 0.213481 0.185570 0.306860 0.336134 0.302514 0.174373 0.182119 0.082123 0.052065 0.069912 0.016525 0.031602 0.051188 0.069164 0.078238 0.198156 0.240963 0.199578 0.134230 0.159358 0.051222 0.060144 0.014161 0.008571 0.033571 0.056376 0.112494 0.155818 0.115294 0.134694 0.150534 0.041430 0.065689 0.014294 -0.031344 -0.015391 0.061455 0.051754 0.063174 0.096928 0.117705 0.138708 0.062561 0.069426 0.016185 -0.011042 0.051582 0.057076 0.048406 0.079145 0.115936 0.088523 0.080442 0.045713 0.037841 0.027939 -0.042755 0.019999 0.006982 0.043221 0.069198 0.103528 0.071691 0.096398 0.033769 0.019457 0.018631 -0.005139 -0.002888 0.023164 0.052339 0.027944 0.024283 0.055384 0.039756 -0.001480 0.019989 -0.010526 0.013066 0.006751 0.021876 0.029276 -0.000047 0.001812 -0.022135 -0.020692 -0.002728 -0.020022 -0.014668 -0.002086 0.003858 0.046142 0.007126 -0.005245 -0.003504 0.002470 -0.007831 0.015630 0.011356 0.055830 0.081276 -0.014001 0.016579 0.020874 -0.019544 -0.032597 -0.003726 0.012603 0.019139 0.048760 0.016880 -0.010159 0.019747 -0.035324 -0.022198 0.002486 0.008926 0.036213 0.032906 0.000625 0.011392 0.004731 0.001236 0.011755 0.012224 0.056606 0.055545 0.046126 0.030176 -0.014231 -0.055446 -0.017280 0.035953 0.012845 0.060569 0.050956 0.026161 -0.006743 -0.019954 0.024191 0.007261 -0.004797 -0.013500 0.022686 -0.007534 -0.036017 -0.033895 0.002814 -0.020047 -0.015349 -0.089196 -0.002997 0.042060 -0.089200 -0.054550 -0.011480 0.046207 0.003057 -0.034511 -0.006707 -0.012253 -0.027335 0.055957 0.009239 -0.023424 -0.113955 -0.048475 -0.077145 -0.026335 0.025674 -0.084112 0.064969 0.153413 0.006817 -0.044147 -0.018102 0.043103 -0.060848 0.019805 0.010712 0.046434 -0.019764 -0.025320 0.066875 0.185733 0.245367 0.032803 0.074456 -0.400904
0.072396 0.073044 0.074989 0.078229 0.082764 0.088591 0.095710 0.104117 0.113808 0.124777 0.137020 0.150526 0.165287 0.181289 0.198517 0.216954 0.236576 0.257359 0.279271 0.302279 0.326340 0.351410 0.377433 0.404352 0.432097 0.460593 0.489755 0.519491 0.549696 0.580259 0.611054 0.641949 0.672797 0.703441 0.733715 0.763437 0.792418 0.820455 0.847337 0.872842 0.896737 0.918782 0.938730 0.956328 0.971318 0.983440 0.992433 0.998038 1.000000 0.998070 0.992013 0.981602 0.966631 0.946913 0.922285 0.892614 0.857797 0.817771 0.772511 0.722039 0.666425 0.605793 0.540324 0.470256 0.395893 0.317603 0.235818 0.151040 0.063837 0.025157 0.115242 0.205660 0.295594 0.384177 0.470499 0.553611 0.632544 0.706310 0.773921 0.834403 0.886805 0.930225 0.963815 0.986810 0.998539 0.998445 0.986102 0.961234 0.923730 0.873658 0.811277 0.737052 0.651652 0.555966 0.451093 0.338341 0.219223 0.095436 0.031148 0.158517 0.284537 0.406992 0.523619 0.632152 0.730369 0.816139 0.887472 0.942577 0.979908 0.998215 0.996593 0.974525 0.931916 0.869123 0.786977 0.686788 0.570347 0.439908 0.298160 0.148183 0.006600 0.162509 0.315671 0.462131 0.597939 0.719275 0.822555 0.904549 0.962495 0.994204 0.998163 0.973610 0.920602 0.840057 0.733773 0.604413 0.455469 0.291189 0.116476 0.063247 0.242186 0.414366 0.573830 0.714846 0.832127 0.921047 0.977841 0.999790 0.985373 0.934382 0.847996 0.728798 0.580740 0.409048 0.220068 0.021056 0.180081 0.375091 0.555715 0.714038 0.842859 0.936039 0.988820 0.998106 0.962674 0.883316 0.762886 0.606253 0.420154 0.212947 0.005734 0.225404 0.435220 0.624512 0.783346 0.903065 0.976802 0.999907 0.970300 0.888674 0.758573 0.586311 0.380721 0.152753 0.085067 0.319302 0.536356 0.723277 0.868544 0.962827 0.999630 0.975804 0.891864 0.752090 0.564400 0.339972 0.092632 0.161939 0.407190 0.626766 0.805616 0.931070 0.993786 0.988519 0.914633 0.776302 0.582386 0.345940 0.083426 0.186400 0.443783 0.669424 0.845954 0.959316 0.999962 0.963742 0.852406 0.673661 0.440751 0.171564 0.112660 0.388973 0.634555 0.828628 0.954258 0.999930 0.960695 0.838801 0.643729 0.391577 0.103844 0.194341 0.476352 0.716461 0.892216 0.986623 0.989883 0.900543 0.725875 0.481433 0.189816 0.121340 0.421910 0.682200 0.875891 0.982807 0.991114 0.898779 0.714046 0.454892 0.147397 0.176741 0.483446 0.739818 0.917724 0.996985 0.967805 0.832135 0.603779 0.307175 0.025085 0.355734 0.646973 0.864835 0.983218 0.987172 0.874955 0.658582 0.362756 0.022211 0.322243 0.628565 0.858643 0.983125 0.985324 0.863641 0.632162 0.319243 0.035768 0.387375 0.689712 0.902569 0.996866 0.958808 0.792117 0.517957 0.172489 0.197738 0.541951 0.812113 0.969718 0.991447 0.872848 0.629416 0.294849 0.083411 0.450757 0.753270 0.945695 0.998380 0.902076 0.669808 0.335416 0.051134 0.431054 0.745621 0.945318 0.997811 0.893425 0.647205 0.297054 0.101820 0.485469 0.791405 0.968865 0.987447 0.842592 0.556925 0.177036 0.233842 0.606241 0.876204 0.996392 0.944661 0.728451 0.384124 0.028840 0.437885 0.770064 0.965131 0.986672 0.829240 0.519995 0.114397 0.313479 0.684307 0.928279 0.998413 0.879940 0.593775 0.193220 0.245615 0.638121 0.907483 0.999916 0.895719 0.613860 0.208995 0.238821 0.639730 0.912128 0.999447 0.882263 0.583033 0.162233 0.293455 0.688875 0.940239 0.993136 0.834689 0.497112 0.051654 0.406139
1.000000 1.000000 1.000000 1.000000 1.000000 1.000000 1.000000 1.000000 1.000000 1.000000 1.000000 1.000000 1.000000 1.000000 1.000000 1.000000 1.000000 1.000000 1.000000 1.000000 1.000000 1.000000 1.000000 1.000000 1.000000 1.000000 1.000000 1.000000 1.000000 1.000000 1.000000 1.000000 1.000000 1.000000 1.000000 1.000000 1.000000 1.000000 1.000000 1.000000 1.000000 1.000000 1.000000 1.000000 1.000000 1.000000 1.000000 1.000000 1.000000 1.000000 1.000000 1.000000 0.961078 0.961078 0.961078 0.961078 0.961078 0.961078 0.961078 0.961078 0.961078 0.961078 0.961078 0.961078 0.961078 0.961078 0.961078 0.961078 0.961078 0.961078 0.961078 0.961078 0.961078 0.961078 0.961078 0.961078 0.961078 0.961078 0.961078 0.961078 0.961078 0.961078 0.961078 0.961078 0.961078 0.952313 0.953253 0.955229 0.955855 0.955714 0.955245 0.954820 0.955117 0.957111 0.959992 0.961913 0.963885 0.961720 0.964116 0.965910 0.965873 0.966166 0.964568 0.972655 0.971824 0.972037 0.972929 0.973344 0.973508 0.973592 0.973771 0.974214 0.973953 0.973364 0.972807 0.972317 0.972105 0.971843 0.974061 0.974027 0.974812 0.975022 0.975083 0.975063 0.975121 0.975473 0.976962 0.971551 0.971805 0.970205 0.972320 0.973575 0.974272 0.974611 0.975044 0.975226 0.973063 0.969601 0.968345 0.964220 0.961100 0.960644 0.963741 0.964728 0.964838 0.963248 0.962841 0.957045 0.956902 0.956878 0.951358 0.954860 0.955802 0.956053 0.942225 0.937105 0.927874 0.924179 0.924718 0.930941 0.929723 0.921533 0.905506 0.880706 0.875844 0.872799 0.871620 0.865494 0.866557 0.863137 0.865389 0.870657 0.873234 0.869989 0.860713 0.855800 0.855696 0.863647 0.858056 0.857690 0.860257 0.866627 0.868875 0.858899 0.873149 0.870636 0.877108 0.883635 0.886226 0.883351 0.881849 0.878280 0.875649 0.874278 0.871091 0.872994 0.846508 0.838167 0.838101 0.838884 0.841672 0.841556 0.840697 0.834137 0.837596 0.814254 0.818830 0.818767 0.825816 0.828864 0.827044 0.818206 0.808558 0.813164 0.828798 0.854984 0.858821 0.852226 0.850727 0.848711 0.849482 0.836974 0.827664 0.815553 0.813516 0.804443 0.808246 0.815184 0.810397 0.794846 0.794862 0.802228 0.781629 0.762277 0.733858 0.748123 0.730272 0.724371 0.721444 0.692551 0.693691 0.667894 0.656164 0.662539 0.662529 0.656295 0.647569 0.671111 0.685508 0.665951 0.664103 0.648199 0.645139 0.639487 0.630500 0.625039 0.620494 0.647824 0.657280 0.660522 0.657466 0.604961 0.609702 0.602028 0.602714 0.609303 0.612190 0.601913 0.585334 0.589972 0.594972 0.587252 0.588891 0.603149 0.599690 0.562267 0.550330 0.551096 0.565765 0.555295 0.546886 0.557124 0.548285 0.549400 0.547352 0.521011 0.550515 0.544183 0.548414 0.542295 0.557415 0.529372 0.499763 0.528190 0.531438 0.527210 0.517673 0.504899 0.488948 0.387639 0.402326 0.382906 0.354548 0.391591 0.390223 0.396493 0.379457 0.375446 0.369774 0.392184 0.396939 0.380706 0.374851 0.373207 0.408234 0.405823 0.346303 0.348267 0.338701 0.350567 0.346182 0.331207 0.353456 0.301067 0.322913 0.281371 0.263076 0.243484 0.209456 0.247222 0.225150 0.210372 0.191185 0.200793 0.218344 0.241217 0.238619 0.246553 0.246553 0.246553 0.246553 0.246553 0.246553 0.246553 0.246553 0.246553 0.246553 0.246553 0.246553 0.246553 0.246553 0.250332 0.250332 0.250332 0.250332 0.250332 0.250332 0.250332 0.250332 0.250332 0.250332 0.250332 0.250332
0.000000 0.000000 0.000000 0.000000 0.000000 0.000000 0.000000 0.000000 0.000000 0.000000 0.000000 0.000000 0.000000 0.000000 0.000000 0.000000 0.000000 0.000000 0.000000 0.000000 0.000000 0.000000 0.000000 0.000000 0.000000 0.000000 0.000000 0.000000 0.000000 0.000000 0.000000 0.000000 0.000000 0.000000 0.000000 0.000000 0.000000 0.000000 0.000000 0.000000 0.000000 0.000000 0.000000 0.000000 0.000000 0.000000 0.000000 0.000000 0.000000 0.000000 0.000000 0.000000 0.212000 0.212000 0.212000 0.212000 0.212000 0.212000 0.212000 0.212000 0.212000 0.212000 0.212000 0.212000 0.212000 0.212000 0.212000 0.212000 0.212000 0.212000 0.212000 0.212000 0.212000 0.212000 0.212000 0.212000 0.212000 0.212000 0.212000 0.212000 0.212000 0.212000 0.212000 0.212000 0.212000 0.244339 0.244339 0.244339 0.244339 0.244339 0.244339 0.244339 0.244339 0.244339 0.244339 0.244339 0.244339 0.244339 0.244339 0.244339 0.244339 0.244339 0.244339 0.244339 0.244339 0.244339 0.244339 0.244339 0.244339 0.244339 0.260378 0.260378 0.260378 0.260378 0.260378 0.260378 0.260378 0.260378 0.260378 0.260378 0.260378 0.260378 0.260378 0.260378 0.260378 0.260378 0.260378 0.260378 0.260378 0.260378 0.264906 0.264906 0.264906 0.264906 0.264906 0.264906 0.264906 0.264906 0.264906 0.264906 0.264906 0.264906 0.264906 0.264906 0.264906 0.264906 0.264906 0.264906 0.280056 0.280056 0.280056 0.280056 0.280056 0.280056 0.280056 0.280056 0.280056 0.280056 0.280056 0.280056 0.280056 0.280056 0.280056 0.280056 0.280056 0.280056 0.280056 0.280056 0.280056 0.280056 0.280056 0.280056 0.280056 0.280056 0.280056 0.280056 0.280056 0.269680 0.269680 0.269680 0.269680 0.269680 0.269680 0.269680 0.269680 0.269680 0.269680 0.269680 0.269680 0.269680 0.269680 0.285714 0.285714 0.285714 0.285714 0.285714 0.285714 0.285714 0.285714 0.285714 0.285714 0.285714 0.285714 0.274721 0.274721 0.274721 0.274721 0.274721 0.274721 0.274721 0.274721 0.274721 0.274721 0.274721 0.274721 0.280056 0.280056 0.280056 0.280056 0.280056 0.280056 0.280056 0.280056 0.280056 0.280056 0.280056 0.285714 0.285714 0.285714 0.285714 0.285714 0.285714 0.285714 0.285714 0.285714 0.285714 0.280056 0.280056 0.280056 0.280056 0.280056 0.280056 0.280056 0.280056 0.280056 0.280056 0.274721 0.274721 0.274721 0.274721 0.274721 0.274721 0.274721 0.274721 0.274721 0.274721 0.280056 0.280056 0.280056 0.280056 0.280056 0.280056 0.280056 0.280056 0.280056 0.274721 0.274721 0.274721 0.274721 0.274721 0.274721 0.274721 0.274721 0.274721 0.269680 0.269680 0.269680 0.269680 0.269680 0.269680 0.269680 0.269680 0.269680 0.280056 0.280056 0.280056 0.280056 0.280056 0.280056 0.280056 0.280056 0.274721 0.274721 0.274721 0.274721 0.274721 0.274721 0.274721 0.274721 0.269680 0.269680 0.269680 0.269680 0.269680 0.269680 0.269680 0.269680 0.269680 0.269680 0.269680 0.269680 0.269680 0.269680 0.269680 0.269680 0.264906 0.264906 0.264906 0.264906 0.264906 0.264906 0.264906 0.264906 0.274721 0.274721 0.274721 0.274721 0.274721 0.274721 0.274721 0.269680 0.269680 0.269680 0.269680 0.269680 0.269680 0.269680 0.264906 0.264906 0.264906 0.264906 0.264906 0.264906 0.264906 0.264906 0.264906 0.264906 0.264906 0.264906 0.264906 0.264906 0.260378 0.260378 0.260378 0.260378 0.260378 0.260378 0.260378 0.260378 0.260378 0.260378 0.260378 0.260378
