# Output from CTFFind version 4.1.9, run on 2019-11-02 12:26:38
# Input file: stack11_ub_averaged_1000.mrc ; Number of micrographs: 1
# Pixel size: 3.000 Angstroms ; acceleration voltage: 300.0 keV ; spherical aberration: 0.00 mm ; amplitude contrast: 0.07
# Box size: 512 pixels ; min. res.: 30.0 Angstroms ; max. res.: 5.0 Angstroms ; min. def.: 5000.0 um; max. def. 50000.0 um; num. frames averaged: 1
# 6 lines per micrograph: #1 - spatial frequency (1/Angstroms); #2 - 1D rotational average of spectrum (assuming no astigmatism); #3 - 1D rotational average of spectrum; #4 - CTF fit; #5 - cross-correlation between spectrum and CTF fit; #6 - 2sigma of expected cross correlation of noise
0.000000 0.000651 0.001302 0.001953 0.002604 0.003255 0.003906 0.004557 0.005208 0.005859 0.006510 0.007161 0.007812 0.008464 0.009115 0.009766 0.010417 0.011068 0.011719 0.012370 0.013021 0.013672 0.014323 0.014974 0.015625 0.016276 0.016927 0.017578 0.018229 0.018880 0.019531 0.020182 0.020833 0.021484 0.022135 0.022786 0.023438 0.024089 0.024740 0.025391 0.026042 0.026693 0.027344 0.027995 0.028646 0.029297 0.029948 0.030599 0.031250 0.031901 0.032552 0.033203 0.033854 0.034505 0.035156 0.035807 0.036458 0.037109 0.037760 0.038411 0.039062 0.039714 0.040365 0.041016 0.041667 0.042318 0.042969 0.043620 0.044271 0.044922 0.045573 0.046224 0.046875 0.047526 0.048177 0.048828 0.049479 0.050130 0.050781 0.051432 0.052083 0.052734 0.053385 0.054036 0.054688 0.055339 0.055990 0.056641 0.057292 0.057943 0.058594 0.059245 0.059896 0.060547 0.061198 0.061849 0.062500 0.063151 0.063802 0.064453 0.065104 0.065755 0.066406 0.067057 0.067708 0.068359 0.069010 0.069661 0.070312 0.070964 0.071615 0.072266 0.072917 0.073568 0.074219 0.074870 0.075521 0.076172 0.076823 0.077474 0.078125 0.078776 0.079427 0.080078 0.080729 0.081380 0.082031 0.082682 0.083333 0.083984 0.084635 0.085286 0.085938 0.086589 0.087240 0.087891 0.088542 0.089193 0.089844 0.090495 0.091146 0.091797 0.092448 0.093099 0.093750 0.094401 0.095052 0.095703 0.096354 0.097005 0.097656 0.098307 0.098958 0.099609 0.100260 0.100911 0.101562 0.102214 0.102865 0.103516 0.104167 0.104818 0.105469 0.106120 0.106771 0.107422 0.108073 0.108724 0.109375 0.110026 0.110677 0.111328 0.111979 0.112630 0.113281 0.113932 0.114583 0.115234 0.115885 0.116536 0.117188 0.117839 0.118490 0.119141 0.119792 0.120443 0.121094 0.121745 0.122396 0.123047 0.123698 0.124349 0.125000 0.125651 0.126302 0.126953 0.127604 0.128255 0.128906 0.129557 0.130208 0.130859 0.131510 0.132161 0.132812 0.133464 0.134115 0.134766 0.135417 0.136068 0.136719 0.137370 0.138021 0.138672 0.139323 0.139974 0.140625 0.141276 0.141927 0.142578 0.143229 0.143880 0.144531 0.145182 0.145833 0.146484 0.147135 0.147786 0.148438 0.149089 0.149740 0.150391 0.151042 0.151693 0.152344 0.152995 0.153646 0.154297 0.154948 0.155599 0.156250 0.156901 0.157552 0.158203 0.158854 0.159505 0.160156 0.160807 0.161458 0.162109 0.162760 0.163411 0.164062 0.164714 0.165365 0.166016 0.166667 0.167318 0.167969 0.168620 0.169271 0.169922 0.170573 0.171224 0.171875 0.172526 0.173177 0.173828 0.174479 0.175130 0.175781 0.176432 0.177083 0.177734 0.178385 0.179036 0.179688 0.180339 0.180990 0.181641 0.182292 0.182943 0.183594 0.184245 0.184896 0.185547 0.186198 0.186849 0.187500 0.188151 0.188802 0.189453 0.190104 0.190755 0.191406 0.192057 0.192708 0.193359 0.194010 0.194661 0.195312 0.195964 0.196615 0.197266 0.197917 0.198568 0.199219 0.199870 0.200521 0.201172 0.201823 0.202474 0.203125 0.203776 0.204427 0.205078 0.205729 0.206380 0.207031 0.207682 0.208333 0.208984 0.209635 0.210286 0.210938 0.211589 0.212240 0.212891 0.213542 0.214193 0.214844 0.215495 0.216146 0.216797 0.217448 0.218099 0.218750 0.219401 0.220052 0.220703 0.221354 0.222005 0.222656 0.223307 0.223958 0.224609 0.225260 0.225911 0.226562 0.227214 0.227865 0.228516 0.229167 0.229818 0.230469 0.231120 0.231771 0.232422 0.233073 0.233724 0.234375 0.235026 0.235677
       0.31692        0.31692        0.31692        0.31692        0.31692        0.31692        0.31692        0.31692        0.31692        0.31692        0.31692        0.31692        0.31692        0.31692        0.31692        0.31692        0.31692        0.31692        0.31692        0.31692        0.31692        0.31692        0.31692        0.31692        0.31692        0.31692        0.31692        0.31692        0.31692        0.31692        0.31692        0.31692        0.31692        0.31692        0.31692        0.31692        0.31692        0.31692        0.31692        0.31692        0.31692        0.31692        0.31692        0.31692        0.31692        0.31692        0.31692        0.31692        0.31692        0.31692        0.31692        0.68493        0.87185        0.52262        0.08697       -0.06665       -0.42498       -0.20957       -0.29734       -0.11751       -0.07852       -0.11821       -0.06843       -0.21031       -0.23685       -0.26086       -0.32950       -0.33633       -0.49138       -0.38372       -0.46748       -0.45059       -0.42111       -0.47111       -0.54885       -0.56365       -0.58960       -0.62948       -0.58062       -0.41847       -0.38008       -0.32960       -0.31602       -0.21472       -0.20126        0.01829        0.06829        0.10234        0.22415        0.37240        0.44161        0.51613        0.55922        0.55486        0.57101        0.69963        0.81509        0.74486        0.73505        0.67448        0.58456        0.48682        0.40781        0.49318        0.37380        0.20205        0.07642        0.04632        0.00854       -0.06155       -0.04056       -0.02782       -0.07479       -0.00713       -0.02118        0.20938        0.24845        0.29115        0.43203        0.46885        0.40435        0.53383        0.63154        0.70446        0.76818        0.69252        0.65952        0.70064        0.58859        0.50809        0.41856        0.28832        0.18350        0.15626        0.10602        0.03804        0.01299       -0.00271        0.07522        0.13083        0.20269        0.28497        0.40344        0.41670        0.51373        0.60417        0.63604        0.61471        0.63085        0.55448        0.44611        0.44402        0.35055        0.23084        0.18508        0.14915        0.10613        0.11834        0.06332        0.09741        0.22167        0.26204        0.33957        0.34686        0.45398        0.51353        0.53634        0.55150        0.46913        0.42856        0.39408        0.37487        0.30862        0.25071        0.19922        0.18486        0.15983        0.18824        0.17691        0.26920        0.33142        0.36308        0.42262        0.46192        0.47885        0.44743        0.39311        0.41650        0.37517        0.28924        0.27383        0.22822        0.21310        0.19450        0.21214        0.23102        0.32909        0.37279        0.36488        0.45821        0.44131        0.43964        0.43233        0.39599        0.34472        0.32935        0.27566        0.23441        0.23648        0.26822        0.26790        0.30046        0.29972        0.34065        0.32896        0.41089        0.41788        0.37468        0.34380        0.36368        0.27854        0.27991        0.26271        0.27693        0.26005        0.27966        0.29144        0.31482        0.35332        0.36004        0.36004        0.33128        0.35118        0.28415        0.32075        0.26759        0.25041        0.28393        0.27880        0.30608        0.31414        0.33422        0.32756        0.31314        0.31676        0.28817        0.28752        0.26128        0.28052        0.26570        0.31058        0.28353        0.26293        0.30802        0.31179        0.31881        0.29164        0.29964        0.29278        0.24391        0.23604        0.22032        0.27957        0.27225        0.30884        0.31853        0.31892        0.31409        0.30429        0.27633        0.28288        0.33124        0.27495        0.26816        0.29567        0.29607        0.34032        0.33627        0.36361        0.33149        0.31323        0.27920        0.26325        0.26434        0.22751        0.26845        0.29845        0.29591        0.27754        0.29554        0.27166        0.32177        0.32805        0.25088        0.21784        0.27265        0.33811        0.27810        0.31441        0.32550        0.32748        0.30027        0.32238        0.34392        0.29913        0.29557        0.26672        0.27797        0.35279        0.35038        0.25844        0.26780        0.25415        0.27988        0.22625        0.28991        0.21994        0.25333        0.32504        0.31735        0.34187        0.29537        0.24101        0.24252        0.24211        0.24506        0.18282        0.22175        0.25877        0.29459        0.27991        0.29977        0.29323        0.28255        0.28073        0.21040        0.17780        0.18594        0.23666        0.20388        0.21624        0.23175        0.21014        0.24276        0.33143        0.29636        0.30530        0.22310        0.25836        0.23912        0.28612        0.30660        0.14881        0.21231        0.22518        0.12962        0.23366        0.10618        0.15709        0.17076        0.10949       -0.10425       -0.59118
2.593648 2.566539 2.539576 2.512761 2.486093 2.459572 2.433198 2.406971 2.380891 2.354958 2.329173 2.303534 2.278042 2.252698 2.227501 2.202451 2.177547 2.152791 2.128182 2.103721 2.079406 2.055238 2.031218 2.007344 1.983618 1.960038 1.936606 1.913321 1.890183 1.867192 1.844348 1.821651 1.799102 1.776699 1.754444 1.732335 1.710374 1.688560 1.666893 1.645373 1.624000 1.602774 1.581695 1.560763 1.539979 1.519341 1.498851 1.478508 1.458311 1.438262 1.418360 1.640275 2.045077 1.618361 1.131903 0.988730 0.427999 0.811746 0.565602 0.837326 0.774827 0.789585 0.755935 0.710885 0.563935 0.514026 0.488910 0.449535 0.207494 0.383077 0.206386 0.305717 0.242502 0.182277 0.130466 0.006543 0.045045 -0.015522 -0.054962 0.104939 0.206729 0.199365 0.155934 0.330744 0.198050 0.497835 0.574021 0.546995 0.592305 0.877999 0.807180 0.945924 0.888749 0.973205 0.940033 1.079860 1.141847 1.077278 1.125221 0.954056 0.945535 0.784971 0.652389 0.769160 0.702625 0.462470 0.305926 0.253521 0.212671 0.147251 0.088533 0.124824 0.065520 0.152834 0.051015 0.260247 0.376385 0.357234 0.479066 0.585431 0.469252 0.541502 0.698386 0.747158 0.780535 0.734275 0.731144 0.715567 0.626281 0.572417 0.429262 0.283439 0.203569 0.075053 0.129289 -0.045095 -0.027483 -0.084061 -0.038472 0.003918 0.139877 0.092792 0.302399 0.276446 0.365196 0.456089 0.522025 0.505002 0.517817 0.505143 0.331084 0.306702 0.274054 0.100605 0.046870 -0.003071 -0.037128 -0.042386 -0.096445 -0.106655 -0.019568 0.055453 0.132045 0.133722 0.225642 0.333065 0.303673 0.419729 0.389963 0.281221 0.231784 0.248862 0.207477 0.101515 0.069382 0.014823 0.002566 -0.000201 -0.020813 0.058048 0.145846 0.140318 0.222107 0.251505 0.303283 0.263052 0.219555 0.190814 0.209461 0.149615 0.043250 0.047011 -0.008409 -0.010546 -0.031591 0.016706 0.015724 0.173080 0.122085 0.180996 0.237199 0.201574 0.192333 0.200485 0.135806 0.105154 0.065170 0.041479 -0.038669 0.006555 0.020103 0.051269 0.047923 0.080170 0.097476 0.118520 0.141961 0.186243 0.076870 0.097877 0.069443 -0.001189 0.006973 0.008056 -0.009256 0.019525 0.001850 0.029925 0.071397 0.084208 0.116857 0.050353 0.096360 0.055006 0.009413 0.061649 -0.035139 -0.011536 0.021834 -0.003109 0.051258 0.053875 0.053078 0.054226 0.050707 0.047351 0.019522 0.000256 0.005450 0.012034 -0.015523 0.069146 -0.015459 0.006264 0.053474 0.047679 0.033692 0.043417 0.035736 0.014319 -0.027244 -0.050685 -0.017030 0.014269 0.016996 0.057397 0.060644 0.052055 0.076256 0.060035 0.017500 0.057823 0.083670 0.020136 0.021200 0.055097 0.051435 0.098864 0.106842 0.111269 0.107341 0.060549 0.035616 0.026227 0.005046 -0.007485 0.043770 0.071288 0.039292 0.028161 0.030734 0.020314 0.080584 0.058295 -0.049155 -0.054042 0.029003 0.092322 0.005820 0.031425 0.054557 0.087958 0.023560 0.055227 0.082368 0.034210 0.040490 -0.031730 0.014571 0.111252 0.065452 -0.057891 -0.022048 -0.050393 0.017261 -0.105226 0.033462 -0.111455 -0.030201 0.047591 0.026142 0.026341 -0.043234 -0.060909 -0.083475 -0.079501 -0.061993 -0.127526 -0.095311 -0.038150 0.016313 -0.024159 0.033197 -0.016495 -0.037780 0.052896 -0.106787 -0.092812 -0.097222 -0.002675 -0.048691 -0.041564 0.004856 0.015461 0.007836 0.175221 -0.006223 0.144006 0.010082 0.264953 0.255681 0.325573 0.284067 0.115063 0.214961 0.269528 0.054126 0.256662 0.111412 0.127435 0.229566 0.110867 -0.609593
0.072396 0.072899 0.074406 0.076917 0.080433 0.084951 0.090471 0.096991 0.104509 0.113022 0.122527 0.133020 0.144494 0.156944 0.170362 0.184739 0.200064 0.216324 0.233504 0.251586 0.270551 0.290376 0.311035 0.332498 0.354733 0.377702 0.401363 0.425672 0.450577 0.476022 0.501947 0.528284 0.554960 0.581897 0.609010 0.636207 0.663389 0.690452 0.717284 0.743766 0.769772 0.795171 0.819823 0.843583 0.866301 0.887819 0.907975 0.926603 0.943532 0.958587 0.971593 0.982372 0.990745 0.996536 0.999569 0.999674 0.996683 0.990439 0.980789 0.967595 0.950729 0.930077 0.905544 0.877051 0.844543 0.807986 0.767372 0.722721 0.674083 0.621540 0.565207 0.505234 0.441809 0.375159 0.305549 0.233285 0.158712 0.082217 0.004226 0.074795 0.154344 0.233883 0.312842 0.390620 0.466592 0.540112 0.610518 0.677137 0.739296 0.796322 0.847557 0.892359 0.930118 0.960260 0.982256 0.995637 0.999996 0.995005 0.980416 0.956080 0.921946 0.878072 0.824633 0.761926 0.690371 0.610519 0.523046 0.428759 0.328589 0.223586 0.114913 0.003835 0.108291 0.220036 0.329908 0.436377 0.537895 0.632917 0.719929 0.797471 0.864167 0.918749 0.960087 0.987218 0.999365 0.995970 0.976708 0.941512 0.890585 0.824412 0.743767 0.649711 0.543595 0.427040 0.301925 0.170364 0.034671 0.102669 0.239047 0.371782 0.498163 0.615513 0.721248 0.812935 0.888358 0.945571 0.982963 0.999306 0.993806 0.966139 0.916482 0.845533 0.754519 0.645191 0.519800 0.381070 0.232145 0.076530 0.081990 0.239427 0.391698 0.534728 0.664557 0.777465 0.870076 0.939475 0.983310 0.999884 0.988233 0.948183 0.880393 0.786368 0.668445 0.529759 0.374178 0.206206 0.030870 0.146426 0.320058 0.484363 0.633823 0.763261 0.868026 0.944177 0.988647 0.999385 0.975468 0.917175 0.826027 0.704773 0.557337 0.388719 0.204839 0.012348 0.181595 0.369594 0.544292 0.698662 0.826303 0.921726 0.980602 0.999989 0.978500 0.916416 0.815735 0.680144 0.514917 0.326743 0.123477 0.086169 0.292991 0.487687 0.661286 0.805567 0.913473 0.979478 0.999899 0.973137 0.899816 0.782830 0.627274 0.440260 0.230626 0.008544 0.214947 0.428496 0.621008 0.782227 0.903320 0.977374 0.999836 0.968830 0.885337 0.753236 0.579170 0.372262 0.143672 0.093972 0.327257 0.542739 0.727725 0.871036 0.963726 0.999666 0.976008 0.893448 0.756284 0.572260 0.352177 0.109305 0.141379 0.384107 0.603301 0.784591 0.915780 0.987711 0.994955 0.936277 0.814830 0.638072 0.417358 0.167283 0.095248 0.352152 0.585387 0.778234 0.916542 0.989801 0.992001 0.922189 0.784675 0.588850 0.348613 0.081449 0.192804 0.453408 0.680292 0.855619 0.965233 0.999870 0.956003 0.836271 0.649422 0.409766 0.136141 0.149516 0.423885 0.664171 0.850034 0.965335 0.999619 0.949142 0.817356 0.614777 0.358252 0.069620 0.226078 0.502754 0.735579 0.903243 0.989967 0.987069 0.893928 0.718232 0.475447 0.187561 0.118840 0.414987 0.672623 0.866710 0.977948 0.994758 0.914597 0.744413 0.500170 0.205453 0.110721 0.416720 0.681436 0.877499 0.984152 0.989557 0.892217 0.701359 0.436197 0.124101 0.202126 0.507679 0.759440 0.929637 0.998970 0.958927 0.812950 0.576302 0.274609 0.058800 0.386526 0.671252 0.880035 0.988194 0.982334 0.862143 0.640703 0.343214 0.004248 0.336167 0.637267 0.862432 0.983732 0.985500 0.866507 0.640404 0.334315 0.014277 0.362026 0.665087 0.884669 0.992095 0.972662 0.827832 0.575345 0.247215 0.114165
1.000000 1.000000 1.000000 1.000000 1.000000 1.000000 1.000000 1.000000 1.000000 1.000000 1.000000 1.000000 1.000000 1.000000 1.000000 1.000000 1.000000 1.000000 1.000000 1.000000 1.000000 1.000000 1.000000 1.000000 1.000000 1.000000 1.000000 1.000000 1.000000 1.000000 1.000000 1.000000 1.000000 1.000000 1.000000 1.000000 1.000000 1.000000 1.000000 1.000000 1.000000 1.000000 1.000000 1.000000 1.000000 1.000000 1.000000 1.000000 1.000000 1.000000 1.000000 1.000000 0.933410 0.933410 0.933410 0.924258 0.924258 0.924258 0.924258 0.924258 0.924258 0.924258 0.924258 0.924258 0.924258 0.924258 0.924258 0.924258 0.924258 0.924258 0.924258 0.924258 0.924258 0.924258 0.924258 0.924258 0.924258 0.924258 0.924258 0.924258 0.924258 0.924258 0.924258 0.924258 0.924258 0.924258 0.924258 0.924258 0.924258 0.924258 0.924258 0.924258 0.924258 0.924258 0.924258 0.924258 0.950189 0.951390 0.959237 0.959070 0.958567 0.956471 0.955562 0.954442 0.953992 0.954264 0.954868 0.955698 0.967440 0.968454 0.969983 0.970783 0.971491 0.972148 0.972006 0.972806 0.972063 0.971535 0.971039 0.967108 0.967724 0.968317 0.968497 0.969545 0.969432 0.971670 0.971781 0.971215 0.970389 0.969706 0.969046 0.968659 0.968389 0.968877 0.969141 0.970398 0.973532 0.972954 0.972636 0.972795 0.972899 0.973069 0.973460 0.974223 0.970360 0.968854 0.967205 0.965039 0.969230 0.966386 0.966163 0.967525 0.967906 0.968304 0.967398 0.963465 0.958370 0.957327 0.954908 0.945525 0.944362 0.945103 0.947330 0.947687 0.946286 0.938927 0.939494 0.932532 0.934480 0.937705 0.931766 0.931621 0.932766 0.932242 0.931126 0.930584 0.927670 0.925101 0.923558 0.923438 0.926395 0.926542 0.927725 0.927505 0.921753 0.913860 0.901572 0.899324 0.895084 0.898108 0.886816 0.886627 0.886364 0.881810 0.885161 0.885115 0.886002 0.882790 0.865754 0.848048 0.841580 0.845830 0.850827 0.846951 0.845776 0.838962 0.850208 0.830226 0.842642 0.852858 0.849790 0.849633 0.848932 0.847044 0.842052 0.842984 0.844745 0.846225 0.844403 0.843320 0.842909 0.827603 0.830071 0.767001 0.750045 0.740952 0.746669 0.753353 0.755659 0.754616 0.760613 0.765287 0.753439 0.735336 0.727863 0.721768 0.725935 0.723391 0.725251 0.710207 0.678495 0.673729 0.643007 0.659318 0.672638 0.633022 0.655696 0.666450 0.665536 0.664044 0.657768 0.654630 0.650266 0.652901 0.660237 0.672993 0.690169 0.713073 0.709016 0.699512 0.696676 0.677821 0.671758 0.665494 0.679109 0.658641 0.655719 0.673859 0.673620 0.658881 0.636324 0.625476 0.618022 0.610188 0.619771 0.608048 0.602786 0.590122 0.564076 0.559051 0.593055 0.609183 0.631959 0.602989 0.589503 0.577119 0.555425 0.568439 0.510569 0.510472 0.533299 0.541308 0.519732 0.512381 0.523956 0.529687 0.528288 0.517846 0.506800 0.497437 0.513393 0.550124 0.540583 0.522969 0.524881 0.523471 0.514341 0.424441 0.417944 0.390972 0.356161 0.299760 0.276359 0.268907 0.253422 0.246346 0.211429 0.207409 0.218423 0.225013 0.236320 0.238684 0.221005 0.230699 0.226702 0.213022 0.150393 0.139833 0.131726 0.121070 0.119847 0.099398 0.125706 0.191282 0.193286 0.193286 0.193286 0.193286 0.193286 0.193286 0.201713 0.201713 0.201713 0.201713 0.201713 0.201713 0.201713 0.201713 0.201713 0.210017 0.210017 0.210017 0.210017 0.210017 0.210017 0.210017 0.210017 0.210017 0.210017 0.210017 0.210017 0.210017 0.210017
0.000000 0.000000 0.000000 0.000000 0.000000 0.000000 0.000000 0.000000 0.000000 0.000000 0.000000 0.000000 0.000000 0.000000 0.000000 0.000000 0.000000 0.000000 0.000000 0.000000 0.000000 0.000000 0.000000 0.000000 0.000000 0.000000 0.000000 0.000000 0.000000 0.000000 0.000000 0.000000 0.000000 0.000000 0.000000 0.000000 0.000000 0.000000 0.000000 0.000000 0.000000 0.000000 0.000000 0.000000 0.000000 0.000000 0.000000 0.000000 0.000000 0.000000 0.000000 0.000000 0.180334 0.180334 0.180334 0.199007 0.199007 0.199007 0.199007 0.199007 0.199007 0.199007 0.199007 0.199007 0.199007 0.199007 0.199007 0.199007 0.199007 0.199007 0.199007 0.199007 0.199007 0.199007 0.199007 0.199007 0.199007 0.199007 0.199007 0.199007 0.199007 0.199007 0.199007 0.199007 0.199007 0.199007 0.199007 0.199007 0.199007 0.199007 0.199007 0.199007 0.199007 0.199007 0.199007 0.199007 0.225018 0.225018 0.225018 0.225018 0.225018 0.225018 0.225018 0.225018 0.225018 0.225018 0.225018 0.225018 0.225018 0.225018 0.225018 0.225018 0.225018 0.225018 0.225018 0.225018 0.225018 0.225018 0.225018 0.225018 0.225018 0.225018 0.225018 0.225018 0.225018 0.244339 0.244339 0.244339 0.244339 0.244339 0.244339 0.244339 0.244339 0.244339 0.244339 0.244339 0.244339 0.244339 0.244339 0.244339 0.244339 0.244339 0.244339 0.244339 0.244339 0.244339 0.244339 0.244339 0.251976 0.251976 0.251976 0.251976 0.251976 0.251976 0.251976 0.251976 0.251976 0.251976 0.251976 0.251976 0.251976 0.251976 0.251976 0.251976 0.251976 0.251976 0.251976 0.251976 0.264906 0.264906 0.264906 0.264906 0.264906 0.264906 0.264906 0.264906 0.264906 0.264906 0.264906 0.264906 0.264906 0.264906 0.264906 0.264906 0.264906 0.264906 0.264906 0.264906 0.264906 0.264906 0.264906 0.264906 0.264906 0.264906 0.264906 0.264906 0.264906 0.264906 0.264906 0.264906 0.264906 0.264906 0.264906 0.264906 0.264906 0.264906 0.264906 0.264906 0.264906 0.264906 0.264906 0.264906 0.264906 0.264906 0.264906 0.264906 0.264906 0.264906 0.264906 0.264906 0.264906 0.264906 0.264906 0.264906 0.264906 0.264906 0.264906 0.264906 0.264906 0.264906 0.256074 0.256074 0.256074 0.256074 0.256074 0.256074 0.256074 0.256074 0.256074 0.256074 0.256074 0.256074 0.256074 0.256074 0.269680 0.269680 0.269680 0.269680 0.269680 0.269680 0.269680 0.269680 0.269680 0.269680 0.269680 0.269680 0.264906 0.264906 0.264906 0.264906 0.264906 0.264906 0.264906 0.264906 0.264906 0.264906 0.264906 0.264906 0.269680 0.269680 0.269680 0.269680 0.269680 0.269680 0.269680 0.269680 0.269680 0.269680 0.269680 0.264906 0.264906 0.264906 0.264906 0.264906 0.264906 0.264906 0.264906 0.264906 0.264906 0.264906 0.256074 0.256074 0.256074 0.256074 0.256074 0.256074 0.256074 0.256074 0.256074 0.256074 0.256074 0.264906 0.264906 0.264906 0.264906 0.264906 0.264906 0.264906 0.264906 0.264906 0.264906 0.260378 0.260378 0.260378 0.260378 0.260378 0.260378 0.260378 0.260378 0.260378 0.260378 0.256074 0.256074 0.256074 0.256074 0.256074 0.256074 0.256074 0.256074 0.256074 0.256074 0.260378 0.260378 0.260378 0.260378 0.260378 0.260378 0.260378 0.260378 0.260378 0.256074 0.256074 0.256074 0.256074 0.256074 0.256074 0.256074 0.256074 0.256074 0.251976 0.251976 0.251976 0.251976 0.251976 0.251976 0.251976 0.251976 0.251976 0.251976 0.251976 0.251976 0.251976 0.251976
