# Output from CTFFind version 4.1.9, run on 2019-11-03 18:51:30
# Input file: stack10_ub_averaged_750.mrc ; Number of micrographs: 1
# Pixel size: 3.000 Angstroms ; acceleration voltage: 300.0 keV ; spherical aberration: 0.00 mm ; amplitude contrast: 0.07
# Box size: 512 pixels ; min. res.: 30.0 Angstroms ; max. res.: 5.0 Angstroms ; min. def.: 5000.0 um; max. def. 50000.0 um; num. frames averaged: 1
# 6 lines per micrograph: #1 - spatial frequency (1/Angstroms); #2 - 1D rotational average of spectrum (assuming no astigmatism); #3 - 1D rotational average of spectrum; #4 - CTF fit; #5 - cross-correlation between spectrum and CTF fit; #6 - 2sigma of expected cross correlation of noise
0.000000 0.000651 0.001302 0.001953 0.002604 0.003255 0.003906 0.004557 0.005208 0.005859 0.006510 0.007161 0.007812 0.008464 0.009115 0.009766 0.010417 0.011068 0.011719 0.012370 0.013021 0.013672 0.014323 0.014974 0.015625 0.016276 0.016927 0.017578 0.018229 0.018880 0.019531 0.020182 0.020833 0.021484 0.022135 0.022786 0.023438 0.024089 0.024740 0.025391 0.026042 0.026693 0.027344 0.027995 0.028646 0.029297 0.029948 0.030599 0.031250 0.031901 0.032552 0.033203 0.033854 0.034505 0.035156 0.035807 0.036458 0.037109 0.037760 0.038411 0.039062 0.039714 0.040365 0.041016 0.041667 0.042318 0.042969 0.043620 0.044271 0.044922 0.045573 0.046224 0.046875 0.047526 0.048177 0.048828 0.049479 0.050130 0.050781 0.051432 0.052083 0.052734 0.053385 0.054036 0.054688 0.055339 0.055990 0.056641 0.057292 0.057943 0.058594 0.059245 0.059896 0.060547 0.061198 0.061849 0.062500 0.063151 0.063802 0.064453 0.065104 0.065755 0.066406 0.067057 0.067708 0.068359 0.069010 0.069661 0.070312 0.070964 0.071615 0.072266 0.072917 0.073568 0.074219 0.074870 0.075521 0.076172 0.076823 0.077474 0.078125 0.078776 0.079427 0.080078 0.080729 0.081380 0.082031 0.082682 0.083333 0.083984 0.084635 0.085286 0.085938 0.086589 0.087240 0.087891 0.088542 0.089193 0.089844 0.090495 0.091146 0.091797 0.092448 0.093099 0.093750 0.094401 0.095052 0.095703 0.096354 0.097005 0.097656 0.098307 0.098958 0.099609 0.100260 0.100911 0.101562 0.102214 0.102865 0.103516 0.104167 0.104818 0.105469 0.106120 0.106771 0.107422 0.108073 0.108724 0.109375 0.110026 0.110677 0.111328 0.111979 0.112630 0.113281 0.113932 0.114583 0.115234 0.115885 0.116536 0.117188 0.117839 0.118490 0.119141 0.119792 0.120443 0.121094 0.121745 0.122396 0.123047 0.123698 0.124349 0.125000 0.125651 0.126302 0.126953 0.127604 0.128255 0.128906 0.129557 0.130208 0.130859 0.131510 0.132161 0.132812 0.133464 0.134115 0.134766 0.135417 0.136068 0.136719 0.137370 0.138021 0.138672 0.139323 0.139974 0.140625 0.141276 0.141927 0.142578 0.143229 0.143880 0.144531 0.145182 0.145833 0.146484 0.147135 0.147786 0.148438 0.149089 0.149740 0.150391 0.151042 0.151693 0.152344 0.152995 0.153646 0.154297 0.154948 0.155599 0.156250 0.156901 0.157552 0.158203 0.158854 0.159505 0.160156 0.160807 0.161458 0.162109 0.162760 0.163411 0.164062 0.164714 0.165365 0.166016 0.166667 0.167318 0.167969 0.168620 0.169271 0.169922 0.170573 0.171224 0.171875 0.172526 0.173177 0.173828 0.174479 0.175130 0.175781 0.176432 0.177083 0.177734 0.178385 0.179036 0.179688 0.180339 0.180990 0.181641 0.182292 0.182943 0.183594 0.184245 0.184896 0.185547 0.186198 0.186849 0.187500 0.188151 0.188802 0.189453 0.190104 0.190755 0.191406 0.192057 0.192708 0.193359 0.194010 0.194661 0.195312 0.195964 0.196615 0.197266 0.197917 0.198568 0.199219 0.199870 0.200521 0.201172 0.201823 0.202474 0.203125 0.203776 0.204427 0.205078 0.205729 0.206380 0.207031 0.207682 0.208333 0.208984 0.209635 0.210286 0.210938 0.211589 0.212240 0.212891 0.213542 0.214193 0.214844 0.215495 0.216146 0.216797 0.217448 0.218099 0.218750 0.219401 0.220052 0.220703 0.221354 0.222005 0.222656 0.223307 0.223958 0.224609 0.225260 0.225911 0.226562 0.227214 0.227865 0.228516 0.229167 0.229818 0.230469 0.231120 0.231771 0.232422 0.233073 0.233724 0.234375 0.235026 0.235677
       0.34054        0.34054        0.34054        0.34054        0.34054        0.34054        0.34054        0.34054        0.34054        0.34054        0.34054        0.34054        0.34054        0.34054        0.34054        0.34054        0.34054        0.34054        0.34054        0.34054        0.34054        0.34054        0.34054        0.34054        0.34054        0.34054        0.34054        0.34054        0.34054        0.34054        0.34054        0.34054        0.34054        0.34054        0.34054        0.34054        0.34054        0.34054        0.34054        0.34054        0.34054        0.34054        0.34054        0.34054        0.34054        0.34054        0.34054        0.34054        0.34054        0.34054        0.34054        0.60515        0.75331        0.13054       -0.34841       -0.56269       -0.62091       -0.71358       -0.78929       -0.78715       -0.77382       -0.75786       -0.75533       -0.90853       -1.05638       -1.07029       -1.05499       -1.05662       -1.06457       -0.88460       -0.83760       -0.74052       -0.61135       -0.57749       -0.32469       -0.31286       -0.11744       -0.01331        0.06571        0.18040        0.25425        0.39305        0.37528        0.63937        0.63519        0.68583        0.61957        0.59002        0.55303        0.52546        0.51974        0.39921        0.22136        0.20005        0.11718        0.02256       -0.05950       -0.07465       -0.02619       -0.01850        0.07474        0.12327        0.15300        0.20742        0.39279        0.45537        0.56142        0.53150        0.63591        0.74808        0.64864        0.65895        0.60482        0.50648        0.47109        0.30356        0.24583        0.12161        0.03585        0.00934       -0.04332       -0.02346        0.13213        0.17797        0.33152        0.38422        0.44457        0.66562        0.65597        0.67513        0.65322        0.65664        0.64251        0.60646        0.37895        0.25013        0.16355        0.13265        0.05789        0.07437        0.08517        0.23721        0.27414        0.35280        0.50471        0.57780        0.58669        0.59546        0.61243        0.57168        0.40952        0.36205        0.28842        0.19492        0.17234        0.15144        0.19059        0.21275        0.28954        0.41702        0.41617        0.52542        0.56444        0.53317        0.46756        0.43815        0.35269        0.26017        0.18999        0.15068        0.14902        0.21487        0.28820        0.35811        0.42278        0.42865        0.59678        0.57947        0.47760        0.41189        0.34124        0.28085        0.28035        0.23694        0.23864        0.25482        0.30663        0.29963        0.39307        0.48734        0.47197        0.45300        0.40592        0.37178        0.30241        0.27688        0.27233        0.27559        0.28918        0.35586        0.41077        0.42414        0.41442        0.44291        0.36510        0.34392        0.30594        0.26008        0.26807        0.29472        0.33916        0.34906        0.36876        0.41435        0.42493        0.39266        0.34179        0.30626        0.27870        0.29747        0.32189        0.33663        0.35401        0.41003        0.36951        0.37211        0.34559        0.33393        0.30334        0.25857        0.27916        0.28630        0.31603        0.37114        0.37292        0.38221        0.39217        0.36366        0.30435        0.32706        0.28792        0.28219        0.31194        0.34421        0.33560        0.33269        0.32854        0.34616        0.30888        0.30909        0.30289        0.29648        0.31667        0.31462        0.34825        0.31952        0.30041        0.29714        0.29606        0.30077        0.28879        0.30923        0.31558        0.31628        0.35051        0.33835        0.31126        0.30704        0.31654        0.29570        0.32961        0.33788        0.36291        0.40198        0.34154        0.32841        0.32693        0.30094        0.27719        0.28523        0.33051        0.32615        0.34956        0.34283        0.29109        0.30388        0.27694        0.28222        0.29895        0.31289        0.31873        0.34249        0.30189        0.30383        0.31173        0.27901        0.32174        0.31075        0.30649        0.34548        0.35170        0.32751        0.27955        0.22793        0.25555        0.31876        0.33365        0.34262        0.36387        0.33260        0.30267        0.28437        0.30234        0.31949        0.32293        0.30698        0.34618        0.30316        0.29045        0.28999        0.32132        0.28939        0.30009        0.25751        0.28991        0.33799        0.24589        0.28403        0.29875        0.31156        0.33765        0.27374        0.28770        0.29492        0.28600        0.33877        0.31669        0.28435        0.17749        0.20887        0.20105        0.26193        0.29804        0.27794        0.31336        0.42846        0.28008        0.18050        0.22694        0.33851        0.19220        0.20727        0.22946        0.24686        0.19207        0.13333        0.24272        0.23348        0.22592        0.14926        0.09542       -0.44435       -0.40792
2.894905 2.859638 2.824595 2.789777 2.755184 2.720815 2.686671 2.652752 2.619058 2.585589 2.552344 2.519324 2.486529 2.453958 2.421613 2.389492 2.357596 2.325924 2.294477 2.263255 2.232258 2.201486 2.170938 2.140616 2.110517 2.080644 2.050995 2.021572 1.992373 1.963398 1.934649 1.906124 1.877824 1.849749 1.821898 1.794272 1.766871 1.739695 1.712744 1.686017 1.659515 1.633238 1.607185 1.581358 1.555755 1.530377 1.505223 1.480295 1.455591 1.431112 1.406857 1.529508 1.835269 1.134634 0.801422 0.485403 0.433837 0.389186 0.239069 0.216409 0.186915 0.217818 0.176728 0.099301 -0.092068 -0.135548 -0.158570 -0.142201 -0.254526 -0.089483 -0.041590 0.009361 0.082405 0.076422 0.314056 0.311435 0.392737 0.571693 0.504356 0.703130 0.631215 0.836563 0.752391 0.964634 0.956827 0.984831 0.887815 0.942923 0.811736 0.799514 0.785396 0.696664 0.514740 0.457998 0.356640 0.317912 0.216169 0.145146 0.205969 0.164971 0.254633 0.241223 0.317707 0.280821 0.431820 0.523722 0.551704 0.569047 0.600823 0.718233 0.623815 0.646979 0.632909 0.430396 0.485936 0.280044 0.277724 0.099814 0.071121 0.010342 -0.050258 -0.091287 0.034259 0.069611 0.177834 0.277718 0.258964 0.428856 0.511484 0.486707 0.457588 0.513478 0.463710 0.491357 0.257567 0.167213 0.037610 0.006449 -0.035113 -0.091334 -0.035760 0.009585 0.090428 0.129767 0.237014 0.349153 0.341458 0.486802 0.442580 0.469599 0.344009 0.239227 0.177422 0.148256 0.059245 0.040298 0.089144 0.080560 0.111452 0.239402 0.244761 0.300744 0.379563 0.349703 0.285077 0.240008 0.229504 0.116780 0.053578 -0.012729 -0.035657 0.027714 0.057796 0.118571 0.211777 0.188284 0.308331 0.336606 0.302877 0.174878 0.181282 0.080559 0.049814 0.070054 0.016433 0.029299 0.051215 0.069851 0.075935 0.198228 0.239551 0.199162 0.134585 0.156715 0.052084 0.056673 0.014831 0.009331 0.033098 0.058074 0.112941 0.154072 0.111450 0.135376 0.148123 0.041977 0.064141 0.011502 -0.032087 -0.012515 0.060225 0.052713 0.060941 0.093176 0.116155 0.137658 0.059791 0.070537 0.018355 -0.012250 0.051457 0.056940 0.048035 0.079976 0.113965 0.089225 0.080370 0.042968 0.036502 0.027591 -0.041820 0.019154 0.008962 0.043704 0.069315 0.100695 0.072226 0.096921 0.034498 0.019607 0.017916 -0.006404 -0.001935 0.019919 0.050207 0.028441 0.021882 0.056041 0.041941 0.001239 0.021413 -0.008563 0.015192 0.007527 0.020624 0.032547 0.002627 0.001342 -0.023275 -0.021135 -0.003572 -0.017476 -0.012749 -0.000602 0.003044 0.045004 0.008219 -0.005819 -0.001990 0.001805 -0.008267 0.018229 0.013848 0.061097 0.082510 -0.016969 0.013047 0.021026 -0.018478 -0.029807 -0.005464 0.012985 0.020316 0.047919 0.018615 -0.008963 0.020143 -0.034987 -0.025022 0.003889 0.011267 0.038535 0.031595 -0.002662 0.015239 0.004190 0.001814 0.014891 0.012189 0.051157 0.060584 0.044979 0.035882 -0.016249 -0.059013 -0.020992 0.034623 0.012124 0.055782 0.055499 0.023060 -0.002142 -0.022150 0.020369 0.005889 -0.005942 -0.017121 0.017791 -0.010886 -0.038244 -0.026099 0.003751 -0.028664 -0.019872 -0.091375 -0.007623 0.039939 -0.094013 -0.048720 -0.017435 0.044694 -0.000832 -0.039842 -0.001712 -0.010299 -0.025738 0.049181 0.009302 -0.025825 -0.113773 -0.047992 -0.071697 -0.026958 0.031793 -0.068143 0.072645 0.155992 0.004551 -0.052292 -0.015476 0.031818 -0.069981 0.022285 -0.000485 0.037737 -0.023497 -0.020804 0.063244 0.183041 0.244413 0.035790 0.090443 -0.350635
0.072396 0.073044 0.074989 0.078229 0.082764 0.088591 0.095710 0.104117 0.113808 0.124777 0.137020 0.150526 0.165287 0.181289 0.198517 0.216954 0.236576 0.257359 0.279271 0.302279 0.326340 0.351410 0.377433 0.404352 0.432097 0.460593 0.489755 0.519491 0.549696 0.580259 0.611054 0.641949 0.672797 0.703441 0.733715 0.763437 0.792418 0.820455 0.847337 0.872842 0.896737 0.918782 0.938730 0.956328 0.971318 0.983440 0.992433 0.998038 1.000000 0.998070 0.992013 0.981602 0.966631 0.946913 0.922285 0.892614 0.857797 0.817771 0.772511 0.722039 0.666425 0.605793 0.540324 0.470256 0.395893 0.317603 0.235818 0.151040 0.063837 0.025157 0.115242 0.205660 0.295594 0.384177 0.470499 0.553611 0.632544 0.706310 0.773921 0.834403 0.886805 0.930225 0.963815 0.986810 0.998539 0.998445 0.986102 0.961234 0.923730 0.873658 0.811277 0.737052 0.651652 0.555966 0.451093 0.338341 0.219223 0.095436 0.031148 0.158517 0.284537 0.406992 0.523619 0.632152 0.730369 0.816139 0.887472 0.942577 0.979908 0.998215 0.996593 0.974525 0.931916 0.869123 0.786977 0.686788 0.570347 0.439908 0.298160 0.148183 0.006600 0.162509 0.315671 0.462131 0.597939 0.719275 0.822555 0.904549 0.962495 0.994204 0.998163 0.973610 0.920602 0.840057 0.733773 0.604413 0.455469 0.291189 0.116476 0.063247 0.242186 0.414366 0.573830 0.714846 0.832127 0.921047 0.977841 0.999790 0.985373 0.934382 0.847996 0.728798 0.580740 0.409048 0.220068 0.021056 0.180081 0.375091 0.555715 0.714038 0.842859 0.936039 0.988820 0.998106 0.962674 0.883316 0.762886 0.606253 0.420154 0.212947 0.005734 0.225404 0.435220 0.624512 0.783346 0.903065 0.976802 0.999907 0.970300 0.888674 0.758573 0.586311 0.380721 0.152753 0.085067 0.319302 0.536356 0.723277 0.868544 0.962827 0.999630 0.975804 0.891864 0.752090 0.564400 0.339972 0.092632 0.161939 0.407190 0.626766 0.805616 0.931070 0.993786 0.988519 0.914633 0.776302 0.582386 0.345940 0.083426 0.186400 0.443783 0.669424 0.845954 0.959316 0.999962 0.963742 0.852406 0.673661 0.440751 0.171564 0.112660 0.388973 0.634555 0.828628 0.954258 0.999930 0.960695 0.838801 0.643729 0.391577 0.103844 0.194341 0.476352 0.716461 0.892216 0.986623 0.989883 0.900543 0.725875 0.481433 0.189816 0.121340 0.421910 0.682200 0.875891 0.982807 0.991114 0.898779 0.714046 0.454892 0.147397 0.176741 0.483446 0.739818 0.917724 0.996985 0.967805 0.832135 0.603779 0.307175 0.025085 0.355734 0.646973 0.864835 0.983218 0.987172 0.874955 0.658582 0.362756 0.022211 0.322243 0.628565 0.858643 0.983125 0.985324 0.863641 0.632162 0.319243 0.035768 0.387375 0.689712 0.902569 0.996866 0.958808 0.792117 0.517957 0.172489 0.197738 0.541951 0.812113 0.969718 0.991447 0.872848 0.629416 0.294849 0.083411 0.450757 0.753270 0.945695 0.998380 0.902076 0.669808 0.335416 0.051134 0.431054 0.745621 0.945318 0.997811 0.893425 0.647205 0.297054 0.101820 0.485469 0.791405 0.968865 0.987447 0.842592 0.556925 0.177036 0.233842 0.606241 0.876204 0.996392 0.944661 0.728451 0.384124 0.028840 0.437885 0.770064 0.965131 0.986672 0.829240 0.519995 0.114397 0.313479 0.684307 0.928279 0.998413 0.879940 0.593775 0.193220 0.245615 0.638121 0.907483 0.999916 0.895719 0.613860 0.208995 0.238821 0.639730 0.912128 0.999447 0.882263 0.583033 0.162233 0.293455 0.688875 0.940239 0.993136 0.834689 0.497112 0.051654 0.406139
1.000000 1.000000 1.000000 1.000000 1.000000 1.000000 1.000000 1.000000 1.000000 1.000000 1.000000 1.000000 1.000000 1.000000 1.000000 1.000000 1.000000 1.000000 1.000000 1.000000 1.000000 1.000000 1.000000 1.000000 1.000000 1.000000 1.000000 1.000000 1.000000 1.000000 1.000000 1.000000 1.000000 1.000000 1.000000 1.000000 1.000000 1.000000 1.000000 1.000000 1.000000 1.000000 1.000000 1.000000 1.000000 1.000000 1.000000 1.000000 1.000000 1.000000 1.000000 1.000000 0.961078 0.961078 0.961078 0.961078 0.961078 0.961078 0.961078 0.961078 0.961078 0.961078 0.961078 0.961078 0.961078 0.961078 0.961078 0.961078 0.961078 0.961078 0.961078 0.961078 0.961078 0.961078 0.961078 0.961078 0.961078 0.961078 0.961078 0.961078 0.961078 0.961078 0.961078 0.961078 0.961078 0.952313 0.953253 0.955229 0.955855 0.955714 0.955245 0.954820 0.955117 0.957111 0.959992 0.961913 0.963885 0.961720 0.964116 0.965910 0.965873 0.966166 0.964568 0.972655 0.971824 0.972037 0.972929 0.973344 0.973508 0.973592 0.973771 0.974214 0.973953 0.973364 0.972807 0.972317 0.972105 0.971843 0.974061 0.974027 0.974812 0.975022 0.975083 0.975063 0.975121 0.975473 0.976962 0.971551 0.971805 0.970205 0.972320 0.973575 0.974272 0.974611 0.975044 0.975258 0.973136 0.969819 0.968639 0.964588 0.961420 0.960877 0.963965 0.964949 0.964884 0.963395 0.962902 0.957334 0.957091 0.956969 0.951708 0.955194 0.956133 0.956371 0.942599 0.937353 0.927827 0.923904 0.924413 0.930608 0.929233 0.921139 0.905381 0.880031 0.875215 0.872208 0.871100 0.865157 0.866213 0.862917 0.865375 0.870563 0.873113 0.869824 0.860886 0.856120 0.855910 0.863670 0.858525 0.858142 0.860848 0.867152 0.868873 0.858857 0.873144 0.870533 0.876797 0.883273 0.885867 0.882569 0.880890 0.877923 0.874866 0.873330 0.870140 0.872012 0.844930 0.836128 0.836078 0.836863 0.839644 0.839563 0.838774 0.833050 0.836568 0.814427 0.818761 0.818801 0.826147 0.829374 0.828335 0.818803 0.810036 0.814850 0.830221 0.857428 0.861286 0.855331 0.852701 0.850435 0.851096 0.834011 0.824417 0.811472 0.809830 0.800786 0.804550 0.811986 0.806881 0.790077 0.786674 0.794372 0.776739 0.755386 0.727270 0.741842 0.728185 0.723594 0.721045 0.691124 0.692290 0.668668 0.656884 0.663062 0.663734 0.657268 0.651600 0.676110 0.690455 0.666565 0.664517 0.649897 0.648177 0.642533 0.632394 0.625394 0.619945 0.646183 0.655900 0.658997 0.655608 0.602167 0.606429 0.598349 0.599199 0.610432 0.614184 0.604030 0.578622 0.579718 0.585863 0.581559 0.582939 0.600541 0.598771 0.558862 0.549478 0.550122 0.563284 0.553215 0.546156 0.557181 0.544952 0.551043 0.544130 0.517739 0.535839 0.530199 0.533771 0.528072 0.546803 0.518430 0.489562 0.517736 0.526691 0.524730 0.509470 0.494897 0.479055 0.380092 0.392961 0.374356 0.343508 0.385061 0.383300 0.387569 0.359666 0.352861 0.350211 0.375300 0.380418 0.363028 0.356408 0.355735 0.390106 0.386978 0.324451 0.326192 0.317061 0.330912 0.331210 0.316846 0.340033 0.295929 0.315083 0.268559 0.257393 0.238397 0.203036 0.240867 0.220188 0.200412 0.179753 0.190661 0.207742 0.230218 0.228373 0.236341 0.236341 0.236341 0.236341 0.236341 0.236341 0.236341 0.236341 0.236341 0.236341 0.236341 0.236341 0.236341 0.236341 0.243750 0.243750 0.243750 0.243750 0.243750 0.243750 0.243750 0.243750 0.243750 0.243750 0.243750 0.243750
0.000000 0.000000 0.000000 0.000000 0.000000 0.000000 0.000000 0.000000 0.000000 0.000000 0.000000 0.000000 0.000000 0.000000 0.000000 0.000000 0.000000 0.000000 0.000000 0.000000 0.000000 9401.000000 0.000000 0.000000 0.000000 0.000000 0.000000 0.000000 0.000000 0.000000 0.000000 0.000000 0.000000 0.000000 0.000000 0.000000 0.000000 0.000000 0.000000 0.000000 0.000000 0.000000 0.000000 0.000000 0.000000 0.000000 0.000000 0.000000 0.000000 0.000000 0.000000 0.000000 0.212000 0.212000 0.212000 0.212000 0.212000 0.212000 0.212000 0.212000 0.212000 0.212000 0.212000 0.212000 0.212000 0.212000 0.212000 0.212000 0.212000 0.212000 0.212000 0.212000 0.212000 0.212000 0.212000 0.212000 0.212000 0.212000 0.212000 0.212000 0.212000 0.212000 0.212000 0.212000 0.212000 0.244339 0.244339 0.244339 0.244339 0.244339 0.244339 0.244339 0.244339 0.244339 0.244339 0.244339 0.244339 0.244339 0.244339 0.244339 0.244339 0.244339 0.244339 0.244339 0.244339 0.244339 0.244339 0.244339 0.244339 0.244339 0.260378 0.260378 0.260378 0.260378 0.260378 0.260378 0.260378 0.260378 0.260378 0.260378 0.260378 0.260378 0.260378 0.260378 0.260378 0.260378 0.260378 0.260378 0.260378 0.260378 0.264906 0.264906 0.264906 0.264906 0.264906 0.264906 0.264906 0.264906 0.264906 0.264906 0.264906 0.264906 0.264906 0.264906 0.264906 0.264906 0.264906 0.264906 0.280056 0.280056 0.280056 0.280056 0.280056 0.280056 0.280056 0.280056 0.280056 0.280056 0.280056 0.280056 0.280056 0.280056 0.280056 0.280056 0.280056 0.280056 0.280056 0.280056 0.280056 0.280056 0.280056 0.280056 0.280056 0.280056 0.280056 0.280056 0.280056 0.269680 0.269680 0.269680 0.269680 0.269680 0.269680 0.269680 0.269680 0.269680 0.269680 0.269680 0.269680 0.269680 0.269680 0.285714 0.285714 0.285714 0.285714 0.285714 0.285714 0.285714 0.285714 0.285714 0.285714 0.285714 0.285714 0.274721 0.274721 0.274721 0.274721 0.274721 0.274721 0.274721 0.274721 0.274721 0.274721 0.274721 0.274721 0.280056 0.280056 0.280056 0.280056 0.280056 0.280056 0.280056 0.280056 0.280056 0.280056 0.280056 0.285714 0.285714 0.285714 0.285714 0.285714 0.285714 0.285714 0.285714 0.285714 0.285714 0.280056 0.280056 0.280056 0.280056 0.280056 0.280056 0.280056 0.280056 0.280056 0.280056 0.274721 0.274721 0.274721 0.274721 0.274721 0.274721 0.274721 0.274721 0.274721 0.274721 0.280056 0.280056 0.280056 0.280056 0.280056 0.280056 0.280056 0.280056 0.280056 0.274721 0.274721 0.274721 0.274721 0.274721 0.274721 0.274721 0.274721 0.274721 0.269680 0.269680 0.269680 0.269680 0.269680 0.269680 0.269680 0.269680 0.269680 0.280056 0.280056 0.280056 0.280056 0.280056 0.280056 0.280056 0.280056 0.274721 0.274721 0.274721 0.274721 0.274721 0.274721 0.274721 0.274721 0.269680 0.269680 0.269680 0.269680 0.269680 0.269680 0.269680 0.269680 0.269680 0.269680 0.269680 0.269680 0.269680 0.269680 0.269680 0.269680 0.264906 0.264906 0.264906 0.264906 0.264906 0.264906 0.264906 0.264906 0.274721 0.274721 0.274721 0.274721 0.274721 0.274721 0.274721 0.269680 0.269680 0.269680 0.269680 0.269680 0.269680 0.269680 0.264906 0.264906 0.264906 0.264906 0.264906 0.264906 0.264906 0.264906 0.264906 0.264906 0.264906 0.264906 0.264906 0.264906 0.260378 0.260378 0.260378 0.260378 0.260378 0.260378 0.260378 0.260378 0.260378 0.260378 0.260378 0.260378
