# Output from CTFFind version 4.1.9, run on 2019-11-03 18:52:05
# Input file: stack9_ub_averaged_2000.mrc ; Number of micrographs: 1
# Pixel size: 3.000 Angstroms ; acceleration voltage: 300.0 keV ; spherical aberration: 0.00 mm ; amplitude contrast: 0.07
# Box size: 512 pixels ; min. res.: 30.0 Angstroms ; max. res.: 5.0 Angstroms ; min. def.: 5000.0 um; max. def. 50000.0 um; num. frames averaged: 1
# 6 lines per micrograph: #1 - spatial frequency (1/Angstroms); #2 - 1D rotational average of spectrum (assuming no astigmatism); #3 - 1D rotational average of spectrum; #4 - CTF fit; #5 - cross-correlation between spectrum and CTF fit; #6 - 2sigma of expected cross correlation of noise
0.000000 0.000651 0.001302 0.001953 0.002604 0.003255 0.003906 0.004557 0.005208 0.005859 0.006510 0.007161 0.007812 0.008464 0.009115 0.009766 0.010417 0.011068 0.011719 0.012370 0.013021 0.013672 0.014323 0.014974 0.015625 0.016276 0.016927 0.017578 0.018229 0.018880 0.019531 0.020182 0.020833 0.021484 0.022135 0.022786 0.023438 0.024089 0.024740 0.025391 0.026042 0.026693 0.027344 0.027995 0.028646 0.029297 0.029948 0.030599 0.031250 0.031901 0.032552 0.033203 0.033854 0.034505 0.035156 0.035807 0.036458 0.037109 0.037760 0.038411 0.039062 0.039714 0.040365 0.041016 0.041667 0.042318 0.042969 0.043620 0.044271 0.044922 0.045573 0.046224 0.046875 0.047526 0.048177 0.048828 0.049479 0.050130 0.050781 0.051432 0.052083 0.052734 0.053385 0.054036 0.054688 0.055339 0.055990 0.056641 0.057292 0.057943 0.058594 0.059245 0.059896 0.060547 0.061198 0.061849 0.062500 0.063151 0.063802 0.064453 0.065104 0.065755 0.066406 0.067057 0.067708 0.068359 0.069010 0.069661 0.070312 0.070964 0.071615 0.072266 0.072917 0.073568 0.074219 0.074870 0.075521 0.076172 0.076823 0.077474 0.078125 0.078776 0.079427 0.080078 0.080729 0.081380 0.082031 0.082682 0.083333 0.083984 0.084635 0.085286 0.085938 0.086589 0.087240 0.087891 0.088542 0.089193 0.089844 0.090495 0.091146 0.091797 0.092448 0.093099 0.093750 0.094401 0.095052 0.095703 0.096354 0.097005 0.097656 0.098307 0.098958 0.099609 0.100260 0.100911 0.101562 0.102214 0.102865 0.103516 0.104167 0.104818 0.105469 0.106120 0.106771 0.107422 0.108073 0.108724 0.109375 0.110026 0.110677 0.111328 0.111979 0.112630 0.113281 0.113932 0.114583 0.115234 0.115885 0.116536 0.117188 0.117839 0.118490 0.119141 0.119792 0.120443 0.121094 0.121745 0.122396 0.123047 0.123698 0.124349 0.125000 0.125651 0.126302 0.126953 0.127604 0.128255 0.128906 0.129557 0.130208 0.130859 0.131510 0.132161 0.132812 0.133464 0.134115 0.134766 0.135417 0.136068 0.136719 0.137370 0.138021 0.138672 0.139323 0.139974 0.140625 0.141276 0.141927 0.142578 0.143229 0.143880 0.144531 0.145182 0.145833 0.146484 0.147135 0.147786 0.148438 0.149089 0.149740 0.150391 0.151042 0.151693 0.152344 0.152995 0.153646 0.154297 0.154948 0.155599 0.156250 0.156901 0.157552 0.158203 0.158854 0.159505 0.160156 0.160807 0.161458 0.162109 0.162760 0.163411 0.164062 0.164714 0.165365 0.166016 0.166667 0.167318 0.167969 0.168620 0.169271 0.169922 0.170573 0.171224 0.171875 0.172526 0.173177 0.173828 0.174479 0.175130 0.175781 0.176432 0.177083 0.177734 0.178385 0.179036 0.179688 0.180339 0.180990 0.181641 0.182292 0.182943 0.183594 0.184245 0.184896 0.185547 0.186198 0.186849 0.187500 0.188151 0.188802 0.189453 0.190104 0.190755 0.191406 0.192057 0.192708 0.193359 0.194010 0.194661 0.195312 0.195964 0.196615 0.197266 0.197917 0.198568 0.199219 0.199870 0.200521 0.201172 0.201823 0.202474 0.203125 0.203776 0.204427 0.205078 0.205729 0.206380 0.207031 0.207682 0.208333 0.208984 0.209635 0.210286 0.210938 0.211589 0.212240 0.212891 0.213542 0.214193 0.214844 0.215495 0.216146 0.216797 0.217448 0.218099 0.218750 0.219401 0.220052 0.220703 0.221354 0.222005 0.222656 0.223307 0.223958 0.224609 0.225260 0.225911 0.226562 0.227214 0.227865 0.228516 0.229167 0.229818 0.230469 0.231120 0.231771 0.232422 0.233073 0.233724 0.234375 0.235026 0.235677
       0.32677        0.32677        0.32677        0.32677        0.32677        0.32677        0.32677        0.32677        0.32677        0.32677        0.32677        0.32677        0.32677        0.32677        0.32677        0.32677        0.32677        0.32677        0.32677        0.32677        0.32677        0.32677        0.32677        0.32677        0.32677        0.32677        0.32677        0.32677        0.32677        0.32677        0.32677        0.32677        0.32677        0.32677        0.32677        0.32677        0.32677        0.32677        0.32677        0.32677        0.32677        0.32677        0.32677        0.32677        0.32677        0.32677        0.32677        0.32677        0.32677        0.32677        0.32677        0.67538        0.97439        0.37128        0.08297       -0.21829       -0.23374       -0.41068       -0.56443       -0.49400       -0.52058       -0.43094       -0.50899       -0.44660       -0.49726       -0.61802       -0.70857       -0.79190       -0.83188       -0.78455       -0.78068       -0.72745       -0.81638       -0.69905       -0.70146       -0.60323       -0.48096       -0.43381       -0.43232       -0.19987       -0.07540       -0.04607        0.10717        0.20502        0.30891        0.45560        0.58061        0.57344        0.62262        0.63081        0.57174        0.62527        0.66040        0.58573        0.47172        0.47155        0.42469        0.39087        0.29677        0.12962        0.11241       -0.01300       -0.00475       -0.06669       -0.07743       -0.01398        0.04282        0.16020        0.14747        0.24608        0.35469        0.49134        0.53322        0.55986        0.72432        0.75624        0.77304        0.68362        0.62034        0.57355        0.44924        0.36846        0.34523        0.20276        0.16964        0.06611       -0.01525        0.00719        0.03360        0.07046        0.19364        0.24568        0.32581        0.39955        0.46899        0.59306        0.65050        0.63218        0.55239        0.62765        0.53256        0.42456        0.40295        0.34177        0.15819        0.16013        0.09555        0.08571        0.06878        0.13332        0.22020        0.34795        0.44983        0.49586        0.53148        0.55324        0.49977        0.56952        0.54824        0.44200        0.36273        0.25187        0.14134        0.16240        0.14159        0.13498        0.20229        0.26430        0.30459        0.36853        0.47244        0.52179        0.52476        0.47490        0.48331        0.41448        0.40849        0.30732        0.23043        0.20407        0.17580        0.18963        0.17246        0.33275        0.40786        0.39901        0.47062        0.45730        0.46051        0.34376        0.34982        0.31505        0.27937        0.28196        0.23385        0.25157        0.30903        0.27172        0.34161        0.41770        0.46383        0.51002        0.44102        0.36314        0.33810        0.27606        0.28072        0.26494        0.24332        0.26483        0.31715        0.34545        0.36250        0.42377        0.40508        0.38145        0.36864        0.32908        0.29454        0.27521        0.24892        0.27614        0.30998        0.32899        0.34283        0.36499        0.38718        0.41523        0.36231        0.31779        0.27555        0.24993        0.27576        0.26366        0.27940        0.28151        0.34542        0.37073        0.37251        0.36015        0.31397        0.31815        0.29337        0.27644        0.29881        0.27511        0.29165        0.32856        0.36901        0.35686        0.33989        0.31151        0.30692        0.27428        0.28006        0.29092        0.28353        0.29664        0.30257        0.32543        0.35418        0.30267        0.26585        0.27522        0.26563        0.27783        0.26127        0.31829        0.31863        0.32586        0.37473        0.33377        0.36004        0.30563        0.27045        0.25634        0.27821        0.28989        0.28831        0.27544        0.30366        0.32584        0.29017        0.29531        0.29937        0.28708        0.31100        0.31368        0.34654        0.34916        0.30445        0.31644        0.29939        0.26559        0.27967        0.30813        0.29679        0.34440        0.36333        0.30938        0.32311        0.28040        0.29015        0.22552        0.24917        0.27690        0.30086        0.30707        0.35315        0.32464        0.27743        0.25898        0.29204        0.27717        0.35745        0.28574        0.29991        0.32772        0.35021        0.28428        0.22776        0.29059        0.29327        0.31256        0.25209        0.26050        0.23835        0.26469        0.22550        0.22402        0.29508        0.21601        0.28035        0.30712        0.22372        0.22873        0.27252        0.29881        0.26051        0.30373        0.24377        0.29774        0.23712        0.25420        0.24440        0.27421        0.26152        0.16473        0.23229        0.20543        0.23558        0.23051        0.22478        0.30668        0.26811        0.29259        0.28317        0.22131        0.16308        0.14268       -0.04496       -0.43825       -0.34003
2.157277 2.134724 2.112296 2.089994 2.067817 2.045765 2.023838 2.002037 1.980362 1.958811 1.937386 1.916087 1.894912 1.873863 1.852940 1.832141 1.811468 1.790921 1.770498 1.750201 1.730030 1.709984 1.690063 1.670267 1.650597 1.631052 1.611633 1.592338 1.573170 1.554126 1.535208 1.516415 1.497748 1.479206 1.460789 1.442498 1.424332 1.406291 1.388375 1.370586 1.352921 1.335381 1.317968 1.300679 1.283516 1.266478 1.249565 1.232778 1.216116 1.199579 1.183168 1.516461 1.783583 1.210853 0.921162 0.639856 0.545423 0.490107 0.280628 0.296698 0.293833 0.348125 0.261186 0.276854 0.270595 0.148642 0.019771 -0.037611 -0.144448 -0.064286 -0.128539 -0.024571 -0.177589 -0.048092 -0.103949 -0.004096 0.071210 0.124240 0.018851 0.301248 0.431481 0.352638 0.474542 0.632676 0.679065 0.701266 0.932255 0.840920 0.947983 0.878821 0.829181 0.921665 0.916440 0.800718 0.769283 0.681265 0.678499 0.588578 0.589610 0.330399 0.370168 0.200051 0.243175 0.124648 0.119906 0.165454 0.193275 0.325171 0.276083 0.304504 0.453608 0.506659 0.606277 0.591298 0.667382 0.745757 0.796383 0.730418 0.596958 0.603187 0.491393 0.382890 0.398078 0.237825 0.161621 0.121852 0.037128 -0.045836 0.088616 0.006139 0.137868 0.158279 0.250587 0.324590 0.322199 0.426434 0.555796 0.488056 0.465419 0.522896 0.425150 0.320179 0.266739 0.314021 0.089055 0.028379 0.054366 -0.043546 -0.015675 -0.015064 0.036469 0.151861 0.284253 0.259890 0.384559 0.348391 0.357288 0.371451 0.448327 0.316043 0.286505 0.127813 0.084704 0.015459 0.038740 0.002549 0.033915 0.099275 0.121314 0.193022 0.236183 0.317879 0.319184 0.288468 0.267504 0.234250 0.217481 0.161692 0.046624 0.053058 -0.029292 0.023847 -0.053610 0.033882 0.167051 0.203841 0.212104 0.195575 0.262823 0.144007 0.124829 0.124266 0.065758 0.039229 0.057744 0.010940 0.053002 0.056077 0.087035 0.122728 0.171203 0.238352 0.244841 0.119055 0.130463 0.060764 0.053358 0.035595 0.008530 0.020799 0.041625 0.104719 0.074435 0.132592 0.177362 0.125482 0.104032 0.102342 0.061249 0.032600 0.020091 -0.015992 0.043430 0.062792 0.067697 0.082967 0.112911 0.124503 0.141887 0.081862 0.058282 -0.008084 0.018954 0.007597 0.026440 0.013675 0.028707 0.113137 0.095874 0.112574 0.070979 0.033570 0.067112 0.015232 -0.002619 0.050179 0.015447 0.027424 0.070426 0.097121 0.070297 0.068145 0.046171 0.016299 0.012862 0.002594 0.018645 0.024416 0.034033 0.018218 0.057176 0.073986 0.023701 -0.019905 -0.000452 0.001268 0.000926 -0.003979 0.052830 0.030350 0.054450 0.059874 0.043297 0.083959 -0.031472 -0.015537 -0.018005 -0.014787 0.027376 -0.015737 -0.006490 0.039855 0.026178 0.005243 0.013364 0.020546 0.010337 0.038670 0.036829 0.070356 0.053466 0.014216 0.043619 0.010101 -0.010929 0.021978 -0.004501 0.027445 0.056431 0.095407 0.031702 0.049879 -0.001498 0.029140 -0.060478 -0.002126 0.006016 0.046892 0.012180 0.109481 0.063371 0.015860 0.013788 0.059202 0.040913 0.109240 0.064094 0.013143 0.098983 0.107735 0.037231 -0.018376 0.056963 0.045462 0.093171 -0.016570 -0.000279 -0.037854 0.014982 -0.044613 -0.050820 0.044230 -0.034137 0.012960 -0.017764 -0.067298 -0.045857 -0.024561 0.022848 -0.013126 0.011132 -0.020988 0.025150 -0.063284 0.032780 -0.057537 0.041020 0.016352 -0.064411 0.018456 -0.016401 0.051910 0.019682 0.059874 0.138044 0.090961 0.164349 0.254097 0.194824 0.083513 0.127443 -0.032226 -0.299263
0.072396 0.072973 0.074702 0.077584 0.081618 0.086803 0.093136 0.100616 0.109239 0.119003 0.129901 0.141928 0.155077 0.169338 0.184700 0.201149 0.218671 0.237245 0.256851 0.277463 0.299051 0.321582 0.345018 0.369315 0.394426 0.420294 0.446860 0.474056 0.501807 0.530032 0.558641 0.587535 0.616610 0.645751 0.674833 0.703725 0.732285 0.760364 0.787801 0.814428 0.840070 0.864542 0.887652 0.909200 0.928982 0.946788 0.962402 0.975608 0.986187 0.993920 0.998591 0.999986 0.997899 0.992131 0.982494 0.968813 0.950929 0.928703 0.902017 0.870777 0.834920 0.794412 0.749252 0.699481 0.645175 0.586457 0.523495 0.456503 0.385747 0.311545 0.234266 0.154332 0.072221 0.011540 0.096370 0.181642 0.266682 0.350774 0.433166 0.513075 0.589694 0.662202 0.729769 0.791567 0.846785 0.894633 0.934362 0.965270 0.986720 0.998150 0.999091 0.989174 0.968147 0.935889 0.892416 0.837892 0.772643 0.697155 0.612084 0.518254 0.416659 0.308456 0.194960 0.077628 0.041947 0.162063 0.280927 0.396677 0.507417 0.611244 0.706283 0.790726 0.862864 0.921133 0.964146 0.990739 0.999996 0.991296 0.964333 0.919144 0.856132 0.776074 0.680129 0.569836 0.447096 0.314159 0.173584 0.028206 0.118922 0.264586 0.405478 0.538272 0.659703 0.766658 0.856253 0.925926 0.973517 0.997349 0.996292 0.969827 0.918089 0.841896 0.742762 0.622888 0.485133 0.332964 0.170384 0.001837 0.167902 0.333860 0.491008 0.634416 0.759416 0.861763 0.937790 0.984560 0.999993 0.982977 0.933452 0.852454 0.742135 0.605728 0.447489 0.272581 0.086928 0.102974 0.290268 0.467987 0.629317 0.767859 0.877904 0.954684 0.994606 0.995440 0.956473 0.878594 0.764328 0.617792 0.444581 0.251593 0.046774 0.161197 0.363248 0.550327 0.713806 0.845891 0.940026 0.991240 0.996446 0.954663 0.867138 0.737373 0.571032 0.375740 0.160772 0.063365 0.285417 0.493956 0.677958 0.827413 0.933891 0.991058 0.995090 0.944979 0.842681 0.693115 0.503984 0.285426 0.049522 0.190355 0.420274 0.626555 0.796606 0.919713 0.987763 0.995826 0.942567 0.830451 0.665712 0.458066 0.220215 0.032900 0.284997 0.519491 0.720598 0.874416 0.969932 0.999871 0.961313 0.856030 0.690512 0.475642 0.226064 0.040769 0.305773 0.549594 0.754021 0.903385 0.985821 0.994265 0.927152 0.788689 0.588703 0.342030 0.067493 0.213488 0.478540 0.706111 0.877271 0.977331 0.997178 0.934209 0.792717 0.583729 0.324250 0.035961 0.256537 0.527796 0.753731 0.913821 0.993026 0.983299 0.884505 0.704651 0.459360 0.170623 0.135093 0.429222 0.683767 0.873989 0.980882 0.993175 0.908631 0.734500 0.487051 0.190173 0.126850 0.432153 0.694501 0.886499 0.987557 0.986189 0.881455 0.683328 0.411892 0.095447 0.232358 0.536049 0.782179 0.943061 0.999990 0.945552 0.784726 0.534630 0.222839 0.115511 0.441640 0.717521 0.910381 0.996683 0.965142 0.818359 0.572834 0.257286 0.090569 0.428427 0.714542 0.912904 0.997893 0.957739 0.796326 0.533048 0.200673 0.158595 0.498383 0.774139 0.949027 0.998976 0.916177 0.710484 0.408475 0.050202 0.315983 0.639897 0.876427 0.991918 0.969130 0.810017 0.535860 0.184654 0.194008 0.545821 0.819562 0.974634 0.987247 0.854285 0.594201 0.244708 0.142515 0.509296 0.799762 0.968860 0.989560 0.857390 0.591589 0.232571 0.164003 0.535725 0.823269 0.979923 0.979391 0.820441 0.527606 0.147683 0.257553 0.621271 0.882612 0.997019 0.944045 0.731276 0.393597 0.012268 0.417079
1.000000 1.000000 1.000000 1.000000 1.000000 1.000000 1.000000 1.000000 1.000000 1.000000 1.000000 1.000000 1.000000 1.000000 1.000000 1.000000 1.000000 1.000000 1.000000 1.000000 1.000000 1.000000 1.000000 1.000000 1.000000 1.000000 1.000000 1.000000 1.000000 1.000000 1.000000 1.000000 1.000000 1.000000 1.000000 1.000000 1.000000 1.000000 1.000000 1.000000 1.000000 1.000000 1.000000 1.000000 1.000000 1.000000 1.000000 1.000000 1.000000 1.000000 1.000000 1.000000 0.936757 0.936757 0.936757 0.936757 0.936757 0.936757 0.936757 0.936757 0.936757 0.936757 0.936757 0.936757 0.936757 0.936757 0.936757 0.936757 0.936757 0.936757 0.936757 0.936757 0.936757 0.936757 0.936757 0.936757 0.936757 0.936757 0.936757 0.936757 0.936757 0.936757 0.936757 0.936757 0.936757 0.936757 0.936757 0.936757 0.936757 0.936757 0.924546 0.927263 0.924860 0.924696 0.923731 0.930368 0.934042 0.934775 0.935171 0.936483 0.937990 0.941082 0.942294 0.945382 0.949581 0.957790 0.955571 0.953092 0.955830 0.952115 0.965250 0.965839 0.965827 0.966549 0.967146 0.967838 0.966171 0.967929 0.968401 0.967879 0.966829 0.966299 0.963506 0.962933 0.962882 0.963397 0.963047 0.963546 0.964930 0.964754 0.964828 0.964403 0.963822 0.960308 0.958971 0.957988 0.956063 0.954425 0.960916 0.960279 0.959566 0.959249 0.959386 0.959356 0.959390 0.958620 0.957524 0.956497 0.955974 0.955519 0.954439 0.955792 0.958199 0.958978 0.949413 0.941714 0.937743 0.940122 0.937377 0.932511 0.934457 0.919692 0.906592 0.900958 0.892720 0.890110 0.890419 0.893994 0.893817 0.888655 0.882161 0.876844 0.881249 0.879658 0.884735 0.881021 0.863801 0.859219 0.850466 0.852355 0.861618 0.867617 0.870925 0.868367 0.864659 0.849712 0.844955 0.847129 0.848564 0.848001 0.848114 0.843158 0.844050 0.847154 0.858505 0.861616 0.865843 0.868567 0.869012 0.871660 0.873700 0.870407 0.866520 0.868730 0.870940 0.864296 0.868090 0.864732 0.867425 0.864146 0.856623 0.859029 0.862084 0.860723 0.859078 0.850650 0.849349 0.856160 0.862289 0.847495 0.845579 0.840492 0.835450 0.834992 0.836438 0.840125 0.839863 0.839060 0.843325 0.842558 0.839959 0.843079 0.819950 0.832002 0.834708 0.827460 0.798679 0.793649 0.788885 0.796311 0.793875 0.791261 0.778051 0.777349 0.776383 0.782699 0.783574 0.766735 0.752439 0.760464 0.768132 0.769324 0.742667 0.694156 0.686237 0.670053 0.650870 0.651243 0.644716 0.651225 0.643748 0.635849 0.636653 0.649423 0.654619 0.638600 0.626300 0.622232 0.639735 0.619312 0.617257 0.625531 0.622880 0.640638 0.640029 0.643337 0.620290 0.625188 0.617967 0.610735 0.615756 0.601456 0.604213 0.595478 0.592453 0.570199 0.570559 0.570552 0.593654 0.561376 0.556791 0.574520 0.563235 0.556664 0.573825 0.554055 0.557383 0.562418 0.543135 0.529850 0.505817 0.516251 0.535406 0.512811 0.488769 0.481404 0.479901 0.453717 0.474698 0.527198 0.538888 0.526149 0.449238 0.432268 0.437479 0.439330 0.442370 0.391731 0.367797 0.360315 0.308214 0.288236 0.298546 0.294266 0.252752 0.228298 0.248653 0.178244 0.173382 0.185857 0.168916 0.159821 0.110127 0.119841 0.189805 0.193017 0.193017 0.193017 0.193017 0.193017 0.193017 0.193017 0.214017 0.214017 0.214017 0.214017 0.214017 0.214017 0.214017 0.214017 0.220422 0.220422 0.220422 0.220422 0.220422 0.220422 0.220422 0.220422 0.220422 0.220422 0.220422 0.220422 0.220422
0.000000 0.000000 0.000000 0.000000 0.000000 0.000000 0.000000 0.000000 0.000000 0.000000 0.000000 0.000000 0.000000 0.000000 0.000000 0.000000 0.000000 0.000000 0.000000 0.000000 0.000000 9401.000000 0.000000 0.000000 0.000000 0.000000 0.000000 0.000000 0.000000 0.000000 0.000000 0.000000 0.000000 0.000000 0.000000 0.000000 0.000000 0.000000 0.000000 0.000000 0.000000 0.000000 0.000000 0.000000 0.000000 0.000000 0.000000 0.000000 0.000000 0.000000 0.000000 0.000000 0.203069 0.203069 0.203069 0.203069 0.203069 0.203069 0.203069 0.203069 0.203069 0.203069 0.203069 0.203069 0.203069 0.203069 0.203069 0.203069 0.203069 0.203069 0.203069 0.203069 0.203069 0.203069 0.203069 0.203069 0.203069 0.203069 0.203069 0.203069 0.203069 0.203069 0.203069 0.203069 0.203069 0.203069 0.203069 0.203069 0.203069 0.203069 0.234082 0.234082 0.234082 0.234082 0.234082 0.234082 0.234082 0.234082 0.234082 0.234082 0.234082 0.234082 0.234082 0.234082 0.234082 0.234082 0.234082 0.234082 0.234082 0.234082 0.234082 0.234082 0.234082 0.234082 0.234082 0.234082 0.234082 0.256074 0.256074 0.256074 0.256074 0.256074 0.256074 0.256074 0.256074 0.256074 0.256074 0.256074 0.256074 0.256074 0.256074 0.256074 0.256074 0.256074 0.256074 0.256074 0.256074 0.256074 0.264906 0.264906 0.264906 0.264906 0.264906 0.264906 0.264906 0.264906 0.264906 0.264906 0.264906 0.264906 0.264906 0.264906 0.264906 0.264906 0.264906 0.264906 0.264906 0.264906 0.264906 0.264906 0.264906 0.264906 0.264906 0.264906 0.264906 0.264906 0.264906 0.264906 0.264906 0.264906 0.264906 0.264906 0.264906 0.269680 0.269680 0.269680 0.269680 0.269680 0.269680 0.269680 0.269680 0.269680 0.269680 0.269680 0.269680 0.269680 0.269680 0.269680 0.269680 0.269680 0.269680 0.269680 0.269680 0.269680 0.269680 0.269680 0.269680 0.269680 0.269680 0.269680 0.269680 0.269680 0.274721 0.274721 0.274721 0.274721 0.274721 0.274721 0.274721 0.274721 0.274721 0.274721 0.274721 0.274721 0.274721 0.274721 0.274721 0.274721 0.274721 0.274721 0.274721 0.274721 0.274721 0.274721 0.274721 0.274721 0.274721 0.269680 0.269680 0.269680 0.269680 0.269680 0.269680 0.269680 0.269680 0.269680 0.269680 0.269680 0.269680 0.274721 0.274721 0.274721 0.274721 0.274721 0.274721 0.274721 0.274721 0.274721 0.274721 0.274721 0.269680 0.269680 0.269680 0.269680 0.269680 0.269680 0.269680 0.269680 0.269680 0.269680 0.269680 0.274721 0.274721 0.274721 0.274721 0.274721 0.274721 0.274721 0.274721 0.274721 0.274721 0.269680 0.269680 0.269680 0.269680 0.269680 0.269680 0.269680 0.269680 0.269680 0.269680 0.264906 0.264906 0.264906 0.264906 0.264906 0.264906 0.264906 0.264906 0.264906 0.264906 0.269680 0.269680 0.269680 0.269680 0.269680 0.269680 0.269680 0.269680 0.269680 0.264906 0.264906 0.264906 0.264906 0.264906 0.264906 0.264906 0.264906 0.264906 0.274721 0.274721 0.274721 0.274721 0.274721 0.274721 0.274721 0.274721 0.256074 0.256074 0.256074 0.256074 0.256074 0.256074 0.256074 0.256074 0.256074 0.269680 0.269680 0.269680 0.269680 0.269680 0.269680 0.269680 0.269680 0.264906 0.264906 0.264906 0.264906 0.264906 0.264906 0.264906 0.264906 0.260378 0.260378 0.260378 0.260378 0.260378 0.260378 0.260378 0.260378 0.256074 0.256074 0.256074 0.256074 0.256074 0.256074 0.256074 0.256074 0.256074 0.256074 0.256074 0.256074 0.256074
