# Output from CTFFind version 4.1.9, run on 2019-11-03 18:52:05
# Input file: stack19_ub_averaged_2000.mrc ; Number of micrographs: 1
# Pixel size: 3.000 Angstroms ; acceleration voltage: 300.0 keV ; spherical aberration: 0.00 mm ; amplitude contrast: 0.07
# Box size: 512 pixels ; min. res.: 30.0 Angstroms ; max. res.: 5.0 Angstroms ; min. def.: 5000.0 um; max. def. 50000.0 um; num. frames averaged: 1
# 6 lines per micrograph: #1 - spatial frequency (1/Angstroms); #2 - 1D rotational average of spectrum (assuming no astigmatism); #3 - 1D rotational average of spectrum; #4 - CTF fit; #5 - cross-correlation between spectrum and CTF fit; #6 - 2sigma of expected cross correlation of noise
0.000000 0.000651 0.001302 0.001953 0.002604 0.003255 0.003906 0.004557 0.005208 0.005859 0.006510 0.007161 0.007812 0.008464 0.009115 0.009766 0.010417 0.011068 0.011719 0.012370 0.013021 0.013672 0.014323 0.014974 0.015625 0.016276 0.016927 0.017578 0.018229 0.018880 0.019531 0.020182 0.020833 0.021484 0.022135 0.022786 0.023438 0.024089 0.024740 0.025391 0.026042 0.026693 0.027344 0.027995 0.028646 0.029297 0.029948 0.030599 0.031250 0.031901 0.032552 0.033203 0.033854 0.034505 0.035156 0.035807 0.036458 0.037109 0.037760 0.038411 0.039062 0.039714 0.040365 0.041016 0.041667 0.042318 0.042969 0.043620 0.044271 0.044922 0.045573 0.046224 0.046875 0.047526 0.048177 0.048828 0.049479 0.050130 0.050781 0.051432 0.052083 0.052734 0.053385 0.054036 0.054688 0.055339 0.055990 0.056641 0.057292 0.057943 0.058594 0.059245 0.059896 0.060547 0.061198 0.061849 0.062500 0.063151 0.063802 0.064453 0.065104 0.065755 0.066406 0.067057 0.067708 0.068359 0.069010 0.069661 0.070312 0.070964 0.071615 0.072266 0.072917 0.073568 0.074219 0.074870 0.075521 0.076172 0.076823 0.077474 0.078125 0.078776 0.079427 0.080078 0.080729 0.081380 0.082031 0.082682 0.083333 0.083984 0.084635 0.085286 0.085938 0.086589 0.087240 0.087891 0.088542 0.089193 0.089844 0.090495 0.091146 0.091797 0.092448 0.093099 0.093750 0.094401 0.095052 0.095703 0.096354 0.097005 0.097656 0.098307 0.098958 0.099609 0.100260 0.100911 0.101562 0.102214 0.102865 0.103516 0.104167 0.104818 0.105469 0.106120 0.106771 0.107422 0.108073 0.108724 0.109375 0.110026 0.110677 0.111328 0.111979 0.112630 0.113281 0.113932 0.114583 0.115234 0.115885 0.116536 0.117188 0.117839 0.118490 0.119141 0.119792 0.120443 0.121094 0.121745 0.122396 0.123047 0.123698 0.124349 0.125000 0.125651 0.126302 0.126953 0.127604 0.128255 0.128906 0.129557 0.130208 0.130859 0.131510 0.132161 0.132812 0.133464 0.134115 0.134766 0.135417 0.136068 0.136719 0.137370 0.138021 0.138672 0.139323 0.139974 0.140625 0.141276 0.141927 0.142578 0.143229 0.143880 0.144531 0.145182 0.145833 0.146484 0.147135 0.147786 0.148438 0.149089 0.149740 0.150391 0.151042 0.151693 0.152344 0.152995 0.153646 0.154297 0.154948 0.155599 0.156250 0.156901 0.157552 0.158203 0.158854 0.159505 0.160156 0.160807 0.161458 0.162109 0.162760 0.163411 0.164062 0.164714 0.165365 0.166016 0.166667 0.167318 0.167969 0.168620 0.169271 0.169922 0.170573 0.171224 0.171875 0.172526 0.173177 0.173828 0.174479 0.175130 0.175781 0.176432 0.177083 0.177734 0.178385 0.179036 0.179688 0.180339 0.180990 0.181641 0.182292 0.182943 0.183594 0.184245 0.184896 0.185547 0.186198 0.186849 0.187500 0.188151 0.188802 0.189453 0.190104 0.190755 0.191406 0.192057 0.192708 0.193359 0.194010 0.194661 0.195312 0.195964 0.196615 0.197266 0.197917 0.198568 0.199219 0.199870 0.200521 0.201172 0.201823 0.202474 0.203125 0.203776 0.204427 0.205078 0.205729 0.206380 0.207031 0.207682 0.208333 0.208984 0.209635 0.210286 0.210938 0.211589 0.212240 0.212891 0.213542 0.214193 0.214844 0.215495 0.216146 0.216797 0.217448 0.218099 0.218750 0.219401 0.220052 0.220703 0.221354 0.222005 0.222656 0.223307 0.223958 0.224609 0.225260 0.225911 0.226562 0.227214 0.227865 0.228516 0.229167 0.229818 0.230469 0.231120 0.231771 0.232422 0.233073 0.233724 0.234375 0.235026 0.235677
       0.32401        0.32401        0.32401        0.32401        0.32401        0.32401        0.32401        0.32401        0.32401        0.32401        0.32401        0.32401        0.32401        0.32401        0.32401        0.32401        0.32401        0.32401        0.32401        0.32401        0.32401        0.32401        0.32401        0.32401        0.32401        0.32401        0.32401        0.32401        0.32401        0.32401        0.32401        0.32401        0.32401        0.32401        0.32401        0.32401        0.32401        0.32401        0.32401        0.32401        0.32401        0.32401        0.32401        0.32401        0.32401        0.32401        0.32401        0.32401        0.32401        0.32401        0.32401        0.63416        0.80123        0.36143        0.18179       -0.11680       -0.27401       -0.28814       -0.04107       -0.13190        0.10724        0.01792       -0.03791       -0.06258       -0.12622       -0.24804       -0.37335       -0.44565       -0.46093       -0.45017       -0.45467       -0.50289       -0.51708       -0.50810       -0.54076       -0.54174       -0.63437       -0.53084       -0.56683       -0.49859       -0.47398       -0.32556       -0.27724       -0.11443       -0.06704        0.08458        0.17029        0.21858        0.27597        0.27211        0.47950        0.57015        0.54423        0.52420        0.64050        0.64923        0.73934        0.82502        0.79885        0.64661        0.53907        0.49624        0.36260        0.26876        0.18090        0.13110        0.10976        0.00333       -0.09014        0.02621       -0.00907       -0.07803       -0.04059        0.04972        0.09408        0.15553        0.24138        0.39340        0.53281        0.47963        0.64448        0.62998        0.69509        0.70727        0.67422        0.55851        0.59103        0.57004        0.51472        0.44305        0.30223        0.26283        0.13710        0.06568        0.06093        0.02366        0.14627        0.15943        0.13345        0.21765        0.31776        0.46374        0.51127        0.45937        0.62111        0.56353        0.59933        0.54748        0.58871        0.46305        0.39496        0.34839        0.25394        0.15375        0.11689        0.13876        0.11184        0.13518        0.23633        0.23618        0.30306        0.34127        0.36000        0.43568        0.49555        0.51373        0.49201        0.47224        0.35543        0.35144        0.28682        0.31512        0.23080        0.17335        0.17822        0.21964        0.27510        0.22713        0.25061        0.36955        0.42298        0.47122        0.53802        0.49962        0.42772        0.41595        0.34812        0.37274        0.34955        0.27603        0.23173        0.22918        0.27553        0.26120        0.35004        0.37259        0.39168        0.40878        0.41486        0.39632        0.42245        0.38302        0.31665        0.27988        0.24076        0.25102        0.21343        0.24545        0.26694        0.30519        0.35068        0.34112        0.38638        0.42261        0.42424        0.40031        0.38213        0.34440        0.33469        0.29358        0.25671        0.23396        0.24017        0.29018        0.36328        0.36448        0.38947        0.39906        0.37478        0.39750        0.31828        0.28025        0.26312        0.26651        0.28676        0.29215        0.31570        0.32514        0.34248        0.34064        0.34892        0.30051        0.30501        0.30801        0.25557        0.29574        0.24122        0.27939        0.27760        0.27733        0.29141        0.32678        0.32966        0.34404        0.31512        0.31249        0.27998        0.26727        0.27920        0.25542        0.27072        0.28524        0.31454        0.33733        0.32610        0.35973        0.34864        0.31277        0.31158        0.26799        0.28392        0.26913        0.29256        0.33055        0.33978        0.31660        0.33920        0.29264        0.30453        0.30754        0.29001        0.30116        0.31963        0.31538        0.29780        0.31651        0.30597        0.36134        0.33552        0.29766        0.26524        0.26216        0.28703        0.32259        0.26438        0.24768        0.29774        0.32265        0.28925        0.32668        0.30651        0.33777        0.30467        0.27433        0.23841        0.29619        0.32573        0.24995        0.31960        0.31693        0.32416        0.21991        0.28012        0.32773        0.33271        0.22243        0.29303        0.26227        0.28237        0.29022        0.27938        0.20257        0.21078        0.23602        0.25533        0.30720        0.25392        0.22692        0.25093        0.28090        0.24016        0.27668        0.20205        0.24663        0.21504        0.30526        0.27815        0.26212        0.25685        0.26670        0.24033        0.30845        0.25676        0.30136        0.23883        0.21543        0.24367        0.24077        0.27883        0.29294        0.15775        0.16947        0.14464        0.36245        0.24634        0.13347        0.15919        0.13010        0.03388        0.28000        0.37273       -0.24202       -0.41585
2.636273 2.608498 2.580877 2.553411 2.526098 2.498940 2.471936 2.445087 2.418392 2.391851 2.365464 2.339232 2.313154 2.287230 2.261461 2.235845 2.210384 2.185078 2.159925 2.134927 2.110084 2.085394 2.060859 2.036478 2.012251 1.988179 1.964261 1.940497 1.916887 1.893432 1.870131 1.846984 1.823992 1.801154 1.778470 1.755940 1.733565 1.711344 1.689277 1.667365 1.645606 1.624002 1.602553 1.581257 1.560116 1.539130 1.518297 1.497619 1.477095 1.456725 1.436510 1.541998 2.258306 1.358780 1.135473 0.765338 0.699074 0.478101 0.924012 0.696224 0.978067 0.930674 0.645705 0.745884 0.677737 0.518637 0.269684 0.239851 0.099406 0.190783 0.185111 0.041787 -0.036010 0.040893 -0.027419 -0.014364 -0.216630 -0.067856 -0.167688 -0.067555 -0.096324 0.105305 0.107819 0.276391 0.382456 0.466337 0.663864 0.630912 0.727796 0.632618 0.907417 1.040464 0.999862 0.951242 1.086772 1.014005 1.118200 1.309759 1.217626 1.099361 0.873704 0.860862 0.654985 0.590175 0.394235 0.305075 0.372439 0.173035 0.038137 0.132226 0.158471 -0.065017 0.051666 0.144995 0.162715 0.277554 0.239511 0.420204 0.704920 0.622486 0.709568 0.742422 0.824912 0.802420 0.831320 0.644308 0.696399 0.633752 0.590853 0.487348 0.388501 0.231270 0.148256 -0.021419 -0.024846 -0.040841 -0.056782 0.133498 0.044709 0.065639 0.164854 0.318038 0.540687 0.334911 0.504552 0.580845 0.517071 0.541017 0.557841 0.421990 0.302595 0.264237 0.169637 0.039332 -0.080667 -0.026307 -0.044928 -0.106796 0.086291 0.037342 0.113513 0.178199 0.217316 0.223539 0.337312 0.425154 0.452746 0.410887 0.344686 0.240599 0.169346 0.241410 0.137014 0.052831 -0.017866 0.053265 0.102950 0.137375 0.054616 0.185858 0.278609 0.291291 0.443814 0.409190 0.266716 0.322294 0.195479 0.205897 0.198607 0.132034 0.057905 0.006689 0.107869 0.041273 0.097699 0.201132 0.190438 0.253396 0.207280 0.233711 0.226890 0.230485 0.123602 0.116542 0.018883 0.043096 0.002508 0.001732 -0.004993 0.080970 0.095344 0.137827 0.117040 0.162382 0.218574 0.214171 0.167185 0.116701 0.085409 0.092657 0.013095 -0.036471 -0.021783 -0.035081 0.092556 0.109956 0.111292 0.138584 0.162338 0.117743 0.138198 0.006432 -0.009921 0.002867 -0.024191 0.033064 0.007812 0.066006 0.045710 0.086924 0.069310 0.086998 0.030108 0.047636 0.002827 -0.006245 0.020242 -0.051345 0.018062 -0.008722 -0.004609 0.036534 0.050173 0.086711 0.058172 0.057672 0.026144 -0.002629 0.004890 -0.048676 0.006728 0.013695 0.007059 0.053510 0.101447 0.061943 0.107378 0.089835 0.030447 0.037982 -0.026328 0.019924 -0.002086 0.005630 0.098014 0.065995 0.023988 0.104234 -0.045891 0.055935 0.012536 0.012225 0.025051 0.037674 0.011925 0.043681 0.041424 0.050733 0.081888 0.071307 0.019767 -0.019061 -0.008393 0.004488 0.065148 -0.023886 -0.021260 0.032125 0.063507 -0.005038 0.056959 0.046213 0.045295 0.002148 0.000017 -0.072173 0.066705 0.018155 -0.024360 0.086788 0.064931 0.067649 -0.065974 0.033060 0.092361 0.100662 -0.029932 0.043298 0.001434 0.024484 0.048154 0.054880 -0.062706 -0.058152 -0.019150 -0.006440 0.110970 -0.017931 -0.081175 0.020392 0.013951 -0.052639 0.043500 -0.102417 0.003953 -0.059067 0.043319 0.019987 -0.017330 -0.016227 0.024298 -0.026168 0.046287 0.016310 0.014547 -0.019766 -0.034267 -0.016016 -0.010579 0.069180 0.031867 -0.130465 -0.127864 0.476773 0.393035 0.280969 0.160375 0.220437 0.217031 0.028874 0.323904 0.456949 -0.498993
0.072396 0.072911 0.074456 0.077030 0.080632 0.085263 0.090920 0.097601 0.105305 0.114029 0.123768 0.134519 0.146276 0.159031 0.172777 0.187504 0.203200 0.219851 0.237442 0.255953 0.275364 0.295649 0.316782 0.338730 0.361458 0.384927 0.409092 0.433904 0.459308 0.485245 0.511649 0.538449 0.565567 0.592919 0.620412 0.647951 0.675429 0.702735 0.729749 0.756345 0.782389 0.807741 0.832254 0.855773 0.878140 0.899187 0.918744 0.936636 0.952684 0.966705 0.978516 0.987932 0.994768 0.998842 0.999975 0.997992 0.992726 0.984017 0.971718 0.955690 0.935813 0.911982 0.884111 0.852137 0.816018 0.775742 0.731322 0.682804 0.630267 0.573825 0.513627 0.449863 0.382763 0.312597 0.239678 0.164361 0.087043 0.008164 0.071796 0.152317 0.232843 0.312781 0.391509 0.468380 0.542721 0.613846 0.681057 0.743654 0.800942 0.852237 0.896878 0.934234 0.963714 0.984778 0.996947 0.999812 0.993044 0.976405 0.949758 0.913073 0.866436 0.810056 0.744273 0.669555 0.586509 0.495874 0.398525 0.295465 0.187822 0.076837 0.036142 0.149681 0.262271 0.372346 0.478309 0.578554 0.671486 0.755557 0.829285 0.891291 0.940321 0.975282 0.995265 0.999576 0.987754 0.959603 0.915200 0.854915 0.779419 0.689687 0.586996 0.472915 0.349294 0.218235 0.082069 0.056685 0.195360 0.331192 0.461372 0.583107 0.693681 0.790522 0.871260 0.933804 0.976391 0.997653 0.996663 0.972983 0.926693 0.858422 0.769348 0.661204 0.536253 0.397261 0.247438 0.090384 0.069996 0.229580 0.384135 0.529431 0.661352 0.776027 0.869949 0.940087 0.984006 0.999957 0.986963 0.944881 0.874439 0.777258 0.655829 0.513477 0.354286 0.183000 0.004892 0.174391 0.348994 0.513056 0.660900 0.787244 0.887397 0.957452 0.994456 0.996550 0.963085 0.894687 0.793291 0.662106 0.505554 0.329138 0.139269 0.056946 0.251962 0.438089 0.607785 0.753978 0.870373 0.951739 0.994172 0.995305 0.954465 0.872764 0.753111 0.600150 0.420111 0.220584 0.010224 0.201603 0.405245 0.591188 0.750521 0.875370 0.959319 0.997770 0.988219 0.930461 0.826665 0.681354 0.501240 0.294968 0.072714 0.154278 0.374266 0.575606 0.747386 0.880029 0.965865 0.999603 0.978706 0.903609 0.777797 0.607693 0.402384 0.173176 0.066995 0.304273 0.524680 0.714938 0.863297 0.960286 0.999371 0.977433 0.895070 0.756665 0.570220 0.346950 0.100658 0.153089 0.397919 0.617715 0.797688 0.925405 0.991690 0.991339 0.923589 0.792292 0.605778 0.376389 0.119727 0.146367 0.403043 0.631757 0.815637 0.940762 0.997274 0.980214 0.890025 0.732664 0.519294 0.265562 0.009483 0.284787 0.538893 0.751602 0.905641 0.988092 0.991563 0.914920 0.763540 0.549042 0.288462 0.002993 0.283717 0.547490 0.765673 0.919122 0.993938 0.982814 0.885829 0.710629 0.471924 0.190349 0.109251 0.399972 0.655268 0.851386 0.969636 0.998255 0.933669 0.781029 0.553921 0.273266 0.034516 0.339953 0.613310 0.827508 0.960862 0.999360 0.938243 0.782691 0.547526 0.255924 0.062792 0.376025 0.651232 0.859321 0.977803 0.993313 0.903238 0.716234 0.451544 0.137129 0.193178 0.503282 0.758767 0.930757 0.999270 0.955661 0.803849 0.560134 0.251593 0.086820 0.416157 0.697955 0.898741 0.994117 0.971836 0.833522 0.594762 0.283513 0.063051 0.402892 0.694187 0.900507 0.995473 0.966254 0.815462 0.561133 0.234733 0.122588 0.465121 0.748419 0.935126 0.999998 0.933483 0.743287 0.453686 0.102621 0.263193 0.594386 0.845607 0.981841 0.983412
1.000000 1.000000 1.000000 1.000000 1.000000 1.000000 1.000000 1.000000 1.000000 1.000000 1.000000 1.000000 1.000000 1.000000 1.000000 1.000000 1.000000 1.000000 1.000000 1.000000 1.000000 1.000000 1.000000 1.000000 1.000000 1.000000 1.000000 1.000000 1.000000 1.000000 1.000000 1.000000 1.000000 1.000000 1.000000 1.000000 1.000000 1.000000 1.000000 1.000000 1.000000 1.000000 1.000000 1.000000 1.000000 1.000000 1.000000 1.000000 1.000000 1.000000 1.000000 1.000000 0.943818 0.943818 0.945102 0.945102 0.945102 0.945102 0.945102 0.945102 0.945102 0.945102 0.945102 0.945102 0.945102 0.945102 0.945102 0.945102 0.945102 0.945102 0.945102 0.945102 0.945102 0.945102 0.945102 0.945102 0.945102 0.945102 0.945102 0.945102 0.945102 0.945102 0.945102 0.945102 0.945102 0.945102 0.945102 0.945102 0.945102 0.945102 0.945102 0.945102 0.945102 0.945102 0.945102 0.947209 0.947510 0.947177 0.948789 0.949428 0.944439 0.943040 0.942117 0.941973 0.942569 0.943019 0.949887 0.951103 0.952204 0.954388 0.961048 0.961989 0.962183 0.964385 0.963234 0.963913 0.962412 0.959686 0.956989 0.958040 0.958945 0.958349 0.956435 0.959577 0.960290 0.959119 0.956228 0.955432 0.955161 0.955933 0.955882 0.955896 0.956126 0.956701 0.957127 0.957433 0.956206 0.954602 0.950415 0.951635 0.954797 0.956994 0.958956 0.954315 0.954769 0.946902 0.951148 0.946271 0.946644 0.947110 0.948237 0.948863 0.948876 0.938057 0.935662 0.924866 0.920877 0.921348 0.921526 0.923964 0.927588 0.928764 0.922421 0.914356 0.910365 0.898887 0.910893 0.907091 0.897140 0.891988 0.893063 0.896023 0.896230 0.893408 0.888222 0.886050 0.879448 0.881016 0.886080 0.888823 0.883078 0.882600 0.879845 0.877147 0.874636 0.871946 0.871370 0.876044 0.876334 0.876742 0.876533 0.867563 0.866185 0.869029 0.865051 0.847037 0.843063 0.840215 0.837439 0.841464 0.855493 0.856911 0.852195 0.837770 0.837002 0.850373 0.865500 0.866053 0.865300 0.864314 0.853964 0.849200 0.849193 0.854016 0.850903 0.853917 0.854122 0.854524 0.828469 0.831465 0.818347 0.816193 0.808762 0.812226 0.814436 0.822673 0.825780 0.822032 0.816920 0.813840 0.802875 0.811227 0.810271 0.811206 0.802079 0.795333 0.792482 0.792101 0.791265 0.788409 0.788224 0.790090 0.776072 0.785720 0.783405 0.779707 0.768511 0.781016 0.779278 0.756265 0.754197 0.732851 0.727032 0.715691 0.711478 0.711236 0.696286 0.684721 0.681383 0.685949 0.696126 0.688348 0.678046 0.671691 0.680429 0.683192 0.698277 0.694104 0.637302 0.602594 0.610952 0.618237 0.616459 0.593583 0.570791 0.484535 0.481261 0.445976 0.459956 0.461659 0.437259 0.434604 0.410498 0.375521 0.405514 0.400866 0.392279 0.356397 0.362486 0.343102 0.363408 0.353741 0.338750 0.319166 0.254457 0.282383 0.283987 0.272800 0.292344 0.235653 0.209576 0.203859 0.210109 0.220425 0.210491 0.205816 0.182157 0.163862 0.187230 0.189776 0.185571 0.143919 0.146710 0.148209 0.156967 0.169370 0.166786 0.164508 0.152678 0.095993 0.085249 0.067731 0.018169 0.006274 0.003682 0.003397 0.033771 0.038160 0.030822 0.042553 0.048222 0.071175 0.094189 0.033456 0.033876 0.033876 -0.016015 -0.016015 -0.016015 -0.016015 -0.016015 -0.016015 -0.016015 -0.016015 -0.016015 0.030681 0.030681 0.030681 0.030681 0.030681 0.030681 0.030681 0.030681 0.010445 0.010445 0.010445 0.010445 0.010445 0.010445 0.010445 0.010445 0.010445 0.010445
0.000000 0.000000 0.000000 0.000000 0.000000 0.000000 0.000000 0.000000 0.000000 0.000000 0.000000 0.000000 0.000000 0.000000 0.000000 0.000000 0.000000 0.000000 0.000000 0.000000 0.000000 0.000000 0.000000 0.000000 0.000000 0.000000 0.000000 0.000000 0.000000 0.000000 0.000000 0.000000 0.000000 0.000000 0.000000 0.000000 0.000000 0.000000 0.000000 0.000000 0.000000 0.000000 0.000000 0.000000 0.000000 0.000000 0.000000 0.000000 0.000000 0.000000 0.000000 0.000000 0.181818 0.181818 0.199007 0.199007 0.199007 0.199007 0.199007 0.199007 0.199007 0.199007 0.199007 0.199007 0.199007 0.199007 0.199007 0.199007 0.199007 0.199007 0.199007 0.199007 0.199007 0.199007 0.199007 0.199007 0.199007 0.199007 0.199007 0.199007 0.199007 0.199007 0.199007 0.199007 0.199007 0.199007 0.199007 0.199007 0.199007 0.199007 0.199007 0.199007 0.199007 0.199007 0.199007 0.230940 0.230940 0.230940 0.230940 0.230940 0.230940 0.230940 0.230940 0.230940 0.230940 0.230940 0.230940 0.230940 0.230940 0.230940 0.230940 0.230940 0.230940 0.230940 0.230940 0.230940 0.230940 0.230940 0.230940 0.230940 0.230940 0.230940 0.230940 0.244339 0.244339 0.244339 0.244339 0.244339 0.244339 0.244339 0.244339 0.244339 0.244339 0.244339 0.244339 0.244339 0.244339 0.244339 0.244339 0.244339 0.244339 0.244339 0.244339 0.244339 0.244339 0.244339 0.251976 0.251976 0.251976 0.251976 0.251976 0.251976 0.251976 0.251976 0.251976 0.251976 0.251976 0.251976 0.251976 0.251976 0.251976 0.251976 0.251976 0.251976 0.251976 0.251976 0.264906 0.264906 0.264906 0.264906 0.264906 0.264906 0.264906 0.264906 0.264906 0.264906 0.264906 0.264906 0.264906 0.264906 0.264906 0.264906 0.264906 0.264906 0.264906 0.264906 0.264906 0.264906 0.264906 0.264906 0.264906 0.264906 0.264906 0.264906 0.264906 0.264906 0.264906 0.264906 0.264906 0.264906 0.264906 0.264906 0.264906 0.264906 0.264906 0.264906 0.264906 0.264906 0.264906 0.264906 0.264906 0.264906 0.264906 0.264906 0.264906 0.264906 0.264906 0.264906 0.264906 0.264906 0.264906 0.264906 0.264906 0.264906 0.264906 0.264906 0.264906 0.264906 0.264906 0.264906 0.264906 0.264906 0.264906 0.264906 0.264906 0.264906 0.264906 0.264906 0.264906 0.264906 0.264906 0.269680 0.269680 0.269680 0.269680 0.269680 0.269680 0.269680 0.269680 0.269680 0.269680 0.269680 0.269680 0.264906 0.264906 0.264906 0.264906 0.264906 0.264906 0.264906 0.264906 0.264906 0.264906 0.264906 0.264906 0.269680 0.269680 0.269680 0.269680 0.269680 0.269680 0.269680 0.269680 0.269680 0.269680 0.269680 0.264906 0.264906 0.264906 0.264906 0.264906 0.264906 0.264906 0.264906 0.264906 0.264906 0.264906 0.269680 0.269680 0.269680 0.269680 0.269680 0.269680 0.269680 0.269680 0.269680 0.269680 0.264906 0.264906 0.264906 0.264906 0.264906 0.264906 0.264906 0.264906 0.264906 0.264906 0.260378 0.260378 0.260378 0.260378 0.260378 0.260378 0.260378 0.260378 0.260378 0.260378 0.256074 0.256074 0.256074 0.256074 0.256074 0.256074 0.256074 0.256074 0.256074 0.256074 0.260378 0.260378 0.260378 0.260378 0.260378 0.260378 0.260378 0.260378 0.260378 0.256074 0.256074 0.256074 0.256074 0.256074 0.256074 0.256074 0.256074 0.256074 0.269680 0.269680 0.269680 0.269680 0.269680 0.269680 0.269680 0.269680 0.248069 0.248069 0.248069 0.248069 0.248069 0.248069 0.248069 0.248069 0.248069 0.248069
