# Output from CTFFind version 4.1.9, run on 2019-11-02 12:26:44
# Input file: stack11_ub_averaged_1500.mrc ; Number of micrographs: 1
# Pixel size: 3.000 Angstroms ; acceleration voltage: 300.0 keV ; spherical aberration: 0.00 mm ; amplitude contrast: 0.07
# Box size: 512 pixels ; min. res.: 30.0 Angstroms ; max. res.: 5.0 Angstroms ; min. def.: 5000.0 um; max. def. 50000.0 um; num. frames averaged: 1
# 6 lines per micrograph: #1 - spatial frequency (1/Angstroms); #2 - 1D rotational average of spectrum (assuming no astigmatism); #3 - 1D rotational average of spectrum; #4 - CTF fit; #5 - cross-correlation between spectrum and CTF fit; #6 - 2sigma of expected cross correlation of noise
0.000000 0.000651 0.001302 0.001953 0.002604 0.003255 0.003906 0.004557 0.005208 0.005859 0.006510 0.007161 0.007812 0.008464 0.009115 0.009766 0.010417 0.011068 0.011719 0.012370 0.013021 0.013672 0.014323 0.014974 0.015625 0.016276 0.016927 0.017578 0.018229 0.018880 0.019531 0.020182 0.020833 0.021484 0.022135 0.022786 0.023438 0.024089 0.024740 0.025391 0.026042 0.026693 0.027344 0.027995 0.028646 0.029297 0.029948 0.030599 0.031250 0.031901 0.032552 0.033203 0.033854 0.034505 0.035156 0.035807 0.036458 0.037109 0.037760 0.038411 0.039062 0.039714 0.040365 0.041016 0.041667 0.042318 0.042969 0.043620 0.044271 0.044922 0.045573 0.046224 0.046875 0.047526 0.048177 0.048828 0.049479 0.050130 0.050781 0.051432 0.052083 0.052734 0.053385 0.054036 0.054688 0.055339 0.055990 0.056641 0.057292 0.057943 0.058594 0.059245 0.059896 0.060547 0.061198 0.061849 0.062500 0.063151 0.063802 0.064453 0.065104 0.065755 0.066406 0.067057 0.067708 0.068359 0.069010 0.069661 0.070312 0.070964 0.071615 0.072266 0.072917 0.073568 0.074219 0.074870 0.075521 0.076172 0.076823 0.077474 0.078125 0.078776 0.079427 0.080078 0.080729 0.081380 0.082031 0.082682 0.083333 0.083984 0.084635 0.085286 0.085938 0.086589 0.087240 0.087891 0.088542 0.089193 0.089844 0.090495 0.091146 0.091797 0.092448 0.093099 0.093750 0.094401 0.095052 0.095703 0.096354 0.097005 0.097656 0.098307 0.098958 0.099609 0.100260 0.100911 0.101562 0.102214 0.102865 0.103516 0.104167 0.104818 0.105469 0.106120 0.106771 0.107422 0.108073 0.108724 0.109375 0.110026 0.110677 0.111328 0.111979 0.112630 0.113281 0.113932 0.114583 0.115234 0.115885 0.116536 0.117188 0.117839 0.118490 0.119141 0.119792 0.120443 0.121094 0.121745 0.122396 0.123047 0.123698 0.124349 0.125000 0.125651 0.126302 0.126953 0.127604 0.128255 0.128906 0.129557 0.130208 0.130859 0.131510 0.132161 0.132812 0.133464 0.134115 0.134766 0.135417 0.136068 0.136719 0.137370 0.138021 0.138672 0.139323 0.139974 0.140625 0.141276 0.141927 0.142578 0.143229 0.143880 0.144531 0.145182 0.145833 0.146484 0.147135 0.147786 0.148438 0.149089 0.149740 0.150391 0.151042 0.151693 0.152344 0.152995 0.153646 0.154297 0.154948 0.155599 0.156250 0.156901 0.157552 0.158203 0.158854 0.159505 0.160156 0.160807 0.161458 0.162109 0.162760 0.163411 0.164062 0.164714 0.165365 0.166016 0.166667 0.167318 0.167969 0.168620 0.169271 0.169922 0.170573 0.171224 0.171875 0.172526 0.173177 0.173828 0.174479 0.175130 0.175781 0.176432 0.177083 0.177734 0.178385 0.179036 0.179688 0.180339 0.180990 0.181641 0.182292 0.182943 0.183594 0.184245 0.184896 0.185547 0.186198 0.186849 0.187500 0.188151 0.188802 0.189453 0.190104 0.190755 0.191406 0.192057 0.192708 0.193359 0.194010 0.194661 0.195312 0.195964 0.196615 0.197266 0.197917 0.198568 0.199219 0.199870 0.200521 0.201172 0.201823 0.202474 0.203125 0.203776 0.204427 0.205078 0.205729 0.206380 0.207031 0.207682 0.208333 0.208984 0.209635 0.210286 0.210938 0.211589 0.212240 0.212891 0.213542 0.214193 0.214844 0.215495 0.216146 0.216797 0.217448 0.218099 0.218750 0.219401 0.220052 0.220703 0.221354 0.222005 0.222656 0.223307 0.223958 0.224609 0.225260 0.225911 0.226562 0.227214 0.227865 0.228516 0.229167 0.229818 0.230469 0.231120 0.231771 0.232422 0.233073 0.233724 0.234375 0.235026 0.235677
       0.31643        0.31643        0.31643        0.31643        0.31643        0.31643        0.31643        0.31643        0.31643        0.31643        0.31643        0.31643        0.31643        0.31643        0.31643        0.31643        0.31643        0.31643        0.31643        0.31643        0.31643        0.31643        0.31643        0.31643        0.31643        0.31643        0.31643        0.31643        0.31643        0.31643        0.31643        0.31643        0.31643        0.31643        0.31643        0.31643        0.31643        0.31643        0.31643        0.31643        0.31643        0.31643        0.31643        0.31643        0.31643        0.31643        0.31643        0.31643        0.31643        0.31643        0.31643        0.68477        0.87190        0.52173        0.08580       -0.06787       -0.42596       -0.20989       -0.29792       -0.11870       -0.07949       -0.11871       -0.06944       -0.21109       -0.23827       -0.26165       -0.33079       -0.33738       -0.49323       -0.38469       -0.46794       -0.45203       -0.42152       -0.47153       -0.54978       -0.56474       -0.58999       -0.63025       -0.58149       -0.41872       -0.38021       -0.33031       -0.31724       -0.21522       -0.20130        0.01880        0.06668        0.10109        0.22293        0.37187        0.44140        0.51596        0.55891        0.55429        0.57156        0.69913        0.81518        0.74606        0.73510        0.67506        0.58376        0.48645        0.40655        0.49258        0.37188        0.20004        0.07608        0.04459        0.00669       -0.06175       -0.04161       -0.02893       -0.07553       -0.00710       -0.02265        0.20878        0.24798        0.29133        0.43123        0.46863        0.40361        0.53178        0.63119        0.70407        0.76879        0.69208        0.66095        0.70052        0.58886        0.50792        0.41808        0.28791        0.18359        0.15615        0.10706        0.03621        0.01266       -0.00275        0.07480        0.13048        0.20162        0.28452        0.40358        0.41591        0.51194        0.60267        0.63578        0.61293        0.63070        0.55362        0.44514        0.44296        0.35008        0.23004        0.18544        0.14913        0.10402        0.11771        0.06264        0.09743        0.21996        0.26205        0.33921        0.34528        0.45297        0.51230        0.53608        0.55172        0.46835        0.42710        0.39360        0.37635        0.30873        0.25024        0.19924        0.18394        0.15995        0.18855        0.17618        0.26878        0.33154        0.36281        0.42108        0.46154        0.47814        0.44690        0.39223        0.41403        0.37553        0.29012        0.27508        0.22905        0.21220        0.19341        0.21110        0.23095        0.32872        0.37190        0.36494        0.45702        0.44001        0.43973        0.43119        0.39566        0.34360        0.32913        0.27630        0.23306        0.23551        0.26724        0.26729        0.29913        0.29818        0.33997        0.32864        0.41081        0.41671        0.37437        0.34318        0.36270        0.27886        0.27936        0.26288        0.27658        0.25944        0.28000        0.29184        0.31505        0.35272        0.35864        0.35948        0.33127        0.35127        0.28509        0.32211        0.26697        0.24932        0.28194        0.27909        0.30586        0.31469        0.33295        0.32579        0.31202        0.31714        0.28735        0.28566        0.26021        0.28098        0.26704        0.31061        0.28348        0.26120        0.30750        0.31103        0.31754        0.29175        0.29839        0.29277        0.24255        0.23568        0.21901        0.27839        0.27171        0.30690        0.31816        0.31898        0.31257        0.30284        0.27578        0.28174        0.33120        0.27558        0.26879        0.29441        0.29632        0.34106        0.33771        0.36360        0.33137        0.31188        0.27923        0.26269        0.26315        0.22613        0.26663        0.29827        0.29681        0.27696        0.29541        0.27055        0.32148        0.33157        0.25157        0.21756        0.26988        0.33771        0.27800        0.31502        0.32618        0.32799        0.29822        0.32016        0.34415        0.29818        0.29566        0.26560        0.27611        0.35070        0.34970        0.25786        0.26754        0.25439        0.27710        0.22722        0.28977        0.22051        0.25286        0.32391        0.31529        0.34137        0.29586        0.23798        0.24013        0.24150        0.24515        0.18032        0.21934        0.25896        0.29198        0.28042        0.30010        0.29064        0.28086        0.28249        0.20948        0.17974        0.18467        0.23543        0.20182        0.21906        0.23236        0.20953        0.24352        0.33125        0.29556        0.30487        0.22164        0.26295        0.23851        0.28501        0.30472        0.14796        0.21277        0.22495        0.13296        0.23751        0.10709        0.16336        0.17416        0.11923       -0.11170       -0.62080
2.591839 2.564765 2.537837 2.511056 2.484422 2.457935 2.431595 2.405401 2.379354 2.353455 2.327702 2.302096 2.276636 2.251324 2.226158 2.201140 2.176268 2.151543 2.126964 2.102533 2.078248 2.054111 2.030120 2.006276 1.982579 1.959029 1.935625 1.912368 1.889259 1.866296 1.843480 1.820810 1.798288 1.775913 1.753684 1.731602 1.709667 1.687879 1.666237 1.644743 1.623395 1.602194 1.581140 1.560233 1.539473 1.518860 1.498393 1.478073 1.457900 1.437874 1.417995 1.640459 2.045132 1.617494 1.130686 0.988349 0.426812 0.812120 0.564789 0.836882 0.774016 0.789280 0.755448 0.711233 0.562588 0.513134 0.488375 0.449081 0.206343 0.382178 0.206559 0.305193 0.242145 0.182460 0.130571 0.005705 0.045249 -0.015344 -0.054999 0.105130 0.207140 0.199539 0.155364 0.331292 0.198151 0.499783 0.573079 0.546479 0.591598 0.878567 0.807526 0.946631 0.889307 0.973808 0.940333 1.080976 1.142578 1.079668 1.126146 0.956317 0.945322 0.785711 0.652112 0.769344 0.702224 0.460894 0.306423 0.253505 0.211357 0.147703 0.088741 0.124905 0.065371 0.154906 0.049952 0.260583 0.376752 0.359536 0.478667 0.586324 0.470333 0.540007 0.699082 0.747776 0.781104 0.735576 0.733825 0.717288 0.627246 0.573477 0.430496 0.283400 0.205117 0.075560 0.131763 -0.044755 -0.027448 -0.083146 -0.037761 0.005308 0.139948 0.093276 0.303763 0.276784 0.365690 0.453824 0.524073 0.505121 0.518343 0.505307 0.331774 0.306617 0.275075 0.100717 0.047691 -0.001065 -0.037488 -0.042500 -0.096078 -0.104662 -0.019587 0.054577 0.134674 0.133395 0.225360 0.333099 0.303658 0.411365 0.395947 0.281679 0.232059 0.250715 0.210416 0.101345 0.070286 0.016092 0.002559 0.002183 -0.020177 0.058305 0.146960 0.141080 0.222642 0.251043 0.305090 0.260937 0.219497 0.189146 0.209024 0.151215 0.044625 0.050005 -0.008341 -0.010881 -0.031996 0.016071 0.016767 0.172763 0.122020 0.181877 0.236115 0.202461 0.193188 0.200252 0.135576 0.105543 0.066100 0.042305 -0.040103 0.007072 0.019320 0.051264 0.047184 0.079327 0.097945 0.119474 0.139451 0.185380 0.076822 0.097119 0.069029 -0.000999 0.006370 0.008402 -0.009555 0.018621 0.002721 0.030952 0.071251 0.083431 0.116560 0.051283 0.095657 0.055736 0.011572 0.062477 -0.035555 -0.013244 0.020351 -0.001683 0.050634 0.055330 0.051068 0.052682 0.050314 0.046777 0.019336 -0.001332 0.004726 0.014332 -0.014643 0.068946 -0.015025 0.005200 0.053416 0.047144 0.032960 0.042954 0.035882 0.015046 -0.028514 -0.049899 -0.018855 0.014624 0.016693 0.056068 0.061551 0.051842 0.075892 0.058551 0.018328 0.057697 0.084566 0.021269 0.022147 0.054970 0.053275 0.100062 0.108013 0.114739 0.107023 0.060234 0.037964 0.027580 0.004780 -0.007763 0.044018 0.072680 0.042747 0.026928 0.029009 0.025868 0.080463 0.064075 -0.048324 -0.054463 0.028444 0.091872 0.007342 0.033415 0.055665 0.089840 0.020636 0.055616 0.084354 0.034070 0.040835 -0.031637 0.014263 0.109553 0.065718 -0.058461 -0.021107 -0.049253 0.011696 -0.102483 0.033451 -0.111512 -0.031470 0.046368 0.023584 0.025388 -0.043962 -0.065146 -0.088150 -0.080456 -0.063089 -0.132407 -0.097763 -0.038340 0.012024 -0.026452 0.032733 -0.021118 -0.040926 0.054459 -0.110342 -0.091987 -0.099657 -0.003234 -0.055706 -0.039510 0.004624 0.014016 0.008485 0.173717 -0.006006 0.143006 0.004900 0.269746 0.252702 0.324429 0.281880 0.113832 0.215421 0.269825 0.054021 0.261799 0.111545 0.142586 0.227361 0.120912 -0.640120
0.072396 0.072899 0.074406 0.076917 0.080432 0.084950 0.090470 0.096990 0.104507 0.113020 0.122524 0.133016 0.144490 0.156939 0.170357 0.184733 0.200057 0.216316 0.233494 0.251576 0.270540 0.290364 0.311021 0.332484 0.354717 0.377685 0.401345 0.425652 0.450556 0.476000 0.501924 0.528260 0.554935 0.581871 0.608983 0.636179 0.663361 0.690423 0.717254 0.743736 0.769742 0.795140 0.819793 0.843554 0.866272 0.887791 0.907949 0.926579 0.943509 0.958567 0.971576 0.982357 0.990734 0.996529 0.999567 0.999676 0.996691 0.990452 0.980809 0.967621 0.950762 0.930118 0.905592 0.877108 0.844608 0.808059 0.767454 0.722813 0.674184 0.621650 0.565326 0.505362 0.441947 0.375305 0.305703 0.233446 0.158880 0.082391 0.004406 0.074611 0.154158 0.233695 0.312653 0.390433 0.466408 0.539932 0.610345 0.676973 0.739142 0.796181 0.847430 0.892249 0.930027 0.960189 0.982207 0.995612 0.999997 0.995032 0.980472 0.956165 0.922060 0.878216 0.824807 0.762129 0.690602 0.610776 0.523329 0.429064 0.328914 0.223928 0.115268 0.004199 0.107923 0.219668 0.329546 0.436026 0.537560 0.632604 0.719644 0.797219 0.863953 0.918578 0.959965 0.987147 0.999349 0.996011 0.976809 0.941673 0.890805 0.824690 0.744100 0.650096 0.544027 0.427512 0.302430 0.170894 0.035217 0.102118 0.238502 0.371253 0.497661 0.615050 0.720836 0.812584 0.888076 0.945368 0.982847 0.999282 0.993878 0.966308 0.916747 0.845892 0.754966 0.645719 0.520398 0.381726 0.232844 0.077255 0.081255 0.238702 0.391002 0.534080 0.663979 0.776971 0.869684 0.939200 0.983162 0.999872 0.988360 0.948451 0.880798 0.786901 0.669094 0.530509 0.375007 0.207091 0.031784 0.145511 0.319173 0.483535 0.633084 0.762636 0.867540 0.943851 0.988496 0.999420 0.975693 0.917587 0.826614 0.705519 0.558222 0.389710 0.205903 0.013448 0.180503 0.368552 0.543341 0.697841 0.825651 0.921272 0.980370 0.999994 0.978747 0.916902 0.816445 0.681053 0.515991 0.327940 0.124745 0.084885 0.291747 0.486540 0.660290 0.804773 0.912922 0.979202 0.999918 0.973456 0.900427 0.783710 0.628386 0.441554 0.232041 0.010013 0.213501 0.427146 0.619824 0.781279 0.902660 0.977045 0.999863 0.969219 0.886075 0.754289 0.580488 0.373773 0.145299 0.092320 0.325676 0.541322 0.726557 0.870193 0.963263 0.999620 0.976389 0.894242 0.757452 0.573736 0.353876 0.111125 0.139553 0.382390 0.601806 0.783419 0.915014 0.987409 0.995147 0.936960 0.815967 0.639595 0.419170 0.169268 0.093232 0.350241 0.583716 0.776929 0.915705 0.989499 0.992266 0.923013 0.786009 0.590603 0.350660 0.083642 0.190629 0.451418 0.678641 0.854444 0.964634 0.999904 0.956679 0.837547 0.651207 0.411923 0.138499 0.147144 0.421697 0.662353 0.848741 0.964688 0.999684 0.949926 0.818804 0.616776 0.360634 0.072181 0.223557 0.500500 0.733802 0.902109 0.989588 0.987494 0.895132 0.720114 0.477845 0.190258 0.116097 0.412456 0.670548 0.865301 0.977352 0.995045 0.915754 0.746341 0.502688 0.208320 0.107793 0.414020 0.679250 0.876054 0.983612 0.989991 0.893595 0.703551 0.438982 0.127196 0.199054 0.504955 0.757372 0.928455 0.998819 0.959840 0.814840 0.578974 0.277777 0.055495 0.383449 0.668763 0.878428 0.987669 0.982967 0.863878 0.643350 0.346472 0.007742 0.332856 0.634540 0.860627 0.983083 0.986103 0.868307 0.643194 0.337757 0.010600 0.358574 0.662302 0.882920 0.991616 0.973533 0.829961 0.578467 0.250947 0.110321
1.000000 1.000000 1.000000 1.000000 1.000000 1.000000 1.000000 1.000000 1.000000 1.000000 1.000000 1.000000 1.000000 1.000000 1.000000 1.000000 1.000000 1.000000 1.000000 1.000000 1.000000 1.000000 1.000000 1.000000 1.000000 1.000000 1.000000 1.000000 1.000000 1.000000 1.000000 1.000000 1.000000 1.000000 1.000000 1.000000 1.000000 1.000000 1.000000 1.000000 1.000000 1.000000 1.000000 1.000000 1.000000 1.000000 1.000000 1.000000 1.000000 1.000000 1.000000 1.000000 0.933269 0.933269 0.933269 0.924142 0.924142 0.924142 0.924142 0.924142 0.924142 0.924142 0.924142 0.924142 0.924142 0.924142 0.924142 0.924142 0.924142 0.924142 0.924142 0.924142 0.924142 0.924142 0.924142 0.924142 0.924142 0.924142 0.924142 0.924142 0.924142 0.924142 0.924142 0.924142 0.924142 0.924142 0.924142 0.924142 0.924142 0.924142 0.924142 0.924142 0.924142 0.924142 0.924142 0.924142 0.950121 0.951328 0.959176 0.959005 0.958500 0.956392 0.955487 0.954359 0.953910 0.954182 0.954786 0.955616 0.967366 0.968380 0.969913 0.970712 0.971416 0.972068 0.971921 0.972715 0.971964 0.971427 0.970923 0.966966 0.967597 0.968185 0.968354 0.969401 0.969285 0.971534 0.971658 0.971083 0.970249 0.969558 0.968893 0.968501 0.968228 0.968718 0.968983 0.970246 0.973386 0.972800 0.972489 0.972647 0.972749 0.972918 0.973309 0.974073 0.970176 0.968681 0.967016 0.964831 0.969042 0.966170 0.965954 0.967317 0.967697 0.968096 0.966980 0.962916 0.957476 0.956354 0.953980 0.944783 0.943772 0.944513 0.946791 0.947189 0.945778 0.938638 0.939192 0.932184 0.934111 0.937367 0.931363 0.931265 0.932409 0.932046 0.931078 0.930551 0.927694 0.925205 0.923725 0.923526 0.926459 0.926376 0.927562 0.927397 0.921736 0.913917 0.901967 0.899963 0.895353 0.898353 0.887088 0.886834 0.886539 0.881924 0.885294 0.885218 0.886137 0.882877 0.866211 0.848972 0.842558 0.846731 0.851657 0.848058 0.846869 0.840004 0.851358 0.830902 0.843337 0.854107 0.851376 0.851500 0.850874 0.849274 0.843779 0.844657 0.846538 0.847945 0.845958 0.844003 0.843955 0.826775 0.829048 0.765688 0.748649 0.738459 0.744110 0.750968 0.753089 0.752143 0.758521 0.763244 0.753024 0.734933 0.727645 0.722043 0.726060 0.722938 0.724611 0.708242 0.676833 0.672326 0.641702 0.657771 0.670261 0.630479 0.652726 0.663517 0.662825 0.661553 0.655118 0.652271 0.648157 0.650640 0.657227 0.669584 0.686724 0.709489 0.705293 0.695513 0.693369 0.673971 0.667431 0.663385 0.677678 0.655664 0.652149 0.670166 0.669637 0.654139 0.631469 0.621501 0.614831 0.608131 0.618627 0.606213 0.600776 0.588993 0.562934 0.557337 0.591678 0.607548 0.631205 0.601897 0.588951 0.577261 0.557636 0.569950 0.510895 0.510870 0.533316 0.541248 0.520108 0.510590 0.522003 0.526627 0.524164 0.513923 0.504359 0.496598 0.513220 0.550818 0.540265 0.521579 0.523242 0.522488 0.514706 0.424330 0.417642 0.391945 0.357327 0.298672 0.276203 0.268920 0.253063 0.244474 0.209041 0.205417 0.215652 0.221980 0.234977 0.237389 0.218408 0.228756 0.224852 0.211267 0.148326 0.137807 0.129630 0.119057 0.117141 0.094627 0.121448 0.189832 0.191955 0.191955 0.191955 0.191955 0.191955 0.191955 0.200452 0.200452 0.200452 0.200452 0.200452 0.200452 0.200452 0.200452 0.200452 0.210044 0.210044 0.210044 0.210044 0.210044 0.210044 0.210044 0.210044 0.210044 0.210044 0.210044 0.210044 0.210044 0.210044
0.000000 0.000000 0.000000 0.000000 0.000000 0.000000 0.000000 0.000000 0.000000 0.000000 0.000000 0.000000 0.000000 0.000000 0.000000 0.000000 0.000000 0.000000 0.000000 0.000000 0.000000 0.000000 0.000000 0.000000 0.000000 0.000000 0.000000 0.000000 0.000000 0.000000 0.000000 0.000000 0.000000 0.000000 0.000000 0.000000 0.000000 0.000000 0.000000 0.000000 0.000000 0.000000 0.000000 0.000000 0.000000 0.000000 0.000000 0.000000 0.000000 0.000000 0.000000 0.000000 0.180334 0.180334 0.180334 0.199007 0.199007 0.199007 0.199007 0.199007 0.199007 0.199007 0.199007 0.199007 0.199007 0.199007 0.199007 0.199007 0.199007 0.199007 0.199007 0.199007 0.199007 0.199007 0.199007 0.199007 0.199007 0.199007 0.199007 0.199007 0.199007 0.199007 0.199007 0.199007 0.199007 0.199007 0.199007 0.199007 0.199007 0.199007 0.199007 0.199007 0.199007 0.199007 0.199007 0.199007 0.225018 0.225018 0.225018 0.225018 0.225018 0.225018 0.225018 0.225018 0.225018 0.225018 0.225018 0.225018 0.225018 0.225018 0.225018 0.225018 0.225018 0.225018 0.225018 0.225018 0.225018 0.225018 0.225018 0.225018 0.225018 0.225018 0.225018 0.225018 0.225018 0.244339 0.244339 0.244339 0.244339 0.244339 0.244339 0.244339 0.244339 0.244339 0.244339 0.244339 0.244339 0.244339 0.244339 0.244339 0.244339 0.244339 0.244339 0.244339 0.244339 0.244339 0.244339 0.244339 0.251976 0.251976 0.251976 0.251976 0.251976 0.251976 0.251976 0.251976 0.251976 0.251976 0.251976 0.251976 0.251976 0.251976 0.251976 0.251976 0.251976 0.251976 0.251976 0.251976 0.264906 0.264906 0.264906 0.264906 0.264906 0.264906 0.264906 0.264906 0.264906 0.264906 0.264906 0.264906 0.264906 0.264906 0.264906 0.264906 0.264906 0.264906 0.264906 0.264906 0.264906 0.264906 0.264906 0.264906 0.264906 0.264906 0.264906 0.264906 0.264906 0.264906 0.264906 0.264906 0.264906 0.264906 0.264906 0.264906 0.264906 0.264906 0.264906 0.264906 0.264906 0.264906 0.264906 0.264906 0.264906 0.264906 0.264906 0.264906 0.264906 0.264906 0.264906 0.264906 0.264906 0.264906 0.264906 0.264906 0.264906 0.264906 0.264906 0.264906 0.264906 0.264906 0.256074 0.256074 0.256074 0.256074 0.256074 0.256074 0.256074 0.256074 0.256074 0.256074 0.256074 0.256074 0.256074 0.256074 0.269680 0.269680 0.269680 0.269680 0.269680 0.269680 0.269680 0.269680 0.269680 0.269680 0.269680 0.269680 0.264906 0.264906 0.264906 0.264906 0.264906 0.264906 0.264906 0.264906 0.264906 0.264906 0.264906 0.264906 0.269680 0.269680 0.269680 0.269680 0.269680 0.269680 0.269680 0.269680 0.269680 0.269680 0.269680 0.264906 0.264906 0.264906 0.264906 0.264906 0.264906 0.264906 0.264906 0.264906 0.264906 0.264906 0.256074 0.256074 0.256074 0.256074 0.256074 0.256074 0.256074 0.256074 0.256074 0.256074 0.256074 0.264906 0.264906 0.264906 0.264906 0.264906 0.264906 0.264906 0.264906 0.264906 0.264906 0.260378 0.260378 0.260378 0.260378 0.260378 0.260378 0.260378 0.260378 0.260378 0.260378 0.256074 0.256074 0.256074 0.256074 0.256074 0.256074 0.256074 0.256074 0.256074 0.256074 0.260378 0.260378 0.260378 0.260378 0.260378 0.260378 0.260378 0.260378 0.260378 0.256074 0.256074 0.256074 0.256074 0.256074 0.256074 0.256074 0.256074 0.256074 0.251976 0.251976 0.251976 0.251976 0.251976 0.251976 0.251976 0.251976 0.251976 0.251976 0.251976 0.251976 0.251976 0.251976
