# Output from CTFFind version 4.1.9, run on 2019-11-03 18:51:19
# Input file: stack10_ub_averaged_250.mrc ; Number of micrographs: 1
# Pixel size: 3.000 Angstroms ; acceleration voltage: 300.0 keV ; spherical aberration: 0.00 mm ; amplitude contrast: 0.07
# Box size: 512 pixels ; min. res.: 30.0 Angstroms ; max. res.: 5.0 Angstroms ; min. def.: 5000.0 um; max. def. 50000.0 um; num. frames averaged: 1
# 6 lines per micrograph: #1 - spatial frequency (1/Angstroms); #2 - 1D rotational average of spectrum (assuming no astigmatism); #3 - 1D rotational average of spectrum; #4 - CTF fit; #5 - cross-correlation between spectrum and CTF fit; #6 - 2sigma of expected cross correlation of noise
0.000000 0.000651 0.001302 0.001953 0.002604 0.003255 0.003906 0.004557 0.005208 0.005859 0.006510 0.007161 0.007812 0.008464 0.009115 0.009766 0.010417 0.011068 0.011719 0.012370 0.013021 0.013672 0.014323 0.014974 0.015625 0.016276 0.016927 0.017578 0.018229 0.018880 0.019531 0.020182 0.020833 0.021484 0.022135 0.022786 0.023438 0.024089 0.024740 0.025391 0.026042 0.026693 0.027344 0.027995 0.028646 0.029297 0.029948 0.030599 0.031250 0.031901 0.032552 0.033203 0.033854 0.034505 0.035156 0.035807 0.036458 0.037109 0.037760 0.038411 0.039062 0.039714 0.040365 0.041016 0.041667 0.042318 0.042969 0.043620 0.044271 0.044922 0.045573 0.046224 0.046875 0.047526 0.048177 0.048828 0.049479 0.050130 0.050781 0.051432 0.052083 0.052734 0.053385 0.054036 0.054688 0.055339 0.055990 0.056641 0.057292 0.057943 0.058594 0.059245 0.059896 0.060547 0.061198 0.061849 0.062500 0.063151 0.063802 0.064453 0.065104 0.065755 0.066406 0.067057 0.067708 0.068359 0.069010 0.069661 0.070312 0.070964 0.071615 0.072266 0.072917 0.073568 0.074219 0.074870 0.075521 0.076172 0.076823 0.077474 0.078125 0.078776 0.079427 0.080078 0.080729 0.081380 0.082031 0.082682 0.083333 0.083984 0.084635 0.085286 0.085938 0.086589 0.087240 0.087891 0.088542 0.089193 0.089844 0.090495 0.091146 0.091797 0.092448 0.093099 0.093750 0.094401 0.095052 0.095703 0.096354 0.097005 0.097656 0.098307 0.098958 0.099609 0.100260 0.100911 0.101562 0.102214 0.102865 0.103516 0.104167 0.104818 0.105469 0.106120 0.106771 0.107422 0.108073 0.108724 0.109375 0.110026 0.110677 0.111328 0.111979 0.112630 0.113281 0.113932 0.114583 0.115234 0.115885 0.116536 0.117188 0.117839 0.118490 0.119141 0.119792 0.120443 0.121094 0.121745 0.122396 0.123047 0.123698 0.124349 0.125000 0.125651 0.126302 0.126953 0.127604 0.128255 0.128906 0.129557 0.130208 0.130859 0.131510 0.132161 0.132812 0.133464 0.134115 0.134766 0.135417 0.136068 0.136719 0.137370 0.138021 0.138672 0.139323 0.139974 0.140625 0.141276 0.141927 0.142578 0.143229 0.143880 0.144531 0.145182 0.145833 0.146484 0.147135 0.147786 0.148438 0.149089 0.149740 0.150391 0.151042 0.151693 0.152344 0.152995 0.153646 0.154297 0.154948 0.155599 0.156250 0.156901 0.157552 0.158203 0.158854 0.159505 0.160156 0.160807 0.161458 0.162109 0.162760 0.163411 0.164062 0.164714 0.165365 0.166016 0.166667 0.167318 0.167969 0.168620 0.169271 0.169922 0.170573 0.171224 0.171875 0.172526 0.173177 0.173828 0.174479 0.175130 0.175781 0.176432 0.177083 0.177734 0.178385 0.179036 0.179688 0.180339 0.180990 0.181641 0.182292 0.182943 0.183594 0.184245 0.184896 0.185547 0.186198 0.186849 0.187500 0.188151 0.188802 0.189453 0.190104 0.190755 0.191406 0.192057 0.192708 0.193359 0.194010 0.194661 0.195312 0.195964 0.196615 0.197266 0.197917 0.198568 0.199219 0.199870 0.200521 0.201172 0.201823 0.202474 0.203125 0.203776 0.204427 0.205078 0.205729 0.206380 0.207031 0.207682 0.208333 0.208984 0.209635 0.210286 0.210938 0.211589 0.212240 0.212891 0.213542 0.214193 0.214844 0.215495 0.216146 0.216797 0.217448 0.218099 0.218750 0.219401 0.220052 0.220703 0.221354 0.222005 0.222656 0.223307 0.223958 0.224609 0.225260 0.225911 0.226562 0.227214 0.227865 0.228516 0.229167 0.229818 0.230469 0.231120 0.231771 0.232422 0.233073 0.233724 0.234375 0.235026 0.235677
       0.34176        0.34176        0.34176        0.34176        0.34176        0.34176        0.34176        0.34176        0.34176        0.34176        0.34176        0.34176        0.34176        0.34176        0.34176        0.34176        0.34176        0.34176        0.34176        0.34176        0.34176        0.34176        0.34176        0.34176        0.34176        0.34176        0.34176        0.34176        0.34176        0.34176        0.34176        0.34176        0.34176        0.34176        0.34176        0.34176        0.34176        0.34176        0.34176        0.34176        0.34176        0.34176        0.34176        0.34176        0.34176        0.34176        0.34176        0.34176        0.34176        0.34176        0.34176        0.60597        0.75464        0.13178       -0.34619       -0.55870       -0.61705       -0.71122       -0.78755       -0.78398       -0.77073       -0.75511       -0.75293       -0.90541       -1.05331       -1.06630       -1.05196       -1.05404       -1.06123       -0.88144       -0.83559       -0.73763       -0.60967       -0.57607       -0.32265       -0.31165       -0.11573       -0.01132        0.06607        0.18169        0.25516        0.39292        0.37602        0.63953        0.63759        0.68656        0.62161        0.59148        0.55328        0.52672        0.52143        0.39949        0.22345        0.20291        0.11887        0.02283       -0.05704       -0.07168       -0.02547       -0.01699        0.07594        0.12540        0.15410        0.20837        0.39330        0.45554        0.56251        0.53310        0.63555        0.74750        0.64769        0.65894        0.60408        0.50714        0.47264        0.30519        0.24655        0.12401        0.03801        0.01198       -0.04170       -0.02139        0.13333        0.17937        0.33270        0.38474        0.44501        0.66664        0.65577        0.67558        0.65455        0.65747        0.64261        0.60925        0.38106        0.25320        0.16574        0.13499        0.05827        0.07458        0.08612        0.24044        0.27633        0.35403        0.50709        0.57838        0.58772        0.59612        0.61393        0.57334        0.41078        0.36313        0.28937        0.19636        0.17405        0.15128        0.19191        0.21467        0.29147        0.41798        0.41906        0.52754        0.56489        0.53440        0.46923        0.43997        0.35291        0.25973        0.18987        0.15200        0.15219        0.21479        0.28815        0.35966        0.42404        0.42990        0.59942        0.58066        0.47832        0.41233        0.34159        0.28159        0.28037        0.23877        0.24094        0.25616        0.30952        0.30034        0.39427        0.48812        0.47119        0.45493        0.40699        0.37322        0.30227        0.27800        0.27458        0.27679        0.29215        0.35882        0.41129        0.42291        0.41475        0.44313        0.36453        0.34596        0.30727        0.26172        0.27094        0.29570        0.34278        0.34977        0.36774        0.41314        0.42418        0.39084        0.34319        0.31067        0.28183        0.29800        0.32383        0.33689        0.35539        0.41041        0.36991        0.37478        0.34612        0.33505        0.30396        0.26126        0.28243        0.28858        0.31889        0.37220        0.37202        0.38360        0.39389        0.36471        0.30642        0.32798        0.28906        0.28384        0.31307        0.34405        0.33760        0.33389        0.32833        0.34784        0.31208        0.30984        0.30386        0.29855        0.31855        0.31458        0.34946        0.32223        0.30277        0.29777        0.29440        0.30090        0.29115        0.31111        0.31688        0.31613        0.35173        0.34088        0.31045        0.30735        0.31652        0.29641        0.33151        0.34049        0.36728        0.40416        0.34116        0.32857        0.32676        0.30055        0.27843        0.28564        0.33311        0.32767        0.35117        0.34365        0.29306        0.30635        0.27846        0.28346        0.30204        0.31687        0.31992        0.34442        0.30259        0.30359        0.31367        0.28082        0.32713        0.31440        0.30471        0.34793        0.35047        0.33113        0.28123        0.22726        0.25651        0.31929        0.33578        0.34132        0.36321        0.33390        0.30655        0.28525        0.30190        0.32057        0.32297        0.30943        0.34518        0.30195        0.29121        0.29421        0.32129        0.28690        0.29881        0.25834        0.29178        0.33792        0.24700        0.28746        0.30191        0.30993        0.33916        0.27783        0.28849        0.29772        0.28908        0.33449        0.31385        0.28562        0.17822        0.20933        0.20346        0.26298        0.30520        0.28823        0.32374        0.43018        0.27725        0.17915        0.22973        0.33253        0.18918        0.20988        0.22792        0.24648        0.19582        0.13274        0.24727        0.24134        0.22602        0.16210        0.09797       -0.43178       -0.37290
2.922134 2.886615 2.851323 2.816256 2.781415 2.746800 2.712410 2.678247 2.644309 2.610597 2.577111 2.543851 2.510817 2.478008 2.445425 2.413069 2.380937 2.349032 2.317353 2.285899 2.254671 2.223669 2.192893 2.162343 2.132019 2.101920 2.072047 2.042400 2.012979 1.983784 1.954814 1.926070 1.897552 1.869260 1.841194 1.813354 1.785739 1.758350 1.731188 1.704250 1.677539 1.651054 1.624794 1.598760 1.572952 1.547370 1.522014 1.496883 1.471979 1.447300 1.422847 1.547028 1.857969 1.147460 0.809412 0.490875 0.438683 0.391782 0.239277 0.217582 0.187881 0.219132 0.177047 0.099184 -0.094803 -0.137965 -0.161921 -0.145870 -0.259138 -0.091089 -0.044506 0.009064 0.082085 0.075789 0.317899 0.314080 0.397154 0.579864 0.510180 0.696844 0.655689 0.847312 0.761879 0.976729 0.943098 1.030841 0.895391 0.956625 0.822419 0.811006 0.797336 0.706072 0.522414 0.465681 0.362975 0.322434 0.219378 0.149129 0.208968 0.167745 0.258477 0.246131 0.322895 0.285375 0.437819 0.531725 0.559608 0.578827 0.621465 0.717884 0.633113 0.656091 0.632381 0.453699 0.494079 0.285210 0.282293 0.102461 0.073930 0.012591 -0.049754 -0.090851 0.035498 0.071118 0.191123 0.270464 0.263192 0.434868 0.519743 0.488389 0.468107 0.525647 0.470483 0.500130 0.262830 0.171195 0.040890 0.007323 -0.035090 -0.093340 -0.035867 0.010702 0.093802 0.133183 0.241325 0.354392 0.349136 0.468950 0.460091 0.476348 0.350685 0.241319 0.180358 0.149533 0.060887 0.039654 0.091425 0.080709 0.113792 0.242876 0.247896 0.306529 0.387258 0.349098 0.292067 0.243326 0.232418 0.116673 0.052708 -0.013872 -0.034516 0.027946 0.056068 0.120976 0.214705 0.182936 0.309345 0.340247 0.298090 0.171938 0.174836 0.074286 0.043468 0.064682 0.013338 0.024923 0.048788 0.071763 0.071355 0.216353 0.214674 0.213568 0.142993 0.164306 0.059425 0.063002 0.020436 0.019127 0.042005 0.069027 0.122346 0.171886 0.123248 0.151826 0.165379 0.065221 0.083772 0.029943 -0.013925 0.007388 0.079791 0.073343 0.076678 0.117808 0.143078 0.154804 0.083613 0.091428 0.039588 0.006746 0.070839 0.075304 0.064760 0.099715 0.127725 0.069889 0.109948 0.055345 0.049951 0.041094 -0.030567 0.035961 0.020758 0.058681 0.079077 0.100869 0.075994 0.108195 0.038686 0.022757 0.021059 -0.004300 0.000817 0.018271 0.054294 0.019205 0.015632 0.047981 0.033646 -0.008481 0.008409 -0.019891 0.003240 -0.004523 0.005005 0.041750 0.001035 -0.005021 -0.030539 -0.022660 -0.005819 -0.018623 -0.013880 -0.002838 0.007890 0.038359 0.016721 -0.009830 0.006584 0.001434 -0.003454 0.021924 0.028254 0.062417 0.080356 -0.011113 0.020335 0.014248 -0.018344 -0.028421 -0.008410 0.020214 0.051518 0.031903 0.017527 -0.006431 0.021924 -0.037175 -0.022854 0.000692 0.020859 0.033985 0.029484 -0.006728 0.014932 0.003669 0.000790 0.009686 0.037171 0.013905 0.055665 0.049229 0.038262 -0.017819 -0.061121 -0.026306 0.030642 0.014766 0.058936 0.052942 0.022506 0.000951 -0.024200 0.018939 -0.001666 -0.000632 -0.016620 0.015504 -0.013163 -0.038941 -0.021357 0.007458 -0.043748 -0.022252 -0.092066 -0.007541 0.039686 -0.098258 -0.042511 0.018089 -0.002469 0.013816 -0.037469 -0.000495 -0.013464 -0.028128 0.041378 0.033445 -0.025384 -0.115330 -0.048043 -0.070599 -0.030115 0.046890 -0.059167 0.086619 0.159573 0.003849 -0.056509 -0.029413 0.090108 -0.051045 0.023039 -0.001328 0.037436 -0.019611 -0.000919 0.020942 0.192632 0.242626 0.054627 0.094077 -0.325327
0.072396 0.073045 0.074992 0.078236 0.082776 0.088611 0.095739 0.104156 0.113858 0.124841 0.137098 0.150621 0.165400 0.181421 0.198670 0.217128 0.236774 0.257581 0.279519 0.302553 0.326641 0.351738 0.377790 0.404736 0.432510 0.461034 0.490224 0.519986 0.550217 0.580804 0.611621 0.642535 0.673399 0.704057 0.734339 0.764066 0.793046 0.821077 0.847947 0.873432 0.897299 0.919309 0.939213 0.956757 0.971684 0.983731 0.992639 0.998146 1.000000 0.997950 0.991760 0.981205 0.966078 0.946192 0.921386 0.891526 0.856512 0.816280 0.770809 0.720120 0.664287 0.603436 0.537748 0.467467 0.392899 0.314414 0.232449 0.147509 0.060165 0.028943 0.119114 0.209583 0.299531 0.388088 0.474338 0.557332 0.636096 0.709641 0.776977 0.837129 0.889147 0.932127 0.965227 0.987683 0.998827 0.998108 0.985107 0.959557 0.921353 0.870575 0.807493 0.732584 0.646531 0.550234 0.444808 0.331576 0.212064 0.087983 0.038784 0.166210 0.292154 0.414391 0.530652 0.638669 0.736219 0.821175 0.891556 0.945580 0.981716 0.998735 0.995753 0.972280 0.928250 0.864055 0.780556 0.679104 0.561523 0.430103 0.287568 0.137034 0.018055 0.173989 0.326883 0.472769 0.607698 0.727855 0.829672 0.909945 0.965949 0.995540 0.997259 0.970404 0.915101 0.832341 0.723994 0.592800 0.442322 0.276874 0.101417 0.078577 0.257283 0.428707 0.586893 0.726126 0.841161 0.927432 0.981250 0.999995 0.982254 0.927944 0.838375 0.716259 0.565682 0.391986 0.201627 0.001946 0.199089 0.393196 0.572113 0.727972 0.853642 0.943096 0.991718 0.996583 0.956664 0.872958 0.748531 0.588461 0.399676 0.190695 0.028721 0.248005 0.456285 0.642928 0.798087 0.913260 0.981781 0.999258 0.963895 0.876698 0.741529 0.565004 0.356226 0.126375 0.111867 0.344981 0.559378 0.742204 0.882134 0.970113 0.999999 0.969049 0.878218 0.732235 0.539437 0.311374 0.062165 0.192322 0.435472 0.650997 0.824057 0.942313 0.996875 0.983036 0.900750 0.754800 0.554617 0.313764 0.049087 0.220419 0.474940 0.695309 0.864474 0.968879 0.999616 0.953280 0.832417 0.645512 0.406508 0.133862 0.150823 0.424463 0.664362 0.850118 0.965428 0.999595 0.948626 0.815786 0.611543 0.352865 0.061908 0.235791 0.513550 0.745912 0.911036 0.992830 0.982628 0.880225 0.694156 0.441125 0.144648 0.167052 0.463676 0.715778 0.897752 0.990499 0.983565 0.876451 0.678954 0.410431 0.098062 0.225827 0.527032 0.773102 0.936892 0.999663 0.953373 0.801862 0.560744 0.255981 0.078782 0.405831 0.687627 0.891137 0.991816 0.976718 0.846329 0.614872 0.308948 0.035344 0.376569 0.672905 0.887305 0.992237 0.973379 0.831771 0.584078 0.260843 0.097100 0.443685 0.733500 0.927815 0.999873 0.938779 0.751353 0.461644 0.108077 0.261499 0.596184 0.849061 0.983875 0.980414 0.837768 0.574923 0.228501 0.152144 0.511828 0.797531 0.966280 0.991812 0.868893 0.614600 0.266245 0.123870 0.496167 0.792848 0.966969 0.990054 0.857016 0.587493 0.223262 0.177982 0.551644 0.836593 0.985285 0.971920 0.797204 0.488821 0.097383 0.311694 0.668942 0.912723 0.999997 0.914215 0.668771 0.305284 0.113143 0.512681 0.821780 0.984067 0.968893 0.777442 0.443196 0.026434 0.396406 0.746592 0.957890 0.989259 0.833196 0.517836 0.102306 0.334110 0.706898 0.942770 0.994271 0.849669 0.536016 0.114508 0.331118 0.711085 0.947683 0.991399 0.831656 0.499765 0.063226 0.387658 0.758332 0.969875 0.976075 0.773943 0.405183 0.051967 0.499018
1.000000 1.000000 1.000000 1.000000 1.000000 1.000000 1.000000 1.000000 1.000000 1.000000 1.000000 1.000000 1.000000 1.000000 1.000000 1.000000 1.000000 1.000000 1.000000 1.000000 1.000000 1.000000 1.000000 1.000000 1.000000 1.000000 1.000000 1.000000 1.000000 1.000000 1.000000 1.000000 1.000000 1.000000 1.000000 1.000000 1.000000 1.000000 1.000000 1.000000 1.000000 1.000000 1.000000 1.000000 1.000000 1.000000 1.000000 1.000000 1.000000 1.000000 1.000000 1.000000 0.963882 0.963882 0.963882 0.963882 0.963882 0.963882 0.963882 0.963882 0.963882 0.963882 0.963882 0.963882 0.963882 0.963882 0.963882 0.963882 0.963882 0.963882 0.963882 0.963882 0.963882 0.963882 0.963882 0.963882 0.963882 0.963882 0.963882 0.963882 0.963882 0.963882 0.963882 0.963882 0.963882 0.955217 0.956122 0.957994 0.958668 0.958681 0.958439 0.958275 0.962265 0.963682 0.966909 0.968357 0.969813 0.967693 0.970126 0.972013 0.971845 0.972168 0.970882 0.978228 0.977534 0.977604 0.978035 0.978194 0.978224 0.978240 0.978918 0.979112 0.978802 0.978269 0.977810 0.977414 0.977283 0.977020 0.979029 0.978970 0.979531 0.979702 0.979759 0.979762 0.979841 0.980169 0.981461 0.976845 0.976501 0.975306 0.974500 0.975752 0.976652 0.976977 0.977359 0.977404 0.975513 0.972378 0.971352 0.967653 0.964935 0.964756 0.967501 0.968295 0.967149 0.965246 0.964509 0.957453 0.959351 0.958840 0.951684 0.952208 0.953393 0.953364 0.940109 0.934788 0.926155 0.923210 0.923591 0.929948 0.927482 0.918016 0.901612 0.873852 0.875981 0.873181 0.873124 0.870906 0.870692 0.868936 0.870624 0.875205 0.877188 0.873094 0.864699 0.861502 0.863417 0.864870 0.870130 0.871230 0.868037 0.861917 0.877364 0.879858 0.885652 0.882994 0.883430 0.880157 0.880287 0.880541 0.879587 0.876434 0.876543 0.881033 0.862861 0.857439 0.852320 0.847728 0.847980 0.843466 0.846451 0.844826 0.845823 0.834259 0.839391 0.833864 0.845373 0.833375 0.831166 0.822637 0.821818 0.833130 0.848283 0.876967 0.873361 0.871685 0.874308 0.866073 0.853964 0.852680 0.846921 0.833408 0.820610 0.805392 0.806952 0.799812 0.805777 0.792170 0.773674 0.777400 0.758095 0.748179 0.738693 0.747704 0.732670 0.720692 0.717133 0.711371 0.705184 0.694956 0.693520 0.686729 0.672668 0.673245 0.670584 0.659710 0.664252 0.688320 0.700449 0.681518 0.678756 0.665793 0.674876 0.666209 0.653314 0.648104 0.638372 0.662954 0.668789 0.668876 0.664105 0.605048 0.610447 0.601460 0.599508 0.622392 0.622347 0.614134 0.578570 0.577890 0.585816 0.580456 0.594024 0.601961 0.591257 0.542256 0.539344 0.533822 0.539049 0.524443 0.516675 0.529279 0.523000 0.536176 0.526586 0.498262 0.506769 0.496473 0.500446 0.488502 0.496165 0.464980 0.437314 0.452419 0.458842 0.464101 0.438256 0.426008 0.417410 0.332972 0.328910 0.309719 0.310490 0.326745 0.330771 0.337836 0.297064 0.292828 0.287374 0.313953 0.312292 0.303667 0.306051 0.304584 0.337227 0.335240 0.278331 0.282657 0.271959 0.274801 0.271405 0.251394 0.272753 0.238983 0.263525 0.206477 0.198594 0.186827 0.188380 0.234989 0.204878 0.187785 0.174385 0.191839 0.210313 0.217495 0.217758 0.221934 0.221934 0.221934 0.221934 0.221934 0.221934 0.221934 0.221934 0.221934 0.221934 0.221934 0.221934 0.221934 0.221934 0.225920 0.225920 0.225920 0.225920 0.225920 0.225920 0.225920 0.225920 0.225920 0.225920 0.225920 0.225920
0.000000 0.000000 0.000000 0.000000 0.000000 0.000000 0.000000 0.000000 0.000000 0.000000 0.000000 0.000000 0.000000 0.000000 0.000000 0.000000 0.000000 0.000000 0.000000 0.000000 0.000000 9401.000000 0.000000 0.000000 0.000000 0.000000 0.000000 0.000000 0.000000 0.000000 0.000000 0.000000 0.000000 0.000000 0.000000 0.000000 0.000000 0.000000 0.000000 0.000000 0.000000 0.000000 0.000000 0.000000 0.000000 0.000000 0.000000 0.000000 0.000000 0.000000 0.000000 0.000000 0.209657 0.209657 0.209657 0.209657 0.209657 0.209657 0.209657 0.209657 0.209657 0.209657 0.209657 0.209657 0.209657 0.209657 0.209657 0.209657 0.209657 0.209657 0.209657 0.209657 0.209657 0.209657 0.209657 0.209657 0.209657 0.209657 0.209657 0.209657 0.209657 0.209657 0.209657 0.209657 0.209657 0.244339 0.244339 0.244339 0.244339 0.244339 0.244339 0.244339 0.244339 0.244339 0.244339 0.244339 0.244339 0.244339 0.244339 0.244339 0.244339 0.244339 0.244339 0.244339 0.244339 0.244339 0.244339 0.244339 0.244339 0.244339 0.260378 0.260378 0.260378 0.260378 0.260378 0.260378 0.260378 0.260378 0.260378 0.260378 0.260378 0.260378 0.260378 0.260378 0.260378 0.260378 0.260378 0.260378 0.260378 0.260378 0.264906 0.264906 0.264906 0.264906 0.264906 0.264906 0.264906 0.264906 0.264906 0.264906 0.264906 0.264906 0.264906 0.264906 0.264906 0.264906 0.264906 0.264906 0.280056 0.280056 0.280056 0.280056 0.280056 0.280056 0.280056 0.280056 0.280056 0.280056 0.280056 0.280056 0.280056 0.280056 0.280056 0.280056 0.280056 0.280056 0.280056 0.280056 0.280056 0.280056 0.280056 0.280056 0.280056 0.280056 0.280056 0.280056 0.280056 0.280056 0.280056 0.280056 0.280056 0.280056 0.280056 0.280056 0.280056 0.280056 0.280056 0.280056 0.280056 0.280056 0.274721 0.274721 0.274721 0.274721 0.274721 0.274721 0.274721 0.274721 0.274721 0.274721 0.274721 0.274721 0.274721 0.285714 0.285714 0.285714 0.285714 0.285714 0.285714 0.285714 0.285714 0.285714 0.285714 0.285714 0.280056 0.280056 0.280056 0.280056 0.280056 0.280056 0.280056 0.280056 0.280056 0.280056 0.280056 0.274721 0.274721 0.274721 0.274721 0.274721 0.274721 0.274721 0.274721 0.274721 0.274721 0.274721 0.280056 0.280056 0.280056 0.280056 0.280056 0.280056 0.280056 0.280056 0.280056 0.280056 0.274721 0.274721 0.274721 0.274721 0.274721 0.274721 0.274721 0.274721 0.274721 0.274721 0.280056 0.280056 0.280056 0.280056 0.280056 0.280056 0.280056 0.280056 0.280056 0.274721 0.274721 0.274721 0.274721 0.274721 0.274721 0.274721 0.274721 0.274721 0.269680 0.269680 0.269680 0.269680 0.269680 0.269680 0.269680 0.269680 0.269680 0.280056 0.280056 0.280056 0.280056 0.280056 0.280056 0.280056 0.280056 0.274721 0.274721 0.274721 0.274721 0.274721 0.274721 0.274721 0.274721 0.269680 0.269680 0.269680 0.269680 0.269680 0.269680 0.269680 0.269680 0.269680 0.269680 0.269680 0.269680 0.269680 0.269680 0.269680 0.269680 0.264906 0.264906 0.264906 0.264906 0.264906 0.264906 0.264906 0.264906 0.274721 0.274721 0.274721 0.274721 0.274721 0.274721 0.274721 0.269680 0.269680 0.269680 0.269680 0.269680 0.269680 0.269680 0.264906 0.264906 0.264906 0.264906 0.264906 0.264906 0.264906 0.264906 0.264906 0.264906 0.264906 0.264906 0.264906 0.264906 0.260378 0.260378 0.260378 0.260378 0.260378 0.260378 0.260378 0.260378 0.260378 0.260378 0.260378 0.260378
