# Output from CTFFind version 4.1.9, run on 2019-11-03 18:52:16
# Input file: stack9_ub_averaged_3000.mrc ; Number of micrographs: 1
# Pixel size: 3.000 Angstroms ; acceleration voltage: 300.0 keV ; spherical aberration: 0.00 mm ; amplitude contrast: 0.07
# Box size: 512 pixels ; min. res.: 30.0 Angstroms ; max. res.: 5.0 Angstroms ; min. def.: 5000.0 um; max. def. 50000.0 um; num. frames averaged: 1
# 6 lines per micrograph: #1 - spatial frequency (1/Angstroms); #2 - 1D rotational average of spectrum (assuming no astigmatism); #3 - 1D rotational average of spectrum; #4 - CTF fit; #5 - cross-correlation between spectrum and CTF fit; #6 - 2sigma of expected cross correlation of noise
0.000000 0.000651 0.001302 0.001953 0.002604 0.003255 0.003906 0.004557 0.005208 0.005859 0.006510 0.007161 0.007812 0.008464 0.009115 0.009766 0.010417 0.011068 0.011719 0.012370 0.013021 0.013672 0.014323 0.014974 0.015625 0.016276 0.016927 0.017578 0.018229 0.018880 0.019531 0.020182 0.020833 0.021484 0.022135 0.022786 0.023438 0.024089 0.024740 0.025391 0.026042 0.026693 0.027344 0.027995 0.028646 0.029297 0.029948 0.030599 0.031250 0.031901 0.032552 0.033203 0.033854 0.034505 0.035156 0.035807 0.036458 0.037109 0.037760 0.038411 0.039062 0.039714 0.040365 0.041016 0.041667 0.042318 0.042969 0.043620 0.044271 0.044922 0.045573 0.046224 0.046875 0.047526 0.048177 0.048828 0.049479 0.050130 0.050781 0.051432 0.052083 0.052734 0.053385 0.054036 0.054688 0.055339 0.055990 0.056641 0.057292 0.057943 0.058594 0.059245 0.059896 0.060547 0.061198 0.061849 0.062500 0.063151 0.063802 0.064453 0.065104 0.065755 0.066406 0.067057 0.067708 0.068359 0.069010 0.069661 0.070312 0.070964 0.071615 0.072266 0.072917 0.073568 0.074219 0.074870 0.075521 0.076172 0.076823 0.077474 0.078125 0.078776 0.079427 0.080078 0.080729 0.081380 0.082031 0.082682 0.083333 0.083984 0.084635 0.085286 0.085938 0.086589 0.087240 0.087891 0.088542 0.089193 0.089844 0.090495 0.091146 0.091797 0.092448 0.093099 0.093750 0.094401 0.095052 0.095703 0.096354 0.097005 0.097656 0.098307 0.098958 0.099609 0.100260 0.100911 0.101562 0.102214 0.102865 0.103516 0.104167 0.104818 0.105469 0.106120 0.106771 0.107422 0.108073 0.108724 0.109375 0.110026 0.110677 0.111328 0.111979 0.112630 0.113281 0.113932 0.114583 0.115234 0.115885 0.116536 0.117188 0.117839 0.118490 0.119141 0.119792 0.120443 0.121094 0.121745 0.122396 0.123047 0.123698 0.124349 0.125000 0.125651 0.126302 0.126953 0.127604 0.128255 0.128906 0.129557 0.130208 0.130859 0.131510 0.132161 0.132812 0.133464 0.134115 0.134766 0.135417 0.136068 0.136719 0.137370 0.138021 0.138672 0.139323 0.139974 0.140625 0.141276 0.141927 0.142578 0.143229 0.143880 0.144531 0.145182 0.145833 0.146484 0.147135 0.147786 0.148438 0.149089 0.149740 0.150391 0.151042 0.151693 0.152344 0.152995 0.153646 0.154297 0.154948 0.155599 0.156250 0.156901 0.157552 0.158203 0.158854 0.159505 0.160156 0.160807 0.161458 0.162109 0.162760 0.163411 0.164062 0.164714 0.165365 0.166016 0.166667 0.167318 0.167969 0.168620 0.169271 0.169922 0.170573 0.171224 0.171875 0.172526 0.173177 0.173828 0.174479 0.175130 0.175781 0.176432 0.177083 0.177734 0.178385 0.179036 0.179688 0.180339 0.180990 0.181641 0.182292 0.182943 0.183594 0.184245 0.184896 0.185547 0.186198 0.186849 0.187500 0.188151 0.188802 0.189453 0.190104 0.190755 0.191406 0.192057 0.192708 0.193359 0.194010 0.194661 0.195312 0.195964 0.196615 0.197266 0.197917 0.198568 0.199219 0.199870 0.200521 0.201172 0.201823 0.202474 0.203125 0.203776 0.204427 0.205078 0.205729 0.206380 0.207031 0.207682 0.208333 0.208984 0.209635 0.210286 0.210938 0.211589 0.212240 0.212891 0.213542 0.214193 0.214844 0.215495 0.216146 0.216797 0.217448 0.218099 0.218750 0.219401 0.220052 0.220703 0.221354 0.222005 0.222656 0.223307 0.223958 0.224609 0.225260 0.225911 0.226562 0.227214 0.227865 0.228516 0.229167 0.229818 0.230469 0.231120 0.231771 0.232422 0.233073 0.233724 0.234375 0.235026 0.235677
       0.32681        0.32681        0.32681        0.32681        0.32681        0.32681        0.32681        0.32681        0.32681        0.32681        0.32681        0.32681        0.32681        0.32681        0.32681        0.32681        0.32681        0.32681        0.32681        0.32681        0.32681        0.32681        0.32681        0.32681        0.32681        0.32681        0.32681        0.32681        0.32681        0.32681        0.32681        0.32681        0.32681        0.32681        0.32681        0.32681        0.32681        0.32681        0.32681        0.32681        0.32681        0.32681        0.32681        0.32681        0.32681        0.32681        0.32681        0.32681        0.32681        0.32681        0.32681        0.67566        0.97526        0.37147        0.08253       -0.21841       -0.23414       -0.41106       -0.56490       -0.49356       -0.52046       -0.43042       -0.50912       -0.44693       -0.49789       -0.61845       -0.70906       -0.79211       -0.83170       -0.78440       -0.78117       -0.72811       -0.81606       -0.69936       -0.70128       -0.60348       -0.48185       -0.43532       -0.43293       -0.20015       -0.07564       -0.04593        0.10708        0.20586        0.30934        0.45555        0.58096        0.57398        0.62199        0.62997        0.57176        0.62546        0.66099        0.58580        0.47253        0.47208        0.42450        0.39000        0.29641        0.12979        0.11219       -0.01287       -0.00411       -0.06642       -0.07768       -0.01418        0.04245        0.16030        0.14734        0.24718        0.35563        0.49151        0.53383        0.56034        0.72455        0.75636        0.77323        0.68292        0.62095        0.57331        0.44928        0.36853        0.34478        0.20226        0.17003        0.06552       -0.01501        0.00780        0.03297        0.07064        0.19406        0.24549        0.32638        0.39945        0.47043        0.59340        0.64996        0.63168        0.55288        0.62686        0.53192        0.42393        0.40234        0.34299        0.15837        0.16009        0.09548        0.08600        0.06884        0.13283        0.21924        0.34827        0.44867        0.49474        0.53066        0.55225        0.49987        0.57009        0.54792        0.44274        0.36485        0.25224        0.14191        0.16202        0.14200        0.13477        0.20179        0.26469        0.30528        0.36803        0.47188        0.52229        0.52448        0.47480        0.48455        0.41337        0.40968        0.30860        0.23045        0.20406        0.17638        0.19164        0.17257        0.33230        0.40784        0.39687        0.46962        0.45734        0.46010        0.34281        0.34963        0.31504        0.28048        0.28229        0.23365        0.25113        0.30869        0.27172        0.34094        0.41632        0.46395        0.50989        0.44168        0.36336        0.33813        0.27539        0.28066        0.26631        0.24223        0.26482        0.31773        0.34475        0.36301        0.42368        0.40488        0.38239        0.36962        0.32951        0.29524        0.27455        0.24942        0.27739        0.31100        0.32884        0.34293        0.36459        0.38706        0.41623        0.36264        0.31671        0.27567        0.25062        0.27619        0.26377        0.27822        0.28209        0.34465        0.37019        0.37291        0.36058        0.31407        0.31931        0.29341        0.27559        0.29794        0.27550        0.29209        0.32958        0.36824        0.35680        0.33932        0.31094        0.30732        0.27346        0.28031        0.29084        0.28373        0.29710        0.30304        0.32488        0.35271        0.30437        0.26608        0.27486        0.26659        0.27937        0.26241        0.31979        0.31931        0.32612        0.37570        0.33369        0.35952        0.30448        0.27021        0.25714        0.27790        0.28996        0.28953        0.27585        0.30375        0.32650        0.29004        0.29459        0.29887        0.28679        0.30988        0.31216        0.34565        0.34818        0.30357        0.31708        0.29861        0.26689        0.28029        0.30773        0.29593        0.34315        0.36171        0.30939        0.32172        0.28025        0.29174        0.22441        0.24962        0.27762        0.30338        0.30902        0.35350        0.32356        0.27816        0.25993        0.29337        0.27806        0.35740        0.28527        0.29842        0.32456        0.34866        0.28200        0.22969        0.29091        0.29421        0.31460        0.25338        0.25812        0.23755        0.26682        0.22674        0.22407        0.29148        0.21734        0.28223        0.30801        0.22409        0.22833        0.27257        0.29835        0.25960        0.30429        0.24406        0.30009        0.23563        0.25470        0.24207        0.27591        0.26346        0.16507        0.23287        0.20486        0.23816        0.22830        0.22304        0.30642        0.27291        0.29484        0.28425        0.21686        0.16484        0.14555       -0.05482       -0.44495       -0.33613
2.159105 2.136516 2.114054 2.091717 2.069505 2.047419 2.025459 2.003625 1.981916 1.960332 1.938875 1.917543 1.896336 1.875256 1.854301 1.833471 1.812767 1.792189 1.771737 1.751410 1.731209 1.711133 1.691183 1.671359 1.651660 1.632087 1.612640 1.593318 1.574122 1.555051 1.536106 1.517287 1.498594 1.480026 1.461583 1.443267 1.425076 1.407010 1.389071 1.371257 1.353568 1.336005 1.318568 1.301257 1.284071 1.267010 1.250076 1.233267 1.216583 1.200026 1.183594 1.516968 1.784337 1.211252 0.921373 0.640137 0.545708 0.490151 0.281062 0.297631 0.294655 0.348936 0.262016 0.277096 0.270542 0.148861 0.019939 -0.037207 -0.143499 -0.063162 -0.128596 -0.024762 -0.176654 -0.048065 -0.103013 -0.003870 0.070862 0.123153 0.018703 0.301097 0.431217 0.353030 0.474432 0.632704 0.680150 0.701161 0.931761 0.841579 0.947301 0.877413 0.829214 0.921354 0.916198 0.800511 0.770162 0.681263 0.678162 0.587017 0.589231 0.330353 0.370127 0.199352 0.243586 0.125358 0.119614 0.164798 0.192963 0.324952 0.275661 0.305509 0.453755 0.506365 0.606415 0.591536 0.667263 0.745049 0.796646 0.729384 0.597104 0.601791 0.491497 0.382319 0.397662 0.236826 0.161776 0.121373 0.036759 -0.045349 0.087989 0.006171 0.137670 0.157642 0.251242 0.324042 0.322709 0.426555 0.555419 0.486507 0.465927 0.522050 0.423708 0.319545 0.265202 0.314634 0.089107 0.028243 0.054410 -0.043760 -0.015603 -0.014922 0.035475 0.151642 0.283537 0.258686 0.383389 0.347331 0.357533 0.371833 0.447821 0.316244 0.288317 0.128688 0.084990 0.016283 0.038704 0.003156 0.033027 0.099311 0.122231 0.193678 0.235123 0.317954 0.319941 0.288854 0.268995 0.233836 0.218907 0.162567 0.047891 0.053724 -0.029033 0.026253 -0.051962 0.033667 0.167559 0.203495 0.210092 0.196087 0.262656 0.143615 0.124751 0.123781 0.066942 0.040103 0.058705 0.010106 0.053445 0.056038 0.086954 0.122361 0.169730 0.238978 0.245172 0.118692 0.131061 0.059520 0.053303 0.036074 0.008793 0.019066 0.042881 0.103733 0.074761 0.132400 0.176731 0.125967 0.104576 0.102608 0.061599 0.031905 0.019999 -0.015266 0.043447 0.063628 0.066987 0.082665 0.112094 0.124217 0.143473 0.079600 0.057777 -0.008053 0.019264 0.007490 0.024907 0.012992 0.028274 0.111482 0.094836 0.113129 0.070118 0.034244 0.067870 0.013723 -0.003424 0.049479 0.014604 0.028450 0.070169 0.096062 0.069957 0.066197 0.045572 0.015910 0.011672 0.002863 0.017397 0.024650 0.033996 0.017727 0.056076 0.072768 0.025535 -0.021730 -0.001130 0.002911 0.001400 -0.003407 0.053281 0.030956 0.054114 0.059721 0.042056 0.081901 -0.032389 -0.016751 -0.017978 -0.015577 0.027120 -0.015026 -0.006827 0.040238 0.027290 0.005058 0.013261 0.020084 0.010476 0.038039 0.035817 0.069938 0.051818 0.014799 0.045968 0.009511 -0.008564 0.022990 -0.004203 0.027380 0.055983 0.094613 0.031856 0.049857 -0.001532 0.032029 -0.062305 -0.000584 0.007893 0.047787 0.015250 0.109545 0.061250 0.016092 0.013360 0.059800 0.040691 0.109136 0.061988 0.010662 0.096002 0.104817 0.034443 -0.017516 0.056637 0.045062 0.093688 -0.016347 -0.005146 -0.039552 0.013744 -0.044496 -0.053228 0.037515 -0.033864 0.012311 -0.020197 -0.069931 -0.048150 -0.027106 0.020625 -0.014958 0.009627 -0.022406 0.026156 -0.069720 0.032149 -0.060246 0.042723 0.017075 -0.062779 0.019437 -0.018035 0.055990 0.017481 0.061353 0.140455 0.100160 0.170525 0.255593 0.190872 0.086826 0.131977 -0.040807 -0.295651
0.072396 0.072973 0.074702 0.077584 0.081618 0.086802 0.093136 0.100616 0.109239 0.119002 0.129901 0.141928 0.155077 0.169337 0.184699 0.201149 0.218670 0.237245 0.256850 0.277462 0.299050 0.321581 0.345017 0.369314 0.394424 0.420293 0.446858 0.474054 0.501805 0.530030 0.558638 0.587533 0.616608 0.645748 0.674831 0.703723 0.732283 0.760361 0.787798 0.814426 0.840068 0.864540 0.887649 0.909198 0.928980 0.946786 0.962400 0.975607 0.986186 0.993919 0.998590 0.999986 0.997899 0.992132 0.982495 0.968815 0.950932 0.928706 0.902021 0.870782 0.834926 0.794418 0.749260 0.699488 0.645184 0.586467 0.523505 0.456514 0.385759 0.311558 0.234279 0.154346 0.072235 0.011525 0.096355 0.181627 0.266666 0.350758 0.433150 0.513060 0.589680 0.662189 0.729756 0.791556 0.846774 0.894624 0.934355 0.965264 0.986716 0.998149 0.999092 0.989177 0.968153 0.935898 0.892426 0.837906 0.772659 0.697174 0.612105 0.518277 0.416684 0.308483 0.194988 0.077658 0.041917 0.162033 0.280897 0.396648 0.507389 0.611218 0.706260 0.790705 0.862846 0.921119 0.964137 0.990734 0.999996 0.991301 0.964343 0.919160 0.856153 0.776100 0.680160 0.569870 0.447134 0.314200 0.173627 0.028251 0.118877 0.264542 0.405435 0.538232 0.659667 0.766626 0.856227 0.925907 0.973505 0.997345 0.996296 0.969840 0.918110 0.841926 0.742799 0.622932 0.485183 0.333019 0.170442 0.001897 0.167842 0.333802 0.490954 0.634367 0.759375 0.861731 0.937768 0.984548 0.999993 0.982990 0.933477 0.852491 0.742182 0.605785 0.447554 0.272652 0.087002 0.102899 0.290195 0.467920 0.629256 0.767808 0.877866 0.954660 0.994598 0.995448 0.956497 0.878634 0.764384 0.617859 0.444660 0.251680 0.046862 0.161107 0.363163 0.550251 0.713741 0.845841 0.939994 0.991228 0.996455 0.954693 0.867189 0.737441 0.571116 0.375836 0.160874 0.063258 0.285316 0.493863 0.677878 0.827352 0.933852 0.991043 0.995101 0.945016 0.842743 0.693199 0.504086 0.285539 0.049641 0.190237 0.420163 0.626458 0.796530 0.919664 0.987744 0.995837 0.942610 0.830524 0.665808 0.458183 0.220345 0.032766 0.284865 0.519374 0.720502 0.874347 0.969898 0.999874 0.961353 0.856105 0.690616 0.475771 0.226209 0.040619 0.305630 0.549466 0.753918 0.903320 0.985794 0.994282 0.927210 0.788787 0.588832 0.342184 0.067657 0.213328 0.478393 0.705993 0.877191 0.977294 0.997192 0.934270 0.792824 0.583871 0.324420 0.036140 0.256364 0.527641 0.753611 0.913747 0.993004 0.983333 0.884594 0.704787 0.459533 0.170814 0.134900 0.429043 0.683622 0.873891 0.980843 0.993199 0.908715 0.734640 0.487234 0.190376 0.126641 0.431964 0.694347 0.886399 0.987523 0.986225 0.881559 0.683490 0.412094 0.095671 0.232135 0.535856 0.782036 0.942984 0.999989 0.945628 0.784873 0.534830 0.223074 0.115273 0.441421 0.717351 0.910279 0.996663 0.965208 0.818504 0.573041 0.257530 0.090314 0.428196 0.714361 0.912797 0.997876 0.957815 0.796485 0.533274 0.200935 0.158328 0.498148 0.773967 0.948940 0.998988 0.916288 0.710683 0.408733 0.050488 0.315712 0.639674 0.876287 0.991881 0.969202 0.810189 0.536111 0.184946 0.193713 0.545568 0.819387 0.974566 0.987296 0.854447 0.594453 0.245012 0.142198 0.509027 0.799570 0.968778 0.989606 0.857559 0.591847 0.232890 0.163679 0.535442 0.823078 0.979856 0.979461 0.820637 0.527897 0.148022 0.257222 0.620996 0.882447 0.996992 0.944161 0.731520 0.393926 0.011909 0.416753
1.000000 1.000000 1.000000 1.000000 1.000000 1.000000 1.000000 1.000000 1.000000 1.000000 1.000000 1.000000 1.000000 1.000000 1.000000 1.000000 1.000000 1.000000 1.000000 1.000000 1.000000 1.000000 1.000000 1.000000 1.000000 1.000000 1.000000 1.000000 1.000000 1.000000 1.000000 1.000000 1.000000 1.000000 1.000000 1.000000 1.000000 1.000000 1.000000 1.000000 1.000000 1.000000 1.000000 1.000000 1.000000 1.000000 1.000000 1.000000 1.000000 1.000000 1.000000 1.000000 0.936751 0.936751 0.936751 0.936751 0.936751 0.936751 0.936751 0.936751 0.936751 0.936751 0.936751 0.936751 0.936751 0.936751 0.936751 0.936751 0.936751 0.936751 0.936751 0.936751 0.936751 0.936751 0.936751 0.936751 0.936751 0.936751 0.936751 0.936751 0.936751 0.936751 0.936751 0.936751 0.936751 0.936751 0.936751 0.936751 0.936751 0.936751 0.924541 0.927258 0.924854 0.924691 0.923726 0.930362 0.934036 0.934769 0.935165 0.936477 0.937983 0.941076 0.942288 0.945377 0.949576 0.957784 0.955565 0.953088 0.955825 0.952107 0.965244 0.965834 0.965821 0.966544 0.967140 0.967832 0.966163 0.967924 0.968396 0.967874 0.966823 0.966292 0.963498 0.962925 0.962873 0.963389 0.963039 0.963538 0.964923 0.964746 0.964820 0.964393 0.963812 0.960294 0.958958 0.957974 0.956047 0.954408 0.960899 0.960261 0.959548 0.959230 0.959367 0.959336 0.959370 0.958579 0.957515 0.956408 0.955890 0.955430 0.954335 0.955713 0.958149 0.958888 0.949344 0.941457 0.937461 0.939798 0.936809 0.932114 0.934075 0.919369 0.906424 0.900812 0.892953 0.890512 0.890642 0.894219 0.894042 0.888956 0.882549 0.877268 0.881558 0.879980 0.885018 0.881269 0.863776 0.859218 0.850013 0.851862 0.861156 0.867209 0.870645 0.868148 0.864375 0.849445 0.844627 0.846799 0.848376 0.847955 0.848100 0.843166 0.844030 0.847247 0.858604 0.861766 0.865922 0.868606 0.869052 0.871746 0.873866 0.870511 0.866641 0.868542 0.870691 0.864023 0.867727 0.864270 0.867526 0.864068 0.856364 0.859094 0.862152 0.860654 0.858772 0.851025 0.849193 0.855909 0.862012 0.847165 0.845163 0.841124 0.836135 0.835731 0.837334 0.840702 0.840343 0.839469 0.843636 0.843309 0.840920 0.844218 0.820639 0.832876 0.835439 0.829814 0.801347 0.796114 0.788847 0.796195 0.792135 0.789440 0.774920 0.774603 0.774021 0.780626 0.781561 0.764545 0.749986 0.758076 0.765498 0.766789 0.741265 0.692521 0.685028 0.669641 0.649783 0.650714 0.645349 0.652109 0.644968 0.636175 0.636771 0.649873 0.655059 0.638934 0.625295 0.621907 0.639136 0.618159 0.615721 0.623931 0.621317 0.638471 0.637849 0.640811 0.616141 0.621013 0.613339 0.606997 0.612468 0.600375 0.602752 0.593741 0.590631 0.567284 0.567670 0.568077 0.591476 0.557179 0.552600 0.569056 0.558341 0.554744 0.573462 0.553643 0.557279 0.561792 0.545325 0.531287 0.506417 0.515511 0.534414 0.512426 0.490066 0.483591 0.481915 0.455510 0.475764 0.527805 0.540031 0.527732 0.450761 0.433547 0.438366 0.439512 0.442486 0.392392 0.368193 0.361905 0.309844 0.290929 0.301600 0.296785 0.256032 0.231587 0.250829 0.181669 0.176646 0.189368 0.172153 0.163928 0.113905 0.124108 0.194944 0.197664 0.197664 0.197664 0.197664 0.197664 0.197664 0.197664 0.217453 0.217453 0.217453 0.217453 0.217453 0.217453 0.217453 0.217453 0.223842 0.223842 0.223842 0.223842 0.223842 0.223842 0.223842 0.223842 0.223842 0.223842 0.223842 0.223842 0.223842
0.000000 0.000000 0.000000 0.000000 0.000000 0.000000 0.000000 0.000000 0.000000 0.000000 0.000000 0.000000 0.000000 0.000000 0.000000 0.000000 0.000000 0.000000 0.000000 0.000000 0.000000 9401.000000 0.000000 0.000000 0.000000 0.000000 0.000000 0.000000 0.000000 0.000000 0.000000 0.000000 0.000000 0.000000 0.000000 0.000000 0.000000 0.000000 0.000000 0.000000 0.000000 0.000000 0.000000 0.000000 0.000000 0.000000 0.000000 0.000000 0.000000 0.000000 0.000000 0.000000 0.203069 0.203069 0.203069 0.203069 0.203069 0.203069 0.203069 0.203069 0.203069 0.203069 0.203069 0.203069 0.203069 0.203069 0.203069 0.203069 0.203069 0.203069 0.203069 0.203069 0.203069 0.203069 0.203069 0.203069 0.203069 0.203069 0.203069 0.203069 0.203069 0.203069 0.203069 0.203069 0.203069 0.203069 0.203069 0.203069 0.203069 0.203069 0.234082 0.234082 0.234082 0.234082 0.234082 0.234082 0.234082 0.234082 0.234082 0.234082 0.234082 0.234082 0.234082 0.234082 0.234082 0.234082 0.234082 0.234082 0.234082 0.234082 0.234082 0.234082 0.234082 0.234082 0.234082 0.234082 0.234082 0.256074 0.256074 0.256074 0.256074 0.256074 0.256074 0.256074 0.256074 0.256074 0.256074 0.256074 0.256074 0.256074 0.256074 0.256074 0.256074 0.256074 0.256074 0.256074 0.256074 0.256074 0.264906 0.264906 0.264906 0.264906 0.264906 0.264906 0.264906 0.264906 0.264906 0.264906 0.264906 0.264906 0.264906 0.264906 0.264906 0.264906 0.264906 0.264906 0.264906 0.264906 0.264906 0.264906 0.264906 0.264906 0.264906 0.264906 0.264906 0.264906 0.264906 0.264906 0.264906 0.264906 0.264906 0.264906 0.264906 0.269680 0.269680 0.269680 0.269680 0.269680 0.269680 0.269680 0.269680 0.269680 0.269680 0.269680 0.269680 0.269680 0.269680 0.269680 0.269680 0.269680 0.269680 0.269680 0.269680 0.269680 0.269680 0.269680 0.269680 0.269680 0.269680 0.269680 0.269680 0.269680 0.274721 0.274721 0.274721 0.274721 0.274721 0.274721 0.274721 0.274721 0.274721 0.274721 0.274721 0.274721 0.274721 0.274721 0.274721 0.274721 0.274721 0.274721 0.274721 0.274721 0.274721 0.274721 0.274721 0.274721 0.274721 0.269680 0.269680 0.269680 0.269680 0.269680 0.269680 0.269680 0.269680 0.269680 0.269680 0.269680 0.269680 0.274721 0.274721 0.274721 0.274721 0.274721 0.274721 0.274721 0.274721 0.274721 0.274721 0.274721 0.269680 0.269680 0.269680 0.269680 0.269680 0.269680 0.269680 0.269680 0.269680 0.269680 0.269680 0.274721 0.274721 0.274721 0.274721 0.274721 0.274721 0.274721 0.274721 0.274721 0.274721 0.269680 0.269680 0.269680 0.269680 0.269680 0.269680 0.269680 0.269680 0.269680 0.269680 0.264906 0.264906 0.264906 0.264906 0.264906 0.264906 0.264906 0.264906 0.264906 0.264906 0.269680 0.269680 0.269680 0.269680 0.269680 0.269680 0.269680 0.269680 0.269680 0.264906 0.264906 0.264906 0.264906 0.264906 0.264906 0.264906 0.264906 0.264906 0.274721 0.274721 0.274721 0.274721 0.274721 0.274721 0.274721 0.274721 0.256074 0.256074 0.256074 0.256074 0.256074 0.256074 0.256074 0.256074 0.256074 0.269680 0.269680 0.269680 0.269680 0.269680 0.269680 0.269680 0.269680 0.264906 0.264906 0.264906 0.264906 0.264906 0.264906 0.264906 0.264906 0.260378 0.260378 0.260378 0.260378 0.260378 0.260378 0.260378 0.260378 0.256074 0.256074 0.256074 0.256074 0.256074 0.256074 0.256074 0.256074 0.256074 0.256074 0.256074 0.256074 0.256074
