# Output from CTFFind version 4.1.9, run on 2019-11-03 18:51:31
# Input file: stack7_ub_averaged_750.mrc ; Number of micrographs: 1
# Pixel size: 3.000 Angstroms ; acceleration voltage: 300.0 keV ; spherical aberration: 0.00 mm ; amplitude contrast: 0.07
# Box size: 512 pixels ; min. res.: 30.0 Angstroms ; max. res.: 5.0 Angstroms ; min. def.: 5000.0 um; max. def. 50000.0 um; num. frames averaged: 1
# 6 lines per micrograph: #1 - spatial frequency (1/Angstroms); #2 - 1D rotational average of spectrum (assuming no astigmatism); #3 - 1D rotational average of spectrum; #4 - CTF fit; #5 - cross-correlation between spectrum and CTF fit; #6 - 2sigma of expected cross correlation of noise
0.000000 0.000651 0.001302 0.001953 0.002604 0.003255 0.003906 0.004557 0.005208 0.005859 0.006510 0.007161 0.007812 0.008464 0.009115 0.009766 0.010417 0.011068 0.011719 0.012370 0.013021 0.013672 0.014323 0.014974 0.015625 0.016276 0.016927 0.017578 0.018229 0.018880 0.019531 0.020182 0.020833 0.021484 0.022135 0.022786 0.023438 0.024089 0.024740 0.025391 0.026042 0.026693 0.027344 0.027995 0.028646 0.029297 0.029948 0.030599 0.031250 0.031901 0.032552 0.033203 0.033854 0.034505 0.035156 0.035807 0.036458 0.037109 0.037760 0.038411 0.039062 0.039714 0.040365 0.041016 0.041667 0.042318 0.042969 0.043620 0.044271 0.044922 0.045573 0.046224 0.046875 0.047526 0.048177 0.048828 0.049479 0.050130 0.050781 0.051432 0.052083 0.052734 0.053385 0.054036 0.054688 0.055339 0.055990 0.056641 0.057292 0.057943 0.058594 0.059245 0.059896 0.060547 0.061198 0.061849 0.062500 0.063151 0.063802 0.064453 0.065104 0.065755 0.066406 0.067057 0.067708 0.068359 0.069010 0.069661 0.070312 0.070964 0.071615 0.072266 0.072917 0.073568 0.074219 0.074870 0.075521 0.076172 0.076823 0.077474 0.078125 0.078776 0.079427 0.080078 0.080729 0.081380 0.082031 0.082682 0.083333 0.083984 0.084635 0.085286 0.085938 0.086589 0.087240 0.087891 0.088542 0.089193 0.089844 0.090495 0.091146 0.091797 0.092448 0.093099 0.093750 0.094401 0.095052 0.095703 0.096354 0.097005 0.097656 0.098307 0.098958 0.099609 0.100260 0.100911 0.101562 0.102214 0.102865 0.103516 0.104167 0.104818 0.105469 0.106120 0.106771 0.107422 0.108073 0.108724 0.109375 0.110026 0.110677 0.111328 0.111979 0.112630 0.113281 0.113932 0.114583 0.115234 0.115885 0.116536 0.117188 0.117839 0.118490 0.119141 0.119792 0.120443 0.121094 0.121745 0.122396 0.123047 0.123698 0.124349 0.125000 0.125651 0.126302 0.126953 0.127604 0.128255 0.128906 0.129557 0.130208 0.130859 0.131510 0.132161 0.132812 0.133464 0.134115 0.134766 0.135417 0.136068 0.136719 0.137370 0.138021 0.138672 0.139323 0.139974 0.140625 0.141276 0.141927 0.142578 0.143229 0.143880 0.144531 0.145182 0.145833 0.146484 0.147135 0.147786 0.148438 0.149089 0.149740 0.150391 0.151042 0.151693 0.152344 0.152995 0.153646 0.154297 0.154948 0.155599 0.156250 0.156901 0.157552 0.158203 0.158854 0.159505 0.160156 0.160807 0.161458 0.162109 0.162760 0.163411 0.164062 0.164714 0.165365 0.166016 0.166667 0.167318 0.167969 0.168620 0.169271 0.169922 0.170573 0.171224 0.171875 0.172526 0.173177 0.173828 0.174479 0.175130 0.175781 0.176432 0.177083 0.177734 0.178385 0.179036 0.179688 0.180339 0.180990 0.181641 0.182292 0.182943 0.183594 0.184245 0.184896 0.185547 0.186198 0.186849 0.187500 0.188151 0.188802 0.189453 0.190104 0.190755 0.191406 0.192057 0.192708 0.193359 0.194010 0.194661 0.195312 0.195964 0.196615 0.197266 0.197917 0.198568 0.199219 0.199870 0.200521 0.201172 0.201823 0.202474 0.203125 0.203776 0.204427 0.205078 0.205729 0.206380 0.207031 0.207682 0.208333 0.208984 0.209635 0.210286 0.210938 0.211589 0.212240 0.212891 0.213542 0.214193 0.214844 0.215495 0.216146 0.216797 0.217448 0.218099 0.218750 0.219401 0.220052 0.220703 0.221354 0.222005 0.222656 0.223307 0.223958 0.224609 0.225260 0.225911 0.226562 0.227214 0.227865 0.228516 0.229167 0.229818 0.230469 0.231120 0.231771 0.232422 0.233073 0.233724 0.234375 0.235026 0.235677
       0.35030        0.35030        0.35030        0.35030        0.35030        0.35030        0.35030        0.35030        0.35030        0.35030        0.35030        0.35030        0.35030        0.35030        0.35030        0.35030        0.35030        0.35030        0.35030        0.35030        0.35030        0.35030        0.35030        0.35030        0.35030        0.35030        0.35030        0.35030        0.35030        0.35030        0.35030        0.35030        0.35030        0.35030        0.35030        0.35030        0.35030        0.35030        0.35030        0.35030        0.35030        0.35030        0.35030        0.35030        0.35030        0.35030        0.35030        0.35030        0.35030        0.35030        0.35030        0.53976        0.93091        0.45360        0.23817        0.27537       -0.01350        0.07953       -0.07030        0.03002        0.19927        0.15678        0.35803        0.24133        0.05648       -0.03804       -0.03727       -0.04150       -0.20449       -0.25104       -0.17436       -0.19139       -0.14352       -0.12702       -0.30931       -0.30208       -0.32917       -0.40292       -0.47059       -0.39507       -0.28198       -0.31626       -0.33612       -0.41270       -0.23382       -0.17843       -0.19186       -0.17888       -0.02770        0.03557        0.15411        0.28636        0.33402        0.43233        0.51729        0.59757        0.59669        0.62883        0.59950        0.57035        0.66415        0.67255        0.72745        0.79917        0.64426        0.53603        0.53580        0.49479        0.43167        0.30033        0.28873        0.21723        0.12262        0.03568        0.05622        0.07177        0.06998        0.02465        0.05652        0.06806        0.15388        0.16630        0.30618        0.39114        0.34704        0.52497        0.59885        0.57684        0.63517        0.72377        0.69127        0.67636        0.66449        0.53746        0.52141        0.41347        0.42158        0.29619        0.26102        0.23159        0.15659        0.08855        0.02987        0.06607        0.16502        0.19186        0.20956        0.24497        0.37017        0.42951        0.46553        0.57035        0.57442        0.58031        0.58981        0.57167        0.53310        0.47438        0.47627        0.37872        0.26612        0.24753        0.34242        0.22294        0.11177        0.19776        0.21964        0.23451        0.33241        0.34759        0.41391        0.45971        0.48820        0.53022        0.50464        0.51916        0.48230        0.50874        0.41884        0.44320        0.37051        0.28933        0.26913        0.22626        0.19735        0.26421        0.26988        0.31460        0.32084        0.38615        0.38178        0.48392        0.47690        0.46036        0.44347        0.46601        0.43238        0.31519        0.33722        0.30837        0.31005        0.28067        0.25905        0.26567        0.33046        0.35686        0.36405        0.36961        0.40285        0.45495        0.45627        0.39436        0.41458        0.35723        0.28582        0.29852        0.32979        0.32111        0.29417        0.27731        0.32865        0.36956        0.37367        0.34665        0.39718        0.40693        0.41023        0.36401        0.35587        0.35120        0.30687        0.30062        0.30429        0.29362        0.28848        0.32004        0.35385        0.39356        0.34603        0.39590        0.36769        0.37480        0.34876        0.32079        0.33967        0.33029        0.32379        0.30282        0.30571        0.30027        0.32191        0.31546        0.35496        0.35188        0.34034        0.32477        0.28829        0.30893        0.32943        0.29794        0.28490        0.27461        0.28844        0.29639        0.35696        0.36371        0.34872        0.36896        0.38346        0.30911        0.30794        0.37489        0.30631        0.29587        0.35819        0.35939        0.33695        0.30383        0.34679        0.37413        0.34381        0.36950        0.32385        0.36485        0.29948        0.31615        0.28883        0.34005        0.33084        0.30119        0.31022        0.35755        0.35339        0.33904        0.35191        0.34315        0.28413        0.27263        0.29150        0.31709        0.31680        0.31810        0.32470        0.26437        0.32087        0.35420        0.31115        0.28999        0.33464        0.30538        0.29913        0.31081        0.34626        0.34393        0.31801        0.29614        0.28475        0.28889        0.32286        0.32290        0.27989        0.26456        0.29945        0.33332        0.31039        0.27170        0.29116        0.26096        0.24344        0.23812        0.26178        0.31745        0.35432        0.26532        0.24700        0.31531        0.32462        0.30445        0.30224        0.27878        0.27125        0.23752        0.34339        0.26764        0.24221        0.24085        0.27270        0.18026        0.18632        0.28723        0.22522        0.25116        0.24195        0.32504        0.27400        0.22431        0.26471        0.15605        0.05572        0.03587       -0.06548       -0.52058       -0.89677
2.203156 2.182933 2.162807 2.142780 2.122852 2.103022 2.083291 2.063657 2.044123 2.024686 2.005349 1.986109 1.966968 1.947925 1.928981 1.910135 1.891388 1.872739 1.854188 1.835736 1.817383 1.799127 1.780970 1.762912 1.744952 1.727090 1.709327 1.691662 1.674096 1.656628 1.639259 1.621987 1.604815 1.587740 1.570765 1.553887 1.537108 1.520428 1.503845 1.487362 1.470976 1.454689 1.438501 1.422411 1.406419 1.390526 1.374731 1.359035 1.343436 1.327937 1.312536 1.367873 2.169765 1.546699 1.025806 1.269839 0.755172 0.882004 0.617360 0.694306 0.965171 0.897048 1.123048 1.023645 0.708248 0.629974 0.483911 0.552910 0.369087 0.115294 0.400860 0.294368 0.349668 0.306466 0.128083 0.055566 0.067358 -0.030681 -0.256841 -0.123357 0.023245 0.059521 -0.071954 -0.216791 0.041519 0.081414 0.093374 0.092309 0.275521 0.319391 0.457670 0.629588 0.730600 0.834370 0.908678 1.079948 1.009180 1.042958 1.101536 0.953604 1.034321 1.085171 1.154505 1.249992 1.097629 0.923714 0.823100 0.746259 0.765916 0.562808 0.453008 0.488199 0.211988 0.200737 0.056846 0.146497 0.173094 0.077271 0.077546 0.074148 0.194207 0.174945 0.345787 0.532986 0.434965 0.548173 0.841360 0.667555 0.794375 0.870044 0.889220 0.821581 0.825813 0.679433 0.657081 0.338154 0.581269 0.302971 0.234530 0.191509 0.121503 -0.024404 -0.058367 -0.114251 0.002413 0.037775 0.135469 0.066138 0.222786 0.381282 0.405773 0.479172 0.559628 0.553517 0.691212 0.484720 0.588471 0.430664 0.454906 0.289076 0.191124 0.056825 0.221516 0.117162 -0.069763 -0.035394 0.073713 -0.018366 0.141326 0.197072 0.207272 0.331884 0.362116 0.395249 0.412402 0.452340 0.399848 0.486782 0.324522 0.382356 0.297188 0.118559 0.190326 0.031393 -0.021670 0.101709 0.069191 0.101077 0.127238 0.272394 0.207623 0.234086 0.420202 0.321423 0.295200 0.226207 0.360807 0.126993 0.113142 0.116657 0.033747 0.088829 -0.004628 -0.022134 0.047943 0.107606 0.144758 0.121490 0.114151 0.215560 0.268911 0.196929 0.159735 0.150466 0.023278 -0.004234 0.014688 0.036229 0.055946 -0.058217 -0.024263 0.081431 0.107899 0.071706 0.057208 0.125497 0.109760 0.106533 0.017537 0.048474 -0.021057 -0.008863 -0.046077 -0.045196 -0.045488 -0.078764 -0.010504 0.088152 0.044882 0.004916 0.130562 0.051682 0.049057 0.054683 -0.025909 0.016152 0.005335 0.022372 -0.031535 -0.029165 -0.013812 -0.021921 0.027114 0.040464 0.094857 0.035675 -0.003607 -0.022358 0.030227 0.057485 -0.084054 0.022560 -0.018905 -0.018892 0.008196 0.086624 0.088027 0.075389 0.111563 0.145807 -0.015340 0.032485 0.184695 -0.047962 0.042843 0.110587 0.093144 0.063686 0.013680 0.108369 0.104259 0.102749 0.111252 0.051812 0.126596 0.063552 0.026133 0.024701 0.071969 0.083850 0.022370 0.059714 0.076130 0.019758 0.108067 0.086833 0.008901 -0.044401 -0.011330 0.008099 0.014780 -0.000378 0.032915 -0.024239 -0.040549 -0.005601 0.061737 -0.021741 -0.026135 0.041632 -0.032416 -0.014072 -0.018885 0.054076 0.068248 -0.018187 -0.000937 -0.031269 -0.034226 0.037246 0.026643 -0.064070 -0.067748 -0.010445 0.048388 -0.067221 -0.066473 -0.071584 -0.080494 -0.137528 -0.090963 -0.116750 0.036581 0.070853 -0.113306 -0.061704 -0.021461 0.043528 0.021584 0.012480 0.010322 -0.032017 -0.053718 0.168244 0.006236 0.024281 -0.007529 0.058816 -0.102911 -0.010481 0.107450 0.083792 0.048943 0.027035 0.218317 0.365044 0.305350 0.407262 0.227683 -0.042435 0.063284 -0.083774 -1.211831
0.072396 0.072856 0.074236 0.076536 0.079755 0.083892 0.088946 0.094917 0.101802 0.109599 0.118305 0.127918 0.138432 0.149842 0.162143 0.175327 0.189385 0.204308 0.220084 0.236698 0.254136 0.272379 0.291408 0.311198 0.331725 0.352960 0.374869 0.397418 0.420566 0.444270 0.468483 0.493151 0.518218 0.543622 0.569296 0.595168 0.621160 0.647190 0.673168 0.699002 0.724589 0.749825 0.774599 0.798793 0.822284 0.844946 0.866644 0.887242 0.906597 0.924564 0.940992 0.955732 0.968626 0.979522 0.988262 0.994690 0.998654 1.000000 0.998582 0.994257 0.986888 0.976348 0.962518 0.945291 0.924571 0.900278 0.872349 0.840737 0.805415 0.766379 0.723648 0.677265 0.627301 0.573853 0.517051 0.457051 0.394047 0.328260 0.259949 0.189404 0.116951 0.042947 0.032216 0.108114 0.184293 0.260269 0.335535 0.409555 0.481778 0.551634 0.618540 0.681907 0.741144 0.795663 0.844887 0.888253 0.925223 0.955291 0.977986 0.992886 0.999620 0.997879 0.987422 0.968083 0.939782 0.902523 0.856408 0.801637 0.738513 0.667446 0.588953 0.503660 0.412297 0.315702 0.214808 0.110645 0.004326 0.102959 0.209958 0.315369 0.417853 0.516055 0.608619 0.694211 0.771534 0.839355 0.896527 0.942006 0.974878 0.994378 0.999911 0.991068 0.967647 0.929666 0.877371 0.811247 0.732023 0.640669 0.538393 0.426633 0.307040 0.181463 0.051920 0.079425 0.210302 0.338367 0.461247 0.576585 0.682083 0.775556 0.854976 0.918526 0.964645 0.992069 0.999879 0.987529 0.954881 0.902221 0.830275 0.740214 0.633644 0.512589 0.379465 0.237039 0.088377 0.063213 0.214251 0.361164 0.500373 0.628378 0.741851 0.837727 0.913299 0.966298 0.994973 0.998161 0.975336 0.926658 0.852988 0.755897 0.637646 0.501154 0.349936 0.188026 0.019876 0.149753 0.315930 0.473691 0.618193 0.744863 0.849553 0.928692 0.979411 0.999670 0.988349 0.945320 0.871489 0.768802 0.640214 0.489632 0.321803 0.142194 0.043188 0.227979 0.405682 0.569889 0.714521 0.834061 0.923782 0.979944 0.999973 0.982600 0.927949 0.837584 0.714493 0.563014 0.388714 0.198198 0.001119 0.201293 0.394168 0.571693 0.726280 0.851136 0.940575 0.990302 0.997646 0.961723 0.883536 0.765986 0.613802 0.433376 0.232535 0.020208 0.193952 0.399993 0.588135 0.749242 0.875274 0.959723 0.997962 0.987543 0.928375 0.822797 0.675537 0.493533 0.285646 0.062252 0.165260 0.385045 0.585431 0.755549 0.885929 0.969066 0.999879 0.976063 0.898292 0.770262 0.598570 0.392415 0.163142 0.076356 0.312342 0.531022 0.719357 0.865863 0.961329 0.999450 0.977275 0.895484 0.758438 0.574000 0.353147 0.109340 0.142253 0.385691 0.605266 0.786525 0.917261 0.988358 0.994483 0.934535 0.811826 0.633970 0.412462 0.161995 0.100485 0.356898 0.589269 0.781015 0.918134 0.990290 0.991636 0.921353 0.783825 0.588441 0.349033 0.082930 0.190241 0.450002 0.676535 0.852239 0.963122 0.999978 0.959211 0.843252 0.660504 0.424810 0.154470 0.129131 0.403190 0.645308 0.835354 0.957166 0.999990 0.959502 0.838318 0.645920 0.398007 0.115279 0.178238 0.457205 0.697156 0.876682 0.979374 0.995406 0.922552 0.766554 0.540764 0.265105 0.035635 0.333978 0.602251 0.815181 0.952300 0.999999 0.952958 0.814832 0.598080 0.322952 0.015664 0.294024 0.575700 0.801266 0.947804 0.999977 0.951725 0.807069 0.579907 0.292778 0.025270 0.341581 0.623216 0.840400 0.969728 0.996775 0.917807 0.740396 0.482822 0.172303 0.157798 0.471520 0.734200
1.000000 1.000000 1.000000 1.000000 1.000000 1.000000 1.000000 1.000000 1.000000 1.000000 1.000000 1.000000 1.000000 1.000000 1.000000 1.000000 1.000000 1.000000 1.000000 1.000000 1.000000 1.000000 1.000000 1.000000 1.000000 1.000000 1.000000 1.000000 1.000000 1.000000 1.000000 1.000000 1.000000 1.000000 1.000000 1.000000 1.000000 1.000000 1.000000 1.000000 1.000000 1.000000 1.000000 1.000000 1.000000 1.000000 1.000000 1.000000 1.000000 1.000000 1.000000 1.000000 0.889908 0.889908 0.889908 0.889908 0.889908 0.879984 0.879984 0.879984 0.879984 0.879984 0.879984 0.879984 0.879984 0.879984 0.879984 0.879984 0.879984 0.879984 0.879984 0.879984 0.879984 0.879984 0.879984 0.879984 0.879984 0.879984 0.879984 0.879984 0.879984 0.879984 0.879984 0.879984 0.879984 0.879984 0.879984 0.879984 0.879984 0.879984 0.879984 0.879984 0.879984 0.879984 0.879984 0.879984 0.879984 0.879984 0.879984 0.879984 0.879984 0.923445 0.924487 0.926864 0.927782 0.927594 0.927338 0.924095 0.926041 0.943739 0.943731 0.945075 0.946192 0.947636 0.948650 0.950961 0.951172 0.953817 0.956747 0.957099 0.960900 0.973247 0.969571 0.964365 0.962215 0.962879 0.963658 0.963021 0.961291 0.961403 0.963039 0.962881 0.960784 0.960304 0.959575 0.959517 0.959518 0.959425 0.959343 0.959418 0.959404 0.959058 0.959127 0.958276 0.958207 0.958107 0.956753 0.956385 0.957319 0.958910 0.958978 0.956732 0.957633 0.955902 0.956056 0.956001 0.953611 0.954442 0.954529 0.955161 0.954515 0.951863 0.943560 0.941605 0.928425 0.921053 0.919158 0.918144 0.917021 0.921862 0.921620 0.920687 0.919092 0.916101 0.905426 0.897454 0.877583 0.873084 0.875976 0.879864 0.876755 0.876751 0.865176 0.858526 0.859116 0.857122 0.843114 0.844167 0.840438 0.837315 0.834938 0.826960 0.813001 0.817773 0.824844 0.820793 0.820058 0.824599 0.815622 0.816604 0.815876 0.817793 0.822130 0.821436 0.822101 0.815572 0.810154 0.800444 0.799514 0.788152 0.794894 0.793218 0.794029 0.775596 0.775567 0.769536 0.755986 0.761005 0.773317 0.761220 0.767257 0.763837 0.750500 0.721532 0.709910 0.703802 0.713021 0.711745 0.709795 0.683329 0.693982 0.657050 0.658155 0.645763 0.634047 0.633605 0.641312 0.639007 0.646100 0.656596 0.638779 0.629111 0.569808 0.583029 0.572781 0.564879 0.566146 0.561443 0.542809 0.564592 0.555990 0.554791 0.556893 0.554908 0.520608 0.516746 0.500097 0.508441 0.518209 0.515216 0.518793 0.480215 0.467769 0.466513 0.448652 0.437556 0.425914 0.430142 0.430669 0.440037 0.451740 0.455468 0.453429 0.454907 0.452443 0.412770 0.373068 0.339663 0.315157 0.322755 0.298592 0.323909 0.331017 0.326016 0.320922 0.336079 0.329626 0.333227 0.333191 0.356315 0.291709 0.285076 0.277172 0.286828 0.264785 0.242279 0.259019 0.244160 0.227307 0.234698 0.235573 0.296005 0.278798 0.242624 0.236427 0.273359 0.244412 0.243682 0.254610 0.268583 0.268177 0.285151 0.249013 0.252807 0.248390 0.228856 0.195710 0.219026 0.224298 0.258096 0.257933 0.237629 0.166299 0.133465 0.137558 0.106550 0.113694 0.132155 0.159869 0.166496 0.102168 0.128115 0.128115 0.128115 0.128115 0.128115 0.093153 0.093153 0.093153 0.093153 0.093153 0.093153 0.093153 0.093153 0.093153 0.093153 0.089834 0.089834 0.089834 0.089834 0.089834 0.089834 0.089834 0.089834 0.089834 0.089834 0.089834 0.089834 0.089834 0.089834 0.089834 0.089834 0.089834
0.000000 0.000000 0.000000 0.000000 0.000000 0.000000 0.000000 0.000000 0.000000 0.000000 0.000000 0.000000 0.000000 0.000000 0.000000 0.000000 0.000000 0.000000 0.000000 0.000000 0.000000 0.000000 0.000000 0.000000 0.000000 0.000000 0.000000 0.000000 0.000000 0.000000 0.000000 0.000000 0.000000 0.000000 0.000000 0.000000 0.000000 0.000000 0.000000 0.000000 0.000000 0.000000 0.000000 0.000000 0.000000 0.000000 0.000000 0.000000 0.000000 0.000000 0.000000 0.000000 0.177471 0.177471 0.177471 0.177471 0.177471 0.191565 0.191565 0.191565 0.191565 0.191565 0.191565 0.191565 0.191565 0.191565 0.191565 0.191565 0.191565 0.191565 0.191565 0.191565 0.191565 0.191565 0.191565 0.191565 0.191565 0.191565 0.191565 0.191565 0.191565 0.191565 0.191565 0.191565 0.191565 0.191565 0.191565 0.191565 0.191565 0.191565 0.191565 0.191565 0.191565 0.191565 0.191565 0.191565 0.191565 0.191565 0.191565 0.191565 0.191565 0.225018 0.225018 0.225018 0.225018 0.225018 0.225018 0.225018 0.225018 0.225018 0.225018 0.225018 0.225018 0.225018 0.225018 0.225018 0.225018 0.225018 0.225018 0.225018 0.225018 0.225018 0.225018 0.225018 0.225018 0.225018 0.225018 0.225018 0.225018 0.225018 0.237356 0.237356 0.237356 0.237356 0.237356 0.237356 0.237356 0.237356 0.237356 0.237356 0.237356 0.237356 0.237356 0.237356 0.237356 0.237356 0.237356 0.237356 0.237356 0.237356 0.237356 0.237356 0.237356 0.237356 0.244339 0.244339 0.244339 0.244339 0.244339 0.244339 0.244339 0.244339 0.244339 0.244339 0.244339 0.244339 0.244339 0.244339 0.244339 0.244339 0.244339 0.244339 0.244339 0.244339 0.244339 0.248069 0.248069 0.248069 0.248069 0.248069 0.248069 0.248069 0.248069 0.248069 0.248069 0.248069 0.248069 0.248069 0.248069 0.248069 0.248069 0.248069 0.248069 0.248069 0.256074 0.256074 0.256074 0.256074 0.256074 0.256074 0.256074 0.256074 0.256074 0.256074 0.256074 0.256074 0.256074 0.256074 0.256074 0.256074 0.256074 0.264906 0.264906 0.264906 0.264906 0.264906 0.264906 0.264906 0.264906 0.264906 0.264906 0.264906 0.264906 0.264906 0.264906 0.264906 0.256074 0.256074 0.256074 0.256074 0.256074 0.256074 0.256074 0.256074 0.256074 0.256074 0.256074 0.256074 0.256074 0.256074 0.256074 0.256074 0.256074 0.256074 0.256074 0.256074 0.256074 0.256074 0.256074 0.256074 0.256074 0.256074 0.256074 0.256074 0.256074 0.260378 0.260378 0.260378 0.260378 0.260378 0.260378 0.260378 0.260378 0.260378 0.260378 0.260378 0.260378 0.260378 0.264906 0.264906 0.264906 0.264906 0.264906 0.264906 0.264906 0.264906 0.264906 0.264906 0.264906 0.264906 0.260378 0.260378 0.260378 0.260378 0.260378 0.260378 0.260378 0.260378 0.260378 0.260378 0.260378 0.260378 0.264906 0.264906 0.264906 0.264906 0.264906 0.264906 0.264906 0.264906 0.264906 0.264906 0.264906 0.248069 0.248069 0.248069 0.248069 0.248069 0.248069 0.248069 0.248069 0.248069 0.248069 0.248069 0.248069 0.264906 0.264906 0.264906 0.264906 0.264906 0.264906 0.264906 0.264906 0.264906 0.264906 0.248069 0.248069 0.248069 0.248069 0.248069 0.248069 0.248069 0.248069 0.248069 0.248069 0.248069 0.256074 0.256074 0.256074 0.256074 0.256074 0.256074 0.256074 0.256074 0.256074 0.256074 0.260378 0.260378 0.260378 0.260378 0.260378 0.260378 0.260378 0.260378 0.260378 0.260378 0.260378 0.260378 0.260378 0.260378 0.260378 0.260378 0.260378
