# Output from CTFFind version 4.1.9, run on 2019-11-03 18:52:08
# Input file: stack4_ub_averaged_2000.mrc ; Number of micrographs: 1
# Pixel size: 3.000 Angstroms ; acceleration voltage: 300.0 keV ; spherical aberration: 0.00 mm ; amplitude contrast: 0.07
# Box size: 512 pixels ; min. res.: 30.0 Angstroms ; max. res.: 5.0 Angstroms ; min. def.: 5000.0 um; max. def. 50000.0 um; num. frames averaged: 1
# 6 lines per micrograph: #1 - spatial frequency (1/Angstroms); #2 - 1D rotational average of spectrum (assuming no astigmatism); #3 - 1D rotational average of spectrum; #4 - CTF fit; #5 - cross-correlation between spectrum and CTF fit; #6 - 2sigma of expected cross correlation of noise
0.000000 0.000651 0.001302 0.001953 0.002604 0.003255 0.003906 0.004557 0.005208 0.005859 0.006510 0.007161 0.007812 0.008464 0.009115 0.009766 0.010417 0.011068 0.011719 0.012370 0.013021 0.013672 0.014323 0.014974 0.015625 0.016276 0.016927 0.017578 0.018229 0.018880 0.019531 0.020182 0.020833 0.021484 0.022135 0.022786 0.023438 0.024089 0.024740 0.025391 0.026042 0.026693 0.027344 0.027995 0.028646 0.029297 0.029948 0.030599 0.031250 0.031901 0.032552 0.033203 0.033854 0.034505 0.035156 0.035807 0.036458 0.037109 0.037760 0.038411 0.039062 0.039714 0.040365 0.041016 0.041667 0.042318 0.042969 0.043620 0.044271 0.044922 0.045573 0.046224 0.046875 0.047526 0.048177 0.048828 0.049479 0.050130 0.050781 0.051432 0.052083 0.052734 0.053385 0.054036 0.054688 0.055339 0.055990 0.056641 0.057292 0.057943 0.058594 0.059245 0.059896 0.060547 0.061198 0.061849 0.062500 0.063151 0.063802 0.064453 0.065104 0.065755 0.066406 0.067057 0.067708 0.068359 0.069010 0.069661 0.070312 0.070964 0.071615 0.072266 0.072917 0.073568 0.074219 0.074870 0.075521 0.076172 0.076823 0.077474 0.078125 0.078776 0.079427 0.080078 0.080729 0.081380 0.082031 0.082682 0.083333 0.083984 0.084635 0.085286 0.085938 0.086589 0.087240 0.087891 0.088542 0.089193 0.089844 0.090495 0.091146 0.091797 0.092448 0.093099 0.093750 0.094401 0.095052 0.095703 0.096354 0.097005 0.097656 0.098307 0.098958 0.099609 0.100260 0.100911 0.101562 0.102214 0.102865 0.103516 0.104167 0.104818 0.105469 0.106120 0.106771 0.107422 0.108073 0.108724 0.109375 0.110026 0.110677 0.111328 0.111979 0.112630 0.113281 0.113932 0.114583 0.115234 0.115885 0.116536 0.117188 0.117839 0.118490 0.119141 0.119792 0.120443 0.121094 0.121745 0.122396 0.123047 0.123698 0.124349 0.125000 0.125651 0.126302 0.126953 0.127604 0.128255 0.128906 0.129557 0.130208 0.130859 0.131510 0.132161 0.132812 0.133464 0.134115 0.134766 0.135417 0.136068 0.136719 0.137370 0.138021 0.138672 0.139323 0.139974 0.140625 0.141276 0.141927 0.142578 0.143229 0.143880 0.144531 0.145182 0.145833 0.146484 0.147135 0.147786 0.148438 0.149089 0.149740 0.150391 0.151042 0.151693 0.152344 0.152995 0.153646 0.154297 0.154948 0.155599 0.156250 0.156901 0.157552 0.158203 0.158854 0.159505 0.160156 0.160807 0.161458 0.162109 0.162760 0.163411 0.164062 0.164714 0.165365 0.166016 0.166667 0.167318 0.167969 0.168620 0.169271 0.169922 0.170573 0.171224 0.171875 0.172526 0.173177 0.173828 0.174479 0.175130 0.175781 0.176432 0.177083 0.177734 0.178385 0.179036 0.179688 0.180339 0.180990 0.181641 0.182292 0.182943 0.183594 0.184245 0.184896 0.185547 0.186198 0.186849 0.187500 0.188151 0.188802 0.189453 0.190104 0.190755 0.191406 0.192057 0.192708 0.193359 0.194010 0.194661 0.195312 0.195964 0.196615 0.197266 0.197917 0.198568 0.199219 0.199870 0.200521 0.201172 0.201823 0.202474 0.203125 0.203776 0.204427 0.205078 0.205729 0.206380 0.207031 0.207682 0.208333 0.208984 0.209635 0.210286 0.210938 0.211589 0.212240 0.212891 0.213542 0.214193 0.214844 0.215495 0.216146 0.216797 0.217448 0.218099 0.218750 0.219401 0.220052 0.220703 0.221354 0.222005 0.222656 0.223307 0.223958 0.224609 0.225260 0.225911 0.226562 0.227214 0.227865 0.228516 0.229167 0.229818 0.230469 0.231120 0.231771 0.232422 0.233073 0.233724 0.234375 0.235026 0.235677
       0.36359        0.36359        0.36359        0.36359        0.36359        0.36359        0.36359        0.36359        0.36359        0.36359        0.36359        0.36359        0.36359        0.36359        0.36359        0.36359        0.36359        0.36359        0.36359        0.36359        0.36359        0.36359        0.36359        0.36359        0.36359        0.36359        0.36359        0.36359        0.36359        0.36359        0.36359        0.36359        0.36359        0.36359        0.36359        0.36359        0.36359        0.36359        0.36359        0.36359        0.36359        0.36359        0.36359        0.36359        0.36359        0.36359        0.36359        0.36359        0.36359        0.36359        0.36359        0.70679        0.78244        0.47017        0.03779        0.05765       -0.16249       -0.30849       -0.07426       -0.04381       -0.09403       -0.16757       -0.13370       -0.15768       -0.36476       -0.43692       -0.31550       -0.35168       -0.39496       -0.46713       -0.45420       -0.41032       -0.54534       -0.43757       -0.53740       -0.59305       -0.50272       -0.39441       -0.44519       -0.31060       -0.19494       -0.18333       -0.11863       -0.07933        0.00537        0.05318        0.24655        0.43294        0.37421        0.57713        0.67023        0.65257        0.63638        0.65741        0.70457        0.66559        0.64483        0.71704        0.67653        0.61119        0.53561        0.43687        0.33626        0.25952        0.20132        0.10091        0.07405        0.01653        0.07731        0.03856        0.07973        0.08915        0.11364        0.26371        0.41474        0.45012        0.48618        0.53011        0.53269        0.61126        0.62439        0.68261        0.68444        0.63777        0.63654        0.59769        0.49883        0.38586        0.37576        0.25542        0.22438        0.17821        0.15136        0.09484        0.06227        0.12081        0.21666        0.29671        0.28753        0.47540        0.53706        0.53834        0.60597        0.64377        0.59563        0.61481        0.53278        0.48977        0.51374        0.46974        0.37827        0.24027        0.11256        0.19439        0.20823        0.19104        0.20220        0.29331        0.25358        0.40868        0.46029        0.45840        0.51095        0.53497        0.55784        0.52190        0.37853        0.39762        0.41691        0.30469        0.30786        0.23782        0.20099        0.24718        0.29252        0.28618        0.36664        0.40147        0.42777        0.47147        0.54277        0.54530        0.50852        0.41090        0.41678        0.37403        0.35482        0.32063        0.30010        0.27768        0.30563        0.33713        0.35837        0.41053        0.44762        0.44524        0.46031        0.43648        0.41197        0.38491        0.32899        0.33953        0.35785        0.34221        0.31126        0.30869        0.30356        0.36713        0.39339        0.36994        0.39413        0.44828        0.40222        0.39974        0.38758        0.37481        0.36637        0.33085        0.31786        0.31582        0.34718        0.37406        0.38196        0.38830        0.35079        0.34481        0.34834        0.34857        0.36071        0.34085        0.37022        0.36398        0.35453        0.37512        0.37222        0.34607        0.36698        0.36479        0.39472        0.38519        0.34120        0.36349        0.33828        0.32600        0.34704        0.34467        0.33436        0.36763        0.32559        0.35959        0.36640        0.33779        0.34635        0.31450        0.35633        0.28238        0.30981        0.29959        0.30921        0.34076        0.37023        0.36196        0.33925        0.35627        0.34760        0.32834        0.32098        0.33945        0.38155        0.32828        0.33702        0.32648        0.30924        0.32181        0.33560        0.36467        0.32541        0.34274        0.35682        0.33718        0.34230        0.35405        0.33117        0.34484        0.28501        0.35255        0.34022        0.35159        0.37339        0.36207        0.38256        0.36805        0.33003        0.31653        0.33497        0.34573        0.30098        0.34042        0.35424        0.37374        0.37357        0.37139        0.35054        0.33553        0.32311        0.33101        0.31749        0.35831        0.32568        0.27908        0.31572        0.34176        0.31134        0.32551        0.31208        0.30053        0.31938        0.31236        0.30235        0.32544        0.27160        0.26996        0.26515        0.26553        0.31553        0.35029        0.31353        0.32259        0.37312        0.35004        0.32589        0.33655        0.29207        0.30132        0.30279        0.27513        0.30562        0.29831        0.29348        0.31949        0.34991        0.29241        0.31612        0.25211        0.26473        0.16926        0.30478        0.26656        0.28010        0.26323        0.27967        0.27681        0.35419        0.30675        0.20445        0.13845        0.38193        0.39476        0.33251        0.23281        0.21147       -0.02319       -0.17499
2.677131 2.647620 2.618277 2.589101 2.560092 2.531250 2.502575 2.474067 2.445727 2.417553 2.389547 2.361708 2.334036 2.306532 2.279194 2.252024 2.225020 2.198184 2.171515 2.145014 2.118679 2.092511 2.066511 2.040678 2.015012 1.989513 1.964181 1.939017 1.914019 1.889189 1.864526 1.840030 1.815701 1.791539 1.767545 1.743717 1.720057 1.696564 1.673238 1.650079 1.627088 1.604263 1.581606 1.559116 1.536793 1.514637 1.492648 1.470827 1.449172 1.427685 1.406365 1.662513 1.873056 1.527284 0.955189 1.111518 0.706794 0.483479 0.778277 0.805096 0.684026 0.588449 0.665825 0.620780 0.337134 0.267966 0.312598 0.281486 0.295288 0.140997 0.090390 0.176654 0.001884 0.117264 -0.040084 -0.073677 -0.055651 0.070479 -0.022782 0.090605 0.270870 0.238715 0.241703 0.308946 0.370992 0.424936 0.568366 0.747005 0.738876 0.918529 1.044955 0.968588 0.926054 0.984372 0.949427 0.969518 0.901600 0.961259 0.955204 0.802666 0.792501 0.665383 0.490438 0.411832 0.388717 0.219424 0.168564 0.109369 0.109425 0.133888 0.093233 0.150166 0.129051 0.180341 0.392315 0.519917 0.479429 0.497524 0.560476 0.540312 0.647690 0.625315 0.670235 0.573982 0.632283 0.524006 0.485594 0.304641 0.318000 0.120941 0.162935 0.004400 0.030062 -0.041019 -0.125736 -0.112402 0.016342 0.094079 0.103052 0.223910 0.326947 0.368626 0.371007 0.460982 0.436678 0.415658 0.386568 0.281762 0.278843 0.267701 0.214935 0.044301 -0.069679 -0.163587 -0.007728 -0.125419 -0.067535 -0.001081 -0.034676 0.086619 0.188927 0.180036 0.207199 0.265505 0.348453 0.346056 0.188457 0.156286 0.196432 0.138275 0.069535 -0.000779 -0.037734 -0.033817 0.024105 0.017824 0.085193 0.096325 0.193732 0.176605 0.291032 0.266586 0.309513 0.175472 0.145155 0.153335 0.048574 0.067016 0.042044 -0.001480 0.004141 -0.001819 0.107843 0.071640 0.145852 0.161378 0.171391 0.194667 0.116210 0.112046 0.068702 0.037634 0.049097 0.073111 0.016791 0.013538 -0.010212 0.018672 0.074120 0.096602 0.079841 0.094029 0.098381 0.039279 0.102465 0.033268 0.055933 0.002817 -0.019974 -0.019564 -0.004891 0.019328 0.028677 0.069374 0.040663 0.030580 0.012223 0.055275 0.029025 0.033432 0.017832 0.055631 0.029149 0.042805 0.055001 0.052439 0.001084 0.071738 0.030173 0.070811 0.075119 -0.007278 0.077838 -0.006388 0.004602 0.039915 0.003901 0.011139 0.045374 -0.016177 0.083083 0.018492 0.024104 0.022875 0.005239 0.024388 -0.057115 -0.003788 -0.027592 -0.010119 0.026877 0.062162 0.030040 0.017882 0.026254 0.001049 0.009455 -0.010657 0.043657 0.047894 -0.014485 -0.012662 -0.001163 -0.022992 -0.001733 -0.000140 0.021413 -0.023608 0.024216 -0.011298 -0.004638 0.003288 0.000078 0.015663 0.000320 -0.068832 0.002077 0.000049 -0.014720 0.017432 0.019224 0.036036 -0.003962 -0.029177 -0.014856 0.002072 -0.001704 -0.022124 0.018243 -0.019663 0.103880 0.034065 0.040509 0.042723 -0.005459 0.015973 0.004155 -0.019757 0.035712 0.016209 -0.063668 0.016233 0.013979 -0.009611 -0.003635 -0.029335 -0.051542 0.013580 -0.039294 -0.033293 0.021828 -0.078634 -0.028127 -0.049074 -0.048371 0.028423 0.095076 0.024039 0.023365 0.101423 0.067189 0.034869 0.060178 0.018597 0.006480 0.016579 -0.002626 0.060044 0.028813 0.053256 0.004277 0.121390 0.025294 0.068898 -0.035994 0.039285 -0.148939 0.085612 -0.072052 0.071499 0.232554 0.339394 0.224657 0.387104 0.338751 0.255757 0.152519 0.523990 0.445920 0.319212 0.180711 0.231098 -0.189091
0.072396 0.072920 0.074490 0.077107 0.080770 0.085478 0.091230 0.098023 0.105856 0.114725 0.124627 0.135557 0.147509 0.160475 0.174448 0.189417 0.205369 0.222291 0.240165 0.258972 0.278691 0.299294 0.320753 0.343035 0.366103 0.389915 0.414424 0.439580 0.465325 0.491597 0.518327 0.545440 0.572855 0.600483 0.628229 0.655991 0.683659 0.711116 0.738238 0.764892 0.790939 0.816234 0.840622 0.863944 0.886033 0.906718 0.925822 0.943163 0.958556 0.971814 0.982748 0.991168 0.996886 0.999716 0.999477 0.995992 0.989092 0.978621 0.964430 0.946387 0.924376 0.898298 0.868076 0.833658 0.795015 0.752149 0.705091 0.653906 0.598695 0.539595 0.476783 0.410476 0.340936 0.268463 0.193407 0.116156 0.037147 0.043145 0.124201 0.205462 0.286335 0.366191 0.444374 0.520203 0.592977 0.661985 0.726508 0.785831 0.839249 0.886077 0.925659 0.957379 0.980668 0.995021 0.999999 0.995247 0.980502 0.955600 0.920488 0.875233 0.820026 0.755192 0.681189 0.598619 0.508220 0.410868 0.307578 0.199490 0.087865 0.025928 0.140424 0.254083 0.365302 0.472448 0.573871 0.667937 0.753054 0.827701 0.890461 0.940046 0.975332 0.995389 0.999504 0.987212 0.958314 0.912901 0.851363 0.774404 0.683039 0.578598 0.462713 0.337300 0.204538 0.066836 0.073204 0.212834 0.349212 0.479457 0.600711 0.710209 0.805341 0.883721 0.943258 0.982214 0.999269 0.993569 0.964770 0.913076 0.839255 0.744649 0.631166 0.501259 0.357883 0.204445 0.044729 0.117189 0.277038 0.430469 0.573166 0.700977 0.810039 0.896905 0.958664 0.993055 0.998557 0.974474 0.920991 0.839203 0.731123 0.599652 0.448526 0.282228 0.105867 0.074963 0.254358 0.426286 0.584799 0.724240 0.839456 0.926002 0.980330 0.999958 0.983596 0.931246 0.844253 0.725301 0.578366 0.408607 0.222209 0.026179 0.171908 0.364190 0.542836 0.700364 0.829970 0.925839 0.983429 0.999712 0.973359 0.904863 0.796577 0.652679 0.479049 0.283052 0.073265 0.140894 0.349568 0.542916 0.711583 0.847174 0.942685 0.992903 0.994718 0.947355 0.852489 0.714238 0.539035 0.335370 0.113410 0.115480 0.339308 0.546077 0.724437 0.864326 0.957570 0.998396 0.983828 0.913950 0.791997 0.624258 0.419814 0.190084 0.051769 0.291585 0.515015 0.708390 0.859585 0.958799 0.999251 0.977679 0.894663 0.754694 0.566001 0.340133 0.091291 0.164520 0.410508 0.630190 0.808524 0.932952 0.994352 0.987754 0.912806 0.773922 0.580119 0.344481 0.083351 0.184772 0.440518 0.665053 0.841470 0.956128 0.999741 0.968212 0.863084 0.691570 0.466141 0.203700 0.075627 0.350014 0.597614 0.798324 0.935454 0.997176 0.977620 0.877511 0.704283 0.471619 0.198467 0.092459 0.376510 0.629189 0.828288 0.955876 1.000000 0.955882 0.826531 0.622656 0.361893 0.067363 0.234319 0.515421 0.749650 0.914638 0.994168 0.979841 0.872078 0.680284 0.422155 0.122135 0.190816 0.485970 0.733872 0.909295 0.993892 0.978218 0.862892 0.658771 0.386060 0.072411 0.249781 0.546715 0.786710 0.943668 0.999967 0.948587 0.794092 0.552394 0.249249 0.082379 0.405845 0.684836 0.887507 0.990172 0.980202 0.857712 0.635824 0.339418 0.002472 0.335756 0.635253 0.860020 0.982481 0.986968 0.871893 0.650222 0.348200 0.002375 0.344728 0.649804 0.874184 0.988835 0.978248 0.842694 0.598511 0.276323 0.082664 0.431840 0.725223 0.923549 0.999645 0.942310 0.758129 0.470950 0.118961 0.250238 0.586034 0.841700 0.981039 0.983606 0.847920 0.592032 0.251329
1.000000 1.000000 1.000000 1.000000 1.000000 1.000000 1.000000 1.000000 1.000000 1.000000 1.000000 1.000000 1.000000 1.000000 1.000000 1.000000 1.000000 1.000000 1.000000 1.000000 1.000000 1.000000 1.000000 1.000000 1.000000 1.000000 1.000000 1.000000 1.000000 1.000000 1.000000 1.000000 1.000000 1.000000 1.000000 1.000000 1.000000 1.000000 1.000000 1.000000 1.000000 1.000000 1.000000 1.000000 1.000000 1.000000 1.000000 1.000000 1.000000 1.000000 1.000000 1.000000 0.944938 0.944938 0.945518 0.945518 0.945518 0.945518 0.945518 0.945518 0.945518 0.945518 0.945518 0.945518 0.945518 0.945518 0.945518 0.945518 0.945518 0.945518 0.945518 0.945518 0.945518 0.945518 0.945518 0.945518 0.945518 0.945518 0.945518 0.945518 0.945518 0.945518 0.945518 0.945518 0.945518 0.945518 0.945518 0.945518 0.945518 0.945518 0.945518 0.945518 0.945518 0.945518 0.945518 0.939590 0.939645 0.941622 0.942998 0.943087 0.942632 0.945471 0.951206 0.951152 0.951524 0.954133 0.957656 0.961205 0.962615 0.965546 0.966628 0.966148 0.965844 0.965941 0.965310 0.963670 0.960544 0.960859 0.955822 0.957272 0.957818 0.954852 0.957603 0.957595 0.953971 0.952918 0.951986 0.950219 0.949902 0.949829 0.950195 0.950352 0.950894 0.950330 0.948961 0.947164 0.947153 0.947397 0.948088 0.949478 0.950515 0.951247 0.945647 0.950048 0.948087 0.948530 0.951774 0.951885 0.951599 0.951155 0.951422 0.949339 0.949402 0.937020 0.924534 0.919426 0.905624 0.904535 0.908793 0.913892 0.918175 0.913768 0.913149 0.901561 0.891370 0.882043 0.883162 0.886243 0.879512 0.875697 0.866969 0.858767 0.858492 0.853783 0.854778 0.855787 0.851326 0.842922 0.838517 0.835863 0.827127 0.831835 0.836246 0.824567 0.830113 0.844467 0.834278 0.834237 0.835743 0.829471 0.830156 0.833977 0.836731 0.835765 0.832371 0.828412 0.837307 0.812313 0.772313 0.778406 0.774929 0.765208 0.766557 0.724894 0.705934 0.691252 0.678247 0.676145 0.634582 0.633018 0.617553 0.617183 0.621204 0.606048 0.580456 0.589859 0.590183 0.556862 0.539959 0.521271 0.514394 0.473696 0.493409 0.491584 0.491112 0.478879 0.461215 0.444935 0.467297 0.467687 0.475639 0.472163 0.478759 0.476408 0.467148 0.450273 0.451258 0.447583 0.448257 0.435313 0.437511 0.368984 0.315926 0.311246 0.293016 0.264941 0.191903 0.156161 0.141445 0.139191 0.149689 0.103690 0.091156 0.089602 0.104987 0.155753 0.155273 0.126452 0.132051 0.121026 0.141313 0.091784 0.069750 0.073377 0.083850 0.058809 0.053703 -0.002559 -0.045020 -0.049863 -0.047360 -0.063900 -0.043836 -0.076429 -0.074792 -0.087186 -0.078562 -0.062379 -0.029763 -0.064660 -0.090617 -0.122737 -0.087481 -0.090633 -0.078431 -0.147884 -0.159497 -0.130033 -0.126623 -0.153282 -0.172654 -0.166319 -0.164890 -0.175812 -0.183127 -0.207013 -0.273378 -0.241831 -0.218976 -0.225199 -0.200516 -0.206453 -0.176079 -0.177458 -0.144485 -0.167685 -0.174611 -0.155288 -0.151257 -0.159333 -0.160588 -0.177601 -0.148218 -0.160768 -0.159717 -0.140415 -0.139430 -0.148123 -0.066346 -0.055695 -0.050151 -0.038848 -0.049958 -0.024808 -0.034443 -0.014494 0.016335 0.024901 0.035532 -0.019046 0.003841 -0.011878 -0.007553 0.041540 0.041540 0.041540 0.041540 0.041540 0.041540 0.041540 0.041540 0.041540 0.044528 0.044528 0.044528 0.044528 0.044528 0.044528 0.044528 0.044528 0.044528 0.035781 0.035781 0.035781 0.035781 0.035781 0.035781 0.035781 0.035781 0.035781 0.035781 0.035781 0.035781
0.000000 0.000000 0.000000 0.000000 0.000000 0.000000 0.000000 0.000000 0.000000 0.000000 0.000000 0.000000 0.000000 0.000000 0.000000 0.000000 0.000000 0.000000 0.000000 0.000000 0.000000 9401.000000 0.000000 0.000000 0.000000 0.000000 0.000000 0.000000 0.000000 0.000000 0.000000 0.000000 0.000000 0.000000 0.000000 0.000000 0.000000 0.000000 0.000000 0.000000 0.000000 0.000000 0.000000 0.000000 0.000000 0.000000 0.000000 0.000000 0.000000 0.000000 0.000000 0.000000 0.181818 0.181818 0.199007 0.199007 0.199007 0.199007 0.199007 0.199007 0.199007 0.199007 0.199007 0.199007 0.199007 0.199007 0.199007 0.199007 0.199007 0.199007 0.199007 0.199007 0.199007 0.199007 0.199007 0.199007 0.199007 0.199007 0.199007 0.199007 0.199007 0.199007 0.199007 0.199007 0.199007 0.199007 0.199007 0.199007 0.199007 0.199007 0.199007 0.199007 0.199007 0.199007 0.199007 0.234082 0.234082 0.234082 0.234082 0.234082 0.234082 0.234082 0.234082 0.234082 0.234082 0.234082 0.234082 0.234082 0.234082 0.234082 0.234082 0.234082 0.234082 0.234082 0.234082 0.234082 0.234082 0.234082 0.234082 0.234082 0.234082 0.234082 0.244339 0.244339 0.244339 0.244339 0.244339 0.244339 0.244339 0.244339 0.244339 0.244339 0.244339 0.244339 0.244339 0.244339 0.244339 0.244339 0.244339 0.244339 0.244339 0.244339 0.244339 0.244339 0.244339 0.256074 0.256074 0.256074 0.256074 0.256074 0.256074 0.256074 0.256074 0.256074 0.256074 0.256074 0.256074 0.256074 0.256074 0.256074 0.256074 0.256074 0.256074 0.256074 0.256074 0.256074 0.256074 0.256074 0.256074 0.256074 0.256074 0.256074 0.256074 0.256074 0.256074 0.256074 0.256074 0.256074 0.256074 0.256074 0.256074 0.256074 0.269680 0.269680 0.269680 0.269680 0.269680 0.269680 0.269680 0.269680 0.269680 0.269680 0.269680 0.269680 0.269680 0.269680 0.269680 0.264906 0.264906 0.264906 0.264906 0.264906 0.264906 0.264906 0.264906 0.264906 0.264906 0.264906 0.264906 0.264906 0.264906 0.264906 0.264906 0.264906 0.264906 0.264906 0.264906 0.264906 0.264906 0.264906 0.264906 0.264906 0.264906 0.264906 0.264906 0.264906 0.264906 0.264906 0.264906 0.264906 0.264906 0.264906 0.264906 0.264906 0.264906 0.264906 0.264906 0.264906 0.264906 0.269680 0.269680 0.269680 0.269680 0.269680 0.269680 0.269680 0.269680 0.269680 0.269680 0.269680 0.269680 0.264906 0.264906 0.264906 0.264906 0.264906 0.264906 0.264906 0.264906 0.264906 0.264906 0.264906 0.264906 0.269680 0.269680 0.269680 0.269680 0.269680 0.269680 0.269680 0.269680 0.269680 0.269680 0.269680 0.264906 0.264906 0.264906 0.264906 0.264906 0.264906 0.264906 0.264906 0.264906 0.264906 0.264906 0.269680 0.269680 0.269680 0.269680 0.269680 0.269680 0.269680 0.269680 0.269680 0.269680 0.264906 0.264906 0.264906 0.264906 0.264906 0.264906 0.264906 0.264906 0.264906 0.264906 0.260378 0.260378 0.260378 0.260378 0.260378 0.260378 0.260378 0.260378 0.260378 0.260378 0.264906 0.264906 0.264906 0.264906 0.264906 0.264906 0.264906 0.264906 0.264906 0.260378 0.260378 0.260378 0.260378 0.260378 0.260378 0.260378 0.260378 0.260378 0.256074 0.256074 0.256074 0.256074 0.256074 0.256074 0.256074 0.256074 0.256074 0.251976 0.251976 0.251976 0.251976 0.251976 0.251976 0.251976 0.251976 0.251976 0.264906 0.264906 0.264906 0.264906 0.264906 0.264906 0.264906 0.264906 0.264906 0.264906 0.264906 0.264906
