# Output from CTFFind version 4.1.9, run on 2019-11-03 18:51:54
# Input file: stack9_ub_averaged_1500.mrc ; Number of micrographs: 1
# Pixel size: 3.000 Angstroms ; acceleration voltage: 300.0 keV ; spherical aberration: 0.00 mm ; amplitude contrast: 0.07
# Box size: 512 pixels ; min. res.: 30.0 Angstroms ; max. res.: 5.0 Angstroms ; min. def.: 5000.0 um; max. def. 50000.0 um; num. frames averaged: 1
# 6 lines per micrograph: #1 - spatial frequency (1/Angstroms); #2 - 1D rotational average of spectrum (assuming no astigmatism); #3 - 1D rotational average of spectrum; #4 - CTF fit; #5 - cross-correlation between spectrum and CTF fit; #6 - 2sigma of expected cross correlation of noise
0.000000 0.000651 0.001302 0.001953 0.002604 0.003255 0.003906 0.004557 0.005208 0.005859 0.006510 0.007161 0.007812 0.008464 0.009115 0.009766 0.010417 0.011068 0.011719 0.012370 0.013021 0.013672 0.014323 0.014974 0.015625 0.016276 0.016927 0.017578 0.018229 0.018880 0.019531 0.020182 0.020833 0.021484 0.022135 0.022786 0.023438 0.024089 0.024740 0.025391 0.026042 0.026693 0.027344 0.027995 0.028646 0.029297 0.029948 0.030599 0.031250 0.031901 0.032552 0.033203 0.033854 0.034505 0.035156 0.035807 0.036458 0.037109 0.037760 0.038411 0.039062 0.039714 0.040365 0.041016 0.041667 0.042318 0.042969 0.043620 0.044271 0.044922 0.045573 0.046224 0.046875 0.047526 0.048177 0.048828 0.049479 0.050130 0.050781 0.051432 0.052083 0.052734 0.053385 0.054036 0.054688 0.055339 0.055990 0.056641 0.057292 0.057943 0.058594 0.059245 0.059896 0.060547 0.061198 0.061849 0.062500 0.063151 0.063802 0.064453 0.065104 0.065755 0.066406 0.067057 0.067708 0.068359 0.069010 0.069661 0.070312 0.070964 0.071615 0.072266 0.072917 0.073568 0.074219 0.074870 0.075521 0.076172 0.076823 0.077474 0.078125 0.078776 0.079427 0.080078 0.080729 0.081380 0.082031 0.082682 0.083333 0.083984 0.084635 0.085286 0.085938 0.086589 0.087240 0.087891 0.088542 0.089193 0.089844 0.090495 0.091146 0.091797 0.092448 0.093099 0.093750 0.094401 0.095052 0.095703 0.096354 0.097005 0.097656 0.098307 0.098958 0.099609 0.100260 0.100911 0.101562 0.102214 0.102865 0.103516 0.104167 0.104818 0.105469 0.106120 0.106771 0.107422 0.108073 0.108724 0.109375 0.110026 0.110677 0.111328 0.111979 0.112630 0.113281 0.113932 0.114583 0.115234 0.115885 0.116536 0.117188 0.117839 0.118490 0.119141 0.119792 0.120443 0.121094 0.121745 0.122396 0.123047 0.123698 0.124349 0.125000 0.125651 0.126302 0.126953 0.127604 0.128255 0.128906 0.129557 0.130208 0.130859 0.131510 0.132161 0.132812 0.133464 0.134115 0.134766 0.135417 0.136068 0.136719 0.137370 0.138021 0.138672 0.139323 0.139974 0.140625 0.141276 0.141927 0.142578 0.143229 0.143880 0.144531 0.145182 0.145833 0.146484 0.147135 0.147786 0.148438 0.149089 0.149740 0.150391 0.151042 0.151693 0.152344 0.152995 0.153646 0.154297 0.154948 0.155599 0.156250 0.156901 0.157552 0.158203 0.158854 0.159505 0.160156 0.160807 0.161458 0.162109 0.162760 0.163411 0.164062 0.164714 0.165365 0.166016 0.166667 0.167318 0.167969 0.168620 0.169271 0.169922 0.170573 0.171224 0.171875 0.172526 0.173177 0.173828 0.174479 0.175130 0.175781 0.176432 0.177083 0.177734 0.178385 0.179036 0.179688 0.180339 0.180990 0.181641 0.182292 0.182943 0.183594 0.184245 0.184896 0.185547 0.186198 0.186849 0.187500 0.188151 0.188802 0.189453 0.190104 0.190755 0.191406 0.192057 0.192708 0.193359 0.194010 0.194661 0.195312 0.195964 0.196615 0.197266 0.197917 0.198568 0.199219 0.199870 0.200521 0.201172 0.201823 0.202474 0.203125 0.203776 0.204427 0.205078 0.205729 0.206380 0.207031 0.207682 0.208333 0.208984 0.209635 0.210286 0.210938 0.211589 0.212240 0.212891 0.213542 0.214193 0.214844 0.215495 0.216146 0.216797 0.217448 0.218099 0.218750 0.219401 0.220052 0.220703 0.221354 0.222005 0.222656 0.223307 0.223958 0.224609 0.225260 0.225911 0.226562 0.227214 0.227865 0.228516 0.229167 0.229818 0.230469 0.231120 0.231771 0.232422 0.233073 0.233724 0.234375 0.235026 0.235677
       0.32691        0.32691        0.32691        0.32691        0.32691        0.32691        0.32691        0.32691        0.32691        0.32691        0.32691        0.32691        0.32691        0.32691        0.32691        0.32691        0.32691        0.32691        0.32691        0.32691        0.32691        0.32691        0.32691        0.32691        0.32691        0.32691        0.32691        0.32691        0.32691        0.32691        0.32691        0.32691        0.32691        0.32691        0.32691        0.32691        0.32691        0.32691        0.32691        0.32691        0.32691        0.32691        0.32691        0.32691        0.32691        0.32691        0.32691        0.32691        0.32691        0.32691        0.32691        0.67526        0.97378        0.37127        0.08333       -0.21809       -0.23344       -0.41038       -0.56411       -0.49412       -0.52032       -0.43100       -0.50865       -0.44607       -0.49661       -0.61763       -0.70807       -0.79164       -0.83187       -0.78449       -0.78014       -0.72695       -0.81640       -0.69866       -0.70141       -0.60278       -0.48014       -0.43270       -0.43168       -0.19951       -0.07509       -0.04599        0.10737        0.20476        0.30869        0.45573        0.58031        0.57299        0.62298        0.63135        0.57169        0.62513        0.66027        0.58600        0.47129        0.47130        0.42481        0.39141        0.29724        0.12978        0.11290       -0.01292       -0.00484       -0.06651       -0.07701       -0.01389        0.04334        0.16031        0.14782        0.24557        0.35427        0.49164        0.53315        0.55956        0.72415        0.75649        0.77306        0.68435        0.62024        0.57397        0.44927        0.36839        0.34576        0.20340        0.16953        0.06685       -0.01509        0.00698        0.03424        0.07068        0.19347        0.24569        0.32554        0.39973        0.46821        0.59308        0.65082        0.63259        0.55216        0.62836        0.53311        0.42528        0.40340        0.34077        0.15809        0.16037        0.09573        0.08564        0.06900        0.13388        0.22129        0.34787        0.45094        0.49713        0.53226        0.55407        0.49979        0.56913        0.54865        0.44181        0.36165        0.25183        0.14122        0.16290        0.14164        0.13534        0.20257        0.26413        0.30424        0.36902        0.47284        0.52161        0.52494        0.47521        0.48237        0.41533        0.40784        0.30686        0.23076        0.20440        0.17578        0.18841        0.17253        0.33324        0.40794        0.40054        0.47145        0.45729        0.46081        0.34463        0.34999        0.31520        0.27878        0.28164        0.23420        0.25209        0.30942        0.27193        0.34251        0.41896        0.46391        0.51014        0.44072        0.36337        0.33867        0.27640        0.28082        0.26442        0.24418        0.26494        0.31692        0.34621        0.36241        0.42393        0.40532        0.38087        0.36820        0.32897        0.29412        0.27596        0.24871        0.27549        0.30963        0.32920        0.34291        0.36531        0.38753        0.41461        0.36220        0.31884        0.27578        0.24960        0.27568        0.26373        0.28039        0.28146        0.34625        0.37104        0.37229        0.36000        0.31416        0.31732        0.29364        0.27711        0.29952        0.27493        0.29134        0.32799        0.36980        0.35708        0.34040        0.31205        0.30654        0.27510        0.28004        0.29117        0.28360        0.29624        0.30269        0.32603        0.35514        0.30190        0.26590        0.27578        0.26508        0.27710        0.26078        0.31742        0.31794        0.32564        0.37415        0.33380        0.36054        0.30651        0.27077        0.25571        0.27840        0.29004        0.28785        0.27556        0.30365        0.32510        0.29046        0.29590        0.29970        0.28732        0.31180        0.31550        0.34722        0.35014        0.30557        0.31611        0.29987        0.26481        0.27951        0.30892        0.29748        0.34539        0.36446        0.30937        0.32413        0.28085        0.28940        0.22664        0.24932        0.27682        0.29951        0.30561        0.35311        0.32596        0.27715        0.25826        0.29120        0.27675        0.35723        0.28660        0.30139        0.32969        0.35151        0.28625        0.22644        0.29091        0.29309        0.31131        0.25147        0.26199        0.23919        0.26344        0.22509        0.22448        0.29835        0.21530        0.27900        0.30631        0.22394        0.22924        0.27245        0.29857        0.26107        0.30386        0.24410        0.29589        0.23887        0.25434        0.24594        0.27262        0.25984        0.16441        0.23255        0.20717        0.23440        0.23226        0.22604        0.30583        0.26375        0.29035        0.28182        0.22585        0.16070        0.14045       -0.04032       -0.43377       -0.34453
2.156809 2.134268 2.111853 2.089562 2.067397 2.045357 2.023442 2.001653 1.979988 1.958449 1.937035 1.915747 1.894583 1.873545 1.852632 1.831844 1.811182 1.790644 1.770232 1.749945 1.729784 1.709747 1.689836 1.670050 1.650389 1.630853 1.611443 1.592158 1.572998 1.553963 1.535053 1.516269 1.497610 1.479076 1.460668 1.442384 1.424226 1.406193 1.388285 1.370503 1.352845 1.335313 1.317906 1.300625 1.283468 1.266437 1.249531 1.232750 1.216094 1.199564 1.183159 1.516322 1.783301 1.210790 0.921156 0.639801 0.545246 0.490112 0.280200 0.296186 0.293584 0.347776 0.260706 0.276949 0.270692 0.148496 0.019682 -0.037935 -0.145167 -0.065057 -0.128444 -0.024565 -0.178230 -0.048169 -0.104616 -0.004158 0.071528 0.124860 0.018987 0.301288 0.431772 0.352385 0.474539 0.632849 0.678318 0.701300 0.932518 0.840278 0.948272 0.879675 0.829014 0.921730 0.916760 0.801035 0.768672 0.681219 0.678593 0.589406 0.589918 0.330423 0.370288 0.200469 0.242937 0.124168 0.120222 0.165558 0.193550 0.325156 0.276313 0.303804 0.453424 0.506988 0.606398 0.591030 0.667157 0.746327 0.796186 0.731129 0.596820 0.604257 0.491177 0.383023 0.398194 0.238476 0.161423 0.122130 0.037247 -0.046157 0.088801 0.006149 0.137874 0.158418 0.249803 0.324762 0.321733 0.426475 0.555641 0.489033 0.464739 0.523558 0.425908 0.320629 0.267607 0.313294 0.088567 0.028396 0.054050 -0.043489 -0.015940 -0.015148 0.037005 0.152115 0.284577 0.260833 0.385439 0.348924 0.357107 0.370939 0.448622 0.315915 0.285381 0.127356 0.084285 0.014909 0.038731 0.002125 0.034313 0.098968 0.120706 0.192200 0.236805 0.317703 0.318486 0.288061 0.266227 0.234279 0.216382 0.161131 0.045787 0.052518 -0.029437 0.022076 -0.054847 0.033887 0.166401 0.203950 0.213273 0.195093 0.262544 0.144058 0.124684 0.124263 0.064922 0.038057 0.056753 0.011507 0.052411 0.056025 0.086870 0.123168 0.172009 0.237785 0.244178 0.119301 0.130034 0.061716 0.052777 0.035151 0.008403 0.021625 0.040519 0.105228 0.074210 0.132420 0.177640 0.125041 0.103441 0.102120 0.060836 0.033029 0.020003 -0.016498 0.043388 0.062306 0.067864 0.083075 0.113439 0.124803 0.140725 0.083482 0.058716 -0.007966 0.018819 0.007713 0.027545 0.014251 0.029273 0.114330 0.096431 0.112130 0.071918 0.032966 0.066464 0.016575 -0.002213 0.050764 0.016014 0.026634 0.070786 0.097892 0.070730 0.069525 0.046549 0.016471 0.013950 0.002364 0.019695 0.024429 0.033794 0.019088 0.058042 0.074802 0.022742 -0.018464 0.000236 0.000180 0.000927 -0.004200 0.052658 0.029728 0.054676 0.059963 0.044235 0.085437 -0.030659 -0.014647 -0.018228 -0.014244 0.027588 -0.015867 -0.005963 0.039450 0.025153 0.005502 0.013480 0.020702 0.010174 0.039071 0.038296 0.070414 0.054590 0.014110 0.041860 0.010306 -0.012599 0.021371 -0.004431 0.027364 0.056760 0.095887 0.031358 0.049790 -0.001318 0.027278 -0.058988 -0.002982 0.004744 0.046529 0.009621 0.109369 0.065197 0.015499 0.013605 0.058694 0.040940 0.108746 0.065757 0.014638 0.100779 0.109962 0.039310 -0.019352 0.057646 0.046128 0.092458 -0.016092 0.002897 -0.036513 0.016069 -0.044064 -0.048777 0.049683 -0.034066 0.013274 -0.016636 -0.064911 -0.044666 -0.023349 0.023841 -0.011921 0.012329 -0.019924 0.024344 -0.058148 0.033511 -0.055876 0.039730 0.015682 -0.065590 0.018811 -0.013825 0.050169 0.021218 0.059978 0.136079 0.084207 0.160545 0.252298 0.199137 0.077763 0.125991 -0.028246 -0.303392
0.072396 0.072973 0.074702 0.077584 0.081618 0.086803 0.093136 0.100616 0.109240 0.119003 0.129901 0.141929 0.155078 0.169339 0.184701 0.201150 0.218672 0.237247 0.256853 0.277464 0.299053 0.321584 0.345020 0.369318 0.394428 0.420297 0.446863 0.474059 0.501810 0.530035 0.558644 0.587539 0.616614 0.645754 0.674837 0.703729 0.732289 0.760368 0.787805 0.814432 0.840074 0.864546 0.887655 0.909204 0.928985 0.946790 0.962404 0.975610 0.986188 0.993921 0.998591 0.999986 0.997898 0.992129 0.982491 0.968809 0.950925 0.928698 0.902010 0.870770 0.834911 0.794402 0.749241 0.699468 0.645161 0.586442 0.523478 0.456485 0.385728 0.311525 0.234244 0.154310 0.072198 0.011563 0.096395 0.181667 0.266707 0.350799 0.433190 0.513099 0.589718 0.662224 0.729789 0.791586 0.846801 0.894648 0.934374 0.965279 0.986725 0.998152 0.999089 0.989168 0.968138 0.935875 0.892398 0.837870 0.772617 0.697125 0.612050 0.518216 0.416618 0.308413 0.194914 0.077581 0.041995 0.162112 0.280975 0.396724 0.507462 0.611286 0.706322 0.790760 0.862892 0.921155 0.964162 0.990747 0.999997 0.991288 0.964316 0.919119 0.856099 0.776033 0.680080 0.569780 0.447035 0.314092 0.173515 0.028133 0.118995 0.264659 0.405548 0.538337 0.659762 0.766709 0.856294 0.925956 0.973536 0.997355 0.996285 0.969806 0.918054 0.841848 0.742701 0.622816 0.485051 0.332875 0.170290 0.001740 0.167999 0.333954 0.491096 0.634495 0.759484 0.861817 0.937828 0.984579 0.999992 0.982957 0.933412 0.852395 0.742057 0.605636 0.447384 0.272466 0.086807 0.103095 0.290386 0.468098 0.629415 0.767941 0.877966 0.954723 0.994620 0.995427 0.956433 0.878528 0.764238 0.617681 0.444453 0.251455 0.046627 0.161342 0.363387 0.550453 0.713912 0.845974 0.940080 0.991261 0.996433 0.954616 0.867058 0.737262 0.570897 0.375586 0.160605 0.063534 0.285583 0.494108 0.678088 0.827513 0.933956 0.991082 0.995072 0.944918 0.842581 0.692980 0.503819 0.285241 0.049328 0.190547 0.420452 0.626711 0.796727 0.919793 0.987795 0.995807 0.942497 0.830333 0.665552 0.457875 0.220002 0.033119 0.285209 0.519682 0.720754 0.874526 0.969988 0.999868 0.961249 0.855909 0.690339 0.475431 0.225828 0.041013 0.306007 0.549801 0.754183 0.903493 0.985864 0.994237 0.927055 0.788529 0.588490 0.341779 0.067226 0.213753 0.478778 0.706306 0.877405 0.977389 0.997158 0.934107 0.792542 0.583497 0.323976 0.035667 0.256821 0.528046 0.753927 0.913943 0.993062 0.983243 0.884361 0.704432 0.459082 0.170311 0.135406 0.429512 0.684003 0.874147 0.980946 0.993137 0.908492 0.734272 0.486758 0.189840 0.127190 0.432466 0.694750 0.886660 0.987612 0.986130 0.881285 0.683064 0.411562 0.095086 0.232714 0.536362 0.782409 0.943185 0.999992 0.945428 0.784490 0.534305 0.222464 0.115902 0.441992 0.717798 0.910545 0.996716 0.965036 0.818127 0.572500 0.256885 0.090983 0.428807 0.714836 0.913077 0.997921 0.957615 0.796065 0.532680 0.200244 0.159028 0.498766 0.774421 0.949167 0.998955 0.915995 0.710162 0.408057 0.049741 0.316425 0.640257 0.876655 0.991979 0.969012 0.809735 0.535454 0.184174 0.194487 0.546233 0.819846 0.974745 0.987167 0.854023 0.593796 0.244213 0.143021 0.509743 0.800074 0.968988 0.989484 0.857119 0.591159 0.232052 0.164529 0.536182 0.823576 0.980033 0.979280 0.820123 0.527133 0.147124 0.258099 0.621713 0.882877 0.997063 0.943854 0.730880 0.393057 0.012855 0.417613
1.000000 1.000000 1.000000 1.000000 1.000000 1.000000 1.000000 1.000000 1.000000 1.000000 1.000000 1.000000 1.000000 1.000000 1.000000 1.000000 1.000000 1.000000 1.000000 1.000000 1.000000 1.000000 1.000000 1.000000 1.000000 1.000000 1.000000 1.000000 1.000000 1.000000 1.000000 1.000000 1.000000 1.000000 1.000000 1.000000 1.000000 1.000000 1.000000 1.000000 1.000000 1.000000 1.000000 1.000000 1.000000 1.000000 1.000000 1.000000 1.000000 1.000000 1.000000 1.000000 0.936766 0.936766 0.936766 0.936766 0.936766 0.936766 0.936766 0.936766 0.936766 0.936766 0.936766 0.936766 0.936766 0.936766 0.936766 0.936766 0.936766 0.936766 0.936766 0.936766 0.936766 0.936766 0.936766 0.936766 0.936766 0.936766 0.936766 0.936766 0.936766 0.936766 0.936766 0.936766 0.936766 0.936766 0.936766 0.936766 0.936766 0.936766 0.924553 0.927270 0.924869 0.924704 0.923740 0.930377 0.934051 0.934784 0.935181 0.936493 0.938000 0.941092 0.942304 0.945391 0.949590 0.957798 0.955581 0.953100 0.955839 0.952127 0.965258 0.965848 0.965836 0.966559 0.967156 0.967850 0.966184 0.967936 0.968409 0.967888 0.966839 0.966310 0.963520 0.962947 0.962896 0.963411 0.963061 0.963560 0.964942 0.964767 0.964842 0.964419 0.963840 0.960331 0.958992 0.958011 0.956088 0.954453 0.960943 0.960307 0.959596 0.959280 0.959418 0.959388 0.959422 0.958668 0.957547 0.956567 0.956041 0.955593 0.954539 0.955873 0.958255 0.959061 0.949472 0.941892 0.937933 0.940338 0.937751 0.932786 0.934720 0.919909 0.906697 0.901022 0.892532 0.889747 0.890198 0.893771 0.893591 0.888378 0.881808 0.876539 0.881030 0.879430 0.884536 0.880853 0.863887 0.859328 0.850929 0.852786 0.862021 0.867969 0.871196 0.868579 0.864916 0.849985 0.845241 0.847421 0.848753 0.848068 0.848165 0.843184 0.844116 0.847172 0.858503 0.861573 0.865829 0.868550 0.868974 0.871559 0.873517 0.870276 0.866368 0.868751 0.871021 0.864434 0.868302 0.865072 0.867384 0.864222 0.856899 0.859037 0.862082 0.860828 0.859425 0.850513 0.849593 0.856414 0.862554 0.847651 0.845838 0.839967 0.834912 0.834420 0.835810 0.839718 0.839476 0.838665 0.842999 0.841864 0.839112 0.841960 0.819661 0.831556 0.834412 0.825978 0.796968 0.792010 0.788944 0.796436 0.795008 0.792365 0.780025 0.778953 0.777654 0.783748 0.784564 0.767850 0.753703 0.761716 0.769718 0.770839 0.743586 0.695245 0.686914 0.669872 0.651029 0.651093 0.644171 0.650643 0.642966 0.635686 0.636759 0.649276 0.654509 0.638859 0.627313 0.622687 0.640371 0.620113 0.618387 0.626697 0.624047 0.642259 0.641665 0.645220 0.623247 0.628129 0.621131 0.613283 0.618034 0.602061 0.605144 0.596792 0.593852 0.572348 0.572671 0.572640 0.595150 0.564224 0.559625 0.578148 0.566481 0.557735 0.573963 0.554004 0.557116 0.562620 0.541622 0.528447 0.504925 0.516085 0.535388 0.512417 0.487110 0.478788 0.477195 0.451235 0.472502 0.525683 0.536938 0.524413 0.447293 0.430339 0.435873 0.438079 0.441159 0.390841 0.367089 0.358666 0.306580 0.285893 0.295731 0.291871 0.250347 0.225763 0.246773 0.176067 0.171288 0.183568 0.166824 0.157388 0.108048 0.117367 0.186667 0.190164 0.190164 0.190164 0.190164 0.190164 0.190164 0.190164 0.211797 0.211797 0.211797 0.211797 0.211797 0.211797 0.211797 0.211797 0.218193 0.218193 0.218193 0.218193 0.218193 0.218193 0.218193 0.218193 0.218193 0.218193 0.218193 0.218193 0.218193
0.000000 0.000000 0.000000 0.000000 0.000000 0.000000 0.000000 0.000000 0.000000 0.000000 0.000000 0.000000 0.000000 0.000000 0.000000 0.000000 0.000000 0.000000 0.000000 0.000000 0.000000 9401.000000 0.000000 0.000000 0.000000 0.000000 0.000000 0.000000 0.000000 0.000000 0.000000 0.000000 0.000000 0.000000 0.000000 0.000000 0.000000 0.000000 0.000000 0.000000 0.000000 0.000000 0.000000 0.000000 0.000000 0.000000 0.000000 0.000000 0.000000 0.000000 0.000000 0.000000 0.203069 0.203069 0.203069 0.203069 0.203069 0.203069 0.203069 0.203069 0.203069 0.203069 0.203069 0.203069 0.203069 0.203069 0.203069 0.203069 0.203069 0.203069 0.203069 0.203069 0.203069 0.203069 0.203069 0.203069 0.203069 0.203069 0.203069 0.203069 0.203069 0.203069 0.203069 0.203069 0.203069 0.203069 0.203069 0.203069 0.203069 0.203069 0.234082 0.234082 0.234082 0.234082 0.234082 0.234082 0.234082 0.234082 0.234082 0.234082 0.234082 0.234082 0.234082 0.234082 0.234082 0.234082 0.234082 0.234082 0.234082 0.234082 0.234082 0.234082 0.234082 0.234082 0.234082 0.234082 0.234082 0.256074 0.256074 0.256074 0.256074 0.256074 0.256074 0.256074 0.256074 0.256074 0.256074 0.256074 0.256074 0.256074 0.256074 0.256074 0.256074 0.256074 0.256074 0.256074 0.256074 0.256074 0.264906 0.264906 0.264906 0.264906 0.264906 0.264906 0.264906 0.264906 0.264906 0.264906 0.264906 0.264906 0.264906 0.264906 0.264906 0.264906 0.264906 0.264906 0.264906 0.264906 0.264906 0.264906 0.264906 0.264906 0.264906 0.264906 0.264906 0.264906 0.264906 0.264906 0.264906 0.264906 0.264906 0.264906 0.264906 0.269680 0.269680 0.269680 0.269680 0.269680 0.269680 0.269680 0.269680 0.269680 0.269680 0.269680 0.269680 0.269680 0.269680 0.269680 0.269680 0.269680 0.269680 0.269680 0.269680 0.269680 0.269680 0.269680 0.269680 0.269680 0.269680 0.269680 0.269680 0.269680 0.274721 0.274721 0.274721 0.274721 0.274721 0.274721 0.274721 0.274721 0.274721 0.274721 0.274721 0.274721 0.274721 0.274721 0.274721 0.274721 0.274721 0.274721 0.274721 0.274721 0.274721 0.274721 0.274721 0.274721 0.274721 0.269680 0.269680 0.269680 0.269680 0.269680 0.269680 0.269680 0.269680 0.269680 0.269680 0.269680 0.269680 0.274721 0.274721 0.274721 0.274721 0.274721 0.274721 0.274721 0.274721 0.274721 0.274721 0.274721 0.269680 0.269680 0.269680 0.269680 0.269680 0.269680 0.269680 0.269680 0.269680 0.269680 0.269680 0.274721 0.274721 0.274721 0.274721 0.274721 0.274721 0.274721 0.274721 0.274721 0.274721 0.269680 0.269680 0.269680 0.269680 0.269680 0.269680 0.269680 0.269680 0.269680 0.269680 0.264906 0.264906 0.264906 0.264906 0.264906 0.264906 0.264906 0.264906 0.264906 0.264906 0.269680 0.269680 0.269680 0.269680 0.269680 0.269680 0.269680 0.269680 0.269680 0.264906 0.264906 0.264906 0.264906 0.264906 0.264906 0.264906 0.264906 0.264906 0.274721 0.274721 0.274721 0.274721 0.274721 0.274721 0.274721 0.274721 0.256074 0.256074 0.256074 0.256074 0.256074 0.256074 0.256074 0.256074 0.256074 0.269680 0.269680 0.269680 0.269680 0.269680 0.269680 0.269680 0.269680 0.264906 0.264906 0.264906 0.264906 0.264906 0.264906 0.264906 0.264906 0.260378 0.260378 0.260378 0.260378 0.260378 0.260378 0.260378 0.260378 0.256074 0.256074 0.256074 0.256074 0.256074 0.256074 0.256074 0.256074 0.256074 0.256074 0.256074 0.256074 0.256074
