# Output from CTFFind version 4.1.9, run on 2019-11-03 18:51:54
# Input file: stack2_ub_averaged_1500.mrc ; Number of micrographs: 1
# Pixel size: 3.000 Angstroms ; acceleration voltage: 300.0 keV ; spherical aberration: 0.00 mm ; amplitude contrast: 0.07
# Box size: 512 pixels ; min. res.: 30.0 Angstroms ; max. res.: 5.0 Angstroms ; min. def.: 5000.0 um; max. def. 50000.0 um; num. frames averaged: 1
# 6 lines per micrograph: #1 - spatial frequency (1/Angstroms); #2 - 1D rotational average of spectrum (assuming no astigmatism); #3 - 1D rotational average of spectrum; #4 - CTF fit; #5 - cross-correlation between spectrum and CTF fit; #6 - 2sigma of expected cross correlation of noise
0.000000 0.000651 0.001302 0.001953 0.002604 0.003255 0.003906 0.004557 0.005208 0.005859 0.006510 0.007161 0.007812 0.008464 0.009115 0.009766 0.010417 0.011068 0.011719 0.012370 0.013021 0.013672 0.014323 0.014974 0.015625 0.016276 0.016927 0.017578 0.018229 0.018880 0.019531 0.020182 0.020833 0.021484 0.022135 0.022786 0.023438 0.024089 0.024740 0.025391 0.026042 0.026693 0.027344 0.027995 0.028646 0.029297 0.029948 0.030599 0.031250 0.031901 0.032552 0.033203 0.033854 0.034505 0.035156 0.035807 0.036458 0.037109 0.037760 0.038411 0.039062 0.039714 0.040365 0.041016 0.041667 0.042318 0.042969 0.043620 0.044271 0.044922 0.045573 0.046224 0.046875 0.047526 0.048177 0.048828 0.049479 0.050130 0.050781 0.051432 0.052083 0.052734 0.053385 0.054036 0.054688 0.055339 0.055990 0.056641 0.057292 0.057943 0.058594 0.059245 0.059896 0.060547 0.061198 0.061849 0.062500 0.063151 0.063802 0.064453 0.065104 0.065755 0.066406 0.067057 0.067708 0.068359 0.069010 0.069661 0.070312 0.070964 0.071615 0.072266 0.072917 0.073568 0.074219 0.074870 0.075521 0.076172 0.076823 0.077474 0.078125 0.078776 0.079427 0.080078 0.080729 0.081380 0.082031 0.082682 0.083333 0.083984 0.084635 0.085286 0.085938 0.086589 0.087240 0.087891 0.088542 0.089193 0.089844 0.090495 0.091146 0.091797 0.092448 0.093099 0.093750 0.094401 0.095052 0.095703 0.096354 0.097005 0.097656 0.098307 0.098958 0.099609 0.100260 0.100911 0.101562 0.102214 0.102865 0.103516 0.104167 0.104818 0.105469 0.106120 0.106771 0.107422 0.108073 0.108724 0.109375 0.110026 0.110677 0.111328 0.111979 0.112630 0.113281 0.113932 0.114583 0.115234 0.115885 0.116536 0.117188 0.117839 0.118490 0.119141 0.119792 0.120443 0.121094 0.121745 0.122396 0.123047 0.123698 0.124349 0.125000 0.125651 0.126302 0.126953 0.127604 0.128255 0.128906 0.129557 0.130208 0.130859 0.131510 0.132161 0.132812 0.133464 0.134115 0.134766 0.135417 0.136068 0.136719 0.137370 0.138021 0.138672 0.139323 0.139974 0.140625 0.141276 0.141927 0.142578 0.143229 0.143880 0.144531 0.145182 0.145833 0.146484 0.147135 0.147786 0.148438 0.149089 0.149740 0.150391 0.151042 0.151693 0.152344 0.152995 0.153646 0.154297 0.154948 0.155599 0.156250 0.156901 0.157552 0.158203 0.158854 0.159505 0.160156 0.160807 0.161458 0.162109 0.162760 0.163411 0.164062 0.164714 0.165365 0.166016 0.166667 0.167318 0.167969 0.168620 0.169271 0.169922 0.170573 0.171224 0.171875 0.172526 0.173177 0.173828 0.174479 0.175130 0.175781 0.176432 0.177083 0.177734 0.178385 0.179036 0.179688 0.180339 0.180990 0.181641 0.182292 0.182943 0.183594 0.184245 0.184896 0.185547 0.186198 0.186849 0.187500 0.188151 0.188802 0.189453 0.190104 0.190755 0.191406 0.192057 0.192708 0.193359 0.194010 0.194661 0.195312 0.195964 0.196615 0.197266 0.197917 0.198568 0.199219 0.199870 0.200521 0.201172 0.201823 0.202474 0.203125 0.203776 0.204427 0.205078 0.205729 0.206380 0.207031 0.207682 0.208333 0.208984 0.209635 0.210286 0.210938 0.211589 0.212240 0.212891 0.213542 0.214193 0.214844 0.215495 0.216146 0.216797 0.217448 0.218099 0.218750 0.219401 0.220052 0.220703 0.221354 0.222005 0.222656 0.223307 0.223958 0.224609 0.225260 0.225911 0.226562 0.227214 0.227865 0.228516 0.229167 0.229818 0.230469 0.231120 0.231771 0.232422 0.233073 0.233724 0.234375 0.235026 0.235677
       0.34314        0.34314        0.34314        0.34315        0.34314        0.34314        0.34315        0.34314        0.34314        0.34314        0.34314        0.34315        0.34315        0.34314        0.34315        0.34314        0.34315        0.34314        0.34314        0.34314        0.34314        0.34314        0.34314        0.34315        0.34314        0.34314        0.34315        0.34314        0.34314        0.34315        0.34314        0.34314        0.34314        0.34315        0.34314        0.34314        0.34315        0.34314        0.34315        0.34314        0.34315        0.34314        0.34315        0.34314        0.34314        0.34314        0.34315        0.34314        0.34314        0.34314        0.34315        0.56650        0.78902        0.37155        0.08835       -0.22529       -0.46929       -0.38159       -0.33232       -0.27112       -0.39144       -0.26760       -0.25783       -0.49316       -0.49313       -0.58210       -0.60820       -0.68241       -0.68485       -0.66135       -0.67170       -0.69701       -0.63302       -0.53840       -0.56246       -0.60143       -0.44944       -0.34440       -0.26126       -0.23669       -0.15287       -0.05937        0.12452        0.16871        0.26219        0.45001        0.41106        0.57807        0.69847        0.59051        0.74421        0.67952        0.61471        0.61712        0.58565        0.45175        0.48677        0.32922        0.22844        0.25789        0.11428       -0.01340       -0.01275       -0.00860        0.00288       -0.00807        0.03392        0.10060        0.13252        0.29404        0.35783        0.41500        0.53347        0.65527        0.72906        0.77486        0.80833        0.71791        0.64473        0.58812        0.56025        0.44517        0.33195        0.32472        0.14622        0.12647        0.05437        0.14747        0.10561        0.10502        0.14253        0.16588        0.37825        0.44116        0.49205        0.51213        0.61332        0.54568        0.61294        0.57360        0.56393        0.49922        0.45834        0.37270        0.31427        0.21335        0.17262        0.16039        0.11324        0.11743        0.24640        0.25366        0.35596        0.44153        0.49088        0.50431        0.55704        0.49740        0.47264        0.41892        0.38876        0.34121        0.24208        0.18243        0.20653        0.23171        0.23528        0.26348        0.32482        0.31451        0.35415        0.47380        0.42181        0.49931        0.47554        0.43803        0.41412        0.35360        0.30150        0.29258        0.26911        0.29020        0.26467        0.29424        0.34070        0.41592        0.41680        0.40946        0.42138        0.44720        0.39967        0.40921        0.36388        0.30128        0.29205        0.29293        0.28632        0.33553        0.37573        0.36110        0.38421        0.41496        0.42074        0.45162        0.41481        0.40783        0.32345        0.30345        0.27550        0.31829        0.35408        0.35740        0.35791        0.31702        0.40455        0.39136        0.37398        0.36840        0.33949        0.29902        0.28091        0.28734        0.32416        0.31284        0.31571        0.31075        0.37034        0.38552        0.37963        0.37215        0.34473        0.33858        0.32635        0.34618        0.33282        0.35832        0.34835        0.33103        0.32140        0.30911        0.35434        0.37026        0.36352        0.29738        0.31240        0.31659        0.30897        0.31336        0.29965        0.32005        0.30961        0.31078        0.30517        0.34120        0.30254        0.27766        0.28145        0.28508        0.28794        0.30935        0.33040        0.34774        0.35327        0.30875        0.30528        0.32412        0.31016        0.32986        0.30716        0.30590        0.32149        0.32747        0.34656        0.33348        0.35159        0.38240        0.34906        0.31864        0.31224        0.32586        0.28583        0.31889        0.31839        0.32505        0.27722        0.34627        0.32181        0.30025        0.29663        0.30176        0.34304        0.32659        0.32944        0.30900        0.30096        0.36784        0.30727        0.33577        0.29204        0.27860        0.36351        0.31768        0.33729        0.35077        0.34746        0.32997        0.31946        0.32257        0.33957        0.31096        0.33592        0.33536        0.31647        0.32821        0.30712        0.30911        0.27363        0.26003        0.28105        0.29296        0.25593        0.29861        0.29115        0.31203        0.28634        0.26343        0.23769        0.27059        0.33114        0.29476        0.23339        0.24231        0.26787        0.27620        0.29457        0.29838        0.23714        0.26447        0.28006        0.26411        0.26828        0.25110        0.24836        0.29652        0.29274        0.32133        0.27865        0.23543        0.26193        0.33266        0.21120        0.24233        0.27836        0.30495        0.26395        0.16297        0.32302        0.27553        0.24408        0.07665       -0.04715       -0.30424       -0.75968
2.527761 2.500098 2.472592 2.445242 2.418049 2.391013 2.364134 2.337411 2.310845 2.284436 2.258184 2.232088 2.206149 2.180367 2.154742 2.129273 2.103961 2.078806 2.053808 2.028966 2.004281 1.979753 1.955382 1.931167 1.907109 1.883208 1.859464 1.835876 1.812445 1.789171 1.766054 1.743093 1.720289 1.697642 1.675152 1.652818 1.630642 1.608621 1.586758 1.565051 1.543502 1.522109 1.500872 1.479792 1.458870 1.438104 1.417494 1.397042 1.376746 1.356607 1.336624 1.298727 1.918738 1.338181 1.036398 0.599684 0.289770 0.402218 0.465340 0.489441 0.260753 0.461401 0.450348 0.220763 0.102148 0.034408 0.012230 -0.130424 -0.125328 -0.153519 -0.136007 -0.221726 -0.158681 -0.048076 -0.111657 -0.186625 -0.060573 0.081782 0.240703 0.098444 0.257283 0.285742 0.530507 0.544313 0.641550 0.812631 0.788157 0.903366 1.127956 0.971021 1.010972 1.048426 1.004267 0.862033 0.992058 0.690011 0.761524 0.600486 0.436707 0.476227 0.348890 0.129519 0.129955 0.112179 0.093574 0.103485 0.072022 0.178686 0.178667 0.351019 0.412621 0.469952 0.573767 0.702617 0.767142 0.831203 0.913388 0.718791 0.719814 0.642860 0.594898 0.439517 0.306381 0.324079 0.102207 0.078787 -0.063097 0.034637 0.011998 -0.028325 0.026051 -0.012843 0.233301 0.264517 0.417063 0.359088 0.498291 0.394732 0.513181 0.513779 0.425052 0.409883 0.311328 0.247161 0.197903 0.097770 -0.049136 0.000232 -0.091132 -0.128096 -0.011691 0.079330 0.103842 0.192010 0.308118 0.302980 0.371453 0.342738 0.355385 0.287446 0.219543 0.206437 0.098954 0.006418 -0.055844 0.062117 -0.006764 0.037534 0.117508 0.107166 0.133963 0.209455 0.257995 0.249678 0.294054 0.214129 0.221270 0.151077 0.086234 0.077857 0.060236 -0.008543 0.039015 0.020983 0.059983 0.119795 0.197070 0.172259 0.145900 0.164251 0.153651 0.103281 0.145339 0.002003 0.011468 -0.024645 -0.028916 -0.010474 0.094038 0.040185 0.077025 0.084083 0.107793 0.117631 0.125695 0.108805 0.046867 -0.031945 -0.066008 -0.027085 0.011602 0.000280 0.066941 -0.002509 0.001210 0.108343 0.031776 0.040377 0.063527 -0.066305 -0.025671 -0.072962 -0.043386 0.000278 -0.040104 -0.014429 -0.018105 0.065308 0.048324 0.061855 0.007362 0.025891 0.008527 -0.020600 0.035678 0.015978 0.039263 0.002293 0.005156 -0.017522 -0.004370 0.054921 0.074381 0.036265 -0.021616 0.036095 -0.010573 -0.001846 0.004611 -0.009251 0.023542 -0.001156 0.012850 0.012297 0.057250 -0.018282 -0.024967 -0.023136 -0.016681 -0.005988 0.020389 0.035974 0.083384 0.023987 0.002656 0.018737 0.033513 0.019436 0.012335 0.008238 0.009047 0.033157 0.032935 0.066862 0.007429 0.048115 0.074460 0.038140 0.007673 0.000616 0.008250 -0.033825 0.032469 -0.027889 0.004969 -0.026698 0.023507 -0.000909 0.002609 -0.025987 -0.035822 0.045354 0.012978 0.017756 -0.003281 0.006081 0.054972 -0.004085 0.038141 -0.036774 -0.057519 0.056487 0.006816 0.045094 0.022969 0.052295 -0.014605 0.041704 0.015052 0.012475 0.018887 0.021150 0.028705 0.001172 0.036234 0.010725 0.001727 -0.037388 -0.014978 -0.018671 -0.034579 -0.054011 0.022702 -0.000624 0.026913 -0.012775 -0.023469 -0.025356 -0.064929 0.082274 0.018496 -0.043909 -0.046664 0.016999 0.038253 0.007026 0.069269 -0.034480 0.030689 0.047128 0.024879 0.032133 -0.000387 0.011422 0.061266 0.090682 0.095037 0.096528 -0.023756 0.106722 0.108525 0.066452 0.256004 0.322180 0.290884 0.335315 0.191622 0.401775 0.331393 0.272146 0.057659 -0.053632 -0.845713
0.072396 0.072964 0.074666 0.077503 0.081474 0.086577 0.092811 0.100174 0.108663 0.118274 0.129003 0.140844 0.153789 0.167829 0.182955 0.199153 0.216408 0.234702 0.254015 0.274321 0.295593 0.317798 0.340901 0.364860 0.389628 0.415152 0.441376 0.468234 0.495654 0.523559 0.551863 0.580472 0.609284 0.638190 0.667072 0.695801 0.724244 0.752254 0.779680 0.806360 0.832123 0.856793 0.880183 0.902102 0.922351 0.940727 0.957021 0.971022 0.982517 0.991292 0.997134 0.999833 0.999186 0.994994 0.987069 0.975236 0.959330 0.939209 0.914746 0.885840 0.852414 0.814421 0.771846 0.724707 0.673061 0.617007 0.556685 0.492280 0.424026 0.352207 0.277154 0.199254 0.118941 0.036704 0.046919 0.131343 0.215935 0.300019 0.382881 0.463776 0.541929 0.616544 0.686817 0.751935 0.811095 0.863510 0.908423 0.945113 0.972915 0.991228 0.999529 0.997387 0.984476 0.960582 0.925623 0.879651 0.822869 0.755631 0.678452 0.592012 0.497152 0.394879 0.286356 0.172895 0.055947 0.062912 0.182001 0.299556 0.413751 0.522732 0.624642 0.717656 0.800019 0.870078 0.926324 0.967423 0.992259 0.999967 0.989962 0.961970 0.916053 0.852624 0.772462 0.676717 0.566903 0.444889 0.312877 0.173372 0.029143 0.116829 0.261405 0.401356 0.533434 0.654447 0.761345 0.851300 0.921788 0.970673 0.996279 0.997457 0.973645 0.924912 0.851985 0.756266 0.639827 0.505378 0.356229 0.196218 0.029628 0.138921 0.304598 0.462486 0.607744 0.735750 0.842264 0.923576 0.976651 0.999262 0.990099 0.948850 0.876262 0.774160 0.645431 0.493969 0.324584 0.142867 0.044981 0.232343 0.412425 0.578494 0.724140 0.843535 0.931680 0.984645 0.999758 0.975769 0.912958 0.813185 0.679877 0.517945 0.333640 0.134330 0.071763 0.275898 0.469181 0.642947 0.789168 0.900842 0.972351 0.999776 0.981145 0.916602 0.808473 0.661242 0.481403 0.277218 0.058368 0.164480 0.380191 0.577702 0.746615 0.877749 0.963683 0.999205 0.981676 0.911257 0.791005 0.626797 0.427100 0.202582 0.034429 0.270585 0.492279 0.686416 0.841217 0.946962 0.996649 0.986500 0.916307 0.789559 0.613338 0.397999 0.156600 0.095829 0.343214 0.569450 0.759455 0.900209 0.981695 0.997660 0.946169 0.829862 0.655915 0.435676 0.183993 0.081741 0.342758 0.580228 0.776633 0.917096 0.990563 0.990737 0.916695 0.773119 0.570095 0.322494 0.048943 0.229510 0.491012 0.714609 0.881965 0.978920 0.996759 0.933085 0.792191 0.584893 0.327795 0.042037 0.248380 0.518589 0.745000 0.907379 0.990741 0.986816 0.894964 0.722441 0.483954 0.200500 0.102391 0.396906 0.655509 0.853523 0.971553 0.997478 0.927811 0.768246 0.533349 0.245346 0.067890 0.375465 0.646505 0.853270 0.974074 0.995650 0.914731 0.738645 0.484803 0.179105 0.146591 0.457748 0.720786 0.906765 0.994649 0.973805 0.845433 0.622719 0.329628 0.001531 0.333593 0.628661 0.852466 0.978422 0.990899 0.887325 0.678782 0.389010 0.051850 0.292605 0.602724 0.840393 0.975777 0.991192 0.883584 0.665236 0.362567 0.013095 0.339110 0.648927 0.876004 0.990104 0.975280 0.832290 0.578864 0.247695 0.117595 0.468133 0.756289 0.942222 0.999515 0.919107 0.710921 0.402888 0.037388 0.334446 0.659809 0.891776 0.996155 0.956730 0.777980 0.484863 0.119537 0.264511 0.610226 0.865496 0.991073 0.966814 0.795144 0.501124 0.129051 0.264041 0.617034 0.874238 0.994292 0.957010 0.767035 0.453562 0.066115 0.333073 0.679021 0.914563 0.999974 0.919869 0.686258
1.000000 1.000000 1.000000 1.000000 1.000000 1.000000 1.000000 1.000000 1.000000 1.000000 1.000000 1.000000 1.000000 1.000000 1.000000 1.000000 1.000000 1.000000 1.000000 1.000000 1.000000 1.000000 1.000000 1.000000 1.000000 1.000000 1.000000 1.000000 1.000000 1.000000 1.000000 1.000000 1.000000 1.000000 1.000000 1.000000 1.000000 1.000000 1.000000 1.000000 1.000000 1.000000 1.000000 1.000000 1.000000 1.000000 1.000000 1.000000 1.000000 1.000000 1.000000 1.000000 0.920548 0.920548 0.920548 0.920548 0.920548 0.920548 0.920548 0.920548 0.920548 0.920548 0.920548 0.920548 0.920548 0.920548 0.920548 0.920548 0.920548 0.920548 0.920548 0.920548 0.920548 0.920548 0.920548 0.920548 0.920548 0.920548 0.920548 0.920548 0.920548 0.920548 0.920548 0.920548 0.920548 0.920548 0.920548 0.920548 0.920548 0.920548 0.920548 0.897044 0.904784 0.908225 0.910329 0.907264 0.908508 0.907820 0.908581 0.906909 0.908823 0.911708 0.913842 0.926771 0.930910 0.934320 0.933809 0.935164 0.936070 0.956851 0.956077 0.951969 0.951144 0.953769 0.956708 0.957048 0.957360 0.957169 0.957685 0.957274 0.956504 0.955696 0.954509 0.954150 0.954049 0.954104 0.954719 0.954981 0.955866 0.955739 0.955849 0.956083 0.950365 0.940924 0.946675 0.947195 0.942912 0.938337 0.939008 0.936705 0.937128 0.937994 0.939183 0.938016 0.938906 0.933688 0.931355 0.923524 0.911324 0.906481 0.906322 0.909148 0.910345 0.912856 0.911489 0.910508 0.910704 0.912411 0.910404 0.909763 0.908335 0.900366 0.906634 0.907871 0.904608 0.901173 0.879879 0.874655 0.873929 0.878773 0.881301 0.865877 0.865459 0.865701 0.868489 0.870657 0.873923 0.868010 0.862548 0.851659 0.849288 0.853360 0.837005 0.835904 0.825347 0.816660 0.800489 0.799238 0.796213 0.797006 0.796704 0.798872 0.763906 0.777432 0.775246 0.774411 0.759490 0.763003 0.764188 0.757823 0.756106 0.756834 0.756760 0.736651 0.734962 0.738616 0.735801 0.731528 0.687689 0.667656 0.640024 0.635795 0.624847 0.576947 0.557570 0.565497 0.560841 0.549424 0.539991 0.524624 0.550162 0.557156 0.546558 0.507207 0.484031 0.489014 0.482088 0.476061 0.471383 0.484774 0.496807 0.493092 0.476810 0.465134 0.471169 0.493519 0.469071 0.428649 0.437815 0.440434 0.463536 0.467121 0.466646 0.460682 0.437099 0.417478 0.437449 0.458317 0.443978 0.440058 0.438826 0.403121 0.396700 0.396788 0.373011 0.373146 0.323408 0.298680 0.295581 0.276501 0.268162 0.246081 0.283412 0.322962 0.310770 0.332597 0.374940 0.391415 0.375691 0.356267 0.299414 0.280230 0.261621 0.236537 0.239025 0.219864 0.230897 0.236983 0.204065 0.247678 0.222786 0.224256 0.207280 0.248388 0.262662 0.244656 0.174854 0.127668 0.120885 0.116851 0.096827 0.062425 0.063942 0.094581 0.071883 0.043592 -0.005329 -0.069855 -0.066019 -0.066007 -0.075443 -0.134844 -0.107364 -0.080631 -0.036747 -0.028108 -0.017287 -0.035986 -0.013481 -0.038772 -0.021138 -0.018223 -0.030411 -0.002967 -0.015180 0.011351 0.042311 0.046822 0.031790 0.062388 -0.003152 0.035202 0.011342 0.011322 0.034580 0.014467 0.036514 0.033996 0.036280 0.004696 -0.003053 -0.009591 -0.007787 -0.007787 -0.007787 -0.007787 -0.007787 -0.026565 -0.026565 -0.026565 -0.026565 -0.026565 -0.026565 -0.026565 -0.026565 -0.010277 -0.010277 -0.010277 -0.010277 -0.010277 -0.010277 -0.010277 -0.010277 0.004983 0.004983 0.004983 0.004983 0.004983 0.004983 0.004983 0.004983 0.004983 0.004983
0.000000 0.000000 0.000000 0.000000 0.000000 0.000000 0.000000 0.000000 0.000000 0.000000 0.000000 0.000000 0.000000 0.000000 0.000000 0.000000 0.000000 0.000000 0.000000 0.000000 0.000000 9401.000000 0.000000 0.000000 0.000000 0.000000 0.000000 0.000000 0.000000 0.000000 0.000000 0.000000 0.000000 0.000000 0.000000 0.000000 0.000000 0.000000 0.000000 0.000000 0.000000 0.000000 0.000000 0.000000 0.000000 0.000000 0.000000 0.000000 0.000000 0.000000 0.000000 0.000000 0.203069 0.203069 0.203069 0.203069 0.203069 0.203069 0.203069 0.203069 0.203069 0.203069 0.203069 0.203069 0.203069 0.203069 0.203069 0.203069 0.203069 0.203069 0.203069 0.203069 0.203069 0.203069 0.203069 0.203069 0.203069 0.203069 0.203069 0.203069 0.203069 0.203069 0.203069 0.203069 0.203069 0.203069 0.203069 0.203069 0.203069 0.203069 0.203069 0.237356 0.237356 0.237356 0.237356 0.237356 0.237356 0.237356 0.237356 0.237356 0.237356 0.237356 0.237356 0.237356 0.237356 0.237356 0.237356 0.237356 0.237356 0.237356 0.237356 0.237356 0.237356 0.237356 0.237356 0.237356 0.237356 0.248069 0.248069 0.248069 0.248069 0.248069 0.248069 0.248069 0.248069 0.248069 0.248069 0.248069 0.248069 0.248069 0.248069 0.248069 0.248069 0.248069 0.248069 0.248069 0.248069 0.248069 0.248069 0.256074 0.256074 0.256074 0.256074 0.256074 0.256074 0.256074 0.256074 0.256074 0.256074 0.256074 0.256074 0.256074 0.256074 0.256074 0.256074 0.256074 0.256074 0.256074 0.269680 0.269680 0.269680 0.269680 0.269680 0.269680 0.269680 0.269680 0.269680 0.269680 0.269680 0.269680 0.269680 0.269680 0.269680 0.269680 0.264906 0.264906 0.264906 0.264906 0.264906 0.264906 0.264906 0.264906 0.264906 0.264906 0.264906 0.264906 0.264906 0.264906 0.264906 0.264906 0.269680 0.269680 0.269680 0.269680 0.269680 0.269680 0.269680 0.269680 0.269680 0.269680 0.269680 0.269680 0.269680 0.269680 0.274721 0.274721 0.274721 0.274721 0.274721 0.274721 0.274721 0.274721 0.274721 0.274721 0.274721 0.274721 0.274721 0.274721 0.274721 0.274721 0.274721 0.274721 0.274721 0.274721 0.274721 0.274721 0.274721 0.274721 0.274721 0.269680 0.269680 0.269680 0.269680 0.269680 0.269680 0.269680 0.269680 0.269680 0.269680 0.269680 0.269680 0.274721 0.274721 0.274721 0.274721 0.274721 0.274721 0.274721 0.274721 0.274721 0.274721 0.274721 0.269680 0.269680 0.269680 0.269680 0.269680 0.269680 0.269680 0.269680 0.269680 0.269680 0.269680 0.274721 0.274721 0.274721 0.274721 0.274721 0.274721 0.274721 0.274721 0.274721 0.274721 0.269680 0.269680 0.269680 0.269680 0.269680 0.269680 0.269680 0.269680 0.269680 0.269680 0.264906 0.264906 0.264906 0.264906 0.264906 0.264906 0.264906 0.264906 0.264906 0.264906 0.269680 0.269680 0.269680 0.269680 0.269680 0.269680 0.269680 0.269680 0.269680 0.264906 0.264906 0.264906 0.264906 0.264906 0.264906 0.264906 0.264906 0.264906 0.260378 0.260378 0.260378 0.260378 0.260378 0.260378 0.260378 0.260378 0.260378 0.269680 0.269680 0.269680 0.269680 0.269680 0.269680 0.269680 0.269680 0.251976 0.251976 0.251976 0.251976 0.251976 0.251976 0.251976 0.251976 0.251976 0.264906 0.264906 0.264906 0.264906 0.264906 0.264906 0.264906 0.264906 0.260378 0.260378 0.260378 0.260378 0.260378 0.260378 0.260378 0.260378 0.256074 0.256074 0.256074 0.256074 0.256074 0.256074 0.256074 0.256074 0.256074 0.256074
