# Output from CTFFind version 4.1.9, run on 2019-11-03 18:51:19
# Input file: stack19_ub_averaged_250.mrc ; Number of micrographs: 1
# Pixel size: 3.000 Angstroms ; acceleration voltage: 300.0 keV ; spherical aberration: 0.00 mm ; amplitude contrast: 0.07
# Box size: 512 pixels ; min. res.: 30.0 Angstroms ; max. res.: 5.0 Angstroms ; min. def.: 5000.0 um; max. def. 50000.0 um; num. frames averaged: 1
# 6 lines per micrograph: #1 - spatial frequency (1/Angstroms); #2 - 1D rotational average of spectrum (assuming no astigmatism); #3 - 1D rotational average of spectrum; #4 - CTF fit; #5 - cross-correlation between spectrum and CTF fit; #6 - 2sigma of expected cross correlation of noise
0.000000 0.000651 0.001302 0.001953 0.002604 0.003255 0.003906 0.004557 0.005208 0.005859 0.006510 0.007161 0.007812 0.008464 0.009115 0.009766 0.010417 0.011068 0.011719 0.012370 0.013021 0.013672 0.014323 0.014974 0.015625 0.016276 0.016927 0.017578 0.018229 0.018880 0.019531 0.020182 0.020833 0.021484 0.022135 0.022786 0.023438 0.024089 0.024740 0.025391 0.026042 0.026693 0.027344 0.027995 0.028646 0.029297 0.029948 0.030599 0.031250 0.031901 0.032552 0.033203 0.033854 0.034505 0.035156 0.035807 0.036458 0.037109 0.037760 0.038411 0.039062 0.039714 0.040365 0.041016 0.041667 0.042318 0.042969 0.043620 0.044271 0.044922 0.045573 0.046224 0.046875 0.047526 0.048177 0.048828 0.049479 0.050130 0.050781 0.051432 0.052083 0.052734 0.053385 0.054036 0.054688 0.055339 0.055990 0.056641 0.057292 0.057943 0.058594 0.059245 0.059896 0.060547 0.061198 0.061849 0.062500 0.063151 0.063802 0.064453 0.065104 0.065755 0.066406 0.067057 0.067708 0.068359 0.069010 0.069661 0.070312 0.070964 0.071615 0.072266 0.072917 0.073568 0.074219 0.074870 0.075521 0.076172 0.076823 0.077474 0.078125 0.078776 0.079427 0.080078 0.080729 0.081380 0.082031 0.082682 0.083333 0.083984 0.084635 0.085286 0.085938 0.086589 0.087240 0.087891 0.088542 0.089193 0.089844 0.090495 0.091146 0.091797 0.092448 0.093099 0.093750 0.094401 0.095052 0.095703 0.096354 0.097005 0.097656 0.098307 0.098958 0.099609 0.100260 0.100911 0.101562 0.102214 0.102865 0.103516 0.104167 0.104818 0.105469 0.106120 0.106771 0.107422 0.108073 0.108724 0.109375 0.110026 0.110677 0.111328 0.111979 0.112630 0.113281 0.113932 0.114583 0.115234 0.115885 0.116536 0.117188 0.117839 0.118490 0.119141 0.119792 0.120443 0.121094 0.121745 0.122396 0.123047 0.123698 0.124349 0.125000 0.125651 0.126302 0.126953 0.127604 0.128255 0.128906 0.129557 0.130208 0.130859 0.131510 0.132161 0.132812 0.133464 0.134115 0.134766 0.135417 0.136068 0.136719 0.137370 0.138021 0.138672 0.139323 0.139974 0.140625 0.141276 0.141927 0.142578 0.143229 0.143880 0.144531 0.145182 0.145833 0.146484 0.147135 0.147786 0.148438 0.149089 0.149740 0.150391 0.151042 0.151693 0.152344 0.152995 0.153646 0.154297 0.154948 0.155599 0.156250 0.156901 0.157552 0.158203 0.158854 0.159505 0.160156 0.160807 0.161458 0.162109 0.162760 0.163411 0.164062 0.164714 0.165365 0.166016 0.166667 0.167318 0.167969 0.168620 0.169271 0.169922 0.170573 0.171224 0.171875 0.172526 0.173177 0.173828 0.174479 0.175130 0.175781 0.176432 0.177083 0.177734 0.178385 0.179036 0.179688 0.180339 0.180990 0.181641 0.182292 0.182943 0.183594 0.184245 0.184896 0.185547 0.186198 0.186849 0.187500 0.188151 0.188802 0.189453 0.190104 0.190755 0.191406 0.192057 0.192708 0.193359 0.194010 0.194661 0.195312 0.195964 0.196615 0.197266 0.197917 0.198568 0.199219 0.199870 0.200521 0.201172 0.201823 0.202474 0.203125 0.203776 0.204427 0.205078 0.205729 0.206380 0.207031 0.207682 0.208333 0.208984 0.209635 0.210286 0.210938 0.211589 0.212240 0.212891 0.213542 0.214193 0.214844 0.215495 0.216146 0.216797 0.217448 0.218099 0.218750 0.219401 0.220052 0.220703 0.221354 0.222005 0.222656 0.223307 0.223958 0.224609 0.225260 0.225911 0.226562 0.227214 0.227865 0.228516 0.229167 0.229818 0.230469 0.231120 0.231771 0.232422 0.233073 0.233724 0.234375 0.235026 0.235677
       0.32410        0.32410        0.32410        0.32410        0.32410        0.32410        0.32410        0.32410        0.32410        0.32410        0.32410        0.32410        0.32410        0.32410        0.32410        0.32410        0.32410        0.32410        0.32410        0.32410        0.32410        0.32410        0.32410        0.32410        0.32410        0.32410        0.32410        0.32410        0.32410        0.32410        0.32410        0.32410        0.32410        0.32410        0.32410        0.32410        0.32410        0.32410        0.32410        0.32410        0.32410        0.32410        0.32410        0.32410        0.32410        0.32410        0.32410        0.32410        0.32410        0.32410        0.32410        0.63384        0.80091        0.36415        0.18420       -0.11230       -0.27440       -0.28815       -0.03965       -0.13223        0.10986        0.01596       -0.03942       -0.06406       -0.13065       -0.24826       -0.37316       -0.44474       -0.45755       -0.45247       -0.45826       -0.50417       -0.51691       -0.50897       -0.54144       -0.53937       -0.63167       -0.53501       -0.57092       -0.50273       -0.47469       -0.32557       -0.27476       -0.11668       -0.06977        0.08613        0.17215        0.22124        0.27430        0.27183        0.47851        0.57299        0.55001        0.52675        0.64006        0.65338        0.74249        0.82581        0.79898        0.64817        0.53952        0.49511        0.36017        0.27111        0.17995        0.12856        0.11280        0.00174       -0.09159        0.02529       -0.01348       -0.08060       -0.04337        0.04981        0.09623        0.15876        0.24568        0.39732        0.53151        0.48108        0.64406        0.62887        0.69137        0.70784        0.67541        0.56340        0.58584        0.57031        0.51525        0.44757        0.30428        0.25929        0.13642        0.06222        0.06191        0.02557        0.14693        0.16061        0.13071        0.21866        0.31804        0.46510        0.50844        0.45742        0.62454        0.56244        0.59648        0.54589        0.59586        0.46593        0.39476        0.34639        0.24956        0.15614        0.11808        0.13459        0.10842        0.13154        0.23751        0.23861        0.30077        0.34052        0.35754        0.43681        0.49362        0.51174        0.49335        0.47575        0.35925        0.35505        0.29351        0.31698        0.22860        0.17546        0.17942        0.21987        0.28094        0.22595        0.24982        0.36869        0.42135        0.46783        0.54036        0.50091        0.43106        0.41469        0.34541        0.37189        0.34611        0.27580        0.22655        0.22561        0.26908        0.26428        0.34847        0.37538        0.39404        0.40255        0.41195        0.40254        0.42326        0.37946        0.31592        0.28224        0.23779        0.25551        0.21229        0.23921        0.26191        0.30545        0.35182        0.34772        0.38966        0.42107        0.42156        0.40203        0.38988        0.34349        0.33741        0.29616        0.25674        0.23392        0.23711        0.28922        0.35845        0.36721        0.39335        0.40510        0.37906        0.39923        0.31659        0.28260        0.26112        0.26447        0.27933        0.28240        0.31516        0.32737        0.34383        0.33960        0.34771        0.30090        0.31158        0.31094        0.25474        0.29587        0.24362        0.27765        0.27477        0.27802        0.29088        0.32798        0.32702        0.34064        0.31374        0.31151        0.28015        0.26939        0.28453        0.25574        0.27316        0.29528        0.31951        0.33808        0.32816        0.36193        0.34794        0.31233        0.30998        0.27583        0.28958        0.27137        0.29674        0.33339        0.33958        0.30585        0.33385        0.29204        0.29408        0.30452        0.28340        0.29968        0.32000        0.31884        0.29818        0.31434        0.30594        0.35903        0.33284        0.30003        0.27320        0.25949        0.28265        0.33025        0.26264        0.24271        0.29469        0.31937        0.28669        0.32871        0.30910        0.33722        0.30852        0.27487        0.23359        0.29269        0.32666        0.25398        0.30947        0.30605        0.32365        0.21724        0.28457        0.32098        0.33121        0.22649        0.28843        0.25491        0.27361        0.29564        0.28539        0.21030        0.21556        0.25054        0.26188        0.31175        0.25701        0.22235        0.24813        0.27817        0.23861        0.26014        0.19881        0.25191        0.21053        0.29487        0.28453        0.26635        0.26329        0.27196        0.24663        0.31334        0.24874        0.29676        0.23561        0.22608        0.25874        0.25269        0.28593        0.29530        0.15008        0.15337        0.13347        0.34572        0.24237        0.15049        0.14857        0.14620        0.01620        0.29598        0.38699       -0.28131       -0.44469
2.675230 2.646834 2.618597 2.590518 2.562599 2.534838 2.507236 2.479793 2.452508 2.425383 2.398416 2.371608 2.344959 2.318469 2.292138 2.265966 2.239952 2.214097 2.188401 2.162864 2.137486 2.112267 2.087206 2.062304 2.037562 2.012978 1.988552 1.964286 1.940178 1.916230 1.892440 1.868809 1.845337 1.822023 1.798869 1.775873 1.753036 1.730358 1.707839 1.685479 1.663278 1.641235 1.619351 1.597626 1.576060 1.554653 1.533404 1.512315 1.491384 1.470612 1.449999 1.555170 2.268963 1.411991 1.075302 0.784064 0.706412 0.490559 0.937000 0.704820 0.991713 0.938734 0.652081 0.752827 0.682099 0.525774 0.277320 0.249063 0.110726 0.196128 0.187528 0.045561 -0.029254 0.045611 -0.021494 -0.008301 -0.205479 -0.066085 -0.170195 -0.068637 -0.091190 0.106154 0.112537 0.279447 0.381835 0.469867 0.669147 0.633478 0.731331 0.632494 0.907583 1.039906 1.011247 0.955454 1.056516 1.055887 1.130882 1.312355 1.214788 1.100697 0.874936 0.860032 0.650054 0.591061 0.393138 0.301307 0.372619 0.170469 0.034386 0.130411 0.153678 -0.074760 0.049423 0.138850 0.163781 0.277656 0.240943 0.425602 0.700191 0.618016 0.711334 0.719114 0.821206 0.827023 0.812853 0.649863 0.691495 0.622713 0.590848 0.487440 0.390707 0.221051 0.147306 -0.033158 -0.029147 -0.038170 -0.060942 0.130269 0.040550 0.058821 0.163684 0.315452 0.534527 0.327352 0.508657 0.554001 0.534844 0.528359 0.556383 0.432217 0.297089 0.261157 0.160179 0.037715 -0.076436 -0.033427 -0.048878 -0.116065 0.085006 0.036193 0.112124 0.169558 0.217434 0.225907 0.328745 0.390270 0.462848 0.416959 0.340525 0.238350 0.167882 0.245914 0.127167 0.046848 -0.015525 0.045081 0.101400 0.137691 0.052060 0.181255 0.277601 0.288925 0.451863 0.388171 0.277045 0.328212 0.199203 0.207722 0.202924 0.132888 0.059782 0.007008 0.106208 0.045502 0.108311 0.201500 0.209030 0.250897 0.220722 0.245064 0.245335 0.213220 0.121725 0.129001 0.021736 0.053957 0.011283 0.009631 -0.010311 0.085984 0.112087 0.146888 0.148464 0.207177 0.215275 0.224615 0.199206 0.138896 0.102105 0.118544 0.034091 -0.009320 -0.003526 -0.019587 0.119287 0.126084 0.147472 0.195150 0.186120 0.161962 0.175505 0.038514 0.032996 0.034584 0.009584 0.058252 0.038063 0.106592 0.087484 0.116199 0.134274 0.102885 0.064648 0.097810 0.042175 0.031922 0.059115 -0.005186 0.050030 0.027519 0.045220 0.061399 0.096677 0.111883 0.067803 0.089117 0.053692 0.025718 0.033472 -0.014954 0.028894 0.048953 0.043593 0.081844 0.084218 0.118499 0.126340 0.111133 0.052906 0.054304 0.010137 0.046916 0.025670 0.022867 0.114392 0.075409 0.020050 0.110221 -0.045331 0.038160 0.019086 0.004555 0.022782 0.039029 0.019114 0.041082 0.038411 0.042394 0.069001 0.055592 0.015107 -0.017451 -0.025612 -0.011212 0.073889 -0.047802 -0.004898 0.028281 0.050327 0.007073 0.086493 0.069106 0.062736 0.033222 0.019006 -0.051208 0.032645 0.148548 0.022139 0.107262 0.095212 0.093932 -0.033294 0.079284 0.122507 0.104286 -0.030107 0.135514 0.036224 0.041439 0.102636 0.081890 -0.019874 -0.020796 0.047380 0.024136 0.113218 0.026805 -0.053187 0.050334 0.040814 -0.026546 0.040793 -0.085489 0.054475 -0.017393 0.054631 0.034383 -0.014753 -0.021079 0.049649 -0.012555 0.043525 -0.017728 0.025281 -0.074622 -0.028677 -0.019960 -0.011616 0.049811 0.009599 -0.124037 -0.155841 -0.283087 0.415519 0.273518 0.179775 0.182185 0.279653 0.001491 0.339665 0.475050 -0.533327
0.072396 0.072910 0.074451 0.077019 0.080613 0.085233 0.090877 0.097543 0.105229 0.113932 0.123649 0.134375 0.146105 0.158831 0.172546 0.187239 0.202899 0.219513 0.237064 0.255534 0.274902 0.295144 0.316231 0.338133 0.360814 0.384235 0.408351 0.433115 0.458472 0.484362 0.510721 0.537477 0.564553 0.591866 0.619324 0.646831 0.674281 0.701565 0.728563 0.755150 0.781192 0.806550 0.831079 0.854624 0.877026 0.898121 0.917739 0.935705 0.951840 0.965964 0.977893 0.987443 0.994431 0.998674 0.999994 0.998215 0.993172 0.984704 0.972663 0.956911 0.937327 0.913805 0.886257 0.854619 0.818849 0.778931 0.734877 0.686730 0.634565 0.578494 0.518663 0.455258 0.388503 0.318665 0.246053 0.171015 0.093946 0.015278 0.064513 0.144911 0.225367 0.305293 0.384072 0.461060 0.535590 0.606979 0.674532 0.737552 0.795344 0.847227 0.892537 0.930644 0.960953 0.982921 0.996063 0.999963 0.994285 0.978781 0.953302 0.917805 0.872364 0.817173 0.752552 0.678956 0.596971 0.507319 0.410854 0.308562 0.201550 0.091044 0.021629 0.135047 0.247716 0.358082 0.464557 0.565538 0.659435 0.744695 0.819833 0.883458 0.934301 0.971250 0.993371 0.999940 0.990465 0.964709 0.922711 0.864795 0.791585 0.704008 0.603292 0.490958 0.368807 0.238899 0.103521 0.034839 0.173548 0.309859 0.440979 0.564118 0.676551 0.775688 0.859131 0.924744 0.970715 0.995609 0.998425 0.978642 0.936250 0.871781 0.786313 0.681479 0.559445 0.422878 0.274907 0.119053 0.040840 0.200696 0.356310 0.503455 0.638002 0.756038 0.853990 0.928742 0.977746 0.999122 0.991745 0.955307 0.890365 0.798360 0.681608 0.543263 0.387253 0.218182 0.041209 0.138096 0.313930 0.480433 0.631897 0.762959 0.868807 0.945371 0.989492 0.999080 0.973223 0.912273 0.817875 0.692960 0.541681 0.369298 0.182022 0.013200 0.208922 0.397486 0.571315 0.723231 0.846759 0.936421 0.988002 0.998779 0.967679 0.895394 0.784408 0.638953 0.464884 0.269467 0.061108 0.150999 0.357260 0.548122 0.714516 0.848305 0.942706 0.992660 0.995134 0.949342 0.856856 0.721602 0.549745 0.349440 0.130484 0.096141 0.318802 0.525815 0.706053 0.849573 0.948185 0.995953 0.989598 0.928758 0.816100 0.657264 0.460630 0.236922 0.001341 0.240527 0.466658 0.666225 0.827025 0.938921 0.994535 0.989771 0.924172 0.801053 0.627403 0.413545 0.172575 0.080399 0.329189 0.557554 0.750260 0.894140 0.979018 0.998493 0.950473 0.837440 0.666410 0.448557 0.198559 0.066352 0.327564 0.566355 0.765269 0.909413 0.987625 0.993396 0.925481 0.788134 0.590929 0.348169 0.077912 0.199317 0.462083 0.689689 0.863819 0.970083 0.999256 0.948155 0.820060 0.624601 0.377133 0.097587 0.191061 0.464667 0.699933 0.876421 0.978382 0.996233 0.927551 0.777456 0.558342 0.288950 0.007155 0.303605 0.573539 0.792071 0.938619 0.998907 0.966464 0.843405 0.640432 0.376024 0.074847 0.234498 0.522134 0.759816 0.923742 0.997012 0.971470 0.848716 0.640173 0.366143 0.053947 0.264751 0.557104 0.792485 0.945747 0.999988 0.948541 0.795904 0.557496 0.258248 0.069926 0.391445 0.670923 0.877073 0.986295 0.985485 0.873738 0.662712 0.375561 0.044526 0.292606 0.596773 0.832181 0.970576 0.994759 0.900853 0.699040 0.412642 0.075549 0.271686 0.586666 0.830364 0.972004 0.993081 0.889925 0.674462 0.373022 0.023257 0.330446 0.642565 0.872324 0.989107 0.976672 0.835583 0.583453 0.252955 0.112308 0.463423 0.752720 0.940314 0.999684
1.000000 1.000000 1.000000 1.000000 1.000000 1.000000 1.000000 1.000000 1.000000 1.000000 1.000000 1.000000 1.000000 1.000000 1.000000 1.000000 1.000000 1.000000 1.000000 1.000000 1.000000 1.000000 1.000000 1.000000 1.000000 1.000000 1.000000 1.000000 1.000000 1.000000 1.000000 1.000000 1.000000 1.000000 1.000000 1.000000 1.000000 1.000000 1.000000 1.000000 1.000000 1.000000 1.000000 1.000000 1.000000 1.000000 1.000000 1.000000 1.000000 1.000000 1.000000 1.000000 0.939956 0.939956 0.941157 0.941157 0.941157 0.941157 0.941157 0.941157 0.941157 0.941157 0.941157 0.941157 0.941157 0.941157 0.941157 0.941157 0.941157 0.941157 0.941157 0.941157 0.941157 0.941157 0.941157 0.941157 0.941157 0.941157 0.941157 0.941157 0.941157 0.941157 0.941157 0.941157 0.941157 0.941157 0.941157 0.941157 0.941157 0.941157 0.941157 0.941157 0.941157 0.941157 0.941157 0.944421 0.942251 0.942870 0.943633 0.944437 0.938638 0.937596 0.936888 0.936658 0.937232 0.937594 0.944762 0.946137 0.947312 0.950240 0.956738 0.957699 0.957921 0.959779 0.958494 0.958676 0.956908 0.953190 0.951120 0.952117 0.953454 0.952468 0.951306 0.954013 0.955117 0.953443 0.951208 0.950317 0.950601 0.950568 0.950464 0.950442 0.950266 0.950842 0.951405 0.951768 0.950141 0.947943 0.945070 0.946343 0.949158 0.951529 0.953711 0.947845 0.947512 0.940536 0.943200 0.939957 0.939986 0.940419 0.941675 0.942348 0.941113 0.930175 0.927193 0.914561 0.909085 0.907888 0.907621 0.910070 0.914861 0.916330 0.912399 0.906764 0.903040 0.895803 0.907015 0.903217 0.895702 0.889899 0.891332 0.894857 0.895197 0.894360 0.887642 0.884854 0.877350 0.877937 0.881765 0.885521 0.881926 0.881914 0.880730 0.879568 0.879732 0.880246 0.879755 0.885502 0.885145 0.885911 0.886358 0.877808 0.877546 0.880993 0.879021 0.862934 0.860041 0.857214 0.857277 0.861773 0.873535 0.874480 0.871375 0.851914 0.849434 0.865468 0.881262 0.882096 0.883149 0.883422 0.876420 0.870721 0.870116 0.873654 0.864270 0.869386 0.867993 0.869449 0.855290 0.858061 0.849360 0.847917 0.842172 0.838432 0.842324 0.848339 0.849005 0.846198 0.842502 0.840779 0.830952 0.839753 0.838480 0.840013 0.837176 0.834536 0.827387 0.830515 0.830438 0.828440 0.827563 0.823619 0.817897 0.824602 0.820518 0.819160 0.805581 0.815965 0.814301 0.790419 0.787819 0.758117 0.757604 0.750133 0.739885 0.733157 0.723423 0.714284 0.712932 0.718534 0.733318 0.731374 0.721718 0.706795 0.707006 0.706388 0.716645 0.695793 0.646479 0.622432 0.630555 0.634686 0.632511 0.612976 0.588678 0.507385 0.495193 0.462606 0.459725 0.480868 0.464823 0.459308 0.441603 0.428278 0.455451 0.445639 0.435021 0.414145 0.395226 0.385055 0.342825 0.323430 0.360723 0.374291 0.365635 0.349603 0.352041 0.337524 0.327262 0.290782 0.260788 0.250543 0.247829 0.252646 0.238296 0.246164 0.231382 0.214734 0.248989 0.245004 0.249841 0.183518 0.188793 0.183686 0.175939 0.191293 0.171749 0.161387 0.134677 0.135783 0.113606 0.025310 -0.002524 0.002214 -0.005639 -0.022324 -0.000685 0.004156 -0.001629 -0.009847 0.002133 0.022725 0.044374 -0.007779 -0.013242 -0.013242 -0.052858 -0.052858 -0.052858 -0.052858 -0.052858 -0.052858 -0.052858 -0.052858 -0.052858 -0.052754 -0.052754 -0.052754 -0.052754 -0.052754 -0.052754 -0.052754 -0.052754 -0.052754 -0.007035 -0.007035 -0.007035 -0.007035 -0.007035 -0.007035 -0.007035 -0.007035 -0.007035
0.000000 0.000000 0.000000 0.000000 0.000000 0.000000 0.000000 0.000000 0.000000 0.000000 0.000000 0.000000 0.000000 0.000000 0.000000 0.000000 0.000000 0.000000 0.000000 0.000000 0.000000 9401.000000 0.000000 0.000000 0.000000 0.000000 0.000000 0.000000 0.000000 0.000000 0.000000 0.000000 0.000000 0.000000 0.000000 0.000000 0.000000 0.000000 0.000000 0.000000 0.000000 0.000000 0.000000 0.000000 0.000000 0.000000 0.000000 0.000000 0.000000 0.000000 0.000000 0.000000 0.181818 0.181818 0.199007 0.199007 0.199007 0.199007 0.199007 0.199007 0.199007 0.199007 0.199007 0.199007 0.199007 0.199007 0.199007 0.199007 0.199007 0.199007 0.199007 0.199007 0.199007 0.199007 0.199007 0.199007 0.199007 0.199007 0.199007 0.199007 0.199007 0.199007 0.199007 0.199007 0.199007 0.199007 0.199007 0.199007 0.199007 0.199007 0.199007 0.199007 0.199007 0.199007 0.199007 0.230940 0.230940 0.230940 0.230940 0.230940 0.230940 0.230940 0.230940 0.230940 0.230940 0.230940 0.230940 0.230940 0.230940 0.230940 0.230940 0.230940 0.230940 0.230940 0.230940 0.230940 0.230940 0.230940 0.230940 0.230940 0.230940 0.230940 0.230940 0.244339 0.244339 0.244339 0.244339 0.244339 0.244339 0.244339 0.244339 0.244339 0.244339 0.244339 0.244339 0.244339 0.244339 0.244339 0.244339 0.244339 0.244339 0.244339 0.244339 0.244339 0.244339 0.244339 0.251976 0.251976 0.251976 0.251976 0.251976 0.251976 0.251976 0.251976 0.251976 0.251976 0.251976 0.251976 0.251976 0.251976 0.251976 0.251976 0.251976 0.251976 0.251976 0.251976 0.264906 0.264906 0.264906 0.264906 0.264906 0.264906 0.264906 0.264906 0.264906 0.264906 0.264906 0.264906 0.264906 0.264906 0.264906 0.264906 0.264906 0.264906 0.264906 0.264906 0.264906 0.264906 0.264906 0.264906 0.264906 0.264906 0.264906 0.264906 0.264906 0.264906 0.264906 0.264906 0.264906 0.264906 0.264906 0.264906 0.264906 0.264906 0.264906 0.264906 0.264906 0.264906 0.264906 0.264906 0.264906 0.264906 0.264906 0.264906 0.264906 0.264906 0.264906 0.264906 0.264906 0.264906 0.264906 0.264906 0.264906 0.264906 0.264906 0.264906 0.264906 0.264906 0.264906 0.264906 0.264906 0.264906 0.264906 0.264906 0.264906 0.264906 0.264906 0.264906 0.264906 0.264906 0.264906 0.269680 0.269680 0.269680 0.269680 0.269680 0.269680 0.269680 0.269680 0.269680 0.269680 0.269680 0.269680 0.264906 0.264906 0.264906 0.264906 0.264906 0.264906 0.264906 0.264906 0.264906 0.264906 0.264906 0.264906 0.269680 0.269680 0.269680 0.269680 0.269680 0.269680 0.269680 0.269680 0.269680 0.269680 0.269680 0.264906 0.264906 0.264906 0.264906 0.264906 0.264906 0.264906 0.264906 0.264906 0.264906 0.264906 0.256074 0.256074 0.256074 0.256074 0.256074 0.256074 0.256074 0.256074 0.256074 0.256074 0.256074 0.264906 0.264906 0.264906 0.264906 0.264906 0.264906 0.264906 0.264906 0.264906 0.264906 0.260378 0.260378 0.260378 0.260378 0.260378 0.260378 0.260378 0.260378 0.260378 0.260378 0.264906 0.264906 0.264906 0.264906 0.264906 0.264906 0.264906 0.264906 0.264906 0.260378 0.260378 0.260378 0.260378 0.260378 0.260378 0.260378 0.260378 0.260378 0.256074 0.256074 0.256074 0.256074 0.256074 0.256074 0.256074 0.256074 0.256074 0.251976 0.251976 0.251976 0.251976 0.251976 0.251976 0.251976 0.251976 0.251976 0.264906 0.264906 0.264906 0.264906 0.264906 0.264906 0.264906 0.264906 0.264906
