# Output from CTFFind version 4.1.9, run on 2019-11-03 18:51:11
# Input file: stack8_ub_averaged_50.mrc ; Number of micrographs: 1
# Pixel size: 3.000 Angstroms ; acceleration voltage: 300.0 keV ; spherical aberration: 0.00 mm ; amplitude contrast: 0.07
# Box size: 512 pixels ; min. res.: 30.0 Angstroms ; max. res.: 5.0 Angstroms ; min. def.: 5000.0 um; max. def. 50000.0 um; num. frames averaged: 1
# 6 lines per micrograph: #1 - spatial frequency (1/Angstroms); #2 - 1D rotational average of spectrum (assuming no astigmatism); #3 - 1D rotational average of spectrum; #4 - CTF fit; #5 - cross-correlation between spectrum and CTF fit; #6 - 2sigma of expected cross correlation of noise
0.000000 0.000651 0.001302 0.001953 0.002604 0.003255 0.003906 0.004557 0.005208 0.005859 0.006510 0.007161 0.007812 0.008464 0.009115 0.009766 0.010417 0.011068 0.011719 0.012370 0.013021 0.013672 0.014323 0.014974 0.015625 0.016276 0.016927 0.017578 0.018229 0.018880 0.019531 0.020182 0.020833 0.021484 0.022135 0.022786 0.023438 0.024089 0.024740 0.025391 0.026042 0.026693 0.027344 0.027995 0.028646 0.029297 0.029948 0.030599 0.031250 0.031901 0.032552 0.033203 0.033854 0.034505 0.035156 0.035807 0.036458 0.037109 0.037760 0.038411 0.039062 0.039714 0.040365 0.041016 0.041667 0.042318 0.042969 0.043620 0.044271 0.044922 0.045573 0.046224 0.046875 0.047526 0.048177 0.048828 0.049479 0.050130 0.050781 0.051432 0.052083 0.052734 0.053385 0.054036 0.054688 0.055339 0.055990 0.056641 0.057292 0.057943 0.058594 0.059245 0.059896 0.060547 0.061198 0.061849 0.062500 0.063151 0.063802 0.064453 0.065104 0.065755 0.066406 0.067057 0.067708 0.068359 0.069010 0.069661 0.070312 0.070964 0.071615 0.072266 0.072917 0.073568 0.074219 0.074870 0.075521 0.076172 0.076823 0.077474 0.078125 0.078776 0.079427 0.080078 0.080729 0.081380 0.082031 0.082682 0.083333 0.083984 0.084635 0.085286 0.085938 0.086589 0.087240 0.087891 0.088542 0.089193 0.089844 0.090495 0.091146 0.091797 0.092448 0.093099 0.093750 0.094401 0.095052 0.095703 0.096354 0.097005 0.097656 0.098307 0.098958 0.099609 0.100260 0.100911 0.101562 0.102214 0.102865 0.103516 0.104167 0.104818 0.105469 0.106120 0.106771 0.107422 0.108073 0.108724 0.109375 0.110026 0.110677 0.111328 0.111979 0.112630 0.113281 0.113932 0.114583 0.115234 0.115885 0.116536 0.117188 0.117839 0.118490 0.119141 0.119792 0.120443 0.121094 0.121745 0.122396 0.123047 0.123698 0.124349 0.125000 0.125651 0.126302 0.126953 0.127604 0.128255 0.128906 0.129557 0.130208 0.130859 0.131510 0.132161 0.132812 0.133464 0.134115 0.134766 0.135417 0.136068 0.136719 0.137370 0.138021 0.138672 0.139323 0.139974 0.140625 0.141276 0.141927 0.142578 0.143229 0.143880 0.144531 0.145182 0.145833 0.146484 0.147135 0.147786 0.148438 0.149089 0.149740 0.150391 0.151042 0.151693 0.152344 0.152995 0.153646 0.154297 0.154948 0.155599 0.156250 0.156901 0.157552 0.158203 0.158854 0.159505 0.160156 0.160807 0.161458 0.162109 0.162760 0.163411 0.164062 0.164714 0.165365 0.166016 0.166667 0.167318 0.167969 0.168620 0.169271 0.169922 0.170573 0.171224 0.171875 0.172526 0.173177 0.173828 0.174479 0.175130 0.175781 0.176432 0.177083 0.177734 0.178385 0.179036 0.179688 0.180339 0.180990 0.181641 0.182292 0.182943 0.183594 0.184245 0.184896 0.185547 0.186198 0.186849 0.187500 0.188151 0.188802 0.189453 0.190104 0.190755 0.191406 0.192057 0.192708 0.193359 0.194010 0.194661 0.195312 0.195964 0.196615 0.197266 0.197917 0.198568 0.199219 0.199870 0.200521 0.201172 0.201823 0.202474 0.203125 0.203776 0.204427 0.205078 0.205729 0.206380 0.207031 0.207682 0.208333 0.208984 0.209635 0.210286 0.210938 0.211589 0.212240 0.212891 0.213542 0.214193 0.214844 0.215495 0.216146 0.216797 0.217448 0.218099 0.218750 0.219401 0.220052 0.220703 0.221354 0.222005 0.222656 0.223307 0.223958 0.224609 0.225260 0.225911 0.226562 0.227214 0.227865 0.228516 0.229167 0.229818 0.230469 0.231120 0.231771 0.232422 0.233073 0.233724 0.234375 0.235026 0.235677
       0.33333        0.33333        0.33333        0.33333        0.33333        0.33333        0.33333        0.33333        0.33333        0.33333        0.33333        0.33333        0.33333        0.33333        0.33333        0.33333        0.33333        0.33333        0.33333        0.33333        0.33333        0.33333        0.33333        0.33333        0.33333        0.33333        0.33333        0.33333        0.33333        0.33333        0.33333        0.33333        0.33333        0.33333        0.33333        0.33333        0.33333        0.33333        0.33333        0.33333        0.33333        0.33333        0.33333        0.33333        0.33333        0.33333        0.33333        0.33333        0.33333        0.33333        0.33333        0.72604        0.89458        0.73129        0.37152        0.15748        0.07337        0.01552        0.06089        0.17837        0.19528        0.24724        0.35799        0.21804        0.09627        0.15972        0.08032       -0.24479       -0.04148        0.05515       -0.08514       -0.05193       -0.03212       -0.05108       -0.17366       -0.19421       -0.23279       -0.32620       -0.27732       -0.33452       -0.41123       -0.39209       -0.42601       -0.41838       -0.38427       -0.42819       -0.38784       -0.30868       -0.22937       -0.11680        0.01246        0.02414        0.04155        0.15144        0.26367        0.30488        0.35276        0.46541        0.60231        0.52082        0.62282        0.79540        0.74895        0.61563        0.66694        0.77868        0.75394        0.67357        0.63032        0.64469        0.50122        0.56091        0.48312        0.44880        0.27560        0.14568        0.03201        0.01917        0.02308       -0.04683       -0.08177       -0.09938        0.03841        0.08560        0.09220        0.16632        0.21270        0.32065        0.44555        0.49964        0.49679        0.62019        0.68990        0.75932        0.77963        0.73080        0.66512        0.54613        0.56113        0.54331        0.44469        0.31892        0.30918        0.18538        0.09353        0.12008        0.12147        0.13820        0.08596        0.08847        0.17837        0.23210        0.27877        0.35359        0.39321        0.39691        0.41293        0.48293        0.58303        0.58258        0.53864        0.51631        0.50518        0.41558        0.42273        0.30202        0.27563        0.24870        0.19224        0.16236        0.19875        0.14182        0.16782        0.23595        0.29156        0.28801        0.36389        0.46993        0.45825        0.46107        0.54700        0.55682        0.47493        0.51843        0.42192        0.36369        0.33921        0.31402        0.25835        0.21131        0.20275        0.22632        0.27741        0.26859        0.31159        0.36161        0.37170        0.42218        0.42501        0.44439        0.49849        0.42494        0.36738        0.41283        0.30989        0.29512        0.29143        0.29178        0.27263        0.27704        0.20516        0.24132        0.29024        0.28302        0.36477        0.38471        0.39803        0.43725        0.41387        0.39801        0.37665        0.32190        0.30793        0.27906        0.25640        0.22785        0.28629        0.29322        0.32749        0.31171        0.33497        0.37272        0.38888        0.36637        0.35898        0.38994        0.40081        0.37421        0.31005        0.31705        0.26988        0.25959        0.27920        0.28405        0.29098        0.34222        0.34672        0.28489        0.31358        0.33430        0.32413        0.31612        0.35622        0.28965        0.28363        0.26376        0.23652        0.25756        0.28207        0.28851        0.28713        0.35593        0.37172        0.33757        0.32871        0.31714        0.33236        0.32419        0.32753        0.29894        0.30552        0.32533        0.26532        0.32885        0.32917        0.37930        0.37077        0.30889        0.33444        0.33291        0.28813        0.30175        0.21442        0.28068        0.26592        0.29665        0.32796        0.32760        0.36944        0.31992        0.34332        0.31627        0.26731        0.34843        0.32779        0.30157        0.31459        0.29394        0.24843        0.25498        0.33111        0.35002        0.33287        0.26444        0.29895        0.27866        0.31608        0.27654        0.27622        0.29561        0.35536        0.34800        0.25578        0.22617        0.28903        0.30699        0.30791        0.29829        0.28746        0.29062        0.32163        0.31146        0.24814        0.29917        0.34211        0.33210        0.23877        0.29368        0.28327        0.27316        0.22004        0.20678        0.22986        0.21505        0.26545        0.23989        0.29757        0.28320        0.22169        0.24984        0.23189        0.20366        0.16313        0.22206        0.17942        0.29596        0.34073        0.23405        0.25295        0.18049        0.18665        0.28118        0.27502        0.19527        0.25964        0.36996        0.23321        0.12183        0.26461        0.25404       -0.06935       -0.27149       -0.44869
2.533493 2.509659 2.485943 2.462345 2.438864 2.415501 2.392256 2.369129 2.346119 2.323227 2.300452 2.277796 2.255257 2.232836 2.210532 2.188346 2.166278 2.144328 2.122495 2.100780 2.079183 2.057703 2.036341 2.015097 1.993971 1.972962 1.952071 1.931298 1.910642 1.890104 1.869684 1.849381 1.829197 1.809130 1.789180 1.769348 1.749635 1.730038 1.710560 1.691199 1.671956 1.652830 1.633823 1.614932 1.596160 1.577506 1.558969 1.540549 1.522248 1.504064 1.485998 1.893195 2.169564 1.923560 1.463040 1.290034 1.066508 0.954033 1.032470 1.149755 1.083624 1.214992 1.264228 1.224833 0.899977 1.031015 0.941131 0.457747 0.651717 0.892679 0.662279 0.595534 0.661030 0.634844 0.519988 0.397993 0.366122 0.237169 0.275845 0.175140 0.174482 0.023239 0.056497 0.038858 0.028474 -0.004037 -0.018597 0.055093 0.206015 0.262802 0.465113 0.413330 0.475201 0.548059 0.698888 0.768754 0.791831 0.845014 1.085061 1.047998 1.045439 1.109590 1.383813 1.091308 0.968728 1.169825 1.254744 1.090856 0.996056 1.031903 0.850004 0.893921 0.771528 0.753336 0.634178 0.351816 0.169322 0.199893 0.139312 0.101023 -0.014088 -0.005113 0.049912 0.191089 0.156993 0.227711 0.278682 0.372592 0.581147 0.587583 0.595528 0.706536 0.825451 0.880716 0.974790 0.826737 0.825209 0.623202 0.628604 0.657125 0.549641 0.354166 0.310784 0.151701 0.078153 0.023013 0.052369 0.011169 0.051323 -0.082433 0.064480 0.117586 0.186706 0.232880 0.309635 0.303352 0.359754 0.330574 0.458085 0.548958 0.516588 0.443896 0.492361 0.315160 0.358533 0.236235 0.098660 0.124629 0.053152 0.003928 -0.039198 -0.014364 -0.076499 0.058669 0.046971 0.124004 0.163737 0.206069 0.407032 0.248506 0.382938 0.499424 0.365124 0.377726 0.287698 0.255042 0.168649 0.150700 0.087451 0.024394 0.018833 -0.073879 0.069015 0.049763 0.069659 0.174468 0.137259 0.227526 0.242671 0.218546 0.322828 0.337981 0.189077 0.188640 0.209967 0.092142 0.090253 0.069703 0.093104 0.067694 0.029099 -0.021570 0.029478 0.098785 0.084868 0.185931 0.190630 0.217346 0.279616 0.201194 0.219417 0.121546 0.078141 0.109247 0.039605 0.001837 -0.037657 0.098181 0.059507 0.102900 0.073400 0.106550 0.180116 0.152610 0.163409 0.134071 0.162615 0.187232 0.118298 0.015839 0.074992 -0.015792 0.012099 0.018591 0.031231 0.056560 0.100822 0.086354 -0.011790 0.074351 0.105395 0.085222 0.086280 0.117979 0.012059 0.058882 -0.019904 -0.007488 -0.010295 0.029087 0.022956 0.041546 0.167053 0.089678 0.109276 -0.007368 0.082576 0.042108 0.043106 0.059158 0.007434 -0.002296 0.060053 -0.055933 0.064402 0.062424 0.125953 0.070686 0.025609 0.088358 0.009630 -0.003000 0.034908 -0.115788 -0.003629 -0.035712 0.007616 0.067135 0.023644 0.133521 0.025277 0.060476 -0.021224 -0.018250 0.077672 -0.027611 0.028276 0.031222 -0.043055 -0.060548 -0.059373 0.040996 0.063747 0.062444 -0.070910 -0.018706 0.020592 0.042599 -0.018615 -0.037179 0.048871 0.065523 0.097234 -0.049804 -0.027086 0.033135 0.055534 0.052291 0.069219 0.052408 0.042748 0.064582 0.087209 -0.006184 0.084022 0.127053 0.119889 -0.047769 0.082139 0.005265 0.062362 -0.064776 -0.028380 -0.016941 -0.062698 0.053378 -0.032588 0.060098 0.066260 -0.043008 0.027167 -0.039230 -0.069431 -0.124276 -0.026066 -0.090496 0.089974 0.091340 0.248279 0.330915 0.184342 0.245422 0.360447 0.380739 0.244882 0.307444 0.460078 0.241524 0.069975 0.316834 0.394813 -0.084085 -0.555286
0.072396 0.072823 0.074103 0.076237 0.079224 0.083063 0.087753 0.093294 0.099684 0.106920 0.115001 0.123924 0.133686 0.144281 0.155705 0.167953 0.181016 0.194887 0.209557 0.225013 0.241244 0.258234 0.275968 0.294426 0.313588 0.333431 0.353927 0.375048 0.396762 0.419034 0.441825 0.465091 0.488788 0.512864 0.537265 0.561934 0.586805 0.611812 0.636882 0.661937 0.686896 0.711672 0.736172 0.760299 0.783953 0.807025 0.829405 0.850977 0.871621 0.891213 0.909625 0.926727 0.942384 0.956461 0.968818 0.979318 0.987821 0.994188 0.998281 0.999963 0.999103 0.995573 0.989248 0.980013 0.967758 0.952385 0.933804 0.911937 0.886722 0.858108 0.826063 0.790572 0.751638 0.709288 0.663566 0.614544 0.562317 0.507004 0.448754 0.387741 0.324168 0.258268 0.190303 0.120562 0.049365 0.022940 0.095977 0.169343 0.242612 0.315334 0.387036 0.457229 0.525409 0.591058 0.653652 0.712662 0.767561 0.817828 0.862950 0.902435 0.935812 0.962637 0.982503 0.995043 0.999939 0.996926 0.985799 0.966419 0.938720 0.902710 0.858482 0.806212 0.746166 0.678700 0.604265 0.523401 0.436745 0.345020 0.249039 0.149694 0.047956 0.055138 0.158492 0.260958 0.361358 0.458483 0.551121 0.638066 0.718133 0.790181 0.853126 0.905962 0.947781 0.977784 0.995308 0.999834 0.991010 0.968658 0.932791 0.883617 0.821552 0.747221 0.661453 0.565289 0.459966 0.346909 0.227719 0.104150 0.021910 0.148467 0.273452 0.394753 0.510249 0.617849 0.715536 0.801401 0.873688 0.930833 0.971504 0.994635 0.999459 0.985540 0.952790 0.901493 0.832309 0.746282 0.644831 0.529735 0.403115 0.267399 0.125281 0.020325 0.166343 0.309597 0.446880 0.575025 0.690986 0.791907 0.875203 0.938631 0.980360 0.999031 0.993809 0.964424 0.911201 0.835076 0.737589 0.620877 0.487630 0.341045 0.184761 0.022770 0.140672 0.301160 0.454251 0.595600 0.721072 0.826882 0.909711 0.966824 0.996170 0.996468 0.967273 0.909021 0.823041 0.711553 0.577620 0.425087 0.258483 0.082893 0.096182 0.272995 0.441738 0.596733 0.732621 0.844571 0.928450 0.980996 0.999959 0.984214 0.933838 0.850146 0.735681 0.594164 0.430389 0.250083 0.059717 0.133717 0.322949 0.500715 0.660033 0.794484 0.898485 0.967541 0.998453 0.989492 0.940510 0.852996 0.730063 0.576364 0.397945 0.202022 0.003287 0.209292 0.407096 0.587971 0.743762 0.867259 0.952553 0.995340 0.993166 0.945592 0.854268 0.722918 0.557221 0.364596 0.153894 0.064995 0.281584 0.485298 0.665991 0.814456 0.922928 0.985501 0.998485 0.960656 0.873382 0.740623 0.568789 0.366470 0.144035 0.086884 0.313979 0.524922 0.708042 0.852984 0.951320 0.997064 0.987086 0.921349 0.802994 0.638242 0.436104 0.207934 0.033188 0.273192 0.497816 0.693479 0.848100 0.951884 0.997973 0.982941 0.907088 0.774520 0.592964 0.373393 0.129370 0.123736 0.369706 0.592525 0.777415 0.911844 0.986422 0.995590 0.938090 0.817146 0.640349 0.419240 0.168600 0.094507 0.351866 0.585364 0.778300 0.916578 0.989789 0.992051 0.922528 0.785607 0.590693 0.351619 0.085723 0.187388 0.447249 0.674085 0.850334 0.962037 0.999998 0.960599 0.846209 0.665119 0.431019 0.162018 0.120715 0.394579 0.637357 0.829032 0.953469 0.999834 0.963598 0.847051 0.659253 0.415396 0.135653 0.156438 0.435956 0.678684 0.863262 0.973089 0.997893 0.934760 0.788539 0.571577 0.302735 0.005845 0.292394 0.564772 0.786082 0.935470 0.998476 0.968505 0.847599 0.646418 0.383386
1.000000 1.000000 1.000000 1.000000 1.000000 1.000000 1.000000 1.000000 1.000000 1.000000 1.000000 1.000000 1.000000 1.000000 1.000000 1.000000 1.000000 1.000000 1.000000 1.000000 1.000000 1.000000 1.000000 1.000000 1.000000 1.000000 1.000000 1.000000 1.000000 1.000000 1.000000 1.000000 1.000000 1.000000 1.000000 1.000000 1.000000 1.000000 1.000000 1.000000 1.000000 1.000000 1.000000 1.000000 1.000000 1.000000 1.000000 1.000000 1.000000 1.000000 1.000000 1.000000 0.834696 0.834696 0.834696 0.834696 0.834696 0.834696 0.834696 0.834696 0.810026 0.810026 0.810026 0.810026 0.810026 0.810026 0.810026 0.810026 0.810026 0.810026 0.810026 0.810026 0.810026 0.810026 0.810026 0.810026 0.810026 0.810026 0.810026 0.810026 0.810026 0.810026 0.810026 0.810026 0.810026 0.810026 0.810026 0.810026 0.810026 0.810026 0.810026 0.810026 0.810026 0.810026 0.810026 0.810026 0.810026 0.810026 0.810026 0.810026 0.810026 0.810026 0.810026 0.810026 0.810026 0.956337 0.956628 0.957472 0.961586 0.963601 0.963807 0.963810 0.964114 0.964449 0.964297 0.964295 0.964395 0.964844 0.965979 0.966565 0.967364 0.967309 0.970890 0.969615 0.968692 0.969729 0.966851 0.964905 0.963974 0.963886 0.964152 0.965221 0.966307 0.965242 0.964401 0.965248 0.966148 0.964676 0.963222 0.962562 0.961855 0.963574 0.962532 0.962043 0.961932 0.962218 0.962403 0.963385 0.963871 0.964075 0.964189 0.964268 0.964414 0.965935 0.966624 0.967733 0.964883 0.962825 0.961414 0.958541 0.962114 0.960322 0.960209 0.959862 0.960071 0.959560 0.959707 0.959913 0.948226 0.939688 0.936606 0.924094 0.919593 0.917888 0.918015 0.917253 0.919571 0.917582 0.913926 0.910888 0.905368 0.901169 0.903636 0.899383 0.894269 0.891581 0.894426 0.894879 0.895177 0.889145 0.880786 0.878897 0.877139 0.877870 0.881577 0.869543 0.868892 0.868169 0.864455 0.861166 0.864273 0.861438 0.862327 0.855720 0.853750 0.846405 0.849569 0.840982 0.841092 0.848306 0.850903 0.855302 0.854338 0.850779 0.847667 0.841264 0.790038 0.782622 0.779998 0.782606 0.780369 0.770486 0.755662 0.759145 0.750297 0.752272 0.773867 0.782929 0.792187 0.794084 0.784736 0.773302 0.768181 0.769461 0.774971 0.748841 0.755606 0.756202 0.752516 0.738016 0.733762 0.723673 0.695410 0.685860 0.685269 0.692573 0.695679 0.699518 0.693086 0.690233 0.683672 0.677707 0.669754 0.685285 0.666963 0.665993 0.656565 0.636360 0.647730 0.652263 0.648325 0.657280 0.643139 0.632744 0.614281 0.582376 0.542262 0.542255 0.521451 0.488656 0.493921 0.510859 0.525154 0.467452 0.443523 0.429622 0.408506 0.414974 0.413040 0.466078 0.449041 0.439477 0.445397 0.408755 0.376784 0.373197 0.378832 0.354206 0.315414 0.281540 0.265986 0.276793 0.232983 0.208779 0.179485 0.216984 0.232787 0.253556 0.219133 0.229200 0.214788 0.190491 0.236345 0.255449 0.265126 0.237801 0.249395 0.258531 0.234791 0.224261 0.228336 0.233242 0.262880 0.263690 0.261935 0.239354 0.244514 0.256195 0.235506 0.234091 0.200299 0.202788 0.173720 0.154385 0.171076 0.176587 0.119222 0.117125 0.119435 0.138100 0.144761 0.144761 0.144761 0.144761 0.144761 0.144761 0.144761 0.144761 0.146709 0.146709 0.146709 0.146709 0.146709 0.146709 0.146709 0.146709 0.146709 0.146709 0.144761 0.144761 0.144761 0.144761 0.144761 0.144761 0.144761 0.144761 0.144761 0.144761 0.144761 0.144761 0.144761 0.144761 0.144761
0.000000 0.000000 0.000000 0.000000 0.000000 0.000000 0.000000 0.000000 0.000000 0.000000 0.000000 0.000000 0.000000 0.000000 0.000000 0.000000 0.000000 0.000000 0.000000 0.000000 0.000000 0.000000 0.000000 0.000000 0.000000 0.000000 0.000000 0.000000 0.000000 0.000000 0.000000 0.000000 0.000000 0.000000 0.000000 0.000000 0.000000 0.000000 0.000000 0.000000 0.000000 0.000000 0.000000 0.000000 0.000000 0.000000 0.000000 0.000000 0.000000 0.000000 0.000000 0.000000 0.172133 0.172133 0.172133 0.172133 0.172133 0.172133 0.172133 0.172133 0.189832 0.189832 0.189832 0.189832 0.189832 0.189832 0.189832 0.189832 0.189832 0.189832 0.189832 0.189832 0.189832 0.189832 0.189832 0.189832 0.189832 0.189832 0.189832 0.189832 0.189832 0.189832 0.189832 0.189832 0.189832 0.189832 0.189832 0.189832 0.189832 0.189832 0.189832 0.189832 0.189832 0.189832 0.189832 0.189832 0.189832 0.189832 0.189832 0.189832 0.189832 0.189832 0.189832 0.189832 0.189832 0.222222 0.222222 0.222222 0.222222 0.222222 0.222222 0.222222 0.222222 0.222222 0.222222 0.222222 0.222222 0.222222 0.222222 0.222222 0.222222 0.222222 0.222222 0.222222 0.222222 0.222222 0.222222 0.222222 0.222222 0.222222 0.222222 0.222222 0.222222 0.222222 0.222222 0.234082 0.234082 0.234082 0.234082 0.234082 0.234082 0.234082 0.234082 0.234082 0.234082 0.234082 0.234082 0.234082 0.234082 0.234082 0.234082 0.234082 0.234082 0.234082 0.234082 0.234082 0.234082 0.234082 0.234082 0.234082 0.240772 0.240772 0.240772 0.240772 0.240772 0.240772 0.240772 0.240772 0.240772 0.240772 0.240772 0.240772 0.240772 0.240772 0.240772 0.240772 0.240772 0.240772 0.240772 0.240772 0.240772 0.240772 0.248069 0.248069 0.248069 0.248069 0.248069 0.248069 0.248069 0.248069 0.248069 0.248069 0.248069 0.248069 0.248069 0.248069 0.248069 0.248069 0.248069 0.248069 0.248069 0.248069 0.248069 0.248069 0.248069 0.248069 0.248069 0.248069 0.248069 0.248069 0.248069 0.248069 0.248069 0.248069 0.248069 0.248069 0.248069 0.248069 0.248069 0.256074 0.256074 0.256074 0.256074 0.256074 0.256074 0.256074 0.256074 0.256074 0.256074 0.256074 0.256074 0.256074 0.256074 0.256074 0.256074 0.256074 0.256074 0.256074 0.256074 0.256074 0.256074 0.256074 0.256074 0.256074 0.256074 0.256074 0.256074 0.256074 0.256074 0.256074 0.256074 0.256074 0.256074 0.256074 0.256074 0.256074 0.256074 0.256074 0.256074 0.256074 0.256074 0.256074 0.256074 0.256074 0.251976 0.251976 0.251976 0.251976 0.251976 0.251976 0.251976 0.251976 0.251976 0.251976 0.251976 0.251976 0.251976 0.251976 0.256074 0.256074 0.256074 0.256074 0.256074 0.256074 0.256074 0.256074 0.256074 0.256074 0.256074 0.256074 0.256074 0.260378 0.260378 0.260378 0.260378 0.260378 0.260378 0.260378 0.260378 0.260378 0.260378 0.260378 0.260378 0.251976 0.251976 0.251976 0.251976 0.251976 0.251976 0.251976 0.251976 0.251976 0.251976 0.251976 0.251976 0.256074 0.256074 0.256074 0.256074 0.256074 0.256074 0.256074 0.256074 0.256074 0.256074 0.256074 0.244339 0.244339 0.244339 0.244339 0.244339 0.244339 0.244339 0.244339 0.244339 0.244339 0.244339 0.244339 0.260378 0.260378 0.260378 0.260378 0.260378 0.260378 0.260378 0.260378 0.260378 0.260378 0.244339 0.244339 0.244339 0.244339 0.244339 0.244339 0.244339 0.244339 0.244339 0.244339 0.244339 0.244339 0.244339 0.244339 0.244339
