# Output from CTFFind version 4.1.9, run on 2019-11-03 18:52:06
# Input file: stack18_ub_averaged_2000.mrc ; Number of micrographs: 1
# Pixel size: 3.000 Angstroms ; acceleration voltage: 300.0 keV ; spherical aberration: 0.00 mm ; amplitude contrast: 0.07
# Box size: 512 pixels ; min. res.: 30.0 Angstroms ; max. res.: 5.0 Angstroms ; min. def.: 5000.0 um; max. def. 50000.0 um; num. frames averaged: 1
# 6 lines per micrograph: #1 - spatial frequency (1/Angstroms); #2 - 1D rotational average of spectrum (assuming no astigmatism); #3 - 1D rotational average of spectrum; #4 - CTF fit; #5 - cross-correlation between spectrum and CTF fit; #6 - 2sigma of expected cross correlation of noise
0.000000 0.000651 0.001302 0.001953 0.002604 0.003255 0.003906 0.004557 0.005208 0.005859 0.006510 0.007161 0.007812 0.008464 0.009115 0.009766 0.010417 0.011068 0.011719 0.012370 0.013021 0.013672 0.014323 0.014974 0.015625 0.016276 0.016927 0.017578 0.018229 0.018880 0.019531 0.020182 0.020833 0.021484 0.022135 0.022786 0.023438 0.024089 0.024740 0.025391 0.026042 0.026693 0.027344 0.027995 0.028646 0.029297 0.029948 0.030599 0.031250 0.031901 0.032552 0.033203 0.033854 0.034505 0.035156 0.035807 0.036458 0.037109 0.037760 0.038411 0.039062 0.039714 0.040365 0.041016 0.041667 0.042318 0.042969 0.043620 0.044271 0.044922 0.045573 0.046224 0.046875 0.047526 0.048177 0.048828 0.049479 0.050130 0.050781 0.051432 0.052083 0.052734 0.053385 0.054036 0.054688 0.055339 0.055990 0.056641 0.057292 0.057943 0.058594 0.059245 0.059896 0.060547 0.061198 0.061849 0.062500 0.063151 0.063802 0.064453 0.065104 0.065755 0.066406 0.067057 0.067708 0.068359 0.069010 0.069661 0.070312 0.070964 0.071615 0.072266 0.072917 0.073568 0.074219 0.074870 0.075521 0.076172 0.076823 0.077474 0.078125 0.078776 0.079427 0.080078 0.080729 0.081380 0.082031 0.082682 0.083333 0.083984 0.084635 0.085286 0.085938 0.086589 0.087240 0.087891 0.088542 0.089193 0.089844 0.090495 0.091146 0.091797 0.092448 0.093099 0.093750 0.094401 0.095052 0.095703 0.096354 0.097005 0.097656 0.098307 0.098958 0.099609 0.100260 0.100911 0.101562 0.102214 0.102865 0.103516 0.104167 0.104818 0.105469 0.106120 0.106771 0.107422 0.108073 0.108724 0.109375 0.110026 0.110677 0.111328 0.111979 0.112630 0.113281 0.113932 0.114583 0.115234 0.115885 0.116536 0.117188 0.117839 0.118490 0.119141 0.119792 0.120443 0.121094 0.121745 0.122396 0.123047 0.123698 0.124349 0.125000 0.125651 0.126302 0.126953 0.127604 0.128255 0.128906 0.129557 0.130208 0.130859 0.131510 0.132161 0.132812 0.133464 0.134115 0.134766 0.135417 0.136068 0.136719 0.137370 0.138021 0.138672 0.139323 0.139974 0.140625 0.141276 0.141927 0.142578 0.143229 0.143880 0.144531 0.145182 0.145833 0.146484 0.147135 0.147786 0.148438 0.149089 0.149740 0.150391 0.151042 0.151693 0.152344 0.152995 0.153646 0.154297 0.154948 0.155599 0.156250 0.156901 0.157552 0.158203 0.158854 0.159505 0.160156 0.160807 0.161458 0.162109 0.162760 0.163411 0.164062 0.164714 0.165365 0.166016 0.166667 0.167318 0.167969 0.168620 0.169271 0.169922 0.170573 0.171224 0.171875 0.172526 0.173177 0.173828 0.174479 0.175130 0.175781 0.176432 0.177083 0.177734 0.178385 0.179036 0.179688 0.180339 0.180990 0.181641 0.182292 0.182943 0.183594 0.184245 0.184896 0.185547 0.186198 0.186849 0.187500 0.188151 0.188802 0.189453 0.190104 0.190755 0.191406 0.192057 0.192708 0.193359 0.194010 0.194661 0.195312 0.195964 0.196615 0.197266 0.197917 0.198568 0.199219 0.199870 0.200521 0.201172 0.201823 0.202474 0.203125 0.203776 0.204427 0.205078 0.205729 0.206380 0.207031 0.207682 0.208333 0.208984 0.209635 0.210286 0.210938 0.211589 0.212240 0.212891 0.213542 0.214193 0.214844 0.215495 0.216146 0.216797 0.217448 0.218099 0.218750 0.219401 0.220052 0.220703 0.221354 0.222005 0.222656 0.223307 0.223958 0.224609 0.225260 0.225911 0.226562 0.227214 0.227865 0.228516 0.229167 0.229818 0.230469 0.231120 0.231771 0.232422 0.233073 0.233724 0.234375 0.235026 0.235677
       0.32989        0.32989        0.32989        0.32989        0.32989        0.32989        0.32989        0.32989        0.32989        0.32989        0.32989        0.32989        0.32989        0.32989        0.32989        0.32989        0.32989        0.32989        0.32989        0.32989        0.32989        0.32989        0.32989        0.32989        0.32989        0.32989        0.32989        0.32989        0.32989        0.32989        0.32989        0.32989        0.32989        0.32989        0.32989        0.32989        0.32989        0.32989        0.32989        0.32989        0.32989        0.32989        0.32989        0.32989        0.32989        0.32989        0.32989        0.32989        0.32989        0.32989        0.32989        0.68317        1.09033        0.55259        0.11401       -0.01463       -0.20346       -0.14179       -0.17631       -0.22138       -0.14494       -0.05172       -0.00267        0.10680        0.00953       -0.08281       -0.10553       -0.29271       -0.26805       -0.37180       -0.18815       -0.34355       -0.44219       -0.36288       -0.33858       -0.44402       -0.46539       -0.46903       -0.46104       -0.56985       -0.54100       -0.41728       -0.31693       -0.32104       -0.32579       -0.23181       -0.12812        0.06920        0.12805        0.22107        0.26337        0.33388        0.35623        0.39847        0.52477        0.59209        0.68405        0.76186        0.66098        0.72343        0.71697        0.64249        0.69983        0.61397        0.56661        0.49945        0.41513        0.33162        0.30441        0.23143        0.09781        0.02170       -0.00593       -0.04742       -0.07208       -0.06554       -0.08254       -0.01745        0.08472        0.13449        0.29934        0.40807        0.42927        0.43902        0.51440        0.68673        0.63227        0.68066        0.76622        0.74622        0.75473        0.56026        0.51610        0.43561        0.42894        0.35612        0.22990        0.18200        0.06032       -0.00688        0.07228        0.02646        0.09430        0.15393        0.21441        0.30776        0.38194        0.45997        0.54289        0.57205        0.57054        0.56066        0.59707        0.56073        0.40036        0.38211        0.38721        0.37028        0.24916        0.23098        0.19647        0.12528        0.09688        0.11293        0.17032        0.24938        0.30083        0.35762        0.39676        0.50953        0.45004        0.52669        0.56572        0.52932        0.50121        0.44021        0.35030        0.31210        0.34687        0.28286        0.28772        0.17353        0.19258        0.20985        0.22719        0.30995        0.39820        0.40714        0.45534        0.47343        0.43834        0.45780        0.44653        0.41038        0.36446        0.30640        0.24003        0.25274        0.28693        0.21687        0.28759        0.29102        0.28204        0.33525        0.36950        0.43797        0.43024        0.37354        0.39533        0.36690        0.35698        0.31838        0.28984        0.24224        0.26100        0.25527        0.27542        0.28924        0.32160        0.36322        0.39096        0.42913        0.40046        0.37449        0.34437        0.29530        0.31333        0.28400        0.24887        0.21864        0.28995        0.29660        0.34240        0.34763        0.35002        0.36986        0.33970        0.40796        0.34330        0.33945        0.34584        0.26477        0.27037        0.28683        0.29705        0.30112        0.33083        0.30954        0.36928        0.36103        0.34258        0.32920        0.33752        0.31889        0.29860        0.23867        0.22302        0.22681        0.26103        0.29500        0.32467        0.32076        0.37029        0.34818        0.29828        0.30383        0.28671        0.28017        0.26251        0.23468        0.26175        0.26830        0.28594        0.31689        0.35675        0.37203        0.31770        0.28782        0.31935        0.30473        0.25673        0.32444        0.29790        0.29809        0.32493        0.31429        0.31803        0.37538        0.35167        0.34870        0.30154        0.30469        0.29128        0.29424        0.32854        0.28919        0.29746        0.35200        0.35795        0.31792        0.32775        0.32069        0.31631        0.25027        0.25979        0.32349        0.29737        0.32580        0.32760        0.28219        0.27516        0.28907        0.27307        0.28456        0.29473        0.29819        0.25205        0.24987        0.30449        0.32635        0.28068        0.26820        0.26940        0.23809        0.27642        0.24181        0.25539        0.30772        0.26771        0.27354        0.21390        0.24947        0.27378        0.24740        0.27550        0.26069        0.20677        0.23160        0.26900        0.26063        0.32650        0.26574        0.21709        0.20007        0.26864        0.21317        0.24434        0.31584        0.21555        0.18252        0.16988        0.27725        0.29084        0.39205        0.27505        0.19185        0.35493        0.34456        0.11880        0.04720       -0.15672       -0.47603       -0.58640
2.690430 2.663398 2.636509 2.609762 2.583157 2.556694 2.530373 2.504195 2.478158 2.452264 2.426512 2.400902 2.375435 2.350109 2.324926 2.299885 2.274986 2.250229 2.225614 2.201142 2.176811 2.152623 2.128577 2.104674 2.080912 2.057292 2.033815 2.010480 1.987287 1.964236 1.941327 1.918561 1.895937 1.873455 1.851115 1.828917 1.806861 1.784948 1.763176 1.741547 1.720060 1.698716 1.677513 1.656452 1.635534 1.614758 1.594124 1.573632 1.553283 1.533075 1.513010 1.666726 2.367213 1.906745 1.119676 1.156261 0.869803 0.824820 0.770112 0.748692 0.780977 0.852509 0.954248 0.983966 0.889989 0.808350 0.806112 0.488904 0.536225 0.362424 0.570830 0.427767 0.257674 0.344134 0.326249 0.249179 0.152657 0.123850 0.187295 0.027055 -0.052613 0.132696 0.260997 0.206273 0.180118 0.243348 0.372058 0.558160 0.591318 0.681890 0.800006 0.752903 0.875776 0.769006 0.966003 1.029797 1.090821 1.254737 1.073022 1.154323 1.094542 1.121525 1.029745 0.968914 0.904659 0.858535 0.734782 0.626755 0.583339 0.465417 0.378527 0.239343 0.157128 0.142964 0.104752 0.083686 0.050473 0.077292 0.196973 0.151666 0.412060 0.532274 0.532287 0.513976 0.619401 0.767582 0.771302 0.662671 0.838345 0.810138 0.993921 0.582972 0.594101 0.467015 0.480964 0.359442 0.279443 0.157415 0.082802 -0.095288 0.007938 -0.068021 -0.005761 0.036452 0.096593 0.210500 0.240412 0.405135 0.395317 0.492585 0.506874 0.489602 0.541696 0.552454 0.318847 0.307060 0.229052 0.299391 0.208464 0.052723 0.072507 0.054148 -0.070055 -0.082147 -0.023599 0.079059 0.091273 0.198103 0.202085 0.299928 0.344140 0.319158 0.431615 0.494797 0.326623 0.348181 0.287452 0.194012 0.186393 0.172725 0.113622 0.110167 -0.023290 0.051566 0.051243 0.076706 0.210041 0.220526 0.301151 0.308454 0.331556 0.262897 0.282625 0.273833 0.204232 0.175900 0.090087 0.005989 0.136412 0.011141 0.079781 0.101301 0.070286 0.066334 0.184036 0.177979 0.253355 0.256343 0.137156 0.171020 0.122048 0.100261 0.058032 0.040068 -0.031487 0.028999 0.015637 0.034147 0.037241 0.104324 0.105064 0.178651 0.184244 0.144887 0.072770 0.059920 0.053340 0.026470 0.042652 -0.071938 -0.029472 0.046289 0.009756 0.117615 0.055025 0.100863 0.077653 0.180313 0.157102 0.083111 0.088448 0.117546 -0.028035 0.035473 0.037073 0.053293 0.061623 0.071454 0.052559 0.134817 0.095570 0.103745 0.068386 0.124212 0.056981 0.019880 -0.029318 -0.026870 -0.024971 0.008119 0.041708 0.092038 0.059139 0.126515 0.066559 0.002968 0.023756 0.009481 -0.012118 -0.034157 -0.047229 -0.007575 -0.017368 0.011276 0.026877 0.109679 0.035770 0.055153 -0.029147 0.053854 0.000164 -0.037056 0.065043 -0.013131 -0.001784 0.065068 -0.017277 0.058356 0.060388 0.067499 0.043942 -0.018316 -0.015158 0.010299 -0.032846 0.023785 -0.019468 -0.002677 0.065864 -0.005924 0.054301 0.012828 0.019348 -0.002780 -0.041721 -0.061178 0.061943 -0.008996 0.039687 0.016621 -0.013436 0.029854 0.029064 0.022177 0.021078 0.017948 0.042727 -0.007430 -0.018251 0.047895 0.105562 0.010302 0.003734 0.005442 -0.021562 0.002438 -0.024391 0.002799 0.101259 -0.038946 0.024082 -0.061440 0.026130 -0.007401 -0.014662 -0.011736 -0.000078 -0.052204 -0.061581 0.056631 -0.017454 0.041469 -0.006117 -0.064767 -0.096021 0.011677 -0.077086 -0.021942 0.031937 -0.082467 0.223412 0.211532 0.291609 0.284376 0.428011 0.322055 0.222616 0.370942 0.504679 0.124729 0.100936 -0.167448 -0.643249
0.072396 0.072869 0.074289 0.076654 0.079964 0.084219 0.089418 0.095558 0.102639 0.110658 0.119611 0.129495 0.140306 0.152038 0.164685 0.178238 0.192689 0.208026 0.224237 0.241307 0.259219 0.277953 0.297489 0.317800 0.338860 0.360636 0.383093 0.406194 0.429895 0.454148 0.478903 0.504102 0.529684 0.555582 0.581724 0.608032 0.634422 0.660805 0.687085 0.713161 0.738925 0.764263 0.789057 0.813180 0.836501 0.858884 0.880187 0.900263 0.918962 0.936128 0.951606 0.965232 0.976847 0.986288 0.993391 0.997996 0.999943 0.999078 0.995252 0.988319 0.978147 0.964608 0.947589 0.926989 0.902723 0.874722 0.842936 0.807337 0.767917 0.724696 0.677717 0.627054 0.572809 0.515116 0.454141 0.390086 0.323185 0.253709 0.181964 0.108292 0.033072 0.043284 0.120330 0.197587 0.274546 0.350672 0.425404 0.498161 0.568346 0.635348 0.698554 0.757345 0.811112 0.859255 0.901196 0.936383 0.964300 0.984472 0.996478 0.999955 0.994606 0.980214 0.956640 0.923838 0.881860 0.830857 0.771090 0.702929 0.626859 0.543477 0.453496 0.357739 0.257136 0.152721 0.045620 0.062956 0.171725 0.279345 0.384432 0.485575 0.581360 0.670383 0.751280 0.822746 0.883554 0.932588 0.968861 0.991537 0.999958 0.993657 0.972383 0.936117 0.885076 0.819734 0.740817 0.649310 0.546449 0.433715 0.312816 0.185669 0.054373 0.078820 0.211543 0.341350 0.465767 0.582334 0.688663 0.782479 0.861685 0.924405 0.969040 0.994314 0.999314 0.983532 0.946892 0.889772 0.813015 0.717933 0.606299 0.480319 0.342607 0.196133 0.044173 0.109766 0.262017 0.408841 0.546521 0.671458 0.780267 0.869880 0.937639 0.981384 0.999534 0.991153 0.956004 0.894587 0.808145 0.698671 0.568871 0.422116 0.262366 0.094082 0.077901 0.248498 0.412529 0.564870 0.700625 0.815283 0.904886 0.966173 0.996717 0.995035 0.960673 0.894263 0.797532 0.673297 0.525391 0.358575 0.178399 0.008970 0.196954 0.378780 0.547733 0.697411 0.821965 0.916354 0.976559 0.999779 0.984580 0.930998 0.840589 0.716418 0.562983 0.386080 0.192605 0.009694 0.212521 0.407361 0.585842 0.740104 0.863152 0.949199 0.993960 0.994890 0.951356 0.864729 0.738379 0.577585 0.389347 0.182108 0.034606 0.250604 0.455508 0.639257 0.792604 0.907610 0.978071 0.999894 0.971359 0.893287 0.769065 0.604548 0.407825 0.188854 0.041018 0.269624 0.484618 0.674138 0.827487 0.935752 0.992360 0.993512 0.938482 0.829741 0.672908 0.476501 0.251531 0.010903 0.231292 0.460592 0.663035 0.826026 0.939142 0.994841 0.989012 0.921322 0.795342 0.618417 0.401295 0.157526 0.097352 0.346791 0.574292 0.764509 0.904313 0.983738 0.996738 0.941707 0.821699 0.644338 0.421387 0.168045 0.098074 0.358127 0.593367 0.786523 0.923088 0.992452 0.988797 0.911637 0.765990 0.562135 0.314945 0.042870 0.233405 0.492526 0.714109 0.880379 0.977638 0.997457 0.937477 0.801744 0.600520 0.349604 0.069145 0.217936 0.487782 0.717597 0.887593 0.982750 0.994213 0.920192 0.766278 0.545125 0.275493 0.019286 0.313259 0.580146 0.795686 0.939896 0.998972 0.966714 0.845248 0.645022 0.384001 0.086146 0.220741 0.507556 0.746685 0.914689 0.994655 0.978004 0.865504 0.667382 0.402525 0.096762 0.219596 0.514702 0.758409 0.925375 0.997779 0.967311 0.836247 0.617411 0.333059 0.012695 0.309913 0.600281 0.826887 0.964671 0.997889 0.922018 0.744489 0.484098 0.169123 0.165632 0.482654 0.745924 0.925026 0.998772 0.957808 0.805928 0.559898
1.000000 1.000000 1.000000 1.000000 1.000000 1.000000 1.000000 1.000000 1.000000 1.000000 1.000000 1.000000 1.000000 1.000000 1.000000 1.000000 1.000000 1.000000 1.000000 1.000000 1.000000 1.000000 1.000000 1.000000 1.000000 1.000000 1.000000 1.000000 1.000000 1.000000 1.000000 1.000000 1.000000 1.000000 1.000000 1.000000 1.000000 1.000000 1.000000 1.000000 1.000000 1.000000 1.000000 1.000000 1.000000 1.000000 1.000000 1.000000 1.000000 1.000000 1.000000 1.000000 0.884645 0.884645 0.884645 0.884645 0.884645 0.871807 0.871807 0.871807 0.871807 0.871807 0.871807 0.871807 0.871807 0.871807 0.871807 0.871807 0.871807 0.871807 0.871807 0.871807 0.871807 0.871807 0.871807 0.871807 0.871807 0.871807 0.871807 0.871807 0.871807 0.871807 0.871807 0.871807 0.871807 0.871807 0.871807 0.871807 0.871807 0.871807 0.871807 0.871807 0.871807 0.871807 0.871807 0.871807 0.871807 0.871807 0.871807 0.953362 0.957704 0.958619 0.958320 0.957564 0.956763 0.956149 0.955817 0.955753 0.958635 0.959412 0.965334 0.967048 0.967700 0.974213 0.974448 0.973446 0.971751 0.971555 0.971630 0.965391 0.964074 0.962587 0.962824 0.966368 0.966289 0.966168 0.966135 0.966293 0.966676 0.966891 0.967397 0.967123 0.966839 0.965912 0.965049 0.964368 0.964042 0.964188 0.964687 0.965537 0.966530 0.966997 0.967593 0.968057 0.968226 0.968094 0.967700 0.967137 0.966575 0.968412 0.968094 0.967935 0.969534 0.969582 0.969846 0.970254 0.971307 0.971875 0.968070 0.967120 0.966554 0.963606 0.961414 0.956009 0.947928 0.942633 0.944974 0.946164 0.946626 0.941040 0.927558 0.925202 0.918860 0.919242 0.916942 0.911548 0.913164 0.915812 0.906700 0.904003 0.897953 0.893216 0.888724 0.887533 0.889037 0.884613 0.886507 0.887071 0.884695 0.883109 0.882612 0.885066 0.887419 0.883021 0.872854 0.866751 0.865936 0.867533 0.867246 0.873758 0.874122 0.865458 0.863313 0.855037 0.849836 0.847901 0.844445 0.847832 0.848708 0.851479 0.850941 0.837384 0.832477 0.826125 0.825031 0.825182 0.817589 0.812849 0.809553 0.805421 0.794550 0.793816 0.796792 0.801562 0.801695 0.796048 0.797285 0.806192 0.799623 0.809449 0.814733 0.817722 0.827601 0.826549 0.826903 0.826370 0.824442 0.803070 0.801608 0.812486 0.819145 0.822232 0.818905 0.815669 0.810049 0.806899 0.800237 0.795826 0.760925 0.759951 0.762755 0.760520 0.765641 0.710075 0.715272 0.714109 0.716206 0.684566 0.693278 0.689499 0.686766 0.696632 0.692701 0.705533 0.702578 0.684214 0.684970 0.671769 0.659332 0.644992 0.660285 0.648051 0.656112 0.664954 0.667682 0.664695 0.683315 0.658806 0.660205 0.657740 0.658436 0.621678 0.625215 0.625902 0.621110 0.603183 0.564282 0.508543 0.488555 0.486982 0.456421 0.464798 0.465063 0.443882 0.447182 0.447512 0.455993 0.455019 0.452286 0.437070 0.427459 0.364776 0.363770 0.362135 0.365672 0.362310 0.334677 0.339373 0.318252 0.355240 0.372121 0.375796 0.369970 0.361280 0.344904 0.346653 0.345473 0.349364 0.339757 0.298243 0.254051 0.258648 0.220014 0.221424 0.200352 0.175808 0.184456 0.200208 0.176312 0.201528 0.158620 0.116550 0.116893 0.120745 0.120745 0.120745 0.120745 0.120745 0.120745 0.120745 0.120745 0.118756 0.118756 0.118756 0.118756 0.118756 0.118756 0.118756 0.118756 0.118756 0.147398 0.147398 0.147398 0.147398 0.147398 0.147398 0.147398 0.147398 0.147398 0.147398 0.147398 0.147398 0.147398
0.000000 0.000000 0.000000 0.000000 0.000000 0.000000 0.000000 0.000000 0.000000 0.000000 0.000000 0.000000 0.000000 0.000000 0.000000 0.000000 0.000000 0.000000 0.000000 0.000000 0.000000 0.000000 0.000000 0.000000 0.000000 0.000000 0.000000 0.000000 0.000000 0.000000 0.000000 0.000000 0.000000 0.000000 0.000000 0.000000 0.000000 0.000000 0.000000 0.000000 0.000000 0.000000 0.000000 0.000000 0.000000 0.000000 0.000000 0.000000 0.000000 0.000000 0.000000 0.000000 0.177471 0.177471 0.177471 0.177471 0.177471 0.197066 0.197066 0.197066 0.197066 0.197066 0.197066 0.197066 0.197066 0.197066 0.197066 0.197066 0.197066 0.197066 0.197066 0.197066 0.197066 0.197066 0.197066 0.197066 0.197066 0.197066 0.197066 0.197066 0.197066 0.197066 0.197066 0.197066 0.197066 0.197066 0.197066 0.197066 0.197066 0.197066 0.197066 0.197066 0.197066 0.197066 0.197066 0.197066 0.197066 0.197066 0.197066 0.222222 0.222222 0.222222 0.222222 0.222222 0.222222 0.222222 0.222222 0.222222 0.222222 0.222222 0.222222 0.222222 0.222222 0.222222 0.222222 0.222222 0.222222 0.222222 0.222222 0.222222 0.222222 0.222222 0.222222 0.222222 0.222222 0.222222 0.222222 0.222222 0.222222 0.244339 0.244339 0.244339 0.244339 0.244339 0.244339 0.244339 0.244339 0.244339 0.244339 0.244339 0.244339 0.244339 0.244339 0.244339 0.244339 0.244339 0.244339 0.244339 0.244339 0.244339 0.244339 0.244339 0.244339 0.244339 0.244339 0.244339 0.244339 0.244339 0.244339 0.244339 0.244339 0.244339 0.244339 0.244339 0.244339 0.244339 0.244339 0.244339 0.244339 0.244339 0.244339 0.244339 0.244339 0.256074 0.256074 0.256074 0.256074 0.256074 0.256074 0.256074 0.256074 0.256074 0.256074 0.256074 0.256074 0.256074 0.256074 0.256074 0.256074 0.256074 0.256074 0.256074 0.256074 0.256074 0.256074 0.256074 0.256074 0.256074 0.256074 0.256074 0.256074 0.256074 0.256074 0.256074 0.256074 0.256074 0.256074 0.256074 0.264906 0.264906 0.264906 0.264906 0.264906 0.264906 0.264906 0.264906 0.264906 0.264906 0.264906 0.264906 0.264906 0.264906 0.264906 0.264906 0.264906 0.264906 0.264906 0.264906 0.264906 0.264906 0.264906 0.264906 0.264906 0.264906 0.264906 0.264906 0.264906 0.256074 0.256074 0.256074 0.256074 0.256074 0.256074 0.256074 0.256074 0.256074 0.256074 0.256074 0.256074 0.256074 0.256074 0.260378 0.260378 0.260378 0.260378 0.260378 0.260378 0.260378 0.260378 0.260378 0.260378 0.260378 0.260378 0.260378 0.264906 0.264906 0.264906 0.264906 0.264906 0.264906 0.264906 0.264906 0.264906 0.264906 0.264906 0.264906 0.260378 0.260378 0.260378 0.260378 0.260378 0.260378 0.260378 0.260378 0.260378 0.260378 0.260378 0.260378 0.264906 0.264906 0.264906 0.264906 0.264906 0.264906 0.264906 0.264906 0.264906 0.264906 0.264906 0.256074 0.256074 0.256074 0.256074 0.256074 0.256074 0.256074 0.256074 0.256074 0.256074 0.256074 0.251976 0.251976 0.251976 0.251976 0.251976 0.251976 0.251976 0.251976 0.251976 0.251976 0.251976 0.260378 0.260378 0.260378 0.260378 0.260378 0.260378 0.260378 0.260378 0.260378 0.260378 0.256074 0.256074 0.256074 0.256074 0.256074 0.256074 0.256074 0.256074 0.256074 0.256074 0.260378 0.260378 0.260378 0.260378 0.260378 0.260378 0.260378 0.260378 0.260378 0.244339 0.244339 0.244339 0.244339 0.244339 0.244339 0.244339 0.244339 0.244339 0.244339 0.244339 0.244339 0.244339
