# Output from CTFFind version 4.1.9, run on 2019-11-03 18:52:07
# Input file: stack8_ub_averaged_2000.mrc ; Number of micrographs: 1
# Pixel size: 3.000 Angstroms ; acceleration voltage: 300.0 keV ; spherical aberration: 0.00 mm ; amplitude contrast: 0.07
# Box size: 512 pixels ; min. res.: 30.0 Angstroms ; max. res.: 5.0 Angstroms ; min. def.: 5000.0 um; max. def. 50000.0 um; num. frames averaged: 1
# 6 lines per micrograph: #1 - spatial frequency (1/Angstroms); #2 - 1D rotational average of spectrum (assuming no astigmatism); #3 - 1D rotational average of spectrum; #4 - CTF fit; #5 - cross-correlation between spectrum and CTF fit; #6 - 2sigma of expected cross correlation of noise
0.000000 0.000651 0.001302 0.001953 0.002604 0.003255 0.003906 0.004557 0.005208 0.005859 0.006510 0.007161 0.007812 0.008464 0.009115 0.009766 0.010417 0.011068 0.011719 0.012370 0.013021 0.013672 0.014323 0.014974 0.015625 0.016276 0.016927 0.017578 0.018229 0.018880 0.019531 0.020182 0.020833 0.021484 0.022135 0.022786 0.023438 0.024089 0.024740 0.025391 0.026042 0.026693 0.027344 0.027995 0.028646 0.029297 0.029948 0.030599 0.031250 0.031901 0.032552 0.033203 0.033854 0.034505 0.035156 0.035807 0.036458 0.037109 0.037760 0.038411 0.039062 0.039714 0.040365 0.041016 0.041667 0.042318 0.042969 0.043620 0.044271 0.044922 0.045573 0.046224 0.046875 0.047526 0.048177 0.048828 0.049479 0.050130 0.050781 0.051432 0.052083 0.052734 0.053385 0.054036 0.054688 0.055339 0.055990 0.056641 0.057292 0.057943 0.058594 0.059245 0.059896 0.060547 0.061198 0.061849 0.062500 0.063151 0.063802 0.064453 0.065104 0.065755 0.066406 0.067057 0.067708 0.068359 0.069010 0.069661 0.070312 0.070964 0.071615 0.072266 0.072917 0.073568 0.074219 0.074870 0.075521 0.076172 0.076823 0.077474 0.078125 0.078776 0.079427 0.080078 0.080729 0.081380 0.082031 0.082682 0.083333 0.083984 0.084635 0.085286 0.085938 0.086589 0.087240 0.087891 0.088542 0.089193 0.089844 0.090495 0.091146 0.091797 0.092448 0.093099 0.093750 0.094401 0.095052 0.095703 0.096354 0.097005 0.097656 0.098307 0.098958 0.099609 0.100260 0.100911 0.101562 0.102214 0.102865 0.103516 0.104167 0.104818 0.105469 0.106120 0.106771 0.107422 0.108073 0.108724 0.109375 0.110026 0.110677 0.111328 0.111979 0.112630 0.113281 0.113932 0.114583 0.115234 0.115885 0.116536 0.117188 0.117839 0.118490 0.119141 0.119792 0.120443 0.121094 0.121745 0.122396 0.123047 0.123698 0.124349 0.125000 0.125651 0.126302 0.126953 0.127604 0.128255 0.128906 0.129557 0.130208 0.130859 0.131510 0.132161 0.132812 0.133464 0.134115 0.134766 0.135417 0.136068 0.136719 0.137370 0.138021 0.138672 0.139323 0.139974 0.140625 0.141276 0.141927 0.142578 0.143229 0.143880 0.144531 0.145182 0.145833 0.146484 0.147135 0.147786 0.148438 0.149089 0.149740 0.150391 0.151042 0.151693 0.152344 0.152995 0.153646 0.154297 0.154948 0.155599 0.156250 0.156901 0.157552 0.158203 0.158854 0.159505 0.160156 0.160807 0.161458 0.162109 0.162760 0.163411 0.164062 0.164714 0.165365 0.166016 0.166667 0.167318 0.167969 0.168620 0.169271 0.169922 0.170573 0.171224 0.171875 0.172526 0.173177 0.173828 0.174479 0.175130 0.175781 0.176432 0.177083 0.177734 0.178385 0.179036 0.179688 0.180339 0.180990 0.181641 0.182292 0.182943 0.183594 0.184245 0.184896 0.185547 0.186198 0.186849 0.187500 0.188151 0.188802 0.189453 0.190104 0.190755 0.191406 0.192057 0.192708 0.193359 0.194010 0.194661 0.195312 0.195964 0.196615 0.197266 0.197917 0.198568 0.199219 0.199870 0.200521 0.201172 0.201823 0.202474 0.203125 0.203776 0.204427 0.205078 0.205729 0.206380 0.207031 0.207682 0.208333 0.208984 0.209635 0.210286 0.210938 0.211589 0.212240 0.212891 0.213542 0.214193 0.214844 0.215495 0.216146 0.216797 0.217448 0.218099 0.218750 0.219401 0.220052 0.220703 0.221354 0.222005 0.222656 0.223307 0.223958 0.224609 0.225260 0.225911 0.226562 0.227214 0.227865 0.228516 0.229167 0.229818 0.230469 0.231120 0.231771 0.232422 0.233073 0.233724 0.234375 0.235026 0.235677
       0.33684        0.33684        0.33684        0.33684        0.33684        0.33684        0.33684        0.33684        0.33684        0.33684        0.33684        0.33684        0.33684        0.33684        0.33684        0.33684        0.33684        0.33684        0.33684        0.33684        0.33684        0.33684        0.33684        0.33684        0.33684        0.33684        0.33684        0.33684        0.33684        0.33684        0.33684        0.33684        0.33684        0.33684        0.33684        0.33684        0.33684        0.33684        0.33684        0.33684        0.33684        0.33684        0.33684        0.33684        0.33684        0.33684        0.33684        0.33684        0.33684        0.33684        0.33684        0.73052        0.89793        0.73637        0.37685        0.15923        0.07412        0.01525        0.07111        0.18359        0.20607        0.25454        0.36443        0.22663        0.10086        0.15979        0.07890       -0.24943       -0.04653        0.05634       -0.09159       -0.04848       -0.02734       -0.04614       -0.16809       -0.18937       -0.23461       -0.33093       -0.28402       -0.33277       -0.41021       -0.39674       -0.42888       -0.42117       -0.37699       -0.42561       -0.39153       -0.30571       -0.21865       -0.10913        0.01695        0.01919        0.04537        0.15683        0.27465        0.30468        0.36120        0.46857        0.61169        0.53188        0.62448        0.80286        0.75265        0.62837        0.67699        0.78486        0.75900        0.67831        0.62696        0.64633        0.49927        0.56096        0.48167        0.44584        0.28132        0.14988        0.04699        0.02198        0.02435       -0.05051       -0.08180       -0.10820        0.03265        0.08407        0.08800        0.16104        0.21694        0.32346        0.45913        0.50810        0.49534        0.62588        0.70074        0.77432        0.79207        0.73329        0.66839        0.55032        0.56777        0.55621        0.45018        0.31516        0.31221        0.17744        0.08670        0.12144        0.12931        0.13972        0.09145        0.08209        0.18060        0.23411        0.29664        0.36531        0.39058        0.39551        0.42238        0.50036        0.59596        0.59365        0.54189        0.52065        0.50452        0.41555        0.43666        0.31445        0.29654        0.24626        0.19167        0.15582        0.19006        0.13874        0.17871        0.24134        0.30227        0.29262        0.35466        0.47181        0.44737        0.45238        0.55319        0.56582        0.47233        0.51024        0.42475        0.37331        0.35188        0.31407        0.26432        0.22052        0.21227        0.22661        0.28837        0.27599        0.30590        0.36301        0.37569        0.43345        0.43270        0.44775        0.50053        0.43611        0.37177        0.41890        0.30928        0.29958        0.29362        0.29202        0.27237        0.28541        0.20659        0.24821        0.28064        0.27653        0.36899        0.38616        0.39204        0.45024        0.42340        0.39049        0.37739        0.32395        0.30677        0.27991        0.26744        0.24479        0.29829        0.29192        0.32609        0.30807        0.33770        0.37641        0.39597        0.37089        0.35924        0.39431        0.40586        0.38603        0.32144        0.32979        0.27827        0.26895        0.28052        0.28573        0.30113        0.34386        0.34431        0.28293        0.31735        0.32948        0.31419        0.32599        0.35779        0.29906        0.29476        0.27040        0.24052        0.26246        0.28527        0.29457        0.29334        0.35584        0.37136        0.33328        0.32553        0.30981        0.33153        0.31558        0.32772        0.30020        0.31036        0.32598        0.26780        0.32751        0.33103        0.38075        0.36560        0.30981        0.35415        0.32815        0.30687        0.30566        0.21135        0.28950        0.28539        0.29613        0.33109        0.32545        0.36703        0.32493        0.34487        0.32971        0.26757        0.33290        0.32978        0.31215        0.31541        0.31118        0.25746        0.26917        0.35925        0.37112        0.32634        0.27369        0.30495        0.28186        0.30803        0.28260        0.27648        0.29561        0.35614        0.35300        0.26437        0.23584        0.29723        0.30263        0.29419        0.31628        0.28973        0.28893        0.31821        0.31790        0.26126        0.31534        0.35712        0.32418        0.24732        0.29718        0.26300        0.24935        0.21515        0.19847        0.23375        0.22471        0.27989        0.26714        0.31146        0.27687        0.24004        0.24937        0.22555        0.19701        0.16796        0.21281        0.17517        0.29169        0.35765        0.23298        0.25941        0.19662        0.16098        0.26408        0.28691        0.23425        0.25093        0.36280        0.22470        0.16652        0.33160        0.22598       -0.10621       -0.25847       -0.33631
2.495273 2.472087 2.449014 2.426054 2.403206 2.380472 2.357851 2.335342 2.312947 2.290665 2.268495 2.246439 2.224495 2.202665 2.180947 2.159343 2.137851 2.116473 2.095207 2.074055 2.053015 2.032089 2.011275 1.990575 1.969987 1.949512 1.929151 1.908902 1.888766 1.868744 1.848834 1.829037 1.809353 1.789783 1.770325 1.750980 1.731748 1.712630 1.693624 1.674731 1.655951 1.637284 1.618730 1.600290 1.581962 1.563747 1.545645 1.527656 1.509780 1.492017 1.474367 1.879977 2.160134 1.916423 1.452374 1.280319 1.055889 0.938160 1.034673 1.133604 1.087026 1.213179 1.262044 1.224800 0.893907 1.025750 0.926072 0.451388 0.630116 0.887889 0.644866 0.590981 0.655829 0.641428 0.520047 0.397817 0.357850 0.227695 0.260270 0.169279 0.173984 0.011885 0.054994 0.031152 0.028895 -0.001011 -0.024827 0.049634 0.218542 0.273127 0.468577 0.402388 0.482619 0.548499 0.713586 0.763199 0.799902 0.849733 1.090931 1.060577 1.046703 1.122822 1.377559 1.106663 0.984932 1.180322 1.255744 1.095164 0.992383 1.033309 0.849963 0.893274 0.771895 0.748651 0.633198 0.362810 0.187382 0.207204 0.147778 0.101408 -0.021142 -0.001411 0.043524 0.182150 0.155833 0.231946 0.277022 0.376215 0.591106 0.613334 0.596351 0.708098 0.839348 0.896117 0.990960 0.829072 0.834709 0.632048 0.631011 0.677132 0.564672 0.347617 0.315925 0.149216 0.069961 0.022246 0.066611 0.017520 0.054152 -0.073637 0.057290 0.121583 0.199483 0.262017 0.313322 0.302697 0.361506 0.348326 0.480086 0.577220 0.482021 0.477541 0.496107 0.305801 0.382754 0.246521 0.124873 0.141575 0.043484 -0.000375 -0.041519 -0.017232 -0.085440 0.075907 0.057866 0.137612 0.156881 0.192711 0.413287 0.226269 0.373778 0.504066 0.368001 0.358288 0.268546 0.265335 0.175463 0.150882 0.076594 0.028936 0.024815 -0.070783 0.061359 0.057431 0.062688 0.153864 0.134412 0.228552 0.245192 0.205913 0.318616 0.337261 0.199037 0.186770 0.197680 0.080009 0.089386 0.046705 0.088929 0.063751 0.024815 -0.038854 0.029642 0.070356 0.062948 0.189402 0.175319 0.201630 0.285200 0.194051 0.195591 0.115336 0.062891 0.093029 0.032041 0.009089 -0.026518 0.094522 0.038799 0.087004 0.058541 0.103730 0.162525 0.151395 0.158044 0.118262 0.163784 0.183243 0.118391 0.023467 0.079765 -0.019872 0.005599 0.012933 0.024538 0.047271 0.093245 0.071672 -0.028147 0.073838 0.071869 0.061577 0.091780 0.095444 0.013484 0.058823 -0.031584 -0.016673 -0.019558 0.014425 0.015580 0.038865 0.141346 0.078722 0.090003 -0.032992 0.062541 0.027518 0.014332 0.048020 -0.010716 0.005568 0.032408 -0.062934 0.046598 0.048402 0.118366 0.047152 0.017997 0.097424 -0.009504 0.004266 0.019724 -0.130107 0.005001 -0.032498 -0.007829 0.064008 0.003827 0.113910 0.035418 0.039645 -0.005868 -0.038205 0.052667 -0.028012 0.035416 0.024779 -0.028055 -0.059618 -0.052857 0.086465 0.070924 0.058883 -0.055927 -0.006731 0.025549 0.036522 -0.000027 -0.043703 0.060030 0.066763 0.104573 -0.021357 -0.013658 0.057670 0.056633 0.047760 0.117120 0.056924 0.051090 0.067633 0.115492 0.013711 0.120836 0.180601 0.077174 0.053959 0.102979 -0.012373 0.047615 -0.050055 -0.033597 0.008019 -0.038466 0.075357 0.024735 0.094289 0.074942 -0.016999 0.038058 -0.030877 -0.066298 -0.114686 -0.025840 -0.088370 0.083516 0.121074 0.253623 0.338994 0.198642 0.213395 0.334611 0.375619 0.294804 0.291440 0.453512 0.194659 0.150522 0.396242 0.303758 -0.129002 -0.415508
0.072396 0.072823 0.074103 0.076237 0.079223 0.083061 0.087751 0.093291 0.099679 0.106915 0.114994 0.123916 0.133676 0.144269 0.155692 0.167937 0.180999 0.194867 0.209534 0.224988 0.241216 0.258204 0.275935 0.294391 0.313550 0.333389 0.353883 0.375001 0.396712 0.418981 0.441768 0.465032 0.488725 0.512798 0.537197 0.561863 0.586731 0.611736 0.636804 0.661857 0.686815 0.711589 0.736088 0.760215 0.783868 0.806941 0.829322 0.850896 0.871542 0.891137 0.909553 0.926659 0.942321 0.956403 0.968768 0.979276 0.987787 0.994164 0.998267 0.999961 0.999114 0.995597 0.989287 0.980068 0.967830 0.952475 0.933913 0.912066 0.886872 0.858279 0.826256 0.790788 0.751878 0.709551 0.663853 0.614855 0.562651 0.507362 0.449135 0.388144 0.324593 0.258713 0.190765 0.121041 0.049859 0.022434 0.095461 0.168820 0.242086 0.314807 0.386512 0.456713 0.524904 0.590569 0.653183 0.712218 0.767147 0.817448 0.862610 0.902139 0.935565 0.962443 0.982367 0.994969 0.999931 0.996986 0.985931 0.966625 0.939001 0.903068 0.858917 0.806723 0.746751 0.679357 0.604990 0.524191 0.437593 0.345920 0.249983 0.150675 0.048963 0.054114 0.157462 0.259935 0.360353 0.457510 0.550193 0.637195 0.717334 0.789466 0.852508 0.905453 0.947391 0.977524 0.995185 0.999857 0.991183 0.968984 0.933271 0.884250 0.822335 0.748145 0.662512 0.566470 0.461255 0.348290 0.229173 0.105655 0.020376 0.146929 0.271936 0.393285 0.508856 0.616559 0.714374 0.800393 0.872857 0.930201 0.971088 0.994450 0.999517 0.985846 0.953347 0.902297 0.833352 0.747551 0.646305 0.531391 0.404924 0.269326 0.127289 0.018276 0.164299 0.307602 0.444980 0.573268 0.689415 0.790564 0.874126 0.937854 0.979910 0.998928 0.994064 0.965041 0.912175 0.836392 0.739224 0.622796 0.489790 0.343396 0.187246 0.025325 0.138114 0.298669 0.451901 0.593458 0.719205 0.825349 0.908567 0.966112 0.995921 0.996702 0.967995 0.910220 0.824693 0.713618 0.580045 0.427803 0.261410 0.085944 0.093106 0.269993 0.438912 0.594178 0.730433 0.842833 0.927231 0.980350 0.999923 0.984803 0.935046 0.851943 0.738015 0.596963 0.433560 0.253515 0.063288 0.130138 0.319501 0.497532 0.657244 0.792208 0.896823 0.966573 0.998233 0.990044 0.941829 0.855043 0.732770 0.579630 0.401643 0.206006 0.000818 0.205244 0.403282 0.584564 0.740921 0.865123 0.951232 0.994911 0.993668 0.947018 0.856572 0.726009 0.560969 0.368836 0.158429 0.060377 0.277106 0.481184 0.662450 0.811678 0.921067 0.984667 0.998742 0.962011 0.875785 0.743968 0.572920 0.371182 0.149088 0.081756 0.309053 0.520471 0.704317 0.850207 0.949661 0.996638 0.987939 0.923454 0.806256 0.642490 0.441112 0.213420 0.027541 0.267716 0.492839 0.689309 0.845007 0.950074 0.997581 0.984015 0.909587 0.778309 0.597831 0.379041 0.135454 0.117598 0.363918 0.587468 0.773433 0.909220 0.985353 0.996173 0.940314 0.820884 0.645375 0.425226 0.175146 0.087847 0.345555 0.579858 0.774002 0.913811 0.988781 0.992902 0.925206 0.789942 0.596394 0.358284 0.092866 0.180290 0.440737 0.668669 0.846441 0.959991 0.999986 0.962654 0.850200 0.670763 0.437890 0.169586 0.113043 0.387427 0.631314 0.824610 0.951054 0.999657 0.965707 0.851304 0.665320 0.422790 0.143767 0.148294 0.428478 0.672536 0.858997 0.971111 0.998408 0.937757 0.793788 0.578636 0.310998 0.014573 0.283988 0.557466 0.780564 0.932278 0.997940 0.970713 0.852382 0.653356 0.391846
1.000000 1.000000 1.000000 1.000000 1.000000 1.000000 1.000000 1.000000 1.000000 1.000000 1.000000 1.000000 1.000000 1.000000 1.000000 1.000000 1.000000 1.000000 1.000000 1.000000 1.000000 1.000000 1.000000 1.000000 1.000000 1.000000 1.000000 1.000000 1.000000 1.000000 1.000000 1.000000 1.000000 1.000000 1.000000 1.000000 1.000000 1.000000 1.000000 1.000000 1.000000 1.000000 1.000000 1.000000 1.000000 1.000000 1.000000 1.000000 1.000000 1.000000 1.000000 1.000000 0.829860 0.829860 0.829860 0.829860 0.829860 0.829860 0.829860 0.829860 0.804206 0.804206 0.804206 0.804206 0.804206 0.804206 0.804206 0.804206 0.804206 0.804206 0.804206 0.804206 0.804206 0.804206 0.804206 0.804206 0.804206 0.804206 0.804206 0.804206 0.804206 0.804206 0.804206 0.804206 0.804206 0.804206 0.804206 0.804206 0.804206 0.804206 0.804206 0.804206 0.804206 0.804206 0.804206 0.804206 0.804206 0.804206 0.804206 0.804206 0.804206 0.804206 0.804206 0.804206 0.804206 0.952951 0.951994 0.952983 0.951913 0.955016 0.955364 0.955353 0.955244 0.955212 0.955523 0.955564 0.955778 0.956347 0.957624 0.958349 0.958733 0.959026 0.962464 0.961026 0.959865 0.960585 0.957218 0.954849 0.953650 0.953529 0.954120 0.955569 0.956907 0.955892 0.955182 0.955362 0.956451 0.955166 0.953700 0.952867 0.951977 0.952461 0.951311 0.950750 0.950638 0.951000 0.951473 0.952511 0.952774 0.953023 0.953147 0.953219 0.953371 0.954921 0.955800 0.957208 0.954171 0.951868 0.950015 0.946777 0.950044 0.948214 0.948132 0.947852 0.948742 0.948223 0.948351 0.948603 0.939407 0.931418 0.927721 0.914927 0.911306 0.908941 0.908701 0.907383 0.909525 0.907866 0.905536 0.903484 0.896585 0.894725 0.902446 0.899052 0.892927 0.889161 0.892064 0.890869 0.889073 0.880643 0.867982 0.864891 0.862136 0.863046 0.866980 0.857063 0.857282 0.856727 0.850725 0.846580 0.848591 0.845520 0.846755 0.837917 0.836140 0.828787 0.832358 0.826686 0.825271 0.833268 0.836530 0.841175 0.840207 0.836283 0.832829 0.825017 0.767907 0.765298 0.759726 0.765466 0.760680 0.750288 0.738417 0.742630 0.736245 0.733269 0.755959 0.764604 0.774439 0.776394 0.768668 0.760655 0.755117 0.754189 0.759149 0.724029 0.730767 0.730872 0.728610 0.715717 0.717475 0.700325 0.678952 0.670074 0.670224 0.677733 0.680010 0.684058 0.681004 0.677212 0.671653 0.665938 0.658530 0.677255 0.645497 0.640415 0.630023 0.606869 0.613776 0.615622 0.615563 0.624184 0.618821 0.602097 0.596358 0.560687 0.526056 0.527877 0.506163 0.474987 0.484885 0.502273 0.516315 0.457503 0.430921 0.416175 0.401166 0.405610 0.405902 0.476714 0.454211 0.451120 0.458432 0.422197 0.382292 0.366099 0.356107 0.319763 0.287300 0.274035 0.286290 0.291441 0.282355 0.272590 0.244801 0.278640 0.295247 0.312570 0.318825 0.335869 0.320455 0.309007 0.344181 0.360339 0.371503 0.366331 0.382993 0.393249 0.376270 0.367355 0.367742 0.367257 0.392090 0.391985 0.390690 0.413694 0.372824 0.391232 0.373102 0.375013 0.368870 0.333236 0.318479 0.314425 0.309679 0.284115 0.267447 0.265954 0.281059 0.293330 0.280543 0.298136 0.299316 0.299316 0.299316 0.299316 0.299316 0.299316 0.274974 0.274974 0.274974 0.274974 0.274974 0.274974 0.274974 0.274974 0.274974 0.274974 0.262470 0.262470 0.262470 0.262470 0.262470 0.262470 0.262470 0.262470 0.262470 0.262470 0.262470 0.262470 0.262470 0.262470 0.262470
0.000000 0.000000 0.000000 0.000000 0.000000 0.000000 0.000000 0.000000 0.000000 0.000000 0.000000 0.000000 0.000000 0.000000 0.000000 0.000000 0.000000 0.000000 0.000000 0.000000 0.000000 9401.000000 0.000000 0.000000 0.000000 0.000000 0.000000 0.000000 0.000000 0.000000 0.000000 0.000000 0.000000 0.000000 0.000000 0.000000 0.000000 0.000000 0.000000 0.000000 0.000000 0.000000 0.000000 0.000000 0.000000 0.000000 0.000000 0.000000 0.000000 0.000000 0.000000 0.000000 0.172133 0.172133 0.172133 0.172133 0.172133 0.172133 0.172133 0.172133 0.189832 0.189832 0.189832 0.189832 0.189832 0.189832 0.189832 0.189832 0.189832 0.189832 0.189832 0.189832 0.189832 0.189832 0.189832 0.189832 0.189832 0.189832 0.189832 0.189832 0.189832 0.189832 0.189832 0.189832 0.189832 0.189832 0.189832 0.189832 0.189832 0.189832 0.189832 0.189832 0.189832 0.189832 0.189832 0.189832 0.189832 0.189832 0.189832 0.189832 0.189832 0.189832 0.189832 0.189832 0.189832 0.222222 0.222222 0.222222 0.222222 0.222222 0.222222 0.222222 0.222222 0.222222 0.222222 0.222222 0.222222 0.222222 0.222222 0.222222 0.222222 0.222222 0.222222 0.222222 0.222222 0.222222 0.222222 0.222222 0.222222 0.222222 0.222222 0.222222 0.222222 0.222222 0.222222 0.234082 0.234082 0.234082 0.234082 0.234082 0.234082 0.234082 0.234082 0.234082 0.234082 0.234082 0.234082 0.234082 0.234082 0.234082 0.234082 0.234082 0.234082 0.234082 0.234082 0.234082 0.234082 0.234082 0.234082 0.234082 0.240772 0.240772 0.240772 0.240772 0.240772 0.240772 0.240772 0.240772 0.240772 0.240772 0.240772 0.240772 0.240772 0.240772 0.240772 0.240772 0.240772 0.240772 0.240772 0.240772 0.240772 0.240772 0.248069 0.248069 0.248069 0.248069 0.248069 0.248069 0.248069 0.248069 0.248069 0.248069 0.248069 0.248069 0.248069 0.248069 0.248069 0.248069 0.248069 0.248069 0.248069 0.248069 0.248069 0.248069 0.248069 0.248069 0.248069 0.248069 0.248069 0.248069 0.248069 0.248069 0.248069 0.248069 0.248069 0.248069 0.248069 0.248069 0.248069 0.256074 0.256074 0.256074 0.256074 0.256074 0.256074 0.256074 0.256074 0.256074 0.256074 0.256074 0.256074 0.256074 0.256074 0.256074 0.256074 0.256074 0.256074 0.256074 0.256074 0.256074 0.256074 0.256074 0.256074 0.256074 0.256074 0.256074 0.256074 0.256074 0.256074 0.256074 0.256074 0.256074 0.256074 0.256074 0.256074 0.256074 0.256074 0.256074 0.256074 0.256074 0.256074 0.256074 0.256074 0.256074 0.251976 0.251976 0.251976 0.251976 0.251976 0.251976 0.251976 0.251976 0.251976 0.251976 0.251976 0.251976 0.251976 0.251976 0.256074 0.256074 0.256074 0.256074 0.256074 0.256074 0.256074 0.256074 0.256074 0.256074 0.256074 0.256074 0.256074 0.260378 0.260378 0.260378 0.260378 0.260378 0.260378 0.260378 0.260378 0.260378 0.260378 0.260378 0.260378 0.251976 0.251976 0.251976 0.251976 0.251976 0.251976 0.251976 0.251976 0.251976 0.251976 0.251976 0.251976 0.248069 0.248069 0.248069 0.248069 0.248069 0.248069 0.248069 0.248069 0.248069 0.248069 0.248069 0.248069 0.251976 0.251976 0.251976 0.251976 0.251976 0.251976 0.251976 0.251976 0.251976 0.251976 0.251976 0.260378 0.260378 0.260378 0.260378 0.260378 0.260378 0.260378 0.260378 0.260378 0.260378 0.244339 0.244339 0.244339 0.244339 0.244339 0.244339 0.244339 0.244339 0.244339 0.244339 0.244339 0.244339 0.244339 0.244339 0.244339
