# Output from CTFFind version 4.1.9, run on 2019-11-03 18:52:17
# Input file: stack17_ub_averaged_3000.mrc ; Number of micrographs: 1
# Pixel size: 3.000 Angstroms ; acceleration voltage: 300.0 keV ; spherical aberration: 0.00 mm ; amplitude contrast: 0.07
# Box size: 512 pixels ; min. res.: 30.0 Angstroms ; max. res.: 5.0 Angstroms ; min. def.: 5000.0 um; max. def. 50000.0 um; num. frames averaged: 1
# 6 lines per micrograph: #1 - spatial frequency (1/Angstroms); #2 - 1D rotational average of spectrum (assuming no astigmatism); #3 - 1D rotational average of spectrum; #4 - CTF fit; #5 - cross-correlation between spectrum and CTF fit; #6 - 2sigma of expected cross correlation of noise
0.000000 0.000651 0.001302 0.001953 0.002604 0.003255 0.003906 0.004557 0.005208 0.005859 0.006510 0.007161 0.007812 0.008464 0.009115 0.009766 0.010417 0.011068 0.011719 0.012370 0.013021 0.013672 0.014323 0.014974 0.015625 0.016276 0.016927 0.017578 0.018229 0.018880 0.019531 0.020182 0.020833 0.021484 0.022135 0.022786 0.023438 0.024089 0.024740 0.025391 0.026042 0.026693 0.027344 0.027995 0.028646 0.029297 0.029948 0.030599 0.031250 0.031901 0.032552 0.033203 0.033854 0.034505 0.035156 0.035807 0.036458 0.037109 0.037760 0.038411 0.039062 0.039714 0.040365 0.041016 0.041667 0.042318 0.042969 0.043620 0.044271 0.044922 0.045573 0.046224 0.046875 0.047526 0.048177 0.048828 0.049479 0.050130 0.050781 0.051432 0.052083 0.052734 0.053385 0.054036 0.054688 0.055339 0.055990 0.056641 0.057292 0.057943 0.058594 0.059245 0.059896 0.060547 0.061198 0.061849 0.062500 0.063151 0.063802 0.064453 0.065104 0.065755 0.066406 0.067057 0.067708 0.068359 0.069010 0.069661 0.070312 0.070964 0.071615 0.072266 0.072917 0.073568 0.074219 0.074870 0.075521 0.076172 0.076823 0.077474 0.078125 0.078776 0.079427 0.080078 0.080729 0.081380 0.082031 0.082682 0.083333 0.083984 0.084635 0.085286 0.085938 0.086589 0.087240 0.087891 0.088542 0.089193 0.089844 0.090495 0.091146 0.091797 0.092448 0.093099 0.093750 0.094401 0.095052 0.095703 0.096354 0.097005 0.097656 0.098307 0.098958 0.099609 0.100260 0.100911 0.101562 0.102214 0.102865 0.103516 0.104167 0.104818 0.105469 0.106120 0.106771 0.107422 0.108073 0.108724 0.109375 0.110026 0.110677 0.111328 0.111979 0.112630 0.113281 0.113932 0.114583 0.115234 0.115885 0.116536 0.117188 0.117839 0.118490 0.119141 0.119792 0.120443 0.121094 0.121745 0.122396 0.123047 0.123698 0.124349 0.125000 0.125651 0.126302 0.126953 0.127604 0.128255 0.128906 0.129557 0.130208 0.130859 0.131510 0.132161 0.132812 0.133464 0.134115 0.134766 0.135417 0.136068 0.136719 0.137370 0.138021 0.138672 0.139323 0.139974 0.140625 0.141276 0.141927 0.142578 0.143229 0.143880 0.144531 0.145182 0.145833 0.146484 0.147135 0.147786 0.148438 0.149089 0.149740 0.150391 0.151042 0.151693 0.152344 0.152995 0.153646 0.154297 0.154948 0.155599 0.156250 0.156901 0.157552 0.158203 0.158854 0.159505 0.160156 0.160807 0.161458 0.162109 0.162760 0.163411 0.164062 0.164714 0.165365 0.166016 0.166667 0.167318 0.167969 0.168620 0.169271 0.169922 0.170573 0.171224 0.171875 0.172526 0.173177 0.173828 0.174479 0.175130 0.175781 0.176432 0.177083 0.177734 0.178385 0.179036 0.179688 0.180339 0.180990 0.181641 0.182292 0.182943 0.183594 0.184245 0.184896 0.185547 0.186198 0.186849 0.187500 0.188151 0.188802 0.189453 0.190104 0.190755 0.191406 0.192057 0.192708 0.193359 0.194010 0.194661 0.195312 0.195964 0.196615 0.197266 0.197917 0.198568 0.199219 0.199870 0.200521 0.201172 0.201823 0.202474 0.203125 0.203776 0.204427 0.205078 0.205729 0.206380 0.207031 0.207682 0.208333 0.208984 0.209635 0.210286 0.210938 0.211589 0.212240 0.212891 0.213542 0.214193 0.214844 0.215495 0.216146 0.216797 0.217448 0.218099 0.218750 0.219401 0.220052 0.220703 0.221354 0.222005 0.222656 0.223307 0.223958 0.224609 0.225260 0.225911 0.226562 0.227214 0.227865 0.228516 0.229167 0.229818 0.230469 0.231120 0.231771 0.232422 0.233073 0.233724 0.234375 0.235026 0.235677
       0.33349        0.33524        0.33671        0.33723        0.33746        0.33765        0.33772        0.33780        0.33785        0.33789        0.33793        0.33795        0.33798        0.33800        0.33801        0.33803        0.33804        0.33805        0.33806        0.33807        0.33808        0.33808        0.33809        0.33810        0.33810        0.33811        0.33811        0.33812        0.33812        0.33813        0.33813        0.33813        0.33813        0.33814        0.33814        0.33814        0.33815        0.33815        0.33815        0.33815        0.33815        0.33816        0.33816        0.33816        0.33816        0.33816        0.33816        0.33816        0.33817        0.33817        0.33817        0.57494        1.06122        0.81386        0.25124        0.10449       -0.00855       -0.14488        0.09568        0.14954        0.34130        0.27470        0.28599        0.16249        0.23679        0.11962        0.07580        0.01549        0.03575       -0.01830       -0.02623        0.01678       -0.09105       -0.16526       -0.13502       -0.13201       -0.21831       -0.25349       -0.31711       -0.26823       -0.30420       -0.42957       -0.44066       -0.31111       -0.34541       -0.30457       -0.21109       -0.19382       -0.19595       -0.15845       -0.07659       -0.03562        0.00064        0.16029        0.28518        0.40193        0.46524        0.46546        0.47077        0.58012        0.57738        0.63223        0.67524        0.66124        0.70004        0.67029        0.64980        0.68840        0.66258        0.59946        0.63745        0.47671        0.39066        0.32509        0.30883        0.18807        0.11163        0.04741        0.06034        0.00414       -0.02280       -0.01296        0.04998        0.05522        0.02239        0.14732        0.24043        0.37899        0.46433        0.49483        0.61161        0.66120        0.65679        0.63583        0.72699        0.65374        0.60906        0.64071        0.63751        0.55650        0.52112        0.39981        0.26640        0.19971        0.13732        0.17055        0.13588        0.09200        0.08973        0.11421        0.10849        0.17368        0.22964        0.31583        0.38485        0.41254        0.49413        0.52134        0.49152        0.43879        0.49577        0.50855        0.51059        0.43640        0.39515        0.34330        0.27390        0.24720        0.25898        0.22270        0.17627        0.23213        0.26847        0.26616        0.31997        0.35631        0.40647        0.45798        0.52731        0.47210        0.49112        0.51368        0.46995        0.42547        0.41280        0.37362        0.36614        0.29300        0.21052        0.22741        0.23003        0.20959        0.27999        0.25468        0.30953        0.30290        0.37363        0.41005        0.42310        0.44834        0.42812        0.42266        0.41940        0.41487        0.31584        0.33451        0.31998        0.28827        0.24525        0.25610        0.28386        0.29591        0.35809        0.33982        0.35363        0.40633        0.41399        0.39882        0.40349        0.40730        0.39526        0.37920        0.33662        0.28661        0.29448        0.27558        0.29680        0.29634        0.25636        0.28510        0.32652        0.39698        0.37994        0.39511        0.38777        0.38961        0.35559        0.30902        0.33289        0.31188        0.28534        0.29408        0.29466        0.32366        0.32467        0.33861        0.31342        0.33523        0.36539        0.35164        0.33747        0.33675        0.32078        0.27999        0.27433        0.23746        0.25997        0.26690        0.28103        0.32250        0.34038        0.33233        0.33865        0.31642        0.29124        0.30147        0.31544        0.32108        0.26641        0.28175        0.30278        0.30091        0.31506        0.31765        0.34035        0.31621        0.35511        0.32689        0.30534        0.27902        0.33263        0.29905        0.31212        0.32183        0.27507        0.32545        0.34745        0.34142        0.30317        0.33609        0.36099        0.34229        0.31641        0.30385        0.31962        0.31384        0.28913        0.28895        0.32654        0.31311        0.34267        0.34115        0.32277        0.37105        0.27018        0.27593        0.30018        0.23246        0.27886        0.26711        0.26464        0.27776        0.33010        0.29894        0.27376        0.29027        0.29572        0.27394        0.27765        0.25625        0.29051        0.30258        0.26985        0.25943        0.27080        0.26800        0.33179        0.29669        0.30540        0.29286        0.24606        0.23794        0.23673        0.30584        0.28001        0.38044        0.37911        0.26081        0.24269        0.26294        0.27911        0.29351        0.27216        0.24264        0.20411        0.34164        0.35052        0.31675        0.23600        0.20246        0.27098        0.27546        0.10026        0.13645        0.17668        0.22871        0.24108        0.22013       -0.02810        0.02911       -0.19844       -0.50474       -0.76907
2.309564 2.292877 2.274056 2.254770 2.235854 2.216076 2.196795 2.177320 2.158047 2.138918 2.119634 2.100630 2.081591 2.062755 2.043920 2.025163 2.006591 1.988032 1.969564 1.951196 1.932903 1.914763 1.896657 1.878652 1.860734 1.842934 1.825195 1.807547 1.790017 1.772547 1.755200 1.737918 1.720730 1.703649 1.686656 1.669746 1.652929 1.636200 1.619576 1.603026 1.586586 1.570218 1.553955 1.537782 1.521692 1.505706 1.489799 1.473997 1.458277 1.442648 1.427119 1.697648 2.288133 2.348367 1.009133 1.192346 0.944280 0.541437 1.013038 0.867371 1.218655 1.130422 1.245401 0.962128 0.994668 0.949189 0.896573 0.717111 0.672955 0.671622 0.649056 0.697825 0.588228 0.339287 0.427339 0.355064 0.322006 0.223671 0.132767 0.077419 0.204191 -0.049414 -0.224898 0.092029 0.022735 0.006077 0.136951 0.132152 0.168236 0.138195 0.298631 0.364524 0.331202 0.506736 0.733124 0.892211 0.946691 0.981325 1.011093 1.039775 1.131751 1.137840 1.183742 1.237092 1.080030 1.273397 1.050022 1.250622 1.175211 1.030960 1.078559 0.862069 0.759355 0.691499 0.608333 0.414234 0.266694 0.243166 0.206170 0.171963 -0.010455 0.050335 0.139716 0.149110 0.131504 0.113649 0.379381 0.419165 0.713193 0.716146 0.753470 0.889192 0.961442 0.875768 0.973347 0.896597 0.825221 0.796514 0.865856 0.775589 0.635437 0.607960 0.324288 0.242532 0.064292 0.166500 0.089438 0.042933 -0.005369 -0.000530 -0.000653 0.069661 0.157441 0.229985 0.327745 0.375600 0.506274 0.582381 0.522266 0.404989 0.467201 0.513665 0.517307 0.422498 0.364288 0.263660 0.197100 0.150647 0.037303 0.142100 0.012256 0.058188 0.030676 0.142223 0.114541 0.228298 0.265855 0.247035 0.475685 0.371609 0.396057 0.401247 0.402466 0.309069 0.308456 0.264633 0.192081 0.158100 0.026605 -0.023537 0.016834 -0.041457 0.001882 0.047762 0.048401 0.123974 0.100513 0.240080 0.217599 0.271158 0.295712 0.237571 0.232825 0.260938 0.143799 0.090704 0.112938 0.117806 -0.010554 -0.005824 0.004985 0.048107 0.078364 0.128569 0.127236 0.150369 0.249262 0.206974 0.216850 0.192672 0.228850 0.208328 0.193514 0.080082 0.075188 0.048834 0.006520 0.118537 0.028122 0.022975 0.055238 0.176011 0.186321 0.174406 0.213265 0.184274 0.193610 0.099786 0.111287 0.089996 0.042472 0.073911 0.025334 0.058727 0.083221 0.132219 0.071004 0.084701 0.120436 0.152040 0.127978 0.093836 0.101036 0.089316 -0.012308 0.031661 -0.051449 0.003988 0.030785 0.014847 0.093492 0.107676 0.072656 0.109289 0.015470 0.035232 0.023040 0.061792 0.028095 -0.021028 0.004781 0.041857 0.020857 0.079569 0.037416 0.102122 0.031710 0.108129 0.078835 0.022793 -0.032305 0.120619 0.008473 0.058824 0.034313 -0.008150 0.094431 0.083340 0.084510 0.041996 0.087602 0.091108 0.043752 0.061893 -0.011739 0.029399 0.012311 0.018014 -0.018928 0.096389 -0.015979 0.121418 0.096129 0.058720 0.177944 -0.019202 -0.007201 0.050974 -0.050638 0.015018 -0.013662 0.002944 0.011870 0.102476 0.063862 -0.050673 0.044942 0.006241 -0.012517 -0.003072 0.015201 -0.013127 0.077559 -0.026274 0.017718 0.009170 -0.013601 0.152561 0.006106 0.103887 0.054068 -0.023778 0.015578 0.010586 0.095210 0.038085 0.260279 0.196748 0.060556 0.030815 0.131177 0.072558 0.137855 0.117516 0.136057 0.033510 0.251010 0.275911 0.448710 0.326878 0.247330 0.408090 0.392861 0.082027 0.185653 0.237245 0.382311 0.175485 0.261105 -0.103263 0.149108 -0.275999 -1.082666
0.072396 0.072824 0.074107 0.076246 0.079239 0.083087 0.087787 0.093340 0.099744 0.106997 0.115096 0.124038 0.133821 0.144439 0.155889 0.168163 0.181255 0.195156 0.209857 0.225346 0.241611 0.258638 0.276409 0.294905 0.314107 0.333989 0.354526 0.375689 0.397444 0.419758 0.442590 0.465897 0.489634 0.513750 0.538189 0.562893 0.587799 0.612837 0.637936 0.663017 0.687997 0.712790 0.737302 0.761437 0.785090 0.808157 0.830524 0.852075 0.872689 0.892243 0.910607 0.927651 0.943238 0.957234 0.969499 0.979895 0.988280 0.994515 0.998462 0.999986 0.998953 0.995235 0.988708 0.979257 0.966773 0.951156 0.932319 0.910183 0.884687 0.855782 0.823437 0.787637 0.748389 0.705719 0.659675 0.610330 0.557782 0.502153 0.443594 0.382282 0.318425 0.252257 0.184043 0.114078 0.042685 0.029785 0.102951 0.176408 0.249725 0.322448 0.394102 0.464194 0.532217 0.597650 0.659966 0.718636 0.773130 0.822926 0.867513 0.906398 0.939111 0.965210 0.984291 0.995993 1.000000 0.996053 0.983955 0.963574 0.934852 0.897809 0.852545 0.799249 0.738199 0.669764 0.594406 0.512681 0.425238 0.332815 0.236237 0.136412 0.034321 0.068987 0.172402 0.274772 0.374906 0.471592 0.563613 0.649761 0.728851 0.799747 0.861372 0.912728 0.952917 0.981160 0.996810 0.999371 0.988513 0.964087 0.926134 0.874896 0.810821 0.734567 0.647001 0.549198 0.442428 0.328153 0.208004 0.083762 0.042656 0.169240 0.293899 0.414514 0.528955 0.635140 0.731055 0.814810 0.884674 0.939115 0.976839 0.996828 0.998367 0.981080 0.944945 0.890311 0.817912 0.728862 0.624653 0.507135 0.378495 0.241222 0.098065 0.048019 0.193920 0.336439 0.472360 0.598525 0.711906 0.809685 0.889331 0.948670 0.985953 0.999916 0.989832 0.955549 0.897516 0.816796 0.715058 0.594562 0.458118 0.309033 0.151036 0.011801 0.175167 0.334626 0.485731 0.624154 0.745812 0.847002 0.924508 0.975728 0.998768 0.992524 0.956741 0.892056 0.800006 0.683012 0.544333 0.387991 0.218670 0.041580 0.137684 0.313329 0.479539 0.630672 0.761462 0.867210 0.943962 0.988675 0.999354 0.975156 0.916455 0.824872 0.703255 0.555612 0.386996 0.203360 0.011347 0.181933 0.369163 0.543100 0.696851 0.824165 0.919700 0.979257 0.999993 0.980574 0.921275 0.824018 0.692343 0.531305 0.347298 0.147836 0.058753 0.263658 0.457955 0.633010 0.780855 0.894579 0.968666 0.999285 0.984516 0.924493 0.821454 0.679701 0.505442 0.306558 0.092268 0.127288 0.341513 0.539865 0.712381 0.850192 0.946002 0.994499 0.992677 0.940058 0.838785 0.693571 0.511530 0.301855 0.075378 0.155954 0.379722 0.583681 0.756453 0.888170 0.971072 0.999992 0.972718 0.890193 0.756538 0.578900 0.367111 0.133165 0.109414 0.346358 0.563484 0.747551 0.887086 0.973136 0.999872 0.965033 0.870152 0.720550 0.525091 0.295702 0.046682 0.206160 0.446502 0.658571 0.828172 0.943691 0.996917 0.983673 0.904195 0.763219 0.569761 0.336584 0.079421 0.184080 0.435538 0.657121 0.832834 0.949701 0.998771 0.975853 0.881932 0.723212 0.510770 0.259844 0.011218 0.282265 0.532834 0.743707 0.898397 0.984495 0.994710 0.927554 0.787580 0.585156 0.335766 0.058869 0.223562 0.488785 0.715111 0.883709 0.980213 0.996007 0.929067 0.784260 0.573089 0.312837 0.025226 0.265362 0.533933 0.757039 0.914857 0.992998 0.983899 0.887619 0.711996 0.472095 0.188997 0.112011 0.403640 0.659078 0.854483 0.971237 0.997806 0.930953 0.776204 0.547502 0.266026
1.000000 1.000000 1.000000 1.000000 1.000000 1.000000 1.000000 1.000000 1.000000 1.000000 1.000000 1.000000 1.000000 1.000000 1.000000 1.000000 1.000000 1.000000 1.000000 1.000000 1.000000 1.000000 1.000000 1.000000 1.000000 1.000000 1.000000 1.000000 1.000000 1.000000 1.000000 1.000000 1.000000 1.000000 1.000000 1.000000 1.000000 1.000000 1.000000 1.000000 1.000000 1.000000 1.000000 1.000000 1.000000 1.000000 1.000000 1.000000 1.000000 1.000000 1.000000 1.000000 0.806183 0.806183 0.806183 0.806183 0.806183 0.806183 0.806183 0.806183 0.784824 0.784824 0.784824 0.784824 0.784824 0.784824 0.784824 0.784824 0.784824 0.784824 0.784824 0.784824 0.784824 0.784824 0.784824 0.784824 0.784824 0.784824 0.784824 0.784824 0.784824 0.784824 0.784824 0.784824 0.784824 0.784824 0.784824 0.784824 0.784824 0.784824 0.784824 0.784824 0.784824 0.784824 0.784824 0.784824 0.784824 0.784824 0.784824 0.784824 0.784824 0.784824 0.784824 0.784824 0.784824 0.955033 0.954016 0.954997 0.956639 0.958555 0.958770 0.958742 0.958997 0.958968 0.961286 0.961524 0.961978 0.962533 0.963564 0.964012 0.968247 0.969752 0.971656 0.973364 0.976021 0.977464 0.978023 0.976098 0.971731 0.966904 0.967812 0.965472 0.966814 0.966300 0.964915 0.965550 0.966230 0.965145 0.963135 0.962477 0.961170 0.960980 0.960122 0.961674 0.961536 0.961765 0.962105 0.962590 0.962787 0.962986 0.963102 0.963193 0.963362 0.962516 0.961145 0.962362 0.962189 0.960768 0.959328 0.956963 0.964071 0.962835 0.962279 0.962150 0.962218 0.962648 0.962971 0.960472 0.958451 0.958051 0.951125 0.941737 0.940286 0.939745 0.938761 0.941447 0.943247 0.943722 0.942771 0.943847 0.940619 0.936718 0.934307 0.927620 0.928295 0.929786 0.931079 0.930891 0.930957 0.930090 0.927366 0.924031 0.924720 0.925196 0.927637 0.916558 0.913649 0.901932 0.889937 0.890912 0.892316 0.893627 0.898193 0.894704 0.899272 0.899518 0.900922 0.891950 0.889872 0.889945 0.889406 0.886127 0.888983 0.888468 0.886663 0.885124 0.871021 0.856347 0.857268 0.857883 0.859472 0.859111 0.854790 0.855002 0.854947 0.849590 0.847264 0.848298 0.851434 0.852150 0.851582 0.852574 0.823656 0.809471 0.796573 0.802992 0.796214 0.795793 0.797938 0.795156 0.786973 0.763746 0.761261 0.751944 0.749635 0.753393 0.740962 0.742383 0.738289 0.719412 0.686683 0.660591 0.662166 0.640318 0.630299 0.632991 0.615254 0.595196 0.612053 0.586248 0.595541 0.609147 0.601962 0.596448 0.596747 0.597217 0.590732 0.581163 0.567810 0.541451 0.553660 0.555943 0.542233 0.543145 0.503985 0.493097 0.488928 0.515606 0.495345 0.481231 0.501686 0.502474 0.506259 0.499905 0.488694 0.468589 0.480393 0.439224 0.444372 0.444527 0.435842 0.419360 0.409101 0.392399 0.364144 0.371416 0.345920 0.356493 0.359579 0.391454 0.400691 0.402670 0.390397 0.390473 0.372756 0.397445 0.408061 0.387804 0.383479 0.365909 0.361338 0.354863 0.372673 0.387408 0.366718 0.402066 0.402203 0.433007 0.446076 0.442357 0.451351 0.421957 0.372978 0.395572 0.397254 0.396052 0.379063 0.359687 0.320920 0.307728 0.300643 0.340831 0.337153 0.337153 0.337153 0.337153 0.337153 0.345205 0.345205 0.345205 0.345205 0.345205 0.345205 0.345205 0.345205 0.345205 0.345205 0.345205 0.355293 0.355293 0.355293 0.355293 0.355293 0.355293 0.355293 0.355293 0.355293 0.355293 0.355293 0.355293 0.355293 0.355293 0.355293
0.000000 0.000000 0.000000 0.000000 0.000000 0.000000 0.000000 0.000000 0.000000 0.000000 0.000000 0.000000 0.000000 0.000000 0.000000 0.000000 0.000000 0.000000 0.000000 0.000000 0.000000 0.000000 0.000000 0.000000 0.000000 0.000000 0.000000 0.000000 0.000000 0.000000 0.000000 0.000000 0.000000 0.000000 0.000000 0.000000 0.000000 0.000000 0.000000 0.000000 0.000000 0.000000 0.000000 0.000000 0.000000 0.000000 0.000000 0.000000 0.000000 0.000000 0.000000 0.000000 0.172133 0.172133 0.172133 0.172133 0.172133 0.172133 0.172133 0.172133 0.189832 0.189832 0.189832 0.189832 0.189832 0.189832 0.189832 0.189832 0.189832 0.189832 0.189832 0.189832 0.189832 0.189832 0.189832 0.189832 0.189832 0.189832 0.189832 0.189832 0.189832 0.189832 0.189832 0.189832 0.189832 0.189832 0.189832 0.189832 0.189832 0.189832 0.189832 0.189832 0.189832 0.189832 0.189832 0.189832 0.189832 0.189832 0.189832 0.189832 0.189832 0.189832 0.189832 0.189832 0.189832 0.222222 0.222222 0.222222 0.222222 0.222222 0.222222 0.222222 0.222222 0.222222 0.222222 0.222222 0.222222 0.222222 0.222222 0.222222 0.222222 0.222222 0.222222 0.222222 0.222222 0.222222 0.222222 0.222222 0.222222 0.222222 0.222222 0.222222 0.222222 0.222222 0.222222 0.234082 0.234082 0.234082 0.234082 0.234082 0.234082 0.234082 0.234082 0.234082 0.234082 0.234082 0.234082 0.234082 0.234082 0.234082 0.234082 0.234082 0.234082 0.234082 0.234082 0.234082 0.234082 0.234082 0.234082 0.234082 0.240772 0.240772 0.240772 0.240772 0.240772 0.240772 0.240772 0.240772 0.240772 0.240772 0.240772 0.240772 0.240772 0.240772 0.240772 0.240772 0.240772 0.240772 0.240772 0.240772 0.240772 0.240772 0.248069 0.248069 0.248069 0.248069 0.248069 0.248069 0.248069 0.248069 0.248069 0.248069 0.248069 0.248069 0.248069 0.248069 0.248069 0.248069 0.248069 0.248069 0.248069 0.256074 0.256074 0.256074 0.256074 0.256074 0.256074 0.256074 0.256074 0.256074 0.256074 0.256074 0.256074 0.256074 0.256074 0.256074 0.256074 0.256074 0.248069 0.248069 0.248069 0.248069 0.248069 0.248069 0.248069 0.248069 0.248069 0.248069 0.248069 0.248069 0.248069 0.248069 0.248069 0.248069 0.248069 0.256074 0.256074 0.256074 0.256074 0.256074 0.256074 0.256074 0.256074 0.256074 0.256074 0.256074 0.256074 0.256074 0.256074 0.256074 0.256074 0.256074 0.256074 0.256074 0.256074 0.256074 0.256074 0.256074 0.256074 0.256074 0.256074 0.256074 0.256074 0.256074 0.251976 0.251976 0.251976 0.251976 0.251976 0.251976 0.251976 0.251976 0.251976 0.251976 0.251976 0.251976 0.251976 0.251976 0.264906 0.264906 0.264906 0.264906 0.264906 0.264906 0.264906 0.264906 0.264906 0.264906 0.264906 0.264906 0.248069 0.248069 0.248069 0.248069 0.248069 0.248069 0.248069 0.248069 0.248069 0.248069 0.248069 0.248069 0.248069 0.251976 0.251976 0.251976 0.251976 0.251976 0.251976 0.251976 0.251976 0.251976 0.251976 0.251976 0.251976 0.256074 0.256074 0.256074 0.256074 0.256074 0.256074 0.256074 0.256074 0.256074 0.256074 0.256074 0.251976 0.251976 0.251976 0.251976 0.251976 0.251976 0.251976 0.251976 0.251976 0.251976 0.251976 0.248069 0.248069 0.248069 0.248069 0.248069 0.248069 0.248069 0.248069 0.248069 0.248069 0.248069 0.256074 0.256074 0.256074 0.256074 0.256074 0.256074 0.256074 0.256074 0.256074 0.256074 0.256074 0.256074 0.256074 0.256074 0.256074
