# Output from CTFFind version 4.1.9, run on 2019-11-03 18:51:23
# Input file: stack13_ub_averaged_250.mrc ; Number of micrographs: 1
# Pixel size: 3.000 Angstroms ; acceleration voltage: 300.0 keV ; spherical aberration: 0.00 mm ; amplitude contrast: 0.07
# Box size: 512 pixels ; min. res.: 30.0 Angstroms ; max. res.: 5.0 Angstroms ; min. def.: 5000.0 um; max. def. 50000.0 um; num. frames averaged: 1
# 6 lines per micrograph: #1 - spatial frequency (1/Angstroms); #2 - 1D rotational average of spectrum (assuming no astigmatism); #3 - 1D rotational average of spectrum; #4 - CTF fit; #5 - cross-correlation between spectrum and CTF fit; #6 - 2sigma of expected cross correlation of noise
0.000000 0.000651 0.001302 0.001953 0.002604 0.003255 0.003906 0.004557 0.005208 0.005859 0.006510 0.007161 0.007812 0.008464 0.009115 0.009766 0.010417 0.011068 0.011719 0.012370 0.013021 0.013672 0.014323 0.014974 0.015625 0.016276 0.016927 0.017578 0.018229 0.018880 0.019531 0.020182 0.020833 0.021484 0.022135 0.022786 0.023438 0.024089 0.024740 0.025391 0.026042 0.026693 0.027344 0.027995 0.028646 0.029297 0.029948 0.030599 0.031250 0.031901 0.032552 0.033203 0.033854 0.034505 0.035156 0.035807 0.036458 0.037109 0.037760 0.038411 0.039062 0.039714 0.040365 0.041016 0.041667 0.042318 0.042969 0.043620 0.044271 0.044922 0.045573 0.046224 0.046875 0.047526 0.048177 0.048828 0.049479 0.050130 0.050781 0.051432 0.052083 0.052734 0.053385 0.054036 0.054688 0.055339 0.055990 0.056641 0.057292 0.057943 0.058594 0.059245 0.059896 0.060547 0.061198 0.061849 0.062500 0.063151 0.063802 0.064453 0.065104 0.065755 0.066406 0.067057 0.067708 0.068359 0.069010 0.069661 0.070312 0.070964 0.071615 0.072266 0.072917 0.073568 0.074219 0.074870 0.075521 0.076172 0.076823 0.077474 0.078125 0.078776 0.079427 0.080078 0.080729 0.081380 0.082031 0.082682 0.083333 0.083984 0.084635 0.085286 0.085938 0.086589 0.087240 0.087891 0.088542 0.089193 0.089844 0.090495 0.091146 0.091797 0.092448 0.093099 0.093750 0.094401 0.095052 0.095703 0.096354 0.097005 0.097656 0.098307 0.098958 0.099609 0.100260 0.100911 0.101562 0.102214 0.102865 0.103516 0.104167 0.104818 0.105469 0.106120 0.106771 0.107422 0.108073 0.108724 0.109375 0.110026 0.110677 0.111328 0.111979 0.112630 0.113281 0.113932 0.114583 0.115234 0.115885 0.116536 0.117188 0.117839 0.118490 0.119141 0.119792 0.120443 0.121094 0.121745 0.122396 0.123047 0.123698 0.124349 0.125000 0.125651 0.126302 0.126953 0.127604 0.128255 0.128906 0.129557 0.130208 0.130859 0.131510 0.132161 0.132812 0.133464 0.134115 0.134766 0.135417 0.136068 0.136719 0.137370 0.138021 0.138672 0.139323 0.139974 0.140625 0.141276 0.141927 0.142578 0.143229 0.143880 0.144531 0.145182 0.145833 0.146484 0.147135 0.147786 0.148438 0.149089 0.149740 0.150391 0.151042 0.151693 0.152344 0.152995 0.153646 0.154297 0.154948 0.155599 0.156250 0.156901 0.157552 0.158203 0.158854 0.159505 0.160156 0.160807 0.161458 0.162109 0.162760 0.163411 0.164062 0.164714 0.165365 0.166016 0.166667 0.167318 0.167969 0.168620 0.169271 0.169922 0.170573 0.171224 0.171875 0.172526 0.173177 0.173828 0.174479 0.175130 0.175781 0.176432 0.177083 0.177734 0.178385 0.179036 0.179688 0.180339 0.180990 0.181641 0.182292 0.182943 0.183594 0.184245 0.184896 0.185547 0.186198 0.186849 0.187500 0.188151 0.188802 0.189453 0.190104 0.190755 0.191406 0.192057 0.192708 0.193359 0.194010 0.194661 0.195312 0.195964 0.196615 0.197266 0.197917 0.198568 0.199219 0.199870 0.200521 0.201172 0.201823 0.202474 0.203125 0.203776 0.204427 0.205078 0.205729 0.206380 0.207031 0.207682 0.208333 0.208984 0.209635 0.210286 0.210938 0.211589 0.212240 0.212891 0.213542 0.214193 0.214844 0.215495 0.216146 0.216797 0.217448 0.218099 0.218750 0.219401 0.220052 0.220703 0.221354 0.222005 0.222656 0.223307 0.223958 0.224609 0.225260 0.225911 0.226562 0.227214 0.227865 0.228516 0.229167 0.229818 0.230469 0.231120 0.231771 0.232422 0.233073 0.233724 0.234375 0.235026 0.235677
       0.36388        0.36388        0.36388        0.36388        0.36388        0.36388        0.36388        0.36388        0.36388        0.36388        0.36388        0.36388        0.36388        0.36388        0.36388        0.36388        0.36388        0.36388        0.36388        0.36388        0.36388        0.36388        0.36388        0.36388        0.36388        0.36388        0.36388        0.36388        0.36388        0.36388        0.36388        0.36388        0.36388        0.36388        0.36388        0.36388        0.36388        0.36388        0.36388        0.36388        0.36388        0.36388        0.36388        0.36388        0.36388        0.36388        0.36388        0.36388        0.36388        0.36388        0.36388        0.57743        0.99441        0.80016        0.07210       -0.24294       -0.19505       -0.34091       -0.34700       -0.30089       -0.35503       -0.07996       -0.31006       -0.27744       -0.49332       -0.52141       -0.61042       -0.65558       -0.67520       -0.79992       -0.72006       -0.72608       -0.63309       -0.64440       -0.58703       -0.54553       -0.57147       -0.45369       -0.32058       -0.29005       -0.17072       -0.02715        0.08235        0.26843        0.37932        0.41695        0.45440        0.56236        0.69048        0.60064        0.61796        0.54577        0.69294        0.65181        0.62937        0.68369        0.61094        0.55522        0.35949        0.32320        0.23899        0.15725        0.05312        0.05138       -0.06887        0.02518        0.01963        0.07042        0.13286        0.17488        0.23466        0.40815        0.49294        0.60584        0.63216        0.69687        0.68091        0.75134        0.72211        0.62647        0.59797        0.62690        0.53974        0.40861        0.35032        0.27200        0.15747        0.15199        0.07504        0.09661        0.03383        0.12562        0.20173        0.36416        0.45283        0.44402        0.51856        0.59300        0.58075        0.55368        0.64011        0.57915        0.51580        0.48133        0.43056        0.30217        0.26907        0.19546        0.14196        0.12137        0.17126        0.18474        0.29426        0.34718        0.46883        0.45779        0.52936        0.55207        0.55301        0.55792        0.55042        0.47071        0.41182        0.32787        0.27485        0.22026        0.19030        0.19930        0.23808        0.29266        0.29101        0.38708        0.47628        0.50567        0.53349        0.51312        0.53562        0.47860        0.41732        0.35266        0.28504        0.25786        0.24633        0.22785        0.25929        0.33806        0.37900        0.42286        0.51629        0.49189        0.48339        0.44490        0.39532        0.39155        0.35718        0.33214        0.25264        0.25016        0.29746        0.34763        0.35287        0.40890        0.43576        0.48887        0.43779        0.43759        0.39275        0.41032        0.36506        0.32549        0.30300        0.34497        0.31544        0.31841        0.35562        0.40546        0.38163        0.40775        0.45042        0.39452        0.34259        0.28199        0.27670        0.30527        0.29810        0.33467        0.37330        0.40567        0.46736        0.42278        0.42273        0.41557        0.34991        0.35165        0.35752        0.30656        0.31664        0.34319        0.35722        0.38171        0.40293        0.41018        0.38828        0.36806        0.36956        0.31298        0.30667        0.27338        0.29741        0.31010        0.32710        0.36219        0.37078        0.39025        0.36250        0.31381        0.29859        0.28951        0.26865        0.27975        0.35355        0.33336        0.36111        0.34382        0.37103        0.35537        0.32173        0.31016        0.32781        0.32445        0.32435        0.36497        0.35333        0.35967        0.42043        0.34149        0.37413        0.32656        0.29085        0.33169        0.35608        0.37224        0.32253        0.35050        0.38833        0.38136        0.40093        0.38647        0.31349        0.28554        0.35610        0.28273        0.35408        0.36431        0.37545        0.33348        0.32904        0.35115        0.33235        0.34338        0.32456        0.33148        0.36632        0.40429        0.31967        0.37443        0.31927        0.29856        0.28470        0.31256        0.34044        0.33207        0.34393        0.33813        0.28955        0.26796        0.36758        0.29773        0.28587        0.30980        0.36292        0.33944        0.30040        0.27956        0.29459        0.32003        0.32482        0.34700        0.34972        0.29760        0.31629        0.28028        0.25967        0.22998        0.28280        0.34165        0.33406        0.32750        0.27686        0.30214        0.29147        0.23666        0.30332        0.36210        0.23531        0.24131        0.25692        0.30035        0.22500        0.24658        0.21845        0.28933        0.20361        0.20522        0.26597        0.29130        0.22036        0.21125        0.22966        0.19387        0.04988       -0.43359       -0.56655
2.421233 2.394376 2.367677 2.341134 2.314749 2.288520 2.262448 2.236533 2.210775 2.185174 2.159730 2.134443 2.109313 2.084340 2.059524 2.034864 2.010362 1.986017 1.961828 1.937797 1.913922 1.890205 1.866644 1.843240 1.819994 1.796904 1.773971 1.751195 1.728576 1.706114 1.683809 1.661661 1.639670 1.617836 1.596159 1.574638 1.553275 1.532069 1.511019 1.490127 1.469391 1.448813 1.428391 1.408126 1.388019 1.368068 1.348274 1.328637 1.309157 1.289834 1.270668 1.436529 1.787474 1.668142 1.021172 0.580790 0.640093 0.500258 0.388913 0.534180 0.359111 0.639569 0.472339 0.443830 0.239417 0.104956 0.094043 0.025684 -0.031540 -0.164799 -0.065010 -0.222681 -0.046575 -0.097032 -0.053141 0.029242 -0.094351 0.029057 0.126202 0.128670 0.215400 0.404506 0.403417 0.659410 0.653362 0.780609 0.741198 0.858372 0.917536 0.927224 0.846264 0.751732 0.903145 0.898872 0.843868 0.884457 0.786145 0.793611 0.535807 0.463628 0.431348 0.310989 0.229747 0.196001 0.079342 0.104491 0.095212 0.156554 0.192117 0.243462 0.220696 0.446331 0.444836 0.603365 0.601056 0.702611 0.664820 0.673338 0.721309 0.573505 0.457313 0.662596 0.476382 0.357249 0.295860 0.235189 0.097931 0.054441 0.011110 0.010248 -0.116883 0.039658 0.021985 0.195173 0.273061 0.291964 0.322937 0.414128 0.408860 0.429792 0.401539 0.454061 0.364883 0.293579 0.329411 0.131047 0.118292 0.072177 -0.008860 -0.099476 -0.019977 0.016537 0.027910 0.094200 0.255681 0.209713 0.276909 0.354254 0.380968 0.385506 0.416097 0.334288 0.251792 0.237001 0.085016 0.101286 0.016303 0.022549 0.037727 0.094333 0.127148 0.139530 0.235354 0.278728 0.332285 0.278905 0.377838 0.283908 0.221306 0.162718 0.139762 0.020203 0.076703 0.001260 0.035182 0.066717 0.117106 0.174388 0.246324 0.285104 0.217535 0.221795 0.185962 0.094665 0.130794 0.096617 0.021910 -0.026000 -0.012707 0.078488 0.034748 0.149246 0.111163 0.182387 0.194342 0.152005 0.113646 0.109471 0.121471 0.045717 0.023440 0.039547 0.061350 0.013929 0.058769 0.055591 0.108405 0.086374 0.143903 0.118147 0.076640 0.026161 -0.062658 0.010736 -0.016449 0.026145 0.029496 0.085252 0.128356 0.157596 0.114652 0.115491 0.121413 0.057788 0.041051 0.057687 0.011270 0.046166 0.040637 0.070278 0.100130 0.106004 0.102489 0.094310 0.078055 0.074678 0.008000 0.027562 -0.018346 0.012588 0.032089 0.051562 0.083535 0.090736 0.096322 0.053567 0.012460 0.008159 0.003558 -0.018110 0.005472 0.063578 0.051491 0.068822 0.056298 0.091019 0.060808 0.035523 0.029260 0.054873 0.034749 0.044619 0.088555 0.066277 0.060962 0.105486 0.046034 0.103130 0.032073 -0.034819 0.050881 0.064974 0.080702 0.018004 0.063843 0.110997 0.083188 0.105131 0.101978 -0.007635 0.008459 0.077425 -0.035613 0.081119 0.087642 0.063627 0.020574 0.044158 0.046687 0.022426 0.034183 0.016187 0.036578 0.067497 0.018875 -0.005031 0.047418 -0.036982 -0.040714 -0.043364 -0.015083 -0.017491 -0.017361 0.009535 -0.031765 -0.056617 -0.075470 0.039354 -0.049664 -0.055191 -0.006173 0.032400 -0.003881 0.005045 -0.042737 0.012097 0.033860 -0.006053 0.039443 0.028793 0.047282 0.028500 0.013627 -0.021288 -0.046281 0.015966 0.072324 0.083083 0.057867 0.000538 0.101896 0.033216 -0.042352 0.054259 0.116522 0.019051 -0.051040 0.010733 0.104318 -0.007850 0.008277 -0.000209 0.038955 -0.097224 0.197565 0.275474 0.271461 0.209625 0.239070 0.203552 0.131741 0.053393 -0.537403
0.072396 0.072957 0.074639 0.077441 0.081363 0.086404 0.092563 0.099836 0.108222 0.117717 0.128316 0.140013 0.152802 0.166674 0.181619 0.197625 0.214675 0.232755 0.251842 0.271914 0.292943 0.314898 0.337745 0.361443 0.385947 0.411207 0.437166 0.463762 0.490927 0.518583 0.546650 0.575035 0.603640 0.632360 0.661080 0.689677 0.718020 0.745968 0.773373 0.800079 0.825921 0.850726 0.874314 0.896497 0.917084 0.935874 0.952664 0.967249 0.979418 0.988963 0.995673 0.999342 0.999767 0.996751 0.990108 0.979659 0.965240 0.946703 0.923918 0.896777 0.865196 0.829116 0.788512 0.743388 0.693787 0.639788 0.581512 0.519124 0.452833 0.382898 0.309625 0.233369 0.154538 0.073587 0.008976 0.092598 0.176677 0.260569 0.343592 0.425025 0.504122 0.580111 0.652204 0.719607 0.781527 0.837179 0.885805 0.926676 0.959110 0.982480 0.996231 0.999889 0.993074 0.975513 0.947053 0.907667 0.857468 0.796716 0.725823 0.645360 0.556057 0.458806 0.354653 0.244797 0.130579 0.013472 0.104939 0.222972 0.338870 0.450828 0.557021 0.655633 0.744891 0.823098 0.888674 0.940183 0.976379 0.996234 0.998975 0.984110 0.951460 0.901178 0.833761 0.750071 0.651325 0.539095 0.415301 0.282175 0.142238 0.001740 0.146794 0.289818 0.427632 0.557050 0.674962 0.778405 0.864650 0.931279 0.976265 0.998041 0.995564 0.968372 0.916620 0.841115 0.743318 0.625339 0.489916 0.340355 0.180478 0.014526 0.152942 0.317165 0.473322 0.616667 0.742684 0.847236 0.926716 0.978181 0.999481 0.989365 0.947559 0.874824 0.772972 0.644849 0.494289 0.326012 0.145506 0.041147 0.227456 0.406753 0.572417 0.718142 0.838178 0.927572 0.982402 0.999966 0.978940 0.919489 0.823317 0.693660 0.535213 0.353995 0.157139 0.047359 0.250958 0.444923 0.620697 0.770291 0.886668 0.964092 0.998446 0.987479 0.930984 0.830879 0.691201 0.517981 0.319028 0.103608 0.117963 0.334803 0.535988 0.711114 0.850856 0.947482 0.995323 0.991148 0.934417 0.827403 0.675167 0.485374 0.267953 0.034615 0.201758 0.427791 0.630400 0.797544 0.918979 0.986919 0.996591 0.946612 0.839190 0.680102 0.478449 0.246191 0.002514 0.252149 0.486790 0.691128 0.851483 0.956772 0.999312 0.975451 0.885935 0.735987 0.535094 0.296466 0.036228 0.227629 0.476476 0.692370 0.859362 0.964725 0.999987 0.961683 0.851757 0.677574 0.451514 0.190177 0.086792 0.358136 0.602605 0.800649 0.936011 0.997128 0.978202 0.879830 0.709134 0.479342 0.208869 0.080107 0.363410 0.616889 0.818484 0.950200 0.999786 0.961972 0.839113 0.641190 0.385103 0.093330 0.207983 0.491327 0.730352 0.902349 0.990474 0.985507 0.886910 0.703111 0.450918 0.154082 0.158842 0.457217 0.711290 0.895218 0.989770 0.984432 0.878709 0.682417 0.414914 0.103327 0.220129 0.521437 0.768340 0.933867 0.999361 0.956708 0.809483 0.572817 0.272013 0.060062 0.386468 0.670311 0.878913 0.987679 0.983109 0.864629 0.644954 0.348893 0.010694 0.329833 0.631955 0.858912 0.982481 0.986605 0.869652 0.644927 0.339361 0.009579 0.358365 0.662820 0.883727 0.991982 0.972580 0.826869 0.572729 0.242580 0.120618 0.468830 0.755325 0.940960 0.999685 0.922363 0.718384 0.414756 0.052722 0.317703 0.644585 0.881382 0.993668 0.964315 0.796309 0.512739 0.153840 0.228557 0.578399 0.843655 0.984143 0.977776 0.824270 0.545613 0.183166 0.208293 0.568757 0.842162 0.985226 0.974475 0.810328 0.517497 0.141538 0.258062 0.617197 0.877420 0.995591
1.000000 1.000000 1.000000 1.000000 1.000000 1.000000 1.000000 1.000000 1.000000 1.000000 1.000000 1.000000 1.000000 1.000000 1.000000 1.000000 1.000000 1.000000 1.000000 1.000000 1.000000 1.000000 1.000000 1.000000 1.000000 1.000000 1.000000 1.000000 1.000000 1.000000 1.000000 1.000000 1.000000 1.000000 1.000000 1.000000 1.000000 1.000000 1.000000 1.000000 1.000000 1.000000 1.000000 1.000000 1.000000 1.000000 1.000000 1.000000 1.000000 1.000000 1.000000 1.000000 0.937981 0.937981 0.937981 0.937981 0.937981 0.937981 0.937981 0.937981 0.937981 0.937981 0.937981 0.937981 0.937981 0.937981 0.937981 0.937981 0.937981 0.937981 0.937981 0.937981 0.937981 0.937981 0.937981 0.937981 0.937981 0.937981 0.937981 0.937981 0.937981 0.937981 0.937981 0.937981 0.937981 0.937981 0.937981 0.937981 0.937981 0.937981 0.937981 0.918626 0.922076 0.922808 0.926224 0.928350 0.926971 0.927753 0.927935 0.928314 0.929537 0.930981 0.933407 0.934819 0.937799 0.942392 0.948788 0.949015 0.951979 0.954116 0.954706 0.968665 0.969346 0.970442 0.970897 0.971053 0.971104 0.971197 0.971997 0.972100 0.971813 0.971285 0.969558 0.971559 0.977011 0.977042 0.976659 0.976748 0.977227 0.977234 0.978181 0.978406 0.977070 0.974962 0.974695 0.974110 0.974214 0.974529 0.973623 0.972274 0.973708 0.973644 0.973772 0.974137 0.973152 0.966669 0.966982 0.964297 0.958937 0.952266 0.949736 0.945265 0.946508 0.949127 0.949285 0.946174 0.941528 0.937103 0.934989 0.939189 0.934135 0.933195 0.933574 0.935222 0.936221 0.936103 0.926778 0.925054 0.923200 0.923279 0.926172 0.929391 0.927260 0.924573 0.923516 0.923228 0.924433 0.920651 0.906521 0.899107 0.898557 0.896596 0.900822 0.904386 0.903452 0.896019 0.888484 0.869361 0.861520 0.856123 0.858709 0.859966 0.862056 0.869587 0.861364 0.856222 0.851658 0.847988 0.845199 0.847861 0.848038 0.847250 0.845261 0.848626 0.849186 0.847543 0.848183 0.844878 0.842746 0.836147 0.836146 0.829044 0.829089 0.831045 0.834272 0.836192 0.837563 0.836421 0.841134 0.833791 0.838161 0.837066 0.840562 0.838300 0.841192 0.842742 0.838063 0.829979 0.826148 0.826996 0.833437 0.819591 0.825664 0.831776 0.840204 0.844230 0.836817 0.833693 0.835586 0.820733 0.828277 0.841439 0.799042 0.803568 0.808743 0.811825 0.813578 0.813405 0.807873 0.798145 0.799543 0.815063 0.791218 0.779748 0.781582 0.779092 0.763605 0.755825 0.755900 0.752796 0.740674 0.712628 0.721725 0.725900 0.698863 0.693873 0.659907 0.661794 0.663140 0.653092 0.610505 0.607743 0.606026 0.619841 0.622983 0.593970 0.581315 0.575887 0.568126 0.558168 0.564159 0.574992 0.571986 0.568351 0.560448 0.561217 0.552052 0.538460 0.527771 0.438117 0.448422 0.440770 0.432746 0.458295 0.436390 0.443288 0.432217 0.434997 0.407378 0.369837 0.373156 0.372717 0.377925 0.372273 0.376633 0.382561 0.412793 0.410165 0.382065 0.412066 0.427152 0.412224 0.422543 0.444885 0.427274 0.398629 0.383974 0.366366 0.392437 0.384347 0.378556 0.378639 0.376385 0.358866 0.377836 0.374442 0.346564 0.295113 0.272635 0.272098 0.300600 0.197087 0.221343 0.221343 0.221343 0.221343 0.221343 0.221343 0.221343 0.172499 0.172499 0.172499 0.172499 0.172499 0.172499 0.172499 0.172499 0.201109 0.201109 0.201109 0.201109 0.201109 0.201109 0.201109 0.201109 0.201109 0.201109 0.201109 0.201109 0.201109 0.201109 0.201109 0.201109
0.000000 0.000000 0.000000 0.000000 0.000000 0.000000 0.000000 0.000000 0.000000 0.000000 0.000000 0.000000 0.000000 0.000000 0.000000 0.000000 0.000000 0.000000 0.000000 0.000000 0.000000 9401.000000 0.000000 0.000000 0.000000 0.000000 0.000000 0.000000 0.000000 0.000000 0.000000 0.000000 0.000000 0.000000 0.000000 0.000000 0.000000 0.000000 0.000000 0.000000 0.000000 0.000000 0.000000 0.000000 0.000000 0.000000 0.000000 0.000000 0.000000 0.000000 0.000000 0.000000 0.203069 0.203069 0.203069 0.203069 0.203069 0.203069 0.203069 0.203069 0.203069 0.203069 0.203069 0.203069 0.203069 0.203069 0.203069 0.203069 0.203069 0.203069 0.203069 0.203069 0.203069 0.203069 0.203069 0.203069 0.203069 0.203069 0.203069 0.203069 0.203069 0.203069 0.203069 0.203069 0.203069 0.203069 0.203069 0.203069 0.203069 0.203069 0.203069 0.234082 0.234082 0.234082 0.234082 0.234082 0.234082 0.234082 0.234082 0.234082 0.234082 0.234082 0.234082 0.234082 0.234082 0.234082 0.234082 0.234082 0.234082 0.234082 0.234082 0.234082 0.234082 0.234082 0.234082 0.234082 0.234082 0.234082 0.248069 0.248069 0.248069 0.248069 0.248069 0.248069 0.248069 0.248069 0.248069 0.248069 0.248069 0.248069 0.248069 0.248069 0.248069 0.248069 0.248069 0.248069 0.248069 0.248069 0.248069 0.248069 0.256074 0.256074 0.256074 0.256074 0.256074 0.256074 0.256074 0.256074 0.256074 0.256074 0.256074 0.256074 0.256074 0.256074 0.256074 0.256074 0.256074 0.256074 0.256074 0.269680 0.269680 0.269680 0.269680 0.269680 0.269680 0.269680 0.269680 0.269680 0.269680 0.269680 0.269680 0.269680 0.269680 0.269680 0.269680 0.264906 0.264906 0.264906 0.264906 0.264906 0.264906 0.264906 0.264906 0.264906 0.264906 0.264906 0.264906 0.264906 0.264906 0.264906 0.264906 0.269680 0.269680 0.269680 0.269680 0.269680 0.269680 0.269680 0.269680 0.269680 0.269680 0.269680 0.269680 0.269680 0.269680 0.274721 0.274721 0.274721 0.274721 0.274721 0.274721 0.274721 0.274721 0.274721 0.274721 0.274721 0.274721 0.274721 0.264906 0.264906 0.264906 0.264906 0.264906 0.264906 0.264906 0.264906 0.264906 0.264906 0.264906 0.264906 0.264906 0.280056 0.280056 0.280056 0.280056 0.280056 0.280056 0.280056 0.280056 0.280056 0.280056 0.280056 0.264906 0.264906 0.264906 0.264906 0.264906 0.264906 0.264906 0.264906 0.264906 0.264906 0.264906 0.264906 0.269680 0.269680 0.269680 0.269680 0.269680 0.269680 0.269680 0.269680 0.269680 0.269680 0.269680 0.274721 0.274721 0.274721 0.274721 0.274721 0.274721 0.274721 0.274721 0.274721 0.274721 0.269680 0.269680 0.269680 0.269680 0.269680 0.269680 0.269680 0.269680 0.269680 0.269680 0.264906 0.264906 0.264906 0.264906 0.264906 0.264906 0.264906 0.264906 0.264906 0.264906 0.269680 0.269680 0.269680 0.269680 0.269680 0.269680 0.269680 0.269680 0.269680 0.264906 0.264906 0.264906 0.264906 0.264906 0.264906 0.264906 0.264906 0.264906 0.260378 0.260378 0.260378 0.260378 0.260378 0.260378 0.260378 0.260378 0.260378 0.269680 0.269680 0.269680 0.269680 0.269680 0.269680 0.269680 0.269680 0.251976 0.251976 0.251976 0.251976 0.251976 0.251976 0.251976 0.251976 0.251976 0.264906 0.264906 0.264906 0.264906 0.264906 0.264906 0.264906 0.264906 0.260378 0.260378 0.260378 0.260378 0.260378 0.260378 0.260378 0.260378 0.260378 0.260378 0.260378 0.260378 0.260378 0.260378 0.260378 0.260378
