# Output from CTFFind version 4.1.9, run on 2019-11-03 18:52:16
# Input file: stack2_ub_averaged_3000.mrc ; Number of micrographs: 1
# Pixel size: 3.000 Angstroms ; acceleration voltage: 300.0 keV ; spherical aberration: 0.00 mm ; amplitude contrast: 0.07
# Box size: 512 pixels ; min. res.: 30.0 Angstroms ; max. res.: 5.0 Angstroms ; min. def.: 5000.0 um; max. def. 50000.0 um; num. frames averaged: 1
# 6 lines per micrograph: #1 - spatial frequency (1/Angstroms); #2 - 1D rotational average of spectrum (assuming no astigmatism); #3 - 1D rotational average of spectrum; #4 - CTF fit; #5 - cross-correlation between spectrum and CTF fit; #6 - 2sigma of expected cross correlation of noise
0.000000 0.000651 0.001302 0.001953 0.002604 0.003255 0.003906 0.004557 0.005208 0.005859 0.006510 0.007161 0.007812 0.008464 0.009115 0.009766 0.010417 0.011068 0.011719 0.012370 0.013021 0.013672 0.014323 0.014974 0.015625 0.016276 0.016927 0.017578 0.018229 0.018880 0.019531 0.020182 0.020833 0.021484 0.022135 0.022786 0.023438 0.024089 0.024740 0.025391 0.026042 0.026693 0.027344 0.027995 0.028646 0.029297 0.029948 0.030599 0.031250 0.031901 0.032552 0.033203 0.033854 0.034505 0.035156 0.035807 0.036458 0.037109 0.037760 0.038411 0.039062 0.039714 0.040365 0.041016 0.041667 0.042318 0.042969 0.043620 0.044271 0.044922 0.045573 0.046224 0.046875 0.047526 0.048177 0.048828 0.049479 0.050130 0.050781 0.051432 0.052083 0.052734 0.053385 0.054036 0.054688 0.055339 0.055990 0.056641 0.057292 0.057943 0.058594 0.059245 0.059896 0.060547 0.061198 0.061849 0.062500 0.063151 0.063802 0.064453 0.065104 0.065755 0.066406 0.067057 0.067708 0.068359 0.069010 0.069661 0.070312 0.070964 0.071615 0.072266 0.072917 0.073568 0.074219 0.074870 0.075521 0.076172 0.076823 0.077474 0.078125 0.078776 0.079427 0.080078 0.080729 0.081380 0.082031 0.082682 0.083333 0.083984 0.084635 0.085286 0.085938 0.086589 0.087240 0.087891 0.088542 0.089193 0.089844 0.090495 0.091146 0.091797 0.092448 0.093099 0.093750 0.094401 0.095052 0.095703 0.096354 0.097005 0.097656 0.098307 0.098958 0.099609 0.100260 0.100911 0.101562 0.102214 0.102865 0.103516 0.104167 0.104818 0.105469 0.106120 0.106771 0.107422 0.108073 0.108724 0.109375 0.110026 0.110677 0.111328 0.111979 0.112630 0.113281 0.113932 0.114583 0.115234 0.115885 0.116536 0.117188 0.117839 0.118490 0.119141 0.119792 0.120443 0.121094 0.121745 0.122396 0.123047 0.123698 0.124349 0.125000 0.125651 0.126302 0.126953 0.127604 0.128255 0.128906 0.129557 0.130208 0.130859 0.131510 0.132161 0.132812 0.133464 0.134115 0.134766 0.135417 0.136068 0.136719 0.137370 0.138021 0.138672 0.139323 0.139974 0.140625 0.141276 0.141927 0.142578 0.143229 0.143880 0.144531 0.145182 0.145833 0.146484 0.147135 0.147786 0.148438 0.149089 0.149740 0.150391 0.151042 0.151693 0.152344 0.152995 0.153646 0.154297 0.154948 0.155599 0.156250 0.156901 0.157552 0.158203 0.158854 0.159505 0.160156 0.160807 0.161458 0.162109 0.162760 0.163411 0.164062 0.164714 0.165365 0.166016 0.166667 0.167318 0.167969 0.168620 0.169271 0.169922 0.170573 0.171224 0.171875 0.172526 0.173177 0.173828 0.174479 0.175130 0.175781 0.176432 0.177083 0.177734 0.178385 0.179036 0.179688 0.180339 0.180990 0.181641 0.182292 0.182943 0.183594 0.184245 0.184896 0.185547 0.186198 0.186849 0.187500 0.188151 0.188802 0.189453 0.190104 0.190755 0.191406 0.192057 0.192708 0.193359 0.194010 0.194661 0.195312 0.195964 0.196615 0.197266 0.197917 0.198568 0.199219 0.199870 0.200521 0.201172 0.201823 0.202474 0.203125 0.203776 0.204427 0.205078 0.205729 0.206380 0.207031 0.207682 0.208333 0.208984 0.209635 0.210286 0.210938 0.211589 0.212240 0.212891 0.213542 0.214193 0.214844 0.215495 0.216146 0.216797 0.217448 0.218099 0.218750 0.219401 0.220052 0.220703 0.221354 0.222005 0.222656 0.223307 0.223958 0.224609 0.225260 0.225911 0.226562 0.227214 0.227865 0.228516 0.229167 0.229818 0.230469 0.231120 0.231771 0.232422 0.233073 0.233724 0.234375 0.235026 0.235677
       0.34311        0.34311        0.34311        0.34311        0.34311        0.34311        0.34311        0.34311        0.34311        0.34311        0.34311        0.34311        0.34311        0.34311        0.34311        0.34310        0.34311        0.34310        0.34311        0.34311        0.34311        0.34310        0.34311        0.34311        0.34310        0.34310        0.34310        0.34311        0.34311        0.34311        0.34310        0.34311        0.34311        0.34311        0.34310        0.34310        0.34311        0.34311        0.34311        0.34310        0.34311        0.34311        0.34310        0.34311        0.34311        0.34311        0.34311        0.34311        0.34311        0.34311        0.34311        0.56583        0.79035        0.37120        0.08791       -0.22518       -0.46933       -0.38225       -0.33341       -0.27133       -0.39123       -0.26852       -0.26057       -0.49324       -0.49306       -0.58209       -0.60894       -0.68289       -0.68685       -0.66087       -0.67189       -0.69846       -0.63362       -0.53802       -0.56303       -0.60322       -0.44981       -0.34610       -0.26088       -0.23674       -0.15429       -0.06116        0.12349        0.16981        0.26245        0.44926        0.41130        0.57726        0.69776        0.59249        0.74644        0.68007        0.61578        0.61691        0.58476        0.45077        0.48663        0.32812        0.22894        0.25855        0.11387       -0.01249       -0.01278       -0.01104        0.00073       -0.00936        0.03140        0.10095        0.13358        0.29526        0.35632        0.41404        0.53319        0.65436        0.73022        0.77302        0.80819        0.71826        0.64599        0.58950        0.56040        0.44705        0.33058        0.32464        0.14690        0.12627        0.05595        0.14835        0.10589        0.10152        0.14143        0.16515        0.37836        0.43975        0.49102        0.51350        0.61217        0.54444        0.61376        0.57290        0.56480        0.50215        0.45643        0.37269        0.31504        0.21325        0.17365        0.16191        0.11422        0.11499        0.24595        0.25328        0.35589        0.44165        0.49140        0.50465        0.55692        0.49536        0.47359        0.42158        0.39128        0.34266        0.24122        0.18352        0.20801        0.23195        0.23525        0.26338        0.32505        0.31351        0.35416        0.47551        0.42116        0.49717        0.47456        0.43833        0.41248        0.35284        0.30113        0.29295        0.26854        0.29053        0.26351        0.29535        0.34123        0.41500        0.41618        0.41038        0.42301        0.44614        0.39826        0.40970        0.36315        0.30024        0.28987        0.29253        0.28572        0.33474        0.37636        0.36068        0.38462        0.41485        0.42178        0.45291        0.41410        0.40694        0.32446        0.30442        0.27302        0.31711        0.35398        0.35928        0.36048        0.31593        0.40566        0.39284        0.37563        0.37139        0.34034        0.29809        0.28111        0.28576        0.32377        0.31167        0.31461        0.31150        0.36960        0.38551        0.37833        0.37176        0.34333        0.33947        0.32771        0.34687        0.33262        0.35807        0.34680        0.33169        0.32276        0.31198        0.35283        0.36935        0.36200        0.29562        0.31160        0.31672        0.30869        0.31267        0.30018        0.32006        0.31071        0.31344        0.30554        0.34082        0.30147        0.27634        0.28239        0.28555        0.28768        0.30934        0.32863        0.34910        0.35408        0.30838        0.30642        0.32611        0.31236        0.32946        0.30651        0.30416        0.32110        0.32426        0.34437        0.33610        0.35174        0.38314        0.35047        0.31571        0.31119        0.32464        0.28748        0.31901        0.31939        0.32560        0.27749        0.34724        0.32176        0.29778        0.29511        0.30364        0.34084        0.32269        0.33011        0.30862        0.30354        0.36853        0.30877        0.33417        0.28898        0.27624        0.36314        0.31522        0.33637        0.34891        0.34804        0.33199        0.32313        0.32730        0.33940        0.31005        0.33687        0.33792        0.31716        0.32696        0.30352        0.31010        0.27755        0.26439        0.28053        0.28825        0.25591        0.29682        0.29149        0.30948        0.28103        0.26331        0.23483        0.27102        0.33025        0.29229        0.23472        0.24400        0.27030        0.27546        0.29631        0.29865        0.23653        0.25598        0.27753        0.26609        0.26940        0.25443        0.25402        0.29813        0.29307        0.31751        0.27296        0.22923        0.26725        0.33633        0.22380        0.24396        0.27768        0.30420        0.26361        0.17349        0.33246        0.27875        0.24138        0.07016       -0.03658       -0.29804       -0.74209
2.521268 2.493647 2.466183 2.438876 2.411725 2.384731 2.357894 2.331213 2.304689 2.278322 2.252112 2.226058 2.200161 2.174420 2.148836 2.123409 2.098139 2.073025 2.048068 2.023268 1.998624 1.974137 1.949807 1.925633 1.901617 1.877756 1.854053 1.830506 1.807116 1.783882 1.760806 1.737886 1.715122 1.692516 1.670066 1.647773 1.625636 1.603656 1.581833 1.560166 1.538657 1.517304 1.496107 1.475067 1.454184 1.433458 1.412888 1.392475 1.372219 1.352119 1.332177 1.293653 1.912345 1.332561 1.033038 0.599375 0.290877 0.401325 0.464352 0.488259 0.262003 0.460561 0.446407 0.222142 0.103275 0.036293 0.013487 -0.128279 -0.125445 -0.150328 -0.134157 -0.220045 -0.156707 -0.046952 -0.109223 -0.186488 -0.058423 0.079942 0.240385 0.100209 0.255122 0.283656 0.526633 0.543909 0.639974 0.808137 0.784486 0.900011 1.120444 0.956794 1.021589 1.044505 1.000291 0.858878 0.985881 0.685555 0.757653 0.596945 0.435040 0.474272 0.346967 0.129995 0.130103 0.110244 0.090766 0.101765 0.069187 0.177047 0.179133 0.350728 0.409877 0.466309 0.570966 0.696918 0.764404 0.825945 0.908203 0.713026 0.717416 0.641540 0.592050 0.439992 0.303384 0.321534 0.101819 0.078192 -0.061315 0.035604 0.013021 -0.031956 0.024004 -0.013959 0.232078 0.262222 0.412097 0.361107 0.492882 0.390318 0.509862 0.509949 0.422863 0.409933 0.309210 0.243829 0.196401 0.097314 -0.047703 -0.000317 -0.088315 -0.129870 -0.014219 0.078819 0.102468 0.191180 0.305160 0.302304 0.369870 0.339473 0.352225 0.287078 0.222695 0.206471 0.096909 0.006543 -0.054174 0.062749 -0.007499 0.037289 0.116100 0.106972 0.127584 0.214650 0.257372 0.243758 0.295642 0.214881 0.219561 0.149812 0.086370 0.079299 0.062046 -0.008631 0.037578 0.023666 0.060626 0.120730 0.195679 0.173077 0.149677 0.144480 0.163043 0.103610 0.145352 0.004033 0.010042 -0.023178 -0.029510 -0.009472 0.095613 0.042263 0.077118 0.086612 0.108220 0.129051 0.120811 0.106835 0.047303 -0.027859 -0.065828 -0.029212 0.012860 0.000316 0.071165 -0.001992 0.001087 0.109991 0.048443 0.032033 0.065527 -0.067730 -0.025737 -0.071347 -0.046806 0.000791 -0.042988 -0.014702 -0.018489 0.062645 0.050564 0.054998 0.004864 0.024967 0.008318 -0.021007 0.035619 0.014408 0.035867 0.001152 0.004743 -0.018076 0.002292 0.047851 0.071174 0.034084 -0.026813 0.034993 -0.010067 -0.004824 0.003983 -0.010550 0.022492 -0.002726 0.017440 0.010667 0.054840 -0.020942 -0.027319 -0.022353 -0.017762 -0.005928 0.019441 0.032851 0.087252 0.021998 0.002588 0.018789 0.041015 0.021886 0.013317 0.008716 0.007878 0.035408 0.027562 0.074863 0.012449 0.050755 0.078271 0.042281 0.007391 0.002289 0.009998 -0.027563 0.027996 -0.013628 0.006520 -0.024120 0.024014 0.000881 -0.002963 -0.021332 -0.031052 0.044878 0.007698 0.021471 0.001082 0.010900 0.057111 0.000361 0.039322 -0.036605 -0.058826 0.063870 -0.006226 0.051093 0.025647 0.054873 -0.008517 0.047448 0.023796 0.008778 0.015194 0.035599 0.033397 0.004522 0.036161 0.001125 0.012360 -0.030096 -0.007896 -0.030308 -0.027546 -0.053644 0.020391 0.001336 0.027261 -0.019280 -0.019758 -0.025559 -0.060175 0.085295 0.015412 -0.037946 -0.040009 0.020652 0.038820 0.012561 0.058877 -0.024039 0.019599 0.048199 0.028093 0.035146 0.002408 0.023129 0.067604 0.087659 0.087662 0.090441 -0.035638 0.110975 0.105780 0.085045 0.251365 0.333529 0.283264 0.334331 0.203056 0.403946 0.342971 0.265696 0.037766 -0.041379 -0.821613
0.072396 0.072964 0.074666 0.077502 0.081472 0.086575 0.092808 0.100170 0.108657 0.118267 0.128994 0.140833 0.153776 0.167814 0.182937 0.199133 0.216385 0.234676 0.253986 0.274289 0.295557 0.317760 0.340859 0.364814 0.389578 0.415100 0.441319 0.468174 0.495591 0.523493 0.551793 0.580399 0.609209 0.638112 0.666992 0.695720 0.724161 0.752171 0.779596 0.806276 0.832041 0.856712 0.880105 0.902028 0.922282 0.940663 0.956964 0.970973 0.982477 0.991262 0.997116 0.999829 0.999196 0.995020 0.987113 0.975298 0.959412 0.939312 0.914872 0.885990 0.852589 0.814622 0.772073 0.724961 0.673343 0.617316 0.557021 0.492643 0.424415 0.352621 0.277592 0.199713 0.119419 0.037199 0.046411 0.130825 0.215410 0.299493 0.382359 0.463263 0.541429 0.616064 0.686362 0.751512 0.810711 0.863172 0.908135 0.944883 0.972748 0.991130 0.999506 0.997443 0.984613 0.960805 0.925933 0.880050 0.823355 0.756203 0.679107 0.592746 0.497958 0.395750 0.287282 0.173865 0.056950 0.061890 0.180975 0.298541 0.412765 0.521791 0.623763 0.716859 0.799319 0.869493 0.925868 0.967111 0.992103 0.999977 0.990144 0.962329 0.916588 0.853334 0.773340 0.677751 0.568079 0.446188 0.314277 0.174848 0.030664 0.115293 0.259890 0.399896 0.532065 0.653204 0.760262 0.850410 0.921120 0.970253 0.996125 0.997583 0.974059 0.925612 0.852964 0.757508 0.641306 0.507062 0.358079 0.198186 0.031662 0.136879 0.302606 0.460607 0.606038 0.734276 0.841075 0.922718 0.976163 0.999172 0.990422 0.949589 0.877406 0.775682 0.647291 0.496113 0.326946 0.145370 0.042423 0.229822 0.410036 0.576328 0.722287 0.842072 0.930678 0.984156 0.999816 0.976388 0.914129 0.814876 0.682032 0.520490 0.336476 0.137346 0.068692 0.272907 0.466401 0.640508 0.787190 0.899427 0.971579 0.999700 0.981788 0.917952 0.810485 0.663834 0.484465 0.280611 0.061931 0.160923 0.376819 0.574695 0.744137 0.875945 0.962664 0.999045 0.982405 0.912858 0.793411 0.629894 0.430731 0.206553 0.030334 0.266602 0.488641 0.683344 0.838908 0.945574 0.996285 0.987207 0.918067 0.792285 0.616884 0.402155 0.161122 0.091229 0.338831 0.565578 0.756359 0.898115 0.980763 0.997981 0.947748 0.832617 0.659681 0.440210 0.188991 0.076628 0.337894 0.575970 0.773308 0.914967 0.989815 0.991455 0.918855 0.776587 0.574631 0.327768 0.054559 0.223989 0.486026 0.710568 0.879214 0.977708 0.997216 0.935206 0.795834 0.589783 0.333541 0.048169 0.242385 0.513250 0.740794 0.904701 0.989855 0.987835 0.897834 0.726936 0.489695 0.206984 0.095752 0.390728 0.650381 0.849948 0.969902 0.997946 0.930389 0.772725 0.539321 0.252248 0.060726 0.368751 0.640929 0.849421 0.972377 0.996316 0.917734 0.743711 0.491435 0.186628 0.138965 0.450835 0.715349 0.903421 0.993799 0.975587 0.849695 0.629023 0.337302 0.006663 0.325803 0.622181 0.848065 0.976648 0.992004 0.891226 0.685062 0.396958 0.060534 0.284219 0.595666 0.835553 0.973785 0.992342 0.887783 0.672004 0.371088 0.022310 0.330368 0.641796 0.871435 0.988733 0.977338 0.837559 0.586691 0.257074 0.107903 0.459437 0.749793 0.938848 0.999777 0.923022 0.717999 0.412182 0.047617 0.324718 0.651988 0.887011 0.995182 0.959747 0.784604 0.494170 0.130195 0.254077 0.601583 0.859971 0.989547 0.969579 0.801836 0.510771 0.140202 0.253112 0.608036 0.868624 0.992998 0.960305 0.774453 0.463961 0.077864 0.321885 0.670230 0.909656 0.999814 0.924551 0.695058
1.000000 1.000000 1.000000 1.000000 1.000000 1.000000 1.000000 1.000000 1.000000 1.000000 1.000000 1.000000 1.000000 1.000000 1.000000 1.000000 1.000000 1.000000 1.000000 1.000000 1.000000 1.000000 1.000000 1.000000 1.000000 1.000000 1.000000 1.000000 1.000000 1.000000 1.000000 1.000000 1.000000 1.000000 1.000000 1.000000 1.000000 1.000000 1.000000 1.000000 1.000000 1.000000 1.000000 1.000000 1.000000 1.000000 1.000000 1.000000 1.000000 1.000000 1.000000 1.000000 0.920211 0.920211 0.920211 0.920211 0.920211 0.920211 0.920211 0.920211 0.920211 0.920211 0.920211 0.920211 0.920211 0.920211 0.920211 0.920211 0.920211 0.920211 0.920211 0.920211 0.920211 0.920211 0.920211 0.920211 0.920211 0.920211 0.920211 0.920211 0.920211 0.920211 0.920211 0.920211 0.920211 0.920211 0.920211 0.920211 0.920211 0.920211 0.920211 0.896693 0.904452 0.907918 0.910026 0.906920 0.908190 0.907485 0.908226 0.906524 0.908449 0.911341 0.913491 0.926445 0.930601 0.934024 0.933512 0.934869 0.935744 0.956454 0.955652 0.951464 0.950671 0.953310 0.956271 0.956604 0.956912 0.956747 0.957259 0.956834 0.956048 0.955224 0.954603 0.954632 0.954531 0.954585 0.955201 0.955459 0.956349 0.956220 0.956335 0.956527 0.950678 0.941355 0.947088 0.947616 0.943270 0.938784 0.939475 0.937231 0.937647 0.938504 0.939688 0.937924 0.938827 0.933554 0.930939 0.922699 0.910317 0.905491 0.905313 0.908098 0.909446 0.912157 0.910880 0.909956 0.910146 0.911943 0.909866 0.909192 0.907807 0.900495 0.905784 0.906976 0.903689 0.900422 0.879809 0.874172 0.873460 0.878342 0.880776 0.864705 0.864414 0.864642 0.867678 0.870202 0.873392 0.867410 0.861766 0.851541 0.848788 0.853498 0.836613 0.834762 0.822832 0.814206 0.797885 0.796540 0.796461 0.795056 0.794711 0.796963 0.759352 0.772280 0.769705 0.770790 0.756404 0.760460 0.761792 0.755244 0.753853 0.755860 0.755795 0.735840 0.734544 0.739341 0.737192 0.732817 0.683019 0.660215 0.630686 0.626809 0.617404 0.570033 0.558505 0.564750 0.563347 0.551567 0.542086 0.525298 0.546898 0.553675 0.543407 0.505623 0.483534 0.487903 0.485914 0.479888 0.475892 0.488329 0.498702 0.494248 0.479093 0.467801 0.473030 0.494887 0.466503 0.423740 0.431025 0.431124 0.454495 0.458676 0.459180 0.450432 0.429408 0.408910 0.424656 0.446787 0.431490 0.424128 0.422658 0.387397 0.390425 0.390075 0.366808 0.363651 0.322074 0.296942 0.293087 0.273809 0.266791 0.254877 0.298644 0.343738 0.331181 0.351136 0.391623 0.402122 0.389018 0.369512 0.312320 0.289296 0.271477 0.246177 0.254971 0.215800 0.228536 0.233592 0.202335 0.244190 0.211633 0.211937 0.188581 0.233084 0.248590 0.231134 0.169286 0.143805 0.132311 0.128585 0.110707 0.067103 0.076807 0.107251 0.086645 0.062095 0.012890 -0.053575 -0.047168 -0.046426 -0.051579 -0.113198 -0.086063 -0.062156 -0.023292 -0.015508 -0.004471 -0.025635 -0.004335 -0.029602 -0.014630 -0.017372 -0.028371 -0.009525 -0.018121 0.011926 0.041602 0.045931 0.024999 0.053996 -0.008163 0.026368 -0.002643 -0.003243 0.026988 0.008135 0.032283 0.028020 0.022204 -0.005116 -0.011560 -0.018862 -0.016815 -0.016815 -0.016815 -0.016815 -0.016815 -0.026087 -0.026087 -0.026087 -0.026087 -0.026087 -0.026087 -0.026087 -0.026087 -0.009137 -0.009137 -0.009137 -0.009137 -0.009137 -0.009137 -0.009137 -0.009137 -0.005203 -0.005203 -0.005203 -0.005203 -0.005203 -0.005203 -0.005203 -0.005203 -0.005203 -0.005203
0.000000 0.000000 0.000000 0.000000 0.000000 0.000000 0.000000 0.000000 0.000000 0.000000 0.000000 0.000000 0.000000 0.000000 0.000000 0.000000 0.000000 0.000000 0.000000 0.000000 0.000000 9401.000000 0.000000 0.000000 0.000000 0.000000 0.000000 0.000000 0.000000 0.000000 0.000000 0.000000 0.000000 0.000000 0.000000 0.000000 0.000000 0.000000 0.000000 0.000000 0.000000 0.000000 0.000000 0.000000 0.000000 0.000000 0.000000 0.000000 0.000000 0.000000 0.000000 0.000000 0.203069 0.203069 0.203069 0.203069 0.203069 0.203069 0.203069 0.203069 0.203069 0.203069 0.203069 0.203069 0.203069 0.203069 0.203069 0.203069 0.203069 0.203069 0.203069 0.203069 0.203069 0.203069 0.203069 0.203069 0.203069 0.203069 0.203069 0.203069 0.203069 0.203069 0.203069 0.203069 0.203069 0.203069 0.203069 0.203069 0.203069 0.203069 0.203069 0.237356 0.237356 0.237356 0.237356 0.237356 0.237356 0.237356 0.237356 0.237356 0.237356 0.237356 0.237356 0.237356 0.237356 0.237356 0.237356 0.237356 0.237356 0.237356 0.237356 0.237356 0.237356 0.237356 0.237356 0.237356 0.237356 0.248069 0.248069 0.248069 0.248069 0.248069 0.248069 0.248069 0.248069 0.248069 0.248069 0.248069 0.248069 0.248069 0.248069 0.248069 0.248069 0.248069 0.248069 0.248069 0.248069 0.248069 0.248069 0.256074 0.256074 0.256074 0.256074 0.256074 0.256074 0.256074 0.256074 0.256074 0.256074 0.256074 0.256074 0.256074 0.256074 0.256074 0.256074 0.256074 0.256074 0.256074 0.269680 0.269680 0.269680 0.269680 0.269680 0.269680 0.269680 0.269680 0.269680 0.269680 0.269680 0.269680 0.269680 0.269680 0.269680 0.269680 0.264906 0.264906 0.264906 0.264906 0.264906 0.264906 0.264906 0.264906 0.264906 0.264906 0.264906 0.264906 0.264906 0.264906 0.264906 0.264906 0.269680 0.269680 0.269680 0.269680 0.269680 0.269680 0.269680 0.269680 0.269680 0.269680 0.269680 0.269680 0.269680 0.269680 0.274721 0.274721 0.274721 0.274721 0.274721 0.274721 0.274721 0.274721 0.274721 0.274721 0.274721 0.274721 0.274721 0.274721 0.274721 0.274721 0.274721 0.274721 0.274721 0.274721 0.274721 0.274721 0.274721 0.274721 0.274721 0.269680 0.269680 0.269680 0.269680 0.269680 0.269680 0.269680 0.269680 0.269680 0.269680 0.269680 0.269680 0.274721 0.274721 0.274721 0.274721 0.274721 0.274721 0.274721 0.274721 0.274721 0.274721 0.274721 0.269680 0.269680 0.269680 0.269680 0.269680 0.269680 0.269680 0.269680 0.269680 0.269680 0.269680 0.274721 0.274721 0.274721 0.274721 0.274721 0.274721 0.274721 0.274721 0.274721 0.274721 0.269680 0.269680 0.269680 0.269680 0.269680 0.269680 0.269680 0.269680 0.269680 0.269680 0.264906 0.264906 0.264906 0.264906 0.264906 0.264906 0.264906 0.264906 0.264906 0.264906 0.269680 0.269680 0.269680 0.269680 0.269680 0.269680 0.269680 0.269680 0.269680 0.264906 0.264906 0.264906 0.264906 0.264906 0.264906 0.264906 0.264906 0.264906 0.260378 0.260378 0.260378 0.260378 0.260378 0.260378 0.260378 0.260378 0.260378 0.269680 0.269680 0.269680 0.269680 0.269680 0.269680 0.269680 0.269680 0.251976 0.251976 0.251976 0.251976 0.251976 0.251976 0.251976 0.251976 0.251976 0.264906 0.264906 0.264906 0.264906 0.264906 0.264906 0.264906 0.264906 0.260378 0.260378 0.260378 0.260378 0.260378 0.260378 0.260378 0.260378 0.256074 0.256074 0.256074 0.256074 0.256074 0.256074 0.256074 0.256074 0.256074 0.256074
