# Output from CTFFind version 4.1.9, run on 2019-11-03 18:51:30
# Input file: stack9_ub_averaged_750.mrc ; Number of micrographs: 1
# Pixel size: 3.000 Angstroms ; acceleration voltage: 300.0 keV ; spherical aberration: 0.00 mm ; amplitude contrast: 0.07
# Box size: 512 pixels ; min. res.: 30.0 Angstroms ; max. res.: 5.0 Angstroms ; min. def.: 5000.0 um; max. def. 50000.0 um; num. frames averaged: 1
# 6 lines per micrograph: #1 - spatial frequency (1/Angstroms); #2 - 1D rotational average of spectrum (assuming no astigmatism); #3 - 1D rotational average of spectrum; #4 - CTF fit; #5 - cross-correlation between spectrum and CTF fit; #6 - 2sigma of expected cross correlation of noise
0.000000 0.000651 0.001302 0.001953 0.002604 0.003255 0.003906 0.004557 0.005208 0.005859 0.006510 0.007161 0.007812 0.008464 0.009115 0.009766 0.010417 0.011068 0.011719 0.012370 0.013021 0.013672 0.014323 0.014974 0.015625 0.016276 0.016927 0.017578 0.018229 0.018880 0.019531 0.020182 0.020833 0.021484 0.022135 0.022786 0.023438 0.024089 0.024740 0.025391 0.026042 0.026693 0.027344 0.027995 0.028646 0.029297 0.029948 0.030599 0.031250 0.031901 0.032552 0.033203 0.033854 0.034505 0.035156 0.035807 0.036458 0.037109 0.037760 0.038411 0.039062 0.039714 0.040365 0.041016 0.041667 0.042318 0.042969 0.043620 0.044271 0.044922 0.045573 0.046224 0.046875 0.047526 0.048177 0.048828 0.049479 0.050130 0.050781 0.051432 0.052083 0.052734 0.053385 0.054036 0.054688 0.055339 0.055990 0.056641 0.057292 0.057943 0.058594 0.059245 0.059896 0.060547 0.061198 0.061849 0.062500 0.063151 0.063802 0.064453 0.065104 0.065755 0.066406 0.067057 0.067708 0.068359 0.069010 0.069661 0.070312 0.070964 0.071615 0.072266 0.072917 0.073568 0.074219 0.074870 0.075521 0.076172 0.076823 0.077474 0.078125 0.078776 0.079427 0.080078 0.080729 0.081380 0.082031 0.082682 0.083333 0.083984 0.084635 0.085286 0.085938 0.086589 0.087240 0.087891 0.088542 0.089193 0.089844 0.090495 0.091146 0.091797 0.092448 0.093099 0.093750 0.094401 0.095052 0.095703 0.096354 0.097005 0.097656 0.098307 0.098958 0.099609 0.100260 0.100911 0.101562 0.102214 0.102865 0.103516 0.104167 0.104818 0.105469 0.106120 0.106771 0.107422 0.108073 0.108724 0.109375 0.110026 0.110677 0.111328 0.111979 0.112630 0.113281 0.113932 0.114583 0.115234 0.115885 0.116536 0.117188 0.117839 0.118490 0.119141 0.119792 0.120443 0.121094 0.121745 0.122396 0.123047 0.123698 0.124349 0.125000 0.125651 0.126302 0.126953 0.127604 0.128255 0.128906 0.129557 0.130208 0.130859 0.131510 0.132161 0.132812 0.133464 0.134115 0.134766 0.135417 0.136068 0.136719 0.137370 0.138021 0.138672 0.139323 0.139974 0.140625 0.141276 0.141927 0.142578 0.143229 0.143880 0.144531 0.145182 0.145833 0.146484 0.147135 0.147786 0.148438 0.149089 0.149740 0.150391 0.151042 0.151693 0.152344 0.152995 0.153646 0.154297 0.154948 0.155599 0.156250 0.156901 0.157552 0.158203 0.158854 0.159505 0.160156 0.160807 0.161458 0.162109 0.162760 0.163411 0.164062 0.164714 0.165365 0.166016 0.166667 0.167318 0.167969 0.168620 0.169271 0.169922 0.170573 0.171224 0.171875 0.172526 0.173177 0.173828 0.174479 0.175130 0.175781 0.176432 0.177083 0.177734 0.178385 0.179036 0.179688 0.180339 0.180990 0.181641 0.182292 0.182943 0.183594 0.184245 0.184896 0.185547 0.186198 0.186849 0.187500 0.188151 0.188802 0.189453 0.190104 0.190755 0.191406 0.192057 0.192708 0.193359 0.194010 0.194661 0.195312 0.195964 0.196615 0.197266 0.197917 0.198568 0.199219 0.199870 0.200521 0.201172 0.201823 0.202474 0.203125 0.203776 0.204427 0.205078 0.205729 0.206380 0.207031 0.207682 0.208333 0.208984 0.209635 0.210286 0.210938 0.211589 0.212240 0.212891 0.213542 0.214193 0.214844 0.215495 0.216146 0.216797 0.217448 0.218099 0.218750 0.219401 0.220052 0.220703 0.221354 0.222005 0.222656 0.223307 0.223958 0.224609 0.225260 0.225911 0.226562 0.227214 0.227865 0.228516 0.229167 0.229818 0.230469 0.231120 0.231771 0.232422 0.233073 0.233724 0.234375 0.235026 0.235677
       0.32763        0.32763        0.32763        0.32763        0.32763        0.32763        0.32763        0.32763        0.32763        0.32763        0.32763        0.32763        0.32763        0.32763        0.32763        0.32763        0.32763        0.32763        0.32763        0.32763        0.32763        0.32763        0.32763        0.32763        0.32763        0.32763        0.32763        0.32763        0.32763        0.32763        0.32763        0.32763        0.32763        0.32763        0.32763        0.32763        0.32763        0.32763        0.32763        0.32763        0.32763        0.32763        0.32763        0.32763        0.32763        0.32763        0.32763        0.32763        0.32763        0.32763        0.32763        0.67521        0.97256        0.37187        0.08492       -0.21704       -0.23292       -0.40957       -0.56318       -0.49378       -0.51909       -0.43043       -0.50700       -0.44432       -0.49488       -0.61637       -0.70669       -0.79060       -0.83123       -0.78414       -0.77856       -0.72576       -0.81595       -0.69749       -0.70068       -0.60083       -0.47798       -0.43021       -0.42986       -0.19858       -0.07410       -0.04534        0.10783        0.20535        0.30845        0.45595        0.57995        0.57277        0.62338        0.63234        0.57199        0.62529        0.66123        0.58772        0.47079        0.47095        0.42513        0.39280        0.29848        0.13059        0.11427       -0.01223       -0.00445       -0.06537       -0.07616       -0.01417        0.04494        0.16071        0.14928        0.24498        0.35382        0.49338        0.53344        0.55907        0.72378        0.75741        0.77327        0.68633        0.62080        0.57520        0.44961        0.36863        0.34719        0.20526        0.16970        0.06909       -0.01426        0.00691        0.03549        0.07226        0.19334        0.24534        0.32519        0.40029        0.46759        0.59365        0.65121        0.63383        0.55248        0.63068        0.53483        0.42692        0.40492        0.33898        0.15795        0.16128        0.09670        0.08591        0.07012        0.13583        0.22458        0.34823        0.45392        0.50028        0.53375        0.55633        0.50027        0.56900        0.55013        0.44248        0.36040        0.25223        0.14119        0.16431        0.14291        0.13699        0.20307        0.26410        0.30397        0.37009        0.47385        0.52148        0.52487        0.47577        0.48088        0.41775        0.40773        0.30746        0.23264        0.20582        0.17650        0.18660        0.17354        0.33416        0.40808        0.40328        0.47372        0.45737        0.46196        0.34697        0.35038        0.31605        0.27813        0.28101        0.23566        0.25359        0.31067        0.27302        0.34556        0.42205        0.46426        0.51034        0.44013        0.36508        0.34091        0.27598        0.28058        0.26379        0.24619        0.26540        0.31710        0.34800        0.36239        0.42448        0.40658        0.37954        0.36750        0.32939        0.29348        0.27759        0.24870        0.27535        0.31011        0.33028        0.34310        0.36636        0.38895        0.41344        0.36251        0.32151        0.27786        0.25010        0.27604        0.26438        0.28266        0.28246        0.34887        0.37176        0.37176        0.36016        0.31506        0.31586        0.29498        0.27846        0.30112        0.27496        0.29076        0.32713        0.37184        0.35795        0.34169        0.31312        0.30575        0.27715        0.28068        0.29205        0.28400        0.29501        0.30375        0.32772        0.35630        0.30134        0.26620        0.27783        0.26479        0.27643        0.26161        0.31615        0.31597        0.32558        0.37344        0.33373        0.36137        0.30879        0.27197        0.25541        0.27909        0.29125        0.28761        0.27625        0.30247        0.32310        0.29229        0.29801        0.30075        0.28763        0.31328        0.32103        0.34831        0.35200        0.30826        0.31582        0.30168        0.26435        0.28078        0.31204        0.29995        0.34728        0.36635        0.30934        0.32655        0.28263        0.28925        0.22965        0.25006        0.27679        0.29820        0.30277        0.35314        0.33000        0.27713        0.25635        0.29025        0.27721        0.35539        0.28836        0.30397        0.33218        0.35419        0.29061        0.22399        0.29205        0.29454        0.30902        0.25102        0.26457        0.24159        0.26178        0.22721        0.22710        0.30587        0.21519        0.27683        0.30552        0.22524        0.23113        0.27204        0.29626        0.26179        0.30556        0.24624        0.29167        0.24478        0.25751        0.24804        0.26964        0.25754        0.16339        0.23344        0.21205        0.23478        0.23594        0.22755        0.30111        0.25205        0.28649        0.27820        0.23922        0.15387        0.13443       -0.03988       -0.43159       -0.36579
2.157673 2.135131 2.112714 2.090422 2.068255 2.046213 2.024296 2.002504 1.980838 1.959296 1.937880 1.916589 1.895423 1.874382 1.853466 1.832675 1.812010 1.791469 1.771054 1.750764 1.730598 1.710558 1.690644 1.670854 1.651189 1.631650 1.612235 1.592946 1.573782 1.554743 1.535829 1.517040 1.498376 1.479838 1.461424 1.443136 1.424972 1.406934 1.389021 1.371233 1.353571 1.336033 1.318620 1.301333 1.284171 1.267134 1.250221 1.233435 1.216773 1.200236 1.183824 1.516460 1.782964 1.211254 0.922199 0.640703 0.544862 0.490578 0.279829 0.295790 0.293961 0.347710 0.260604 0.278080 0.271150 0.148791 0.019988 -0.038096 -0.146151 -0.066221 -0.127796 -0.024421 -0.179035 -0.048269 -0.105292 -0.003431 0.072606 0.126008 0.019810 0.301095 0.432893 0.352053 0.474286 0.633823 0.677035 0.701109 0.932971 0.839418 0.948359 0.880775 0.828806 0.921805 0.918100 0.802486 0.767293 0.680966 0.678385 0.590936 0.590339 0.330603 0.370390 0.201291 0.242558 0.123482 0.120666 0.164680 0.194247 0.324622 0.276908 0.302591 0.452485 0.507995 0.606973 0.589893 0.666341 0.747037 0.795620 0.732105 0.596516 0.606329 0.490346 0.383420 0.397620 0.239428 0.160923 0.122659 0.037083 -0.046637 0.087993 0.006578 0.137752 0.157896 0.247629 0.324096 0.321010 0.426560 0.554490 0.490541 0.462683 0.525247 0.427369 0.320915 0.269340 0.311438 0.086499 0.028396 0.052767 -0.043341 -0.017172 -0.014929 0.037840 0.152917 0.284881 0.262494 0.386656 0.349541 0.356698 0.369360 0.449025 0.315504 0.283105 0.126764 0.082164 0.013355 0.038726 0.001509 0.034511 0.097629 0.119263 0.189395 0.237573 0.316615 0.316398 0.286358 0.263003 0.234183 0.214734 0.160424 0.044453 0.051574 -0.029855 0.018301 -0.056770 0.033197 0.164289 0.203491 0.214612 0.193940 0.261399 0.143933 0.123747 0.123615 0.063107 0.034941 0.054137 0.012714 0.050712 0.055815 0.086373 0.124602 0.172578 0.236315 0.243498 0.118440 0.129342 0.063203 0.049341 0.033794 0.007898 0.022264 0.038268 0.105261 0.073873 0.130582 0.178171 0.124311 0.100969 0.101585 0.059710 0.033659 0.018873 -0.016934 0.043729 0.061891 0.067182 0.083277 0.114387 0.125287 0.138349 0.086835 0.059885 -0.006440 0.019280 0.007896 0.029833 0.015954 0.031094 0.116831 0.097171 0.111041 0.075584 0.030768 0.064859 0.019972 -0.002086 0.052461 0.016971 0.024984 0.071744 0.099503 0.071673 0.072080 0.046882 0.016591 0.016659 0.002083 0.021901 0.024687 0.032526 0.021432 0.060115 0.075736 0.021356 -0.015604 0.001971 -0.001364 0.001499 -0.003270 0.051572 0.028085 0.055336 0.059270 0.045719 0.087466 -0.028911 -0.012642 -0.018770 -0.013191 0.027686 -0.016003 -0.005013 0.036528 0.022650 0.006713 0.014055 0.020132 0.008746 0.039418 0.042724 0.068770 0.055949 0.013480 0.038099 0.010937 -0.015685 0.021012 -0.004043 0.027165 0.056791 0.095888 0.029857 0.050032 -0.000844 0.024230 -0.055809 -0.004677 0.001436 0.046924 0.003537 0.108273 0.068727 0.014041 0.011204 0.056984 0.041047 0.104955 0.067619 0.009527 0.106396 0.114114 0.043169 -0.021906 0.058386 0.048890 0.089276 -0.014571 0.007666 -0.033998 0.018114 -0.040860 -0.044196 0.060706 -0.033596 0.013290 -0.015584 -0.060458 -0.043459 -0.023528 0.023181 -0.010197 0.014358 -0.018127 0.022148 -0.047189 0.036479 -0.053969 0.038187 0.015347 -0.068056 0.024633 -0.009053 0.051550 0.023937 0.062482 0.132229 0.070347 0.157560 0.247801 0.212506 0.057400 0.126513 -0.028170 -0.322457
0.072396 0.072973 0.074702 0.077584 0.081618 0.086803 0.093136 0.100616 0.109240 0.119004 0.129902 0.141930 0.155079 0.169340 0.184702 0.201152 0.218674 0.237249 0.256855 0.277467 0.299055 0.321587 0.345023 0.369321 0.394432 0.420301 0.446867 0.474063 0.501815 0.530040 0.558649 0.587545 0.616620 0.645760 0.674843 0.703735 0.732296 0.760374 0.787811 0.814439 0.840081 0.864552 0.887661 0.909209 0.928991 0.946795 0.962409 0.975614 0.986191 0.993923 0.998592 0.999986 0.997897 0.992127 0.982487 0.968804 0.950917 0.928689 0.901999 0.870757 0.834897 0.794385 0.749222 0.699447 0.645138 0.586417 0.523451 0.456456 0.385697 0.311491 0.234209 0.154274 0.072160 0.011603 0.096435 0.181708 0.266748 0.350840 0.433231 0.513138 0.589756 0.662261 0.729823 0.791617 0.846829 0.894672 0.934393 0.965293 0.986735 0.998156 0.999087 0.989159 0.968122 0.935853 0.892368 0.837834 0.772574 0.697075 0.611994 0.518155 0.416551 0.308341 0.194839 0.077503 0.042075 0.162192 0.281054 0.396802 0.507536 0.611355 0.706385 0.790815 0.862939 0.921192 0.964187 0.990760 0.999997 0.991275 0.964289 0.919078 0.856044 0.775964 0.680000 0.569688 0.446933 0.313983 0.173399 0.028015 0.119116 0.264776 0.405662 0.538443 0.659859 0.766792 0.856363 0.926007 0.973567 0.997365 0.996273 0.969771 0.917997 0.841769 0.742602 0.622698 0.484918 0.332729 0.170135 0.001581 0.168158 0.334108 0.491240 0.634625 0.759595 0.861904 0.937888 0.984610 0.999991 0.982923 0.933345 0.852298 0.741931 0.605483 0.447211 0.272277 0.086609 0.103295 0.290580 0.468280 0.629577 0.768076 0.878068 0.954788 0.994642 0.995407 0.956368 0.878421 0.764091 0.617499 0.444245 0.251226 0.046389 0.161579 0.363614 0.550658 0.714087 0.846108 0.940167 0.991295 0.996411 0.954537 0.866925 0.737082 0.570673 0.375332 0.160332 0.063814 0.285854 0.494357 0.678300 0.827677 0.934061 0.991122 0.995042 0.944819 0.842415 0.692756 0.503549 0.284940 0.049008 0.190864 0.420748 0.626966 0.796928 0.919924 0.987848 0.995775 0.942382 0.830140 0.665290 0.457561 0.219654 0.033479 0.285557 0.519995 0.721011 0.874706 0.970079 0.999862 0.961144 0.855709 0.690058 0.475085 0.225442 0.041411 0.306392 0.550140 0.754454 0.903671 0.985933 0.994192 0.926896 0.788264 0.588141 0.341370 0.066789 0.214185 0.479170 0.706625 0.877623 0.977486 0.997123 0.933942 0.792256 0.583112 0.323525 0.035191 0.257289 0.528460 0.754250 0.914145 0.993120 0.983151 0.884124 0.704069 0.458624 0.169803 0.135924 0.429987 0.684390 0.874406 0.981050 0.993073 0.908264 0.733899 0.486275 0.189289 0.127746 0.432975 0.695159 0.886926 0.987703 0.986033 0.881009 0.682634 0.411020 0.094490 0.233300 0.536873 0.782792 0.943389 0.999994 0.945225 0.784099 0.533769 0.221843 0.116538 0.442571 0.718249 0.910816 0.996769 0.964862 0.817741 0.571946 0.256232 0.091659 0.429427 0.715319 0.913360 0.997965 0.957413 0.795635 0.532076 0.199541 0.159740 0.499398 0.774884 0.949399 0.998921 0.915695 0.709636 0.407367 0.048983 0.317148 0.640846 0.877025 0.992077 0.968818 0.809271 0.534784 0.183390 0.195277 0.546910 0.820311 0.974927 0.987036 0.853594 0.593127 0.243399 0.143851 0.510471 0.800581 0.969199 0.989359 0.856670 0.590457 0.231198 0.165402 0.536929 0.824082 0.980210 0.979097 0.819603 0.526354 0.146219 0.258991 0.622442 0.883317 0.997135 0.943541 0.730234 0.392179 0.013817 0.418493
1.000000 1.000000 1.000000 1.000000 1.000000 1.000000 1.000000 1.000000 1.000000 1.000000 1.000000 1.000000 1.000000 1.000000 1.000000 1.000000 1.000000 1.000000 1.000000 1.000000 1.000000 1.000000 1.000000 1.000000 1.000000 1.000000 1.000000 1.000000 1.000000 1.000000 1.000000 1.000000 1.000000 1.000000 1.000000 1.000000 1.000000 1.000000 1.000000 1.000000 1.000000 1.000000 1.000000 1.000000 1.000000 1.000000 1.000000 1.000000 1.000000 1.000000 1.000000 1.000000 0.936782 0.936782 0.936782 0.936782 0.936782 0.936782 0.936782 0.936782 0.936782 0.936782 0.936782 0.936782 0.936782 0.936782 0.936782 0.936782 0.936782 0.936782 0.936782 0.936782 0.936782 0.936782 0.936782 0.936782 0.936782 0.936782 0.936782 0.936782 0.936782 0.936782 0.936782 0.936782 0.936782 0.936782 0.936782 0.936782 0.936782 0.936782 0.924566 0.927283 0.924885 0.924718 0.923755 0.930392 0.934067 0.934800 0.935198 0.936510 0.938016 0.941109 0.942320 0.945406 0.949604 0.957812 0.955597 0.953112 0.955854 0.952146 0.965273 0.965863 0.965851 0.966574 0.967171 0.967868 0.966204 0.967949 0.968422 0.967903 0.966856 0.966329 0.963542 0.962969 0.962919 0.963434 0.963082 0.963582 0.964962 0.964789 0.964864 0.964445 0.963868 0.960368 0.959026 0.958048 0.956130 0.954499 0.960987 0.960354 0.959645 0.959331 0.959470 0.959440 0.959474 0.958738 0.957557 0.956683 0.956165 0.955736 0.954741 0.956037 0.958379 0.959252 0.949626 0.942179 0.938227 0.940676 0.938347 0.933214 0.935129 0.920252 0.906701 0.900873 0.891862 0.888619 0.889395 0.892967 0.892771 0.887466 0.880757 0.875746 0.880322 0.878697 0.883903 0.880299 0.863424 0.858948 0.851222 0.852829 0.862028 0.867866 0.870967 0.868241 0.864603 0.849758 0.844702 0.846917 0.848081 0.846908 0.846981 0.841855 0.842915 0.846193 0.857522 0.860505 0.864815 0.867462 0.867843 0.870246 0.872023 0.868866 0.864894 0.867611 0.870075 0.863744 0.867866 0.865289 0.866982 0.863943 0.857067 0.858574 0.861611 0.860553 0.859915 0.849902 0.849554 0.856116 0.862225 0.846173 0.844694 0.837430 0.832423 0.831898 0.833179 0.837448 0.836977 0.835978 0.840467 0.838396 0.835267 0.837522 0.817335 0.828980 0.832373 0.821731 0.792473 0.787538 0.787086 0.794654 0.794941 0.792077 0.781509 0.779839 0.778059 0.783676 0.784359 0.767730 0.753777 0.761674 0.770479 0.771436 0.743244 0.695336 0.685228 0.666430 0.648742 0.648162 0.641128 0.648061 0.639542 0.632313 0.633938 0.646280 0.651702 0.636408 0.625765 0.619523 0.638023 0.616602 0.615725 0.624285 0.621563 0.640969 0.640419 0.644416 0.624353 0.629257 0.622752 0.613619 0.618309 0.599337 0.603082 0.595883 0.593020 0.572449 0.572502 0.573556 0.594540 0.561118 0.556429 0.576193 0.564166 0.551454 0.566541 0.546694 0.549132 0.555633 0.531433 0.517520 0.494712 0.506660 0.526162 0.502779 0.474974 0.464516 0.463130 0.437806 0.459378 0.514701 0.524294 0.513830 0.436605 0.418812 0.425366 0.427592 0.430517 0.382993 0.359969 0.352858 0.300928 0.280306 0.289571 0.285259 0.244218 0.218648 0.242311 0.171662 0.166893 0.179688 0.163183 0.153501 0.104857 0.113160 0.181795 0.185846 0.185846 0.185846 0.185846 0.185846 0.185846 0.185846 0.208333 0.208333 0.208333 0.208333 0.208333 0.208333 0.208333 0.208333 0.214706 0.214706 0.214706 0.214706 0.214706 0.214706 0.214706 0.214706 0.214706 0.214706 0.214706 0.214706 0.214706
0.000000 0.000000 0.000000 0.000000 0.000000 0.000000 0.000000 0.000000 0.000000 0.000000 0.000000 0.000000 0.000000 0.000000 0.000000 0.000000 0.000000 0.000000 0.000000 0.000000 0.000000 0.000000 0.000000 0.000000 0.000000 0.000000 0.000000 0.000000 0.000000 0.000000 0.000000 0.000000 0.000000 0.000000 0.000000 0.000000 0.000000 0.000000 0.000000 0.000000 0.000000 0.000000 0.000000 0.000000 0.000000 0.000000 0.000000 0.000000 0.000000 0.000000 0.000000 0.000000 0.203069 0.203069 0.203069 0.203069 0.203069 0.203069 0.203069 0.203069 0.203069 0.203069 0.203069 0.203069 0.203069 0.203069 0.203069 0.203069 0.203069 0.203069 0.203069 0.203069 0.203069 0.203069 0.203069 0.203069 0.203069 0.203069 0.203069 0.203069 0.203069 0.203069 0.203069 0.203069 0.203069 0.203069 0.203069 0.203069 0.203069 0.203069 0.234082 0.234082 0.234082 0.234082 0.234082 0.234082 0.234082 0.234082 0.234082 0.234082 0.234082 0.234082 0.234082 0.234082 0.234082 0.234082 0.234082 0.234082 0.234082 0.234082 0.234082 0.234082 0.234082 0.234082 0.234082 0.234082 0.234082 0.256074 0.256074 0.256074 0.256074 0.256074 0.256074 0.256074 0.256074 0.256074 0.256074 0.256074 0.256074 0.256074 0.256074 0.256074 0.256074 0.256074 0.256074 0.256074 0.256074 0.256074 0.264906 0.264906 0.264906 0.264906 0.264906 0.264906 0.264906 0.264906 0.264906 0.264906 0.264906 0.264906 0.264906 0.264906 0.264906 0.264906 0.264906 0.264906 0.264906 0.264906 0.264906 0.264906 0.264906 0.264906 0.264906 0.264906 0.264906 0.264906 0.264906 0.264906 0.264906 0.264906 0.264906 0.264906 0.264906 0.269680 0.269680 0.269680 0.269680 0.269680 0.269680 0.269680 0.269680 0.269680 0.269680 0.269680 0.269680 0.269680 0.269680 0.269680 0.269680 0.269680 0.269680 0.269680 0.269680 0.269680 0.269680 0.269680 0.269680 0.269680 0.269680 0.269680 0.269680 0.269680 0.274721 0.274721 0.274721 0.274721 0.274721 0.274721 0.274721 0.274721 0.274721 0.274721 0.274721 0.274721 0.274721 0.274721 0.274721 0.274721 0.274721 0.274721 0.274721 0.274721 0.274721 0.274721 0.274721 0.274721 0.274721 0.269680 0.269680 0.269680 0.269680 0.269680 0.269680 0.269680 0.269680 0.269680 0.269680 0.269680 0.269680 0.274721 0.274721 0.274721 0.274721 0.274721 0.274721 0.274721 0.274721 0.274721 0.274721 0.274721 0.269680 0.269680 0.269680 0.269680 0.269680 0.269680 0.269680 0.269680 0.269680 0.269680 0.269680 0.274721 0.274721 0.274721 0.274721 0.274721 0.274721 0.274721 0.274721 0.274721 0.274721 0.269680 0.269680 0.269680 0.269680 0.269680 0.269680 0.269680 0.269680 0.269680 0.269680 0.264906 0.264906 0.264906 0.264906 0.264906 0.264906 0.264906 0.264906 0.264906 0.264906 0.269680 0.269680 0.269680 0.269680 0.269680 0.269680 0.269680 0.269680 0.269680 0.264906 0.264906 0.264906 0.264906 0.264906 0.264906 0.264906 0.264906 0.264906 0.274721 0.274721 0.274721 0.274721 0.274721 0.274721 0.274721 0.274721 0.256074 0.256074 0.256074 0.256074 0.256074 0.256074 0.256074 0.256074 0.256074 0.269680 0.269680 0.269680 0.269680 0.269680 0.269680 0.269680 0.269680 0.264906 0.264906 0.264906 0.264906 0.264906 0.264906 0.264906 0.264906 0.260378 0.260378 0.260378 0.260378 0.260378 0.260378 0.260378 0.260378 0.256074 0.256074 0.256074 0.256074 0.256074 0.256074 0.256074 0.256074 0.256074 0.256074 0.256074 0.256074 0.256074
