# Output from CTFFind version 4.1.9, run on 2019-11-03 18:52:18
# Input file: stack4_ub_averaged_3000.mrc ; Number of micrographs: 1
# Pixel size: 3.000 Angstroms ; acceleration voltage: 300.0 keV ; spherical aberration: 0.00 mm ; amplitude contrast: 0.07
# Box size: 512 pixels ; min. res.: 30.0 Angstroms ; max. res.: 5.0 Angstroms ; min. def.: 5000.0 um; max. def. 50000.0 um; num. frames averaged: 1
# 6 lines per micrograph: #1 - spatial frequency (1/Angstroms); #2 - 1D rotational average of spectrum (assuming no astigmatism); #3 - 1D rotational average of spectrum; #4 - CTF fit; #5 - cross-correlation between spectrum and CTF fit; #6 - 2sigma of expected cross correlation of noise
0.000000 0.000651 0.001302 0.001953 0.002604 0.003255 0.003906 0.004557 0.005208 0.005859 0.006510 0.007161 0.007812 0.008464 0.009115 0.009766 0.010417 0.011068 0.011719 0.012370 0.013021 0.013672 0.014323 0.014974 0.015625 0.016276 0.016927 0.017578 0.018229 0.018880 0.019531 0.020182 0.020833 0.021484 0.022135 0.022786 0.023438 0.024089 0.024740 0.025391 0.026042 0.026693 0.027344 0.027995 0.028646 0.029297 0.029948 0.030599 0.031250 0.031901 0.032552 0.033203 0.033854 0.034505 0.035156 0.035807 0.036458 0.037109 0.037760 0.038411 0.039062 0.039714 0.040365 0.041016 0.041667 0.042318 0.042969 0.043620 0.044271 0.044922 0.045573 0.046224 0.046875 0.047526 0.048177 0.048828 0.049479 0.050130 0.050781 0.051432 0.052083 0.052734 0.053385 0.054036 0.054688 0.055339 0.055990 0.056641 0.057292 0.057943 0.058594 0.059245 0.059896 0.060547 0.061198 0.061849 0.062500 0.063151 0.063802 0.064453 0.065104 0.065755 0.066406 0.067057 0.067708 0.068359 0.069010 0.069661 0.070312 0.070964 0.071615 0.072266 0.072917 0.073568 0.074219 0.074870 0.075521 0.076172 0.076823 0.077474 0.078125 0.078776 0.079427 0.080078 0.080729 0.081380 0.082031 0.082682 0.083333 0.083984 0.084635 0.085286 0.085938 0.086589 0.087240 0.087891 0.088542 0.089193 0.089844 0.090495 0.091146 0.091797 0.092448 0.093099 0.093750 0.094401 0.095052 0.095703 0.096354 0.097005 0.097656 0.098307 0.098958 0.099609 0.100260 0.100911 0.101562 0.102214 0.102865 0.103516 0.104167 0.104818 0.105469 0.106120 0.106771 0.107422 0.108073 0.108724 0.109375 0.110026 0.110677 0.111328 0.111979 0.112630 0.113281 0.113932 0.114583 0.115234 0.115885 0.116536 0.117188 0.117839 0.118490 0.119141 0.119792 0.120443 0.121094 0.121745 0.122396 0.123047 0.123698 0.124349 0.125000 0.125651 0.126302 0.126953 0.127604 0.128255 0.128906 0.129557 0.130208 0.130859 0.131510 0.132161 0.132812 0.133464 0.134115 0.134766 0.135417 0.136068 0.136719 0.137370 0.138021 0.138672 0.139323 0.139974 0.140625 0.141276 0.141927 0.142578 0.143229 0.143880 0.144531 0.145182 0.145833 0.146484 0.147135 0.147786 0.148438 0.149089 0.149740 0.150391 0.151042 0.151693 0.152344 0.152995 0.153646 0.154297 0.154948 0.155599 0.156250 0.156901 0.157552 0.158203 0.158854 0.159505 0.160156 0.160807 0.161458 0.162109 0.162760 0.163411 0.164062 0.164714 0.165365 0.166016 0.166667 0.167318 0.167969 0.168620 0.169271 0.169922 0.170573 0.171224 0.171875 0.172526 0.173177 0.173828 0.174479 0.175130 0.175781 0.176432 0.177083 0.177734 0.178385 0.179036 0.179688 0.180339 0.180990 0.181641 0.182292 0.182943 0.183594 0.184245 0.184896 0.185547 0.186198 0.186849 0.187500 0.188151 0.188802 0.189453 0.190104 0.190755 0.191406 0.192057 0.192708 0.193359 0.194010 0.194661 0.195312 0.195964 0.196615 0.197266 0.197917 0.198568 0.199219 0.199870 0.200521 0.201172 0.201823 0.202474 0.203125 0.203776 0.204427 0.205078 0.205729 0.206380 0.207031 0.207682 0.208333 0.208984 0.209635 0.210286 0.210938 0.211589 0.212240 0.212891 0.213542 0.214193 0.214844 0.215495 0.216146 0.216797 0.217448 0.218099 0.218750 0.219401 0.220052 0.220703 0.221354 0.222005 0.222656 0.223307 0.223958 0.224609 0.225260 0.225911 0.226562 0.227214 0.227865 0.228516 0.229167 0.229818 0.230469 0.231120 0.231771 0.232422 0.233073 0.233724 0.234375 0.235026 0.235677
       0.36297        0.36297        0.36297        0.36297        0.36297        0.36297        0.36297        0.36297        0.36297        0.36297        0.36297        0.36297        0.36297        0.36297        0.36297        0.36297        0.36297        0.36297        0.36297        0.36297        0.36297        0.36297        0.36297        0.36297        0.36297        0.36297        0.36297        0.36297        0.36297        0.36297        0.36297        0.36297        0.36297        0.36297        0.36297        0.36297        0.36297        0.36297        0.36297        0.36297        0.36297        0.36297        0.36297        0.36297        0.36297        0.36297        0.36297        0.36297        0.36297        0.36297        0.36297        0.70606        0.78261        0.47077        0.03750        0.05663       -0.16438       -0.30978       -0.07491       -0.04474       -0.09430       -0.16777       -0.13452       -0.15784       -0.36652       -0.43792       -0.31769       -0.35409       -0.39599       -0.46905       -0.45651       -0.41248       -0.54670       -0.43949       -0.53976       -0.59539       -0.50506       -0.39514       -0.44631       -0.31210       -0.19469       -0.18494       -0.11920       -0.08167        0.00429        0.05222        0.24647        0.43338        0.37415        0.57699        0.66895        0.65136        0.63548        0.65743        0.70451        0.66639        0.64521        0.71576        0.67607        0.61109        0.53562        0.43564        0.33408        0.25839        0.20104        0.09925        0.07165        0.01580        0.07618        0.03810        0.07877        0.08769        0.11280        0.26345        0.41339        0.44969        0.48594        0.52915        0.53255        0.61018        0.62257        0.68175        0.68501        0.63876        0.63752        0.59741        0.49899        0.38375        0.37451        0.25457        0.22407        0.17710        0.15134        0.09424        0.06193        0.12134        0.21555        0.29420        0.28766        0.47359        0.53823        0.53620        0.60391        0.64323        0.59610        0.61433        0.53351        0.48863        0.51296        0.46879        0.37461        0.23963        0.11140        0.19253        0.20714        0.18915        0.20167        0.29289        0.25451        0.40972        0.46065        0.45882        0.50975        0.53536        0.55772        0.52248        0.37806        0.39757        0.41611        0.30509        0.30764        0.23728        0.20138        0.24659        0.29064        0.28411        0.36545        0.40078        0.42877        0.47164        0.54150        0.54522        0.50727        0.41055        0.41703        0.37140        0.35402        0.32077        0.29825        0.27595        0.30470        0.33695        0.35699        0.40947        0.44736        0.44492        0.46061        0.43692        0.41098        0.38282        0.32851        0.33885        0.35795        0.34322        0.31158        0.30806        0.30191        0.36630        0.39119        0.36668        0.39454        0.44758        0.40177        0.39885        0.38499        0.37351        0.36567        0.32996        0.31582        0.31426        0.34682        0.37393        0.38154        0.38727        0.35065        0.34389        0.34809        0.34948        0.36112        0.33909        0.36976        0.36428        0.35353        0.37409        0.37112        0.34422        0.36729        0.36366        0.39651        0.38685        0.34024        0.36160        0.33762        0.32545        0.34777        0.34572        0.33524        0.36596        0.32507        0.35812        0.36503        0.33732        0.34584        0.31421        0.35468        0.28200        0.31007        0.29955        0.31020        0.33911        0.36976        0.36110        0.33890        0.35687        0.34834        0.32585        0.31645        0.33721        0.38040        0.32946        0.33547        0.32344        0.30811        0.32226        0.33390        0.36187        0.32245        0.34163        0.35541        0.33639        0.34076        0.35492        0.33371        0.34213        0.28425        0.35163        0.34081        0.35352        0.37257        0.36178        0.38349        0.36775        0.33035        0.31711        0.33321        0.34748        0.30125        0.34117        0.35410        0.37244        0.37290        0.37056        0.34996        0.33447        0.31981        0.33086        0.31817        0.35629        0.32676        0.27967        0.31760        0.34127        0.30995        0.32516        0.31125        0.29802        0.31968        0.31060        0.30153        0.32963        0.26941        0.26647        0.26264        0.26518        0.31050        0.34974        0.31227        0.32251        0.37489        0.35160        0.32555        0.33670        0.29571        0.30028        0.30417        0.27581        0.30703        0.29758        0.29082        0.31717        0.35121        0.29012        0.31378        0.24807        0.25882        0.16609        0.30445        0.26358        0.28070        0.25827        0.28136        0.27857        0.35890        0.30796        0.20072        0.12943        0.37949        0.39544        0.33638        0.24820        0.21294       -0.03509       -0.19351
2.658310 2.628981 2.599818 2.570822 2.541991 2.513327 2.484830 2.456498 2.428333 2.400334 2.372501 2.344834 2.317334 2.290000 2.262832 2.235831 2.208995 2.182327 2.155824 2.129487 2.103317 2.077313 2.051475 2.025803 2.000298 1.974959 1.949786 1.924780 1.899939 1.875265 1.850757 1.826416 1.802240 1.778231 1.754388 1.730712 1.707201 1.683857 1.660679 1.637668 1.614822 1.592143 1.569630 1.547283 1.525103 1.503089 1.481241 1.459559 1.438044 1.416695 1.395512 1.648923 1.858241 1.516312 0.948886 1.103142 0.700823 0.480456 0.772999 0.799408 0.680028 0.585523 0.661449 0.617535 0.334488 0.267291 0.310120 0.278322 0.294333 0.139917 0.089811 0.175224 0.002562 0.116170 -0.040136 -0.072967 -0.055394 0.071246 -0.021917 0.088909 0.271390 0.236900 0.240684 0.305768 0.366888 0.422100 0.562368 0.742742 0.732620 0.910596 1.035022 0.958764 0.917712 0.975576 0.940669 0.961663 0.894544 0.951706 0.946294 0.795155 0.786310 0.657610 0.484877 0.406429 0.385604 0.217027 0.164799 0.108525 0.107494 0.132954 0.092231 0.147565 0.127451 0.178341 0.388933 0.513142 0.476426 0.491421 0.555128 0.534093 0.640426 0.605409 0.680748 0.568912 0.628752 0.519006 0.480432 0.300480 0.313697 0.118893 0.160938 0.003589 0.029610 -0.040101 -0.125134 -0.109402 0.014129 0.090744 0.101856 0.220892 0.323675 0.365119 0.363932 0.454565 0.446207 0.403533 0.384591 0.277852 0.275925 0.264872 0.209542 0.042943 -0.069311 -0.163439 -0.008893 -0.125851 -0.066563 -0.002173 -0.032901 0.086861 0.188716 0.177957 0.206883 0.256014 0.352978 0.344236 0.186312 0.157135 0.192181 0.138272 0.070179 -0.000619 -0.036450 -0.032641 0.023502 0.017634 0.081890 0.095924 0.192560 0.175829 0.288312 0.263674 0.307423 0.173138 0.145754 0.151349 0.046902 0.067451 0.042336 -0.002325 0.003100 -0.001090 0.107217 0.069495 0.146886 0.158704 0.173929 0.188008 0.117220 0.109984 0.066771 0.037795 0.049008 0.073851 0.017445 0.014121 -0.010910 0.018470 0.073165 0.091869 0.078644 0.094067 0.097480 0.039810 0.099053 0.032258 0.054604 0.003481 -0.020588 -0.021408 -0.005294 0.020294 0.028583 0.069399 0.039627 0.030643 0.011354 0.053775 0.031963 0.030775 0.016656 0.055445 0.029364 0.040854 0.053129 0.051305 -0.000456 0.071797 0.028798 0.072577 0.075496 -0.006949 0.074408 -0.004979 0.004561 0.041855 0.005634 0.012683 0.043629 -0.015357 0.079607 0.018882 0.024133 0.023556 0.005701 0.023084 -0.055925 -0.002347 -0.025441 -0.008453 0.025031 0.062184 0.030427 0.020232 0.027407 0.003473 0.007167 -0.013268 0.042029 0.049966 -0.011593 -0.012215 -0.003838 -0.021187 -0.000478 0.001319 0.019036 -0.023028 0.024561 -0.010536 -0.002383 -0.002791 0.009311 0.016333 -0.073338 -0.061488 0.002712 0.002899 -0.009943 0.016811 0.018732 0.039803 -0.003411 -0.027288 -0.013122 0.001254 0.000869 -0.020960 0.020637 -0.019847 0.101997 0.032014 0.041293 0.041989 -0.009204 0.015446 0.003995 -0.017645 0.031791 0.017662 -0.062088 0.018384 0.012111 -0.010775 -0.003080 -0.031042 -0.054751 0.014026 -0.042871 -0.034931 0.027280 -0.082405 -0.033571 -0.052225 -0.047401 0.023434 0.093721 0.023287 0.024549 0.102645 0.068880 0.033258 0.059254 0.028181 0.004213 0.020037 0.001186 0.060354 0.028187 0.051477 0.001235 0.124870 0.023156 0.067573 -0.039577 0.035933 -0.151979 0.086343 -0.075626 0.076155 0.235134 0.335699 0.221856 0.392736 0.336556 0.248508 0.141054 0.518344 0.455185 0.342833 0.198169 0.230510 -0.207011
0.072396 0.072920 0.074490 0.077108 0.080771 0.085479 0.091231 0.098025 0.105858 0.114728 0.124631 0.135561 0.147513 0.160481 0.174454 0.189424 0.205377 0.222300 0.240175 0.258984 0.278703 0.299308 0.320768 0.343051 0.366120 0.389934 0.414445 0.439602 0.465348 0.491622 0.518353 0.545467 0.572883 0.600512 0.628259 0.656022 0.683690 0.711148 0.738270 0.764924 0.790972 0.816266 0.840654 0.863975 0.886063 0.906747 0.925849 0.943187 0.958578 0.971833 0.982764 0.991180 0.996893 0.999719 0.999474 0.995983 0.989077 0.978599 0.964401 0.946350 0.924330 0.898244 0.868013 0.833585 0.794933 0.752057 0.704989 0.653794 0.598572 0.539462 0.476640 0.410324 0.340774 0.268293 0.193229 0.115971 0.036955 0.043341 0.124401 0.205665 0.286538 0.366393 0.444574 0.520398 0.593165 0.662164 0.726676 0.785986 0.839389 0.886199 0.925761 0.957458 0.980723 0.995049 0.999999 0.995218 0.980442 0.955508 0.920364 0.875076 0.819836 0.754970 0.680937 0.598337 0.507911 0.410535 0.307224 0.199119 0.087480 0.026321 0.140821 0.254477 0.365689 0.472821 0.574223 0.668263 0.753347 0.827956 0.890671 0.940206 0.975438 0.995435 0.999489 0.987132 0.958169 0.912689 0.851087 0.774065 0.682643 0.578149 0.462217 0.336765 0.203973 0.066252 0.073797 0.213424 0.349786 0.480002 0.601215 0.710659 0.805725 0.884029 0.943479 0.982341 0.999295 0.993490 0.964584 0.912784 0.838860 0.744158 0.630587 0.500605 0.357168 0.203686 0.043944 0.117979 0.277813 0.431207 0.573844 0.701574 0.810535 0.897284 0.958912 0.993158 0.998509 0.974272 0.920635 0.838700 0.730484 0.598894 0.447670 0.281299 0.104892 0.075952 0.255328 0.427203 0.585631 0.724955 0.840026 0.926401 0.980542 0.999967 0.983397 0.930841 0.843652 0.724521 0.577430 0.407548 0.221067 0.024995 0.173086 0.365316 0.543861 0.701243 0.830665 0.926314 0.983659 0.999680 0.973061 0.904304 0.795775 0.651666 0.477862 0.281744 0.071889 0.142272 0.350885 0.544107 0.712589 0.847942 0.943172 0.993077 0.994564 0.946873 0.851695 0.713166 0.537732 0.333900 0.111846 0.117058 0.340816 0.547432 0.725562 0.865154 0.958049 0.998489 0.983523 0.913256 0.790945 0.622899 0.418223 0.188350 0.053550 0.293305 0.516569 0.709681 0.860526 0.959327 0.999322 0.977280 0.893809 0.753430 0.564401 0.338292 0.089326 0.166482 0.412335 0.631759 0.809721 0.933689 0.994570 0.987426 0.911944 0.772577 0.578378 0.342457 0.081188 0.186919 0.442496 0.666709 0.842680 0.956787 0.999790 0.967636 0.861916 0.689887 0.464064 0.201387 0.078000 0.352257 0.599548 0.799785 0.936317 0.997359 0.977093 0.876306 0.702488 0.469377 0.195957 0.095027 0.378915 0.631221 0.829760 0.956652 0.999998 0.955088 0.825001 0.620519 0.359331 0.064604 0.237025 0.517825 0.751515 0.915785 0.994473 0.979261 0.870654 0.678139 0.419484 0.119192 0.193740 0.488592 0.735921 0.910556 0.994226 0.977574 0.861321 0.656420 0.383159 0.069256 0.252864 0.549395 0.788698 0.944736 0.999988 0.947541 0.792077 0.549618 0.246004 0.085739 0.408942 0.687320 0.889085 0.990650 0.979507 0.855907 0.633102 0.336082 0.001095 0.339131 0.638033 0.861867 0.983155 0.986370 0.870076 0.647392 0.344693 0.001386 0.348282 0.652693 0.876037 0.989402 0.977437 0.840588 0.595365 0.272533 0.086617 0.435436 0.727978 0.925089 0.999745 0.940936 0.755446 0.467305 0.114839 0.254284 0.589429 0.843974 0.981852 0.982827 0.845635 0.588546 0.247125
1.000000 1.000000 1.000000 1.000000 1.000000 1.000000 1.000000 1.000000 1.000000 1.000000 1.000000 1.000000 1.000000 1.000000 1.000000 1.000000 1.000000 1.000000 1.000000 1.000000 1.000000 1.000000 1.000000 1.000000 1.000000 1.000000 1.000000 1.000000 1.000000 1.000000 1.000000 1.000000 1.000000 1.000000 1.000000 1.000000 1.000000 1.000000 1.000000 1.000000 1.000000 1.000000 1.000000 1.000000 1.000000 1.000000 1.000000 1.000000 1.000000 1.000000 1.000000 1.000000 0.945755 0.945755 0.946456 0.946456 0.946456 0.946456 0.946456 0.946456 0.946456 0.946456 0.946456 0.946456 0.946456 0.946456 0.946456 0.946456 0.946456 0.946456 0.946456 0.946456 0.946456 0.946456 0.946456 0.946456 0.946456 0.946456 0.946456 0.946456 0.946456 0.946456 0.946456 0.946456 0.946456 0.946456 0.946456 0.946456 0.946456 0.946456 0.946456 0.946456 0.946456 0.946456 0.946456 0.940863 0.940907 0.942845 0.944195 0.944286 0.943843 0.945220 0.950919 0.950868 0.951654 0.954267 0.957785 0.961327 0.962738 0.965663 0.966748 0.966270 0.965962 0.966073 0.965451 0.963825 0.960723 0.961052 0.955984 0.957432 0.957979 0.955034 0.957756 0.957753 0.954153 0.953095 0.952172 0.950418 0.950101 0.950030 0.950395 0.950608 0.951141 0.950581 0.949225 0.947409 0.947400 0.947642 0.948327 0.949724 0.950761 0.951502 0.945873 0.950265 0.948313 0.948767 0.951996 0.952108 0.951832 0.951381 0.951647 0.949477 0.949537 0.937024 0.925004 0.919870 0.905994 0.905035 0.909283 0.914370 0.918594 0.914298 0.913691 0.901834 0.891935 0.882357 0.883863 0.886900 0.881522 0.878088 0.869558 0.861835 0.861643 0.856088 0.856691 0.857509 0.852893 0.844624 0.840490 0.837610 0.829385 0.834171 0.837853 0.826579 0.832092 0.846097 0.836960 0.836847 0.838296 0.831769 0.832207 0.836006 0.839025 0.837803 0.834571 0.830933 0.839443 0.815522 0.775902 0.781417 0.779649 0.769857 0.770917 0.729027 0.709035 0.696240 0.684887 0.683086 0.640797 0.639311 0.623441 0.623119 0.627072 0.611724 0.587607 0.597015 0.597604 0.561847 0.544570 0.525917 0.519014 0.477404 0.497140 0.495506 0.495665 0.482962 0.465670 0.448986 0.471668 0.471733 0.479418 0.476040 0.483068 0.481252 0.470981 0.454649 0.455336 0.452075 0.454759 0.441249 0.446092 0.385703 0.333513 0.328991 0.309775 0.277412 0.204370 0.168153 0.154020 0.152135 0.163125 0.117316 0.103139 0.101408 0.120590 0.159791 0.112138 0.090654 0.096650 0.085535 0.103607 0.059086 0.038477 0.041422 0.051060 0.024833 0.021523 -0.036798 -0.081739 -0.085526 -0.082765 -0.100106 -0.079012 -0.107513 -0.119790 -0.124778 -0.100169 -0.142731 -0.138818 -0.116780 -0.107765 -0.107987 -0.125009 -0.220266 -0.085924 -0.079295 -0.078302 -0.138585 -0.142697 -0.146414 -0.161297 -0.166235 -0.195398 -0.228589 -0.253421 -0.243840 -0.313427 -0.288360 -0.266068 -0.271064 -0.247492 -0.251365 -0.223189 -0.225992 -0.191878 -0.202851 -0.209193 -0.196275 -0.194012 -0.204865 -0.204992 -0.220774 -0.195330 -0.196717 -0.160127 -0.144680 -0.143412 -0.149011 -0.068840 -0.059721 -0.054764 -0.042972 -0.053730 -0.028374 -0.038622 -0.018744 0.011396 0.019528 0.030836 -0.024971 -0.001426 -0.017133 -0.012568 0.039845 0.039845 0.039845 0.039845 0.039845 0.039845 0.039845 0.039845 0.039845 0.044435 0.044435 0.044435 0.044435 0.044435 0.044435 0.044435 0.044435 0.044435 0.035371 0.035371 0.035371 0.035371 0.035371 0.035371 0.035371 0.035371 0.035371 0.035371 0.035371 0.035371
0.000000 0.000000 0.000000 0.000000 0.000000 0.000000 0.000000 0.000000 0.000000 0.000000 0.000000 0.000000 0.000000 0.000000 0.000000 0.000000 0.000000 0.000000 0.000000 0.000000 0.000000 9401.000000 0.000000 0.000000 0.000000 0.000000 0.000000 0.000000 0.000000 0.000000 0.000000 0.000000 0.000000 0.000000 0.000000 0.000000 0.000000 0.000000 0.000000 0.000000 0.000000 0.000000 0.000000 0.000000 0.000000 0.000000 0.000000 0.000000 0.000000 0.000000 0.000000 0.000000 0.181818 0.181818 0.199007 0.199007 0.199007 0.199007 0.199007 0.199007 0.199007 0.199007 0.199007 0.199007 0.199007 0.199007 0.199007 0.199007 0.199007 0.199007 0.199007 0.199007 0.199007 0.199007 0.199007 0.199007 0.199007 0.199007 0.199007 0.199007 0.199007 0.199007 0.199007 0.199007 0.199007 0.199007 0.199007 0.199007 0.199007 0.199007 0.199007 0.199007 0.199007 0.199007 0.199007 0.234082 0.234082 0.234082 0.234082 0.234082 0.234082 0.234082 0.234082 0.234082 0.234082 0.234082 0.234082 0.234082 0.234082 0.234082 0.234082 0.234082 0.234082 0.234082 0.234082 0.234082 0.234082 0.234082 0.234082 0.234082 0.234082 0.234082 0.244339 0.244339 0.244339 0.244339 0.244339 0.244339 0.244339 0.244339 0.244339 0.244339 0.244339 0.244339 0.244339 0.244339 0.244339 0.244339 0.244339 0.244339 0.244339 0.244339 0.244339 0.244339 0.244339 0.256074 0.256074 0.256074 0.256074 0.256074 0.256074 0.256074 0.256074 0.256074 0.256074 0.256074 0.256074 0.256074 0.256074 0.256074 0.256074 0.256074 0.256074 0.256074 0.256074 0.256074 0.256074 0.256074 0.256074 0.256074 0.256074 0.256074 0.256074 0.256074 0.256074 0.256074 0.256074 0.256074 0.256074 0.256074 0.256074 0.256074 0.269680 0.269680 0.269680 0.269680 0.269680 0.269680 0.269680 0.269680 0.269680 0.269680 0.269680 0.269680 0.269680 0.269680 0.269680 0.264906 0.264906 0.264906 0.264906 0.264906 0.264906 0.264906 0.264906 0.264906 0.264906 0.264906 0.264906 0.264906 0.264906 0.264906 0.264906 0.264906 0.264906 0.264906 0.264906 0.264906 0.264906 0.264906 0.264906 0.264906 0.264906 0.264906 0.264906 0.264906 0.264906 0.264906 0.264906 0.264906 0.264906 0.264906 0.264906 0.264906 0.264906 0.264906 0.264906 0.264906 0.264906 0.269680 0.269680 0.269680 0.269680 0.269680 0.269680 0.269680 0.269680 0.269680 0.269680 0.269680 0.269680 0.264906 0.264906 0.264906 0.264906 0.264906 0.264906 0.264906 0.264906 0.264906 0.264906 0.264906 0.264906 0.269680 0.269680 0.269680 0.269680 0.269680 0.269680 0.269680 0.269680 0.269680 0.269680 0.269680 0.274721 0.274721 0.274721 0.274721 0.274721 0.274721 0.274721 0.274721 0.274721 0.274721 0.256074 0.256074 0.256074 0.256074 0.256074 0.256074 0.256074 0.256074 0.256074 0.256074 0.256074 0.264906 0.264906 0.264906 0.264906 0.264906 0.264906 0.264906 0.264906 0.264906 0.264906 0.260378 0.260378 0.260378 0.260378 0.260378 0.260378 0.260378 0.260378 0.260378 0.260378 0.264906 0.264906 0.264906 0.264906 0.264906 0.264906 0.264906 0.264906 0.264906 0.260378 0.260378 0.260378 0.260378 0.260378 0.260378 0.260378 0.260378 0.260378 0.256074 0.256074 0.256074 0.256074 0.256074 0.256074 0.256074 0.256074 0.256074 0.251976 0.251976 0.251976 0.251976 0.251976 0.251976 0.251976 0.251976 0.251976 0.264906 0.264906 0.264906 0.264906 0.264906 0.264906 0.264906 0.264906 0.264906 0.264906 0.264906 0.264906
