# Output from CTFFind version 4.1.9, run on 2019-11-03 18:52:40
# Input file: stack15_ub_averaged_1000.mrc ; Number of micrographs: 1
# Pixel size: 3.000 Angstroms ; acceleration voltage: 300.0 keV ; spherical aberration: 0.00 mm ; amplitude contrast: 0.07
# Box size: 512 pixels ; min. res.: 30.0 Angstroms ; max. res.: 5.0 Angstroms ; min. def.: 5000.0 um; max. def. 50000.0 um; num. frames averaged: 1
# 6 lines per micrograph: #1 - spatial frequency (1/Angstroms); #2 - 1D rotational average of spectrum (assuming no astigmatism); #3 - 1D rotational average of spectrum; #4 - CTF fit; #5 - cross-correlation between spectrum and CTF fit; #6 - 2sigma of expected cross correlation of noise
0.000000 0.000651 0.001302 0.001953 0.002604 0.003255 0.003906 0.004557 0.005208 0.005859 0.006510 0.007161 0.007812 0.008464 0.009115 0.009766 0.010417 0.011068 0.011719 0.012370 0.013021 0.013672 0.014323 0.014974 0.015625 0.016276 0.016927 0.017578 0.018229 0.018880 0.019531 0.020182 0.020833 0.021484 0.022135 0.022786 0.023438 0.024089 0.024740 0.025391 0.026042 0.026693 0.027344 0.027995 0.028646 0.029297 0.029948 0.030599 0.031250 0.031901 0.032552 0.033203 0.033854 0.034505 0.035156 0.035807 0.036458 0.037109 0.037760 0.038411 0.039062 0.039714 0.040365 0.041016 0.041667 0.042318 0.042969 0.043620 0.044271 0.044922 0.045573 0.046224 0.046875 0.047526 0.048177 0.048828 0.049479 0.050130 0.050781 0.051432 0.052083 0.052734 0.053385 0.054036 0.054688 0.055339 0.055990 0.056641 0.057292 0.057943 0.058594 0.059245 0.059896 0.060547 0.061198 0.061849 0.062500 0.063151 0.063802 0.064453 0.065104 0.065755 0.066406 0.067057 0.067708 0.068359 0.069010 0.069661 0.070312 0.070964 0.071615 0.072266 0.072917 0.073568 0.074219 0.074870 0.075521 0.076172 0.076823 0.077474 0.078125 0.078776 0.079427 0.080078 0.080729 0.081380 0.082031 0.082682 0.083333 0.083984 0.084635 0.085286 0.085938 0.086589 0.087240 0.087891 0.088542 0.089193 0.089844 0.090495 0.091146 0.091797 0.092448 0.093099 0.093750 0.094401 0.095052 0.095703 0.096354 0.097005 0.097656 0.098307 0.098958 0.099609 0.100260 0.100911 0.101562 0.102214 0.102865 0.103516 0.104167 0.104818 0.105469 0.106120 0.106771 0.107422 0.108073 0.108724 0.109375 0.110026 0.110677 0.111328 0.111979 0.112630 0.113281 0.113932 0.114583 0.115234 0.115885 0.116536 0.117188 0.117839 0.118490 0.119141 0.119792 0.120443 0.121094 0.121745 0.122396 0.123047 0.123698 0.124349 0.125000 0.125651 0.126302 0.126953 0.127604 0.128255 0.128906 0.129557 0.130208 0.130859 0.131510 0.132161 0.132812 0.133464 0.134115 0.134766 0.135417 0.136068 0.136719 0.137370 0.138021 0.138672 0.139323 0.139974 0.140625 0.141276 0.141927 0.142578 0.143229 0.143880 0.144531 0.145182 0.145833 0.146484 0.147135 0.147786 0.148438 0.149089 0.149740 0.150391 0.151042 0.151693 0.152344 0.152995 0.153646 0.154297 0.154948 0.155599 0.156250 0.156901 0.157552 0.158203 0.158854 0.159505 0.160156 0.160807 0.161458 0.162109 0.162760 0.163411 0.164062 0.164714 0.165365 0.166016 0.166667 0.167318 0.167969 0.168620 0.169271 0.169922 0.170573 0.171224 0.171875 0.172526 0.173177 0.173828 0.174479 0.175130 0.175781 0.176432 0.177083 0.177734 0.178385 0.179036 0.179688 0.180339 0.180990 0.181641 0.182292 0.182943 0.183594 0.184245 0.184896 0.185547 0.186198 0.186849 0.187500 0.188151 0.188802 0.189453 0.190104 0.190755 0.191406 0.192057 0.192708 0.193359 0.194010 0.194661 0.195312 0.195964 0.196615 0.197266 0.197917 0.198568 0.199219 0.199870 0.200521 0.201172 0.201823 0.202474 0.203125 0.203776 0.204427 0.205078 0.205729 0.206380 0.207031 0.207682 0.208333 0.208984 0.209635 0.210286 0.210938 0.211589 0.212240 0.212891 0.213542 0.214193 0.214844 0.215495 0.216146 0.216797 0.217448 0.218099 0.218750 0.219401 0.220052 0.220703 0.221354 0.222005 0.222656 0.223307 0.223958 0.224609 0.225260 0.225911 0.226562 0.227214 0.227865 0.228516 0.229167 0.229818 0.230469 0.231120 0.231771 0.232422 0.233073 0.233724 0.234375 0.235026 0.235677
       0.43976        0.43976        0.43976        0.43976        0.43976        0.43976        0.43976        0.43976        0.43976        0.43976        0.43976        0.43976        0.43976        0.43976        0.43976        0.43976        0.43976        0.43976        0.43976        0.43976        0.43976        0.43976        0.43976        0.43976        0.43976        0.43976        0.43976        0.43976        0.43976        0.43976        0.43976        0.43976        0.43976        0.43976        0.43976        0.43976        0.43976        0.43976        0.43976        0.43976        0.43976        0.43976        0.43976        0.43976        0.43976        0.43976        0.43976        0.43976        0.43976        0.43976        0.43976        0.13751       -0.25679       -0.26072       -0.20779       -0.17148       -0.11382       -0.14769       -0.07870        0.06584       -0.01179        0.13962        0.19310        0.26421        0.18287        0.24052        0.21501        0.23838        0.32400        0.34652        0.35647        0.28967        0.37449        0.39873        0.46016        0.36476        0.35819        0.29815        0.39873        0.27574        0.33562        0.40654        0.41228        0.53657        0.38809        0.51036        0.49465        0.48197        0.43823        0.39801        0.44128        0.46288        0.31981        0.40164        0.42518        0.48344        0.44281        0.47031        0.36080        0.32615        0.44791        0.43173        0.51648        0.46866        0.48479        0.45610        0.50609        0.44331        0.44540        0.40247        0.41797        0.50359        0.44450        0.43028        0.39282        0.43635        0.42030        0.46640        0.46099        0.44602        0.42833        0.44261        0.47685        0.48998        0.38867        0.39804        0.47329        0.49005        0.40908        0.38890        0.37817        0.37719        0.48601        0.49125        0.42575        0.43035        0.44587        0.40023        0.43071        0.44807        0.46808        0.48597        0.46338        0.49166        0.38867        0.40067        0.41321        0.50510        0.45084        0.39337        0.45050        0.47105        0.52943        0.51702        0.46230        0.48658        0.46760        0.45135        0.51039        0.45465        0.46279        0.45377        0.48757        0.43966        0.43769        0.44797        0.45821        0.46887        0.46517        0.45842        0.43559        0.47260        0.44517        0.40380        0.45972        0.49067        0.46298        0.49540        0.52045        0.54814        0.48846        0.50569        0.46397        0.45996        0.44179        0.46829        0.45044        0.51076        0.49741        0.42374        0.42600        0.45444        0.47032        0.48582        0.44449        0.40725        0.41255        0.39580        0.48062        0.47924        0.43639        0.48622        0.46403        0.43139        0.49976        0.46422        0.42075        0.45187        0.47171        0.49428        0.47530        0.47086        0.45562        0.45771        0.52666        0.46785        0.48875        0.48048        0.48930        0.44360        0.44257        0.45304        0.45170        0.40893        0.42065        0.44865        0.42464        0.46012        0.41519        0.43728        0.41803        0.44998        0.46495        0.43634        0.47050        0.36479        0.42384        0.43077        0.39862        0.42067        0.40473        0.42192        0.42935        0.39332        0.41040        0.45520        0.44860        0.46271        0.47289        0.36525        0.40323        0.43463        0.38962        0.43065        0.49002        0.39343        0.42123        0.38284        0.39320        0.39250        0.45287        0.44338        0.40092        0.36881        0.42851        0.42279        0.37379        0.36694        0.40593        0.48040        0.43839        0.42933        0.37783        0.47696        0.44077        0.41691        0.42635        0.44346        0.41742        0.43305        0.43241        0.35953        0.41380        0.42954        0.41853        0.40007        0.39856        0.43174        0.42203        0.40579        0.41925        0.43218        0.46026        0.36716        0.36709        0.39293        0.45313        0.41031        0.42342        0.43687        0.40385        0.40859        0.40630        0.38851        0.36536        0.39529        0.38830        0.35537        0.38305        0.41105        0.37089        0.38294        0.40662        0.40637        0.38816        0.32411        0.34287        0.39885        0.40347        0.37395        0.39118        0.37577        0.37686        0.41058        0.33852        0.42306        0.43289        0.43398        0.31531        0.33152        0.38144        0.39399        0.38884        0.38180        0.45902        0.43679        0.38052        0.40918        0.40024        0.34505        0.33014        0.34784        0.31038        0.35819        0.26287        0.36688        0.28878        0.38659        0.41314        0.36066        0.33683        0.34961        0.35689        0.35220        0.37392        0.45432        0.23669        0.07993        0.07491        0.02357       -0.05084       -0.56720       -0.96193
0.439757 0.439757 0.439757 0.439757 0.439757 0.439757 0.439757 0.439757 0.439757 0.439757 0.439757 0.439757 0.439757 0.439757 0.439757 0.439757 0.439757 0.439757 0.439757 0.439757 0.439757 0.439757 0.439757 0.439757 0.439757 0.439757 0.439757 0.439757 0.439757 0.439757 0.439757 0.439757 0.439757 0.439757 0.439757 0.439757 0.439757 0.439757 0.439757 0.439757 0.439757 0.439757 0.439757 0.439757 0.439757 0.439757 0.439757 0.439757 0.439757 0.439757 0.439757 0.212286 -0.266288 -0.263997 -0.198689 -0.196319 -0.127879 -0.147301 -0.060009 0.055013 0.021238 0.066938 0.205723 0.273032 0.207993 0.211006 0.188859 0.210968 0.384223 0.339645 0.332083 0.303057 0.363822 0.386282 0.461515 0.377103 0.367703 0.299173 0.389588 0.302284 0.295119 0.411719 0.404970 0.517375 0.371589 0.540372 0.478930 0.467303 0.496429 0.346805 0.459630 0.473389 0.329684 0.455086 0.347922 0.498293 0.441786 0.473455 0.411915 0.276149 0.413153 0.478000 0.477400 0.454713 0.486486 0.455612 0.501608 0.456083 0.470499 0.435730 0.328288 0.549541 0.418322 0.478952 0.389762 0.407780 0.448619 0.405843 0.511593 0.450629 0.447248 0.437887 0.450242 0.523908 0.401537 0.339123 0.472135 0.499090 0.402304 0.424601 0.368900 0.323225 0.502136 0.479830 0.455955 0.407751 0.471408 0.328176 0.491155 0.444785 0.424232 0.484329 0.511221 0.456550 0.455040 0.402831 0.355724 0.504199 0.475298 0.414095 0.391552 0.495113 0.480236 0.551972 0.458642 0.506114 0.526207 0.373495 0.491396 0.481428 0.458717 0.416600 0.550699 0.445012 0.427868 0.409287 0.452747 0.493284 0.462202 0.439654 0.467998 0.474229 0.406132 0.472641 0.384529 0.553500 0.411669 0.503401 0.489119 0.525298 0.542950 0.503936 0.444177 0.478433 0.469040 0.420569 0.489007 0.467734 0.549902 0.417376 0.434116 0.452903 0.418810 0.474613 0.510518 0.441363 0.395484 0.360098 0.466699 0.468178 0.458085 0.465732 0.478167 0.440385 0.480015 0.472103 0.474287 0.382428 0.506781 0.429391 0.542947 0.436158 0.476024 0.446198 0.467261 0.586118 0.416179 0.487203 0.470513 0.474201 0.444303 0.463492 0.444765 0.417992 0.417107 0.439633 0.448202 0.435026 0.442717 0.416344 0.445044 0.419124 0.431022 0.459364 0.486588 0.410966 0.363446 0.451376 0.409238 0.421814 0.417615 0.395572 0.422970 0.403543 0.397750 0.434642 0.462519 0.456155 0.477490 0.427834 0.359560 0.421760 0.417877 0.386085 0.457701 0.479422 0.380999 0.417859 0.395861 0.368010 0.408855 0.439611 0.454426 0.387184 0.375341 0.432358 0.421988 0.372751 0.348805 0.447726 0.456494 0.457737 0.427127 0.349561 0.475518 0.432432 0.418644 0.409183 0.463342 0.433860 0.397637 0.451416 0.326940 0.449116 0.420338 0.427541 0.386320 0.410021 0.439303 0.414405 0.390575 0.432964 0.424690 0.463077 0.350130 0.381879 0.387300 0.488028 0.356370 0.427147 0.466745 0.407673 0.443305 0.399675 0.362157 0.384750 0.352014 0.380261 0.406392 0.361499 0.430867 0.349056 0.411179 0.401691 0.430796 0.364251 0.335674 0.322841 0.419616 0.398629 0.379097 0.373405 0.344981 0.437304 0.394778 0.304536 0.477873 0.411713 0.444265 0.271944 0.340110 0.417392 0.344975 0.436530 0.367997 0.457183 0.407026 0.389817 0.393003 0.408593 0.371715 0.314316 0.333965 0.283921 0.381953 0.133495 0.415918 0.291854 0.353956 0.444915 0.320138 0.339593 0.354286 0.330547 0.413602 0.285387 0.454778 0.176556 0.100941 -0.046361 0.035316 -0.046907 -0.961927
0.072396 0.072830 0.074133 0.076305 0.079344 0.083250 0.088022 0.093660 0.100162 0.107525 0.115747 0.124825 0.134756 0.145536 0.157158 0.169617 0.182905 0.197014 0.211933 0.227651 0.244155 0.261429 0.279457 0.298217 0.317689 0.337848 0.358666 0.380113 0.402155 0.424755 0.447873 0.471462 0.495476 0.519861 0.544561 0.569513 0.594651 0.619904 0.645197 0.670448 0.695571 0.720476 0.745065 0.769238 0.792888 0.815904 0.838170 0.859565 0.879964 0.899240 0.917258 0.933883 0.948977 0.962399 0.974007 0.983658 0.991209 0.996517 0.999442 0.999846 0.997595 0.992561 0.984619 0.973655 0.959561 0.942242 0.921613 0.897602 0.870152 0.839222 0.804789 0.766850 0.725421 0.680542 0.632276 0.580712 0.525962 0.468170 0.407506 0.344167 0.278385 0.210416 0.140552 0.069111 0.003558 0.077076 0.151038 0.225012 0.298540 0.371145 0.442326 0.511570 0.578348 0.642123 0.702353 0.758496 0.810015 0.856383 0.897091 0.931650 0.959603 0.980525 0.994035 0.999800 0.997541 0.987043 0.968157 0.940808 0.905000 0.860821 0.808450 0.748153 0.680294 0.605332 0.523821 0.436412 0.343850 0.246966 0.146681 0.043991 0.060036 0.164273 0.267542 0.368627 0.466291 0.559287 0.646379 0.726355 0.798048 0.860355 0.912254 0.952825 0.981269 0.996924 0.999285 0.988018 0.962975 0.924203 0.871958 0.806709 0.729141 0.640153 0.540860 0.432577 0.316815 0.195255 0.069739 0.057766 0.185187 0.310385 0.431183 0.545412 0.650945 0.745742 0.827892 0.895654 0.947502 0.982162 0.998649 0.996300 0.974801 0.934210 0.874974 0.797930 0.704312 0.595737 0.474188 0.341987 0.201752 0.056362 0.091106 0.237439 0.379352 0.513564 0.636878 0.746257 0.838907 0.912353 0.964511 0.993763 0.999006 0.979709 0.935943 0.868406 0.778430 0.667965 0.539557 0.396297 0.241759 0.079920 0.084936 0.248328 0.405695 0.552530 0.684505 0.797611 0.888283 0.953527 0.991028 0.999246 0.977489 0.925967 0.845816 0.739095 0.608754 0.458566 0.293038 0.117283 0.063126 0.242324 0.414345 0.573323 0.713697 0.830407 0.919097 0.976290 0.999535 0.987536 0.940233 0.858846 0.745870 0.605024 0.441153 0.260072 0.068389 0.126744 0.317872 0.497534 0.658552 0.794330 0.899133 0.968351 0.998718 0.988492 0.937568 0.847541 0.721681 0.564848 0.383332 0.184615 0.022908 0.230287 0.428386 0.608295 0.761734 0.881453 0.961593 0.997993 0.988440 0.932823 0.833200 0.693760 0.520687 0.321906 0.106753 0.114447 0.330870 0.531713 0.706747 0.846847 0.944490 0.994187 0.992824 0.939887 0.837561 0.690688 0.506571 0.294658 0.066071 0.166944 0.391672 0.595622 0.767224 0.896512 0.975731 0.999832 0.966837 0.878026 0.737954 0.554262 0.337301 0.099583 0.144911 0.381541 0.595893 0.774650 0.906456 0.982668 0.997956 0.950732 0.843329 0.681960 0.476403 0.239460 0.013813 0.267026 0.503523 0.707464 0.864929 0.964881 0.999988 0.967219 0.868143 0.708937 0.500051 0.255584 0.007619 0.271127 0.516175 0.725022 0.882250 0.975953 0.998671 0.948057 0.827158 0.644310 0.412627 0.149124 0.126501 0.393319 0.630739 0.820132 0.946319 0.998835 0.972866 0.869748 0.696995 0.467831 0.200236 0.084403 0.362994 0.612586 0.812276 0.945013 0.999088 0.969251 0.857282 0.671989 0.428606 0.147594 0.147015 0.429653 0.675422 0.862320 0.973256 0.997672 0.932632 0.783238 0.562332 0.289476 0.010714 0.310750 0.582758 0.801097 0.944807 0.999687 0.959780 0.828110 0.616558 0.344899 0.039014 0.271501 0.556193
1.000000 1.000000 1.000000 1.000000 1.000000 1.000000 1.000000 1.000000 1.000000 1.000000 1.000000 1.000000 1.000000 1.000000 1.000000 1.000000 1.000000 1.000000 1.000000 1.000000 1.000000 1.000000 1.000000 1.000000 1.000000 1.000000 1.000000 1.000000 1.000000 1.000000 1.000000 1.000000 1.000000 1.000000 1.000000 1.000000 1.000000 1.000000 1.000000 1.000000 1.000000 1.000000 1.000000 1.000000 1.000000 1.000000 1.000000 1.000000 1.000000 1.000000 1.000000 1.000000 -0.205257 -0.205257 -0.205257 -0.205257 -0.205257 -0.205257 -0.205257 -0.267718 -0.267718 -0.267718 -0.267718 -0.267718 -0.267718 -0.267718 -0.267718 -0.267718 -0.267718 -0.267718 -0.267718 -0.267718 -0.267718 -0.267718 -0.267718 -0.267718 -0.267718 -0.267718 -0.267718 -0.267718 -0.267718 -0.267718 -0.267718 -0.267718 -0.267718 -0.267718 -0.267718 -0.267718 -0.267718 -0.267718 -0.267718 -0.267718 -0.267718 -0.267718 -0.267718 -0.267718 -0.267718 -0.267718 -0.267718 -0.267718 -0.267718 -0.267718 -0.267718 -0.267718 -0.200998 -0.155486 -0.098944 -0.103916 -0.091590 -0.091247 -0.086373 -0.089782 -0.090045 -0.085341 -0.093622 -0.085311 -0.070096 -0.093088 -0.076994 -0.056400 -0.051755 -0.075156 -0.047281 -0.029559 -0.006359 0.019621 0.048600 0.055479 0.048275 0.081735 0.069331 0.059929 0.073864 0.068784 0.064887 0.062012 0.097687 0.104712 0.090036 0.083400 0.074197 0.070223 0.075430 0.075138 0.084547 0.087359 0.077814 0.099298 0.092597 0.090565 0.089485 0.088967 0.058745 0.100990 0.078184 0.090900 0.096517 0.106957 0.115093 0.141151 0.136292 0.134275 0.139803 0.128039 0.117294 0.132215 0.103150 0.074966 0.060879 0.072541 0.055778 0.087552 0.079097 0.089523 0.136543 0.132102 0.155411 0.154568 0.157460 0.135293 0.141916 0.139550 0.122649 0.132862 0.100520 0.121027 0.124783 0.132377 0.119133 0.102036 0.133859 0.144439 0.169434 0.172665 0.200530 0.187956 0.186268 0.170029 0.165949 0.136088 0.161151 0.201085 0.214904 0.221628 0.238239 0.226153 0.237349 0.236329 0.233353 0.247843 0.232745 0.215566 0.186348 0.162233 0.156759 0.186461 0.204167 0.187077 0.213647 0.264037 0.202823 0.229095 0.269407 0.285066 0.251346 0.185312 0.191833 0.197294 0.215409 0.200178 0.200503 0.229510 0.260043 0.252006 0.246186 0.247223 0.240984 0.253765 0.256844 0.232927 0.191435 0.197404 0.199501 0.174275 0.203158 0.217546 0.200643 0.238546 0.219338 0.204178 0.193849 0.159546 0.192949 0.176147 0.152197 0.114210 0.092767 0.083105 0.082930 0.079124 0.085435 0.091818 0.125461 0.111714 0.063903 0.126994 0.158846 0.164626 0.163788 0.135111 0.129419 0.136935 0.130201 0.136467 0.141049 0.167153 0.214315 0.216174 0.203106 0.168524 0.173344 0.177331 0.193217 0.201789 0.199730 0.232388 0.300915 0.318941 0.277263 0.262821 0.243422 0.258281 0.279022 0.269742 0.256196 0.231956 0.215906 0.262386 0.266282 0.268769 0.251072 0.286323 0.325537 0.302676 0.285942 0.295015 0.289211 0.307539 0.318114 0.319270 0.359706 0.296213 0.269536 0.231828 0.285105 0.253922 0.268655 0.231126 0.211083 0.206823 0.211204 0.208381 0.228752 0.220747 0.221122 0.239987 0.184263 0.168950 0.187346 0.223737 0.268724 0.246478 0.248807 0.248807 0.248807 0.216380 0.216380 0.216380 0.216380 0.216380 0.216380 0.216380 0.216380 0.216380 0.216380 0.244003 0.244003 0.244003 0.244003 0.244003 0.244003 0.244003 0.244003 0.244003 0.244003 0.244003 0.244003 0.244003 0.244003 0.244003 0.244003 0.244003 0.244003
0.000000 0.000000 0.000000 0.000000 0.000000 0.000000 0.000000 0.000000 0.000000 0.000000 0.000000 0.000000 0.000000 0.000000 0.000000 0.000000 0.000000 0.000000 0.000000 0.000000 0.000000 0.000000 0.000000 0.000000 0.000000 0.000000 0.000000 0.000000 0.000000 0.000000 0.000000 0.000000 0.000000 0.000000 0.000000 0.000000 0.000000 0.000000 0.000000 0.000000 0.000000 0.000000 0.000000 0.000000 0.000000 0.000000 0.000000 0.000000 0.000000 0.000000 0.000000 0.000000 0.173422 0.173422 0.173422 0.173422 0.173422 0.173422 0.173422 0.189832 0.189832 0.189832 0.189832 0.189832 0.189832 0.189832 0.189832 0.189832 0.189832 0.189832 0.189832 0.189832 0.189832 0.189832 0.189832 0.189832 0.189832 0.189832 0.189832 0.189832 0.189832 0.189832 0.189832 0.189832 0.189832 0.189832 0.189832 0.189832 0.189832 0.189832 0.189832 0.189832 0.189832 0.189832 0.189832 0.189832 0.189832 0.189832 0.189832 0.189832 0.189832 0.189832 0.189832 0.189832 0.222222 0.222222 0.222222 0.222222 0.222222 0.222222 0.222222 0.222222 0.222222 0.222222 0.222222 0.222222 0.222222 0.222222 0.222222 0.222222 0.222222 0.222222 0.222222 0.222222 0.222222 0.222222 0.222222 0.222222 0.222222 0.222222 0.222222 0.222222 0.222222 0.222222 0.234082 0.234082 0.234082 0.234082 0.234082 0.234082 0.234082 0.234082 0.234082 0.234082 0.234082 0.234082 0.234082 0.234082 0.234082 0.234082 0.234082 0.234082 0.234082 0.234082 0.234082 0.234082 0.234082 0.234082 0.234082 0.244339 0.244339 0.244339 0.244339 0.244339 0.244339 0.244339 0.244339 0.244339 0.244339 0.244339 0.244339 0.244339 0.244339 0.244339 0.244339 0.244339 0.244339 0.244339 0.244339 0.244339 0.248069 0.248069 0.248069 0.248069 0.248069 0.248069 0.248069 0.248069 0.248069 0.248069 0.248069 0.248069 0.248069 0.248069 0.248069 0.248069 0.248069 0.248069 0.248069 0.248069 0.248069 0.248069 0.248069 0.248069 0.248069 0.248069 0.248069 0.248069 0.248069 0.248069 0.248069 0.248069 0.248069 0.248069 0.248069 0.248069 0.248069 0.256074 0.256074 0.256074 0.256074 0.256074 0.256074 0.256074 0.256074 0.256074 0.256074 0.256074 0.256074 0.256074 0.256074 0.256074 0.256074 0.256074 0.256074 0.256074 0.256074 0.256074 0.256074 0.256074 0.256074 0.256074 0.256074 0.256074 0.256074 0.256074 0.256074 0.256074 0.256074 0.256074 0.256074 0.256074 0.256074 0.256074 0.256074 0.256074 0.256074 0.256074 0.256074 0.256074 0.256074 0.256074 0.260378 0.260378 0.260378 0.260378 0.260378 0.260378 0.260378 0.260378 0.260378 0.260378 0.260378 0.260378 0.260378 0.256074 0.256074 0.256074 0.256074 0.256074 0.256074 0.256074 0.256074 0.256074 0.256074 0.256074 0.256074 0.256074 0.248069 0.248069 0.248069 0.248069 0.248069 0.248069 0.248069 0.248069 0.248069 0.248069 0.248069 0.248069 0.248069 0.264906 0.264906 0.264906 0.264906 0.264906 0.264906 0.264906 0.264906 0.264906 0.264906 0.264906 0.248069 0.248069 0.248069 0.248069 0.248069 0.248069 0.248069 0.248069 0.248069 0.248069 0.248069 0.248069 0.251976 0.251976 0.251976 0.251976 0.251976 0.251976 0.251976 0.251976 0.251976 0.251976 0.251976 0.260378 0.260378 0.260378 0.260378 0.260378 0.260378 0.260378 0.260378 0.260378 0.260378 0.244339 0.244339 0.244339 0.244339 0.244339 0.244339 0.244339 0.244339 0.244339 0.244339 0.244339 0.244339 0.244339 0.244339 0.244339 0.244339 0.244339 0.244339
