# Output from CTFFind version 4.1.9, run on 2019-11-03 18:52:05
# Input file: stack5_ub_averaged_2000.mrc ; Number of micrographs: 1
# Pixel size: 3.000 Angstroms ; acceleration voltage: 300.0 keV ; spherical aberration: 0.00 mm ; amplitude contrast: 0.07
# Box size: 512 pixels ; min. res.: 30.0 Angstroms ; max. res.: 5.0 Angstroms ; min. def.: 5000.0 um; max. def. 50000.0 um; num. frames averaged: 1
# 6 lines per micrograph: #1 - spatial frequency (1/Angstroms); #2 - 1D rotational average of spectrum (assuming no astigmatism); #3 - 1D rotational average of spectrum; #4 - CTF fit; #5 - cross-correlation between spectrum and CTF fit; #6 - 2sigma of expected cross correlation of noise
0.000000 0.000651 0.001302 0.001953 0.002604 0.003255 0.003906 0.004557 0.005208 0.005859 0.006510 0.007161 0.007812 0.008464 0.009115 0.009766 0.010417 0.011068 0.011719 0.012370 0.013021 0.013672 0.014323 0.014974 0.015625 0.016276 0.016927 0.017578 0.018229 0.018880 0.019531 0.020182 0.020833 0.021484 0.022135 0.022786 0.023438 0.024089 0.024740 0.025391 0.026042 0.026693 0.027344 0.027995 0.028646 0.029297 0.029948 0.030599 0.031250 0.031901 0.032552 0.033203 0.033854 0.034505 0.035156 0.035807 0.036458 0.037109 0.037760 0.038411 0.039062 0.039714 0.040365 0.041016 0.041667 0.042318 0.042969 0.043620 0.044271 0.044922 0.045573 0.046224 0.046875 0.047526 0.048177 0.048828 0.049479 0.050130 0.050781 0.051432 0.052083 0.052734 0.053385 0.054036 0.054688 0.055339 0.055990 0.056641 0.057292 0.057943 0.058594 0.059245 0.059896 0.060547 0.061198 0.061849 0.062500 0.063151 0.063802 0.064453 0.065104 0.065755 0.066406 0.067057 0.067708 0.068359 0.069010 0.069661 0.070312 0.070964 0.071615 0.072266 0.072917 0.073568 0.074219 0.074870 0.075521 0.076172 0.076823 0.077474 0.078125 0.078776 0.079427 0.080078 0.080729 0.081380 0.082031 0.082682 0.083333 0.083984 0.084635 0.085286 0.085938 0.086589 0.087240 0.087891 0.088542 0.089193 0.089844 0.090495 0.091146 0.091797 0.092448 0.093099 0.093750 0.094401 0.095052 0.095703 0.096354 0.097005 0.097656 0.098307 0.098958 0.099609 0.100260 0.100911 0.101562 0.102214 0.102865 0.103516 0.104167 0.104818 0.105469 0.106120 0.106771 0.107422 0.108073 0.108724 0.109375 0.110026 0.110677 0.111328 0.111979 0.112630 0.113281 0.113932 0.114583 0.115234 0.115885 0.116536 0.117188 0.117839 0.118490 0.119141 0.119792 0.120443 0.121094 0.121745 0.122396 0.123047 0.123698 0.124349 0.125000 0.125651 0.126302 0.126953 0.127604 0.128255 0.128906 0.129557 0.130208 0.130859 0.131510 0.132161 0.132812 0.133464 0.134115 0.134766 0.135417 0.136068 0.136719 0.137370 0.138021 0.138672 0.139323 0.139974 0.140625 0.141276 0.141927 0.142578 0.143229 0.143880 0.144531 0.145182 0.145833 0.146484 0.147135 0.147786 0.148438 0.149089 0.149740 0.150391 0.151042 0.151693 0.152344 0.152995 0.153646 0.154297 0.154948 0.155599 0.156250 0.156901 0.157552 0.158203 0.158854 0.159505 0.160156 0.160807 0.161458 0.162109 0.162760 0.163411 0.164062 0.164714 0.165365 0.166016 0.166667 0.167318 0.167969 0.168620 0.169271 0.169922 0.170573 0.171224 0.171875 0.172526 0.173177 0.173828 0.174479 0.175130 0.175781 0.176432 0.177083 0.177734 0.178385 0.179036 0.179688 0.180339 0.180990 0.181641 0.182292 0.182943 0.183594 0.184245 0.184896 0.185547 0.186198 0.186849 0.187500 0.188151 0.188802 0.189453 0.190104 0.190755 0.191406 0.192057 0.192708 0.193359 0.194010 0.194661 0.195312 0.195964 0.196615 0.197266 0.197917 0.198568 0.199219 0.199870 0.200521 0.201172 0.201823 0.202474 0.203125 0.203776 0.204427 0.205078 0.205729 0.206380 0.207031 0.207682 0.208333 0.208984 0.209635 0.210286 0.210938 0.211589 0.212240 0.212891 0.213542 0.214193 0.214844 0.215495 0.216146 0.216797 0.217448 0.218099 0.218750 0.219401 0.220052 0.220703 0.221354 0.222005 0.222656 0.223307 0.223958 0.224609 0.225260 0.225911 0.226562 0.227214 0.227865 0.228516 0.229167 0.229818 0.230469 0.231120 0.231771 0.232422 0.233073 0.233724 0.234375 0.235026 0.235677
       0.35458        0.35458        0.35458        0.35458        0.35458        0.35458        0.35458        0.35458        0.35458        0.35458        0.35458        0.35458        0.35458        0.35458        0.35458        0.35458        0.35458        0.35458        0.35458        0.35458        0.35458        0.35458        0.35458        0.35458        0.35458        0.35458        0.35458        0.35458        0.35458        0.35458        0.35458        0.35458        0.35458        0.35458        0.35458        0.35458        0.35458        0.35458        0.35458        0.35458        0.35458        0.35458        0.35458        0.35458        0.35458        0.35458        0.35458        0.35458        0.35458        0.35458        0.35458        0.53645        0.89552        0.66735        0.19135        0.21644        0.03521        0.07856       -0.01692        0.04436        0.18063        0.44042        0.45316        0.23984        0.26812        0.06047        0.00654       -0.02536       -0.12926       -0.13468       -0.10626        0.03410       -0.08691       -0.05953       -0.11365       -0.20324       -0.20037       -0.31058       -0.25903       -0.26731       -0.22802       -0.26359       -0.25877       -0.30039       -0.37323       -0.29845       -0.24646       -0.12954       -0.10353       -0.00658        0.12877        0.17086        0.10294        0.28401        0.43593        0.35662        0.49104        0.65288        0.57374        0.59090        0.67582        0.59236        0.69473        0.71314        0.76224        0.63098        0.63140        0.68523        0.66856        0.50221        0.48968        0.50849        0.38287        0.29197        0.18461        0.14120        0.09451        0.02728        0.13410        0.06767        0.08590        0.07351        0.13946        0.10900        0.20507        0.26889        0.35052        0.38620        0.46484        0.56792        0.58168        0.67844        0.72822        0.63470        0.62911        0.68484        0.58088        0.48434        0.49506        0.40865        0.38112        0.32138        0.24249        0.19569        0.16447        0.16937        0.07042        0.15677        0.17555        0.14357        0.16361        0.29246        0.40451        0.42267        0.45512        0.47701        0.51761        0.59216        0.54461        0.57478        0.56252        0.49390        0.42688        0.35499        0.38497        0.29861        0.22408        0.27247        0.28522        0.23182        0.18999        0.27014        0.29683        0.31827        0.38073        0.42397        0.47477        0.47698        0.52506        0.54441        0.44645        0.42447        0.41804        0.45933        0.40611        0.28841        0.31181        0.28174        0.29392        0.29832        0.32796        0.30540        0.29878        0.35161        0.32745        0.38428        0.44838        0.47380        0.40132        0.37454        0.44064        0.42426        0.35977        0.34895        0.32807        0.34884        0.35099        0.33082        0.26691        0.33104        0.37602        0.32766        0.34585        0.41588        0.44434        0.43604        0.45239        0.39931        0.39232        0.36378        0.30334        0.30111        0.24907        0.26181        0.31767        0.30395        0.34736        0.34027        0.34832        0.36629        0.37202        0.37795        0.40916        0.40704        0.37848        0.36313        0.34108        0.33440        0.30741        0.34385        0.30780        0.30158        0.31132        0.35234        0.36603        0.38741        0.40952        0.37762        0.37241        0.34085        0.31635        0.28931        0.30208        0.28809        0.31251        0.30090        0.31979        0.31950        0.34383        0.31540        0.35586        0.33889        0.39086        0.34433        0.34571        0.29841        0.32691        0.29118        0.29815        0.28598        0.29677        0.32334        0.32312        0.32171        0.31141        0.32502        0.33647        0.37449        0.30716        0.32576        0.29305        0.33099        0.31437        0.32827        0.32703        0.33652        0.33899        0.33140        0.35065        0.37455        0.34020        0.31863        0.31080        0.34137        0.29779        0.34951        0.30767        0.32994        0.37323        0.41086        0.35187        0.38586        0.34114        0.33371        0.31195        0.33858        0.31628        0.31624        0.34458        0.29968        0.28742        0.32379        0.35330        0.30378        0.31330        0.34799        0.35542        0.26863        0.29508        0.35522        0.30038        0.22512        0.32549        0.31521        0.25376        0.27575        0.27114        0.30793        0.27193        0.23957        0.21214        0.26883        0.26915        0.25750        0.32548        0.40515        0.32823        0.27599        0.28132        0.27234        0.29739        0.25945        0.23454        0.25135        0.23416        0.27227        0.24739        0.27077        0.26418        0.28253        0.26881        0.29495        0.26941        0.18832        0.23733        0.21401        0.25515        0.21506        0.18925        0.08167        0.18448       -0.42120       -0.79969
2.969285 2.940075 2.911011 2.882093 2.853321 2.824696 2.796217 2.767885 2.739698 2.711658 2.683764 2.656016 2.628415 2.600959 2.573650 2.546488 2.519471 2.492601 2.465877 2.439299 2.412867 2.386582 2.360443 2.334450 2.308604 2.282903 2.257349 2.231941 2.206680 2.181564 2.156595 2.131772 2.107096 2.082565 2.058181 2.033943 2.009852 1.985906 1.962107 1.938454 1.914948 1.891587 1.868373 1.845305 1.822383 1.799608 1.776979 1.754496 1.732159 1.709969 1.687924 1.765876 2.518345 2.273832 1.302256 1.317999 1.161516 1.274853 0.960234 0.948835 1.141620 1.643646 1.510612 1.379786 1.184029 0.978587 0.821116 0.752243 0.580220 0.596674 0.528683 0.800712 0.617321 0.590702 0.501156 0.340468 0.298636 0.185725 0.190924 0.191323 0.193630 0.090067 0.169430 0.052419 -0.057283 0.031428 0.000389 0.214979 0.256374 0.325421 0.571160 0.647972 0.485085 0.698899 0.909474 0.913138 0.931869 1.287747 1.172412 1.053581 1.320214 1.176658 1.115082 1.255706 1.405014 1.086968 1.024157 1.189947 1.226042 0.841570 0.865566 0.859805 0.728699 0.503810 0.391286 0.243818 0.243675 -0.046043 0.179210 0.150950 0.103434 0.022567 0.209483 0.054158 0.181905 0.243987 0.483324 0.430751 0.492209 0.761004 0.665408 0.848169 0.979612 0.836835 0.683648 0.944137 0.759628 0.493310 0.557636 0.395978 0.442354 0.257450 0.090615 0.128651 -0.072814 0.025249 -0.175526 -0.084527 -0.032315 -0.063796 -0.137907 0.032521 0.273447 0.284524 0.330636 0.332172 0.414971 0.485654 0.502194 0.459833 0.435394 0.464351 0.252611 0.120800 0.255609 0.102922 -0.056311 -0.090662 0.023472 -0.036364 -0.170769 -0.069233 0.013591 -0.021346 0.104970 0.132241 0.266556 0.260528 0.270278 0.382062 0.270822 0.252419 0.160095 0.280043 0.233889 0.061155 0.015545 -0.010766 0.004521 -0.026599 0.093575 0.022533 -0.001866 0.004723 0.117837 0.036214 0.157486 0.283242 0.187739 0.046429 0.205761 0.140170 0.137746 0.017887 -0.002424 0.064620 0.046852 0.030019 -0.062401 -0.069913 0.065495 0.049326 -0.049844 0.083862 0.133607 0.207848 0.134853 0.200036 0.099455 0.088099 0.010039 -0.054478 -0.049861 -0.167882 -0.020355 -0.029959 -0.007461 0.024585 0.052922 0.046359 0.107914 0.057140 0.123138 0.129577 0.156166 0.090996 0.048823 0.084082 -0.001083 0.044265 0.023444 0.046782 -0.055879 0.048522 0.071893 0.113666 0.150699 0.160384 0.104536 0.099951 0.026655 -0.008379 -0.010551 0.001586 -0.017561 0.033507 -0.025781 0.029786 0.044618 0.028583 0.029615 0.085898 0.074798 0.174657 -0.016987 0.082034 -0.013646 0.060409 -0.045881 0.014773 -0.040570 -0.017743 0.046648 0.040451 -0.008178 0.052631 0.010250 0.081264 0.083929 -0.022266 0.010883 -0.041091 0.024346 0.040518 -0.014456 0.052594 0.013449 0.048198 0.035692 0.067150 0.083738 -0.010423 0.022993 -0.019337 0.060926 -0.060150 0.067256 -0.036341 0.014564 0.102128 0.204926 0.048568 0.111593 -0.002719 0.047204 -0.007930 0.030297 0.049450 -0.055630 0.083872 -0.053909 -0.019481 0.121033 0.073925 0.016990 0.024468 0.123872 0.068713 -0.044672 0.092448 0.094938 0.024225 -0.131453 0.072959 0.028544 -0.093000 -0.013441 0.015035 0.065033 -0.042415 -0.056053 -0.084516 0.060834 0.008576 -0.034343 0.097662 0.265641 0.064636 0.076967 0.089250 -0.002477 0.101726 0.047941 0.053051 0.035559 0.133847 0.104184 0.086115 0.211793 0.146849 0.183585 0.222800 0.177580 0.275045 0.134341 0.327095 0.332697 0.401188 0.332265 0.249436 -0.027100 0.289485 -1.215447
0.072396 0.072830 0.074133 0.076303 0.079341 0.083246 0.088017 0.093652 0.100151 0.107512 0.115731 0.124806 0.134733 0.145509 0.157127 0.169581 0.182865 0.196968 0.211882 0.227595 0.244093 0.261361 0.279382 0.298136 0.317602 0.337754 0.358565 0.380005 0.402040 0.424633 0.447744 0.471327 0.495334 0.519712 0.544405 0.569351 0.594484 0.619732 0.645020 0.670267 0.695387 0.720289 0.744876 0.769048 0.792699 0.815716 0.837985 0.859384 0.879789 0.899071 0.917098 0.933734 0.948840 0.962277 0.973901 0.983571 0.991142 0.996473 0.999424 0.999856 0.997635 0.992633 0.984726 0.973799 0.959746 0.942469 0.921884 0.897919 0.870517 0.839636 0.805255 0.767368 0.725993 0.681168 0.632956 0.581445 0.526749 0.469010 0.408396 0.345106 0.279369 0.211444 0.141618 0.070212 0.002427 0.075922 0.149867 0.223830 0.297356 0.369966 0.441162 0.510430 0.577242 0.641060 0.701345 0.757553 0.809148 0.855604 0.896410 0.931079 0.959151 0.980203 0.993852 0.999764 0.997661 0.987325 0.968606 0.941428 0.905793 0.861789 0.809589 0.749462 0.681766 0.606959 0.525594 0.438318 0.345873 0.249091 0.148888 0.046258 0.057733 0.161959 0.265243 0.366373 0.464110 0.557210 0.644436 0.724576 0.796463 0.858993 0.911141 0.951987 0.980727 0.996698 0.999390 0.988465 0.963769 0.925347 0.873448 0.808535 0.731286 0.642597 0.543574 0.435529 0.319965 0.198558 0.073145 0.054309 0.181737 0.307001 0.427928 0.542346 0.648130 0.743238 0.825754 0.893935 0.946248 0.981412 0.998433 0.996640 0.975707 0.935684 0.877002 0.800489 0.707365 0.599235 0.478071 0.346183 0.206179 0.060931 0.086493 0.232885 0.374961 0.509443 0.633131 0.742982 0.836196 0.910286 0.963159 0.993177 0.999224 0.980747 0.937798 0.871054 0.781824 0.672036 0.544217 0.401435 0.247250 0.085624 0.079171 0.242661 0.400290 0.547546 0.680096 0.793920 0.885439 0.951635 0.990169 0.999472 0.978821 0.928392 0.849286 0.743527 0.614031 0.464541 0.299533 0.124097 0.056207 0.235527 0.407903 0.567464 0.708633 0.826334 0.916181 0.974660 0.999279 0.988695 0.942799 0.862757 0.751013 0.611237 0.448226 0.267758 0.076407 0.118694 0.310101 0.490354 0.652261 0.789196 0.895391 0.966182 0.998245 0.989770 0.940584 0.852205 0.727830 0.572253 0.391698 0.193603 0.013682 0.221222 0.419888 0.600757 0.755519 0.876870 0.958886 0.997327 0.989886 0.936357 0.838695 0.700996 0.529347 0.331598 0.117025 0.104090 0.320941 0.522721 0.699161 0.841082 0.940876 0.992953 0.994079 0.943614 0.843610 0.698781 0.516315 0.305555 0.077550 0.155501 0.380898 0.586128 0.759566 0.891157 0.973027 0.999981 0.969881 0.883844 0.746256 0.564601 0.349100 0.112165 0.132293 0.369648 0.585464 0.766353 0.900844 0.980135 0.998717 0.954795 0.850495 0.691821 0.488372 0.252793 0.000038 0.253564 0.491342 0.697405 0.857701 0.961019 0.999812 0.970803 0.875303 0.719234 0.512820 0.269968 0.007384 0.256560 0.503096 0.714400 0.874898 0.972458 0.999354 0.952933 0.835933 0.656387 0.427147 0.165026 0.110415 0.378274 0.617923 0.810574 0.940818 0.997889 0.976620 0.877976 0.709104 0.482903 0.217095 0.067111 0.346681 0.598617 0.801850 0.939054 0.998166 0.973519 0.866454 0.685355 0.445074 0.165779 0.128672 0.412752 0.661483 0.852622 0.968725 0.998791 0.939382 0.795086 0.578272 0.308100 0.008912 0.291927 0.566509 0.788988 0.938038 0.998977 0.965283 0.839383 0.632594 0.364206 0.059756 0.251342 0.538620
1.000000 1.000000 1.000000 1.000000 1.000000 1.000000 1.000000 1.000000 1.000000 1.000000 1.000000 1.000000 1.000000 1.000000 1.000000 1.000000 1.000000 1.000000 1.000000 1.000000 1.000000 1.000000 1.000000 1.000000 1.000000 1.000000 1.000000 1.000000 1.000000 1.000000 1.000000 1.000000 1.000000 1.000000 1.000000 1.000000 1.000000 1.000000 1.000000 1.000000 1.000000 1.000000 1.000000 1.000000 1.000000 1.000000 1.000000 1.000000 1.000000 1.000000 1.000000 1.000000 0.830481 0.830481 0.830481 0.830481 0.830481 0.830481 0.830481 0.823705 0.823705 0.823705 0.823705 0.823705 0.823705 0.823705 0.823705 0.823705 0.823705 0.823705 0.823705 0.823705 0.823705 0.823705 0.823705 0.823705 0.823705 0.823705 0.823705 0.823705 0.823705 0.823705 0.823705 0.823705 0.823705 0.823705 0.823705 0.823705 0.823705 0.823705 0.823705 0.823705 0.823705 0.823705 0.823705 0.823705 0.823705 0.823705 0.823705 0.823705 0.823705 0.823705 0.823705 0.823705 0.938443 0.937214 0.938903 0.937856 0.934814 0.939349 0.935972 0.939472 0.940564 0.940752 0.941363 0.942137 0.943334 0.944568 0.950073 0.952099 0.952109 0.952355 0.950946 0.953102 0.950037 0.946923 0.938836 0.931232 0.927217 0.924743 0.926586 0.928104 0.926036 0.926614 0.928655 0.928946 0.925487 0.924436 0.922758 0.921519 0.919945 0.919156 0.919610 0.920777 0.920863 0.920939 0.920563 0.920479 0.920775 0.919742 0.919044 0.916239 0.918112 0.920831 0.901310 0.893369 0.887257 0.887647 0.882385 0.888239 0.888135 0.886619 0.885858 0.886302 0.886878 0.882895 0.850105 0.849190 0.843777 0.839620 0.822161 0.811250 0.809980 0.810597 0.810186 0.819117 0.822273 0.822882 0.820810 0.797114 0.783180 0.782492 0.779031 0.782974 0.784271 0.788701 0.787836 0.786647 0.781544 0.775316 0.772807 0.773702 0.761882 0.754455 0.749036 0.746438 0.746031 0.746111 0.748249 0.746814 0.751332 0.757468 0.758691 0.749769 0.743718 0.747145 0.750135 0.746382 0.742226 0.737982 0.730883 0.725210 0.717706 0.712981 0.712550 0.717341 0.715730 0.714144 0.713215 0.708532 0.671576 0.684110 0.692225 0.694867 0.709302 0.713548 0.717681 0.715363 0.707329 0.689184 0.690531 0.683339 0.675908 0.679201 0.661788 0.666116 0.665804 0.661021 0.680337 0.666543 0.659522 0.658579 0.656682 0.664860 0.632819 0.634739 0.617569 0.611738 0.593093 0.585462 0.578892 0.596548 0.579629 0.565115 0.551299 0.562011 0.561046 0.568737 0.575780 0.584983 0.586009 0.579739 0.567608 0.551401 0.544239 0.474854 0.489033 0.478086 0.465055 0.473062 0.496657 0.522501 0.508263 0.512027 0.506273 0.514337 0.502867 0.487367 0.470625 0.462119 0.424704 0.437768 0.466891 0.477908 0.472250 0.450818 0.415191 0.360733 0.351832 0.337328 0.301217 0.321738 0.342736 0.338104 0.335099 0.329558 0.274196 0.301597 0.309930 0.302871 0.309528 0.237622 0.259032 0.284780 0.280017 0.282444 0.221804 0.212159 0.225267 0.218895 0.183068 0.197990 0.225253 0.234507 0.199498 0.199286 0.197051 0.192588 0.167460 0.153043 0.148094 0.150989 0.107050 0.074835 0.077919 0.050642 0.075764 0.046332 0.070338 0.116715 0.133066 0.113806 0.136876 0.136876 0.136876 0.080153 0.080153 0.080153 0.080153 0.080153 0.080153 0.080153 0.080153 0.080153 0.080153 0.144529 0.144529 0.144529 0.144529 0.144529 0.144529 0.144529 0.144529 0.144529 0.144529 0.144529 0.144529 0.144529 0.144529 0.144529 0.144529 0.144529 0.144529
0.000000 0.000000 0.000000 0.000000 0.000000 0.000000 0.000000 0.000000 0.000000 0.000000 0.000000 0.000000 0.000000 0.000000 0.000000 0.000000 0.000000 0.000000 0.000000 0.000000 0.000000 9401.000000 0.000000 0.000000 0.000000 0.000000 0.000000 0.000000 0.000000 0.000000 0.000000 0.000000 0.000000 0.000000 0.000000 0.000000 0.000000 0.000000 0.000000 0.000000 0.000000 0.000000 0.000000 0.000000 0.000000 0.000000 0.000000 0.000000 0.000000 0.000000 0.000000 0.000000 0.173422 0.173422 0.173422 0.173422 0.173422 0.173422 0.173422 0.189832 0.189832 0.189832 0.189832 0.189832 0.189832 0.189832 0.189832 0.189832 0.189832 0.189832 0.189832 0.189832 0.189832 0.189832 0.189832 0.189832 0.189832 0.189832 0.189832 0.189832 0.189832 0.189832 0.189832 0.189832 0.189832 0.189832 0.189832 0.189832 0.189832 0.189832 0.189832 0.189832 0.189832 0.189832 0.189832 0.189832 0.189832 0.189832 0.189832 0.189832 0.189832 0.189832 0.189832 0.189832 0.222222 0.222222 0.222222 0.222222 0.222222 0.222222 0.222222 0.222222 0.222222 0.222222 0.222222 0.222222 0.222222 0.222222 0.222222 0.222222 0.222222 0.222222 0.222222 0.222222 0.222222 0.222222 0.222222 0.222222 0.222222 0.222222 0.222222 0.222222 0.222222 0.222222 0.234082 0.234082 0.234082 0.234082 0.234082 0.234082 0.234082 0.234082 0.234082 0.234082 0.234082 0.234082 0.234082 0.234082 0.234082 0.234082 0.234082 0.234082 0.234082 0.234082 0.234082 0.234082 0.234082 0.234082 0.234082 0.244339 0.244339 0.244339 0.244339 0.244339 0.244339 0.244339 0.244339 0.244339 0.244339 0.244339 0.244339 0.244339 0.244339 0.244339 0.244339 0.244339 0.244339 0.244339 0.244339 0.244339 0.248069 0.248069 0.248069 0.248069 0.248069 0.248069 0.248069 0.248069 0.248069 0.248069 0.248069 0.248069 0.248069 0.248069 0.248069 0.248069 0.248069 0.248069 0.248069 0.248069 0.248069 0.248069 0.248069 0.248069 0.248069 0.248069 0.248069 0.248069 0.248069 0.248069 0.248069 0.248069 0.248069 0.248069 0.248069 0.248069 0.248069 0.256074 0.256074 0.256074 0.256074 0.256074 0.256074 0.256074 0.256074 0.256074 0.256074 0.256074 0.256074 0.256074 0.256074 0.256074 0.256074 0.256074 0.256074 0.256074 0.256074 0.256074 0.256074 0.256074 0.256074 0.256074 0.256074 0.256074 0.256074 0.256074 0.256074 0.256074 0.256074 0.256074 0.256074 0.256074 0.256074 0.256074 0.256074 0.256074 0.256074 0.256074 0.256074 0.256074 0.256074 0.256074 0.260378 0.260378 0.260378 0.260378 0.260378 0.260378 0.260378 0.260378 0.260378 0.260378 0.260378 0.260378 0.260378 0.256074 0.256074 0.256074 0.256074 0.256074 0.256074 0.256074 0.256074 0.256074 0.256074 0.256074 0.256074 0.256074 0.248069 0.248069 0.248069 0.248069 0.248069 0.248069 0.248069 0.248069 0.248069 0.248069 0.248069 0.248069 0.248069 0.264906 0.264906 0.264906 0.264906 0.264906 0.264906 0.264906 0.264906 0.264906 0.264906 0.264906 0.248069 0.248069 0.248069 0.248069 0.248069 0.248069 0.248069 0.248069 0.248069 0.248069 0.248069 0.248069 0.251976 0.251976 0.251976 0.251976 0.251976 0.251976 0.251976 0.251976 0.251976 0.251976 0.251976 0.260378 0.260378 0.260378 0.260378 0.260378 0.260378 0.260378 0.260378 0.260378 0.260378 0.244339 0.244339 0.244339 0.244339 0.244339 0.244339 0.244339 0.244339 0.244339 0.244339 0.244339 0.244339 0.244339 0.244339 0.244339 0.244339 0.244339 0.244339
