# Output from CTFFind version 4.1.9, run on 2019-11-03 18:51:42
# Input file: stack9_ub_averaged_1000.mrc ; Number of micrographs: 1
# Pixel size: 3.000 Angstroms ; acceleration voltage: 300.0 keV ; spherical aberration: 0.00 mm ; amplitude contrast: 0.07
# Box size: 512 pixels ; min. res.: 30.0 Angstroms ; max. res.: 5.0 Angstroms ; min. def.: 5000.0 um; max. def. 50000.0 um; num. frames averaged: 1
# 6 lines per micrograph: #1 - spatial frequency (1/Angstroms); #2 - 1D rotational average of spectrum (assuming no astigmatism); #3 - 1D rotational average of spectrum; #4 - CTF fit; #5 - cross-correlation between spectrum and CTF fit; #6 - 2sigma of expected cross correlation of noise
0.000000 0.000651 0.001302 0.001953 0.002604 0.003255 0.003906 0.004557 0.005208 0.005859 0.006510 0.007161 0.007812 0.008464 0.009115 0.009766 0.010417 0.011068 0.011719 0.012370 0.013021 0.013672 0.014323 0.014974 0.015625 0.016276 0.016927 0.017578 0.018229 0.018880 0.019531 0.020182 0.020833 0.021484 0.022135 0.022786 0.023438 0.024089 0.024740 0.025391 0.026042 0.026693 0.027344 0.027995 0.028646 0.029297 0.029948 0.030599 0.031250 0.031901 0.032552 0.033203 0.033854 0.034505 0.035156 0.035807 0.036458 0.037109 0.037760 0.038411 0.039062 0.039714 0.040365 0.041016 0.041667 0.042318 0.042969 0.043620 0.044271 0.044922 0.045573 0.046224 0.046875 0.047526 0.048177 0.048828 0.049479 0.050130 0.050781 0.051432 0.052083 0.052734 0.053385 0.054036 0.054688 0.055339 0.055990 0.056641 0.057292 0.057943 0.058594 0.059245 0.059896 0.060547 0.061198 0.061849 0.062500 0.063151 0.063802 0.064453 0.065104 0.065755 0.066406 0.067057 0.067708 0.068359 0.069010 0.069661 0.070312 0.070964 0.071615 0.072266 0.072917 0.073568 0.074219 0.074870 0.075521 0.076172 0.076823 0.077474 0.078125 0.078776 0.079427 0.080078 0.080729 0.081380 0.082031 0.082682 0.083333 0.083984 0.084635 0.085286 0.085938 0.086589 0.087240 0.087891 0.088542 0.089193 0.089844 0.090495 0.091146 0.091797 0.092448 0.093099 0.093750 0.094401 0.095052 0.095703 0.096354 0.097005 0.097656 0.098307 0.098958 0.099609 0.100260 0.100911 0.101562 0.102214 0.102865 0.103516 0.104167 0.104818 0.105469 0.106120 0.106771 0.107422 0.108073 0.108724 0.109375 0.110026 0.110677 0.111328 0.111979 0.112630 0.113281 0.113932 0.114583 0.115234 0.115885 0.116536 0.117188 0.117839 0.118490 0.119141 0.119792 0.120443 0.121094 0.121745 0.122396 0.123047 0.123698 0.124349 0.125000 0.125651 0.126302 0.126953 0.127604 0.128255 0.128906 0.129557 0.130208 0.130859 0.131510 0.132161 0.132812 0.133464 0.134115 0.134766 0.135417 0.136068 0.136719 0.137370 0.138021 0.138672 0.139323 0.139974 0.140625 0.141276 0.141927 0.142578 0.143229 0.143880 0.144531 0.145182 0.145833 0.146484 0.147135 0.147786 0.148438 0.149089 0.149740 0.150391 0.151042 0.151693 0.152344 0.152995 0.153646 0.154297 0.154948 0.155599 0.156250 0.156901 0.157552 0.158203 0.158854 0.159505 0.160156 0.160807 0.161458 0.162109 0.162760 0.163411 0.164062 0.164714 0.165365 0.166016 0.166667 0.167318 0.167969 0.168620 0.169271 0.169922 0.170573 0.171224 0.171875 0.172526 0.173177 0.173828 0.174479 0.175130 0.175781 0.176432 0.177083 0.177734 0.178385 0.179036 0.179688 0.180339 0.180990 0.181641 0.182292 0.182943 0.183594 0.184245 0.184896 0.185547 0.186198 0.186849 0.187500 0.188151 0.188802 0.189453 0.190104 0.190755 0.191406 0.192057 0.192708 0.193359 0.194010 0.194661 0.195312 0.195964 0.196615 0.197266 0.197917 0.198568 0.199219 0.199870 0.200521 0.201172 0.201823 0.202474 0.203125 0.203776 0.204427 0.205078 0.205729 0.206380 0.207031 0.207682 0.208333 0.208984 0.209635 0.210286 0.210938 0.211589 0.212240 0.212891 0.213542 0.214193 0.214844 0.215495 0.216146 0.216797 0.217448 0.218099 0.218750 0.219401 0.220052 0.220703 0.221354 0.222005 0.222656 0.223307 0.223958 0.224609 0.225260 0.225911 0.226562 0.227214 0.227865 0.228516 0.229167 0.229818 0.230469 0.231120 0.231771 0.232422 0.233073 0.233724 0.234375 0.235026 0.235677
       0.32732        0.32732        0.32732        0.32732        0.32732        0.32732        0.32732        0.32732        0.32732        0.32732        0.32732        0.32732        0.32732        0.32732        0.32732        0.32732        0.32732        0.32732        0.32732        0.32732        0.32732        0.32732        0.32732        0.32732        0.32732        0.32732        0.32732        0.32732        0.32732        0.32732        0.32732        0.32732        0.32732        0.32732        0.32732        0.32732        0.32732        0.32732        0.32732        0.32732        0.32732        0.32732        0.32732        0.32732        0.32732        0.32732        0.32732        0.32732        0.32732        0.32732        0.32732        0.67522        0.97302        0.37153        0.08415       -0.21755       -0.23303       -0.40988       -0.56360       -0.49399       -0.51960       -0.43073       -0.50778       -0.44503       -0.49552       -0.61691       -0.70724       -0.79105       -0.83156       -0.78426       -0.77918       -0.72620       -0.81615       -0.69793       -0.70103       -0.60173       -0.47884       -0.43115       -0.43058       -0.19893       -0.07451       -0.04562        0.10771        0.20492        0.30853        0.45591        0.58001        0.57267        0.62331        0.63200        0.57177        0.62512        0.66064        0.58685        0.47094        0.47107        0.42500        0.39222        0.29806        0.13026        0.11377       -0.01256       -0.00460       -0.06589       -0.07636       -0.01394        0.04430        0.16060        0.14863        0.24516        0.35397        0.49256        0.53333        0.55924        0.72393        0.75707        0.77322        0.68558        0.62052        0.57473        0.44944        0.36842        0.34664        0.20451        0.16959        0.06822       -0.01457        0.00694        0.03512        0.07151        0.19337        0.24556        0.32533        0.40008        0.46765        0.59341        0.65114        0.63332        0.55219        0.62965        0.53409        0.42636        0.40423        0.33956        0.15801        0.16092        0.09625        0.08576        0.06963        0.13497        0.22324        0.34805        0.45273        0.49913        0.53331        0.55538        0.50001        0.56892        0.54950        0.44212        0.36077        0.25204        0.14126        0.16379        0.14224        0.13620        0.20293        0.26407        0.30401        0.36975        0.47348        0.52154        0.52503        0.47566        0.48130        0.41667        0.40749        0.30697        0.23173        0.20521        0.17616        0.18717        0.17300        0.33393        0.40806        0.40240        0.47277        0.45735        0.46145        0.34607        0.35025        0.31564        0.27832        0.28125        0.23502        0.25299        0.31017        0.27254        0.34428        0.42085        0.46415        0.51031        0.44041        0.36426        0.33998        0.27643        0.28084        0.26402        0.24545        0.26525        0.31693        0.34738        0.36246        0.42427        0.40597        0.38011        0.36780        0.32913        0.29369        0.27701        0.24866        0.27517        0.30977        0.32978        0.34307        0.36589        0.38831        0.41389        0.36228        0.32047        0.27676        0.24966        0.27584        0.26409        0.28184        0.28191        0.34774        0.37146        0.37200        0.35996        0.31463        0.31635        0.29440        0.27800        0.30061        0.27489        0.29100        0.32747        0.37105        0.35759        0.34119        0.31276        0.30604        0.27641        0.28032        0.29173        0.28389        0.29553        0.30329        0.32709        0.35607        0.30144        0.26610        0.27692        0.26478        0.27660        0.26097        0.31658        0.31678        0.32552        0.37368        0.33384        0.36119        0.30783        0.27145        0.25529        0.27878        0.29064        0.28766        0.27602        0.30328        0.32389        0.29133        0.29703        0.30027        0.28758        0.31280        0.31871        0.34802        0.35145        0.30729        0.31591        0.30078        0.26422        0.28004        0.31063        0.29876        0.34664        0.36578        0.30942        0.32563        0.28183        0.28907        0.22848        0.24984        0.27683        0.29850        0.30379        0.35317        0.32835        0.27706        0.25713        0.29047        0.27679        0.35642        0.28791        0.30327        0.33165        0.35326        0.28905        0.22487        0.29167        0.29373        0.30993        0.25104        0.26374        0.24059        0.26225        0.22578        0.22573        0.30301        0.21485        0.27742        0.30563        0.22476        0.23035        0.27230        0.29743        0.26166        0.30466        0.24523        0.29330        0.24222        0.25586        0.24760        0.27060        0.25798        0.16395        0.23323        0.21031        0.23401        0.23459        0.22734        0.30321        0.25687        0.28747        0.27955        0.23365        0.15641        0.13682       -0.03865       -0.43079       -0.35497
2.157251 2.134711 2.112296 2.090006 2.067842 2.045802 2.023888 2.002099 1.980435 1.958896 1.937482 1.916194 1.895031 1.873992 1.853079 1.832291 1.811628 1.791091 1.770678 1.750391 1.730229 1.710192 1.690280 1.670493 1.650831 1.631295 1.611883 1.592597 1.573436 1.554400 1.535489 1.516704 1.498043 1.479508 1.461098 1.442813 1.424653 1.406618 1.388708 1.370924 1.353265 1.335731 1.318322 1.301038 1.283879 1.266845 1.249937 1.233154 1.216495 1.199962 1.183555 1.516462 1.783208 1.211067 0.921628 0.640161 0.545075 0.490332 0.279786 0.295800 0.293701 0.347632 0.260430 0.277497 0.270942 0.148528 0.019717 -0.038186 -0.145950 -0.065921 -0.128141 -0.024558 -0.178886 -0.048269 -0.105245 -0.003914 0.072092 0.125564 0.019356 0.301226 0.432372 0.352153 0.474449 0.633377 0.677482 0.701267 0.932859 0.839619 0.948453 0.880559 0.828833 0.921804 0.917512 0.801791 0.767894 0.681132 0.678549 0.590390 0.590305 0.330517 0.370426 0.200984 0.242704 0.123647 0.120598 0.165207 0.193962 0.324951 0.276651 0.302980 0.453006 0.507587 0.606760 0.590474 0.666685 0.746966 0.795923 0.731940 0.596667 0.605668 0.490750 0.383152 0.398012 0.239156 0.161089 0.122495 0.037235 -0.046498 0.088522 0.006338 0.137785 0.158234 0.248504 0.324576 0.321186 0.426636 0.555047 0.490114 0.463560 0.524601 0.426817 0.320998 0.268666 0.312186 0.087421 0.028401 0.053345 -0.043430 -0.016576 -0.015110 0.037550 0.152614 0.284856 0.262001 0.386410 0.349454 0.356986 0.370064 0.448979 0.315756 0.284061 0.126939 0.083274 0.014081 0.038706 0.001661 0.034558 0.098264 0.119857 0.190673 0.237411 0.317264 0.317304 0.287207 0.264326 0.234179 0.215160 0.160605 0.044871 0.051863 -0.029662 0.019729 -0.056230 0.033616 0.165230 0.203834 0.214335 0.194397 0.261904 0.144064 0.124216 0.123960 0.063812 0.036172 0.055185 0.012262 0.051405 0.055938 0.086576 0.124007 0.172575 0.236944 0.244754 0.118189 0.129567 0.062817 0.051045 0.034393 0.008160 0.022215 0.039048 0.105471 0.073972 0.131561 0.177981 0.124500 0.102184 0.101807 0.060142 0.033421 0.019485 -0.016939 0.043494 0.061939 0.067617 0.083174 0.114040 0.125184 0.139212 0.085553 0.059407 -0.007339 0.018920 0.007875 0.028993 0.015230 0.030292 0.115887 0.096947 0.111446 0.074654 0.031060 0.065512 0.018607 -0.001996 0.051807 0.016628 0.025632 0.071380 0.098902 0.071364 0.071182 0.046848 0.016561 0.015632 0.002100 0.021119 0.024593 0.033071 0.020549 0.059342 0.075560 0.021854 -0.016584 0.001277 -0.000908 0.001259 -0.003913 0.052212 0.028733 0.055057 0.059796 0.045298 0.086992 -0.029569 -0.013421 -0.018596 -0.013574 0.027733 -0.015882 -0.005245 0.038126 0.023577 0.006058 0.013755 0.020483 0.009554 0.039364 0.040881 0.069780 0.055669 0.013883 0.039488 0.010566 -0.014704 0.020990 -0.004220 0.027165 0.056938 0.096089 0.030589 0.049791 -0.001082 0.025238 -0.056986 -0.004003 0.002786 0.046582 0.005934 0.108840 0.067553 0.014647 0.012417 0.057776 0.040918 0.106961 0.067369 0.009505 0.106263 0.112742 0.041875 -0.020915 0.058425 0.047699 0.090865 -0.015143 0.006349 -0.034866 0.017509 -0.042399 -0.046020 0.056790 -0.033838 0.013342 -0.015783 -0.061807 -0.043701 -0.022914 0.023878 -0.010655 0.013638 -0.018671 0.022985 -0.051164 0.035137 -0.054318 0.038498 0.015115 -0.067020 0.023775 -0.011563 0.049985 0.023098 0.061449 0.133495 0.075623 0.157696 0.249396 0.206841 0.065967 0.125823 -0.026959 -0.312843
0.072396 0.072973 0.074702 0.077584 0.081618 0.086803 0.093136 0.100616 0.109240 0.119004 0.129902 0.141930 0.155079 0.169340 0.184702 0.201152 0.218674 0.237249 0.256855 0.277467 0.299055 0.321587 0.345023 0.369321 0.394432 0.420301 0.446867 0.474063 0.501815 0.530040 0.558649 0.587545 0.616620 0.645760 0.674843 0.703735 0.732296 0.760374 0.787811 0.814439 0.840081 0.864552 0.887661 0.909209 0.928991 0.946795 0.962409 0.975614 0.986191 0.993923 0.998592 0.999986 0.997897 0.992127 0.982487 0.968804 0.950917 0.928689 0.902000 0.870757 0.834897 0.794385 0.749222 0.699447 0.645138 0.586417 0.523451 0.456456 0.385697 0.311492 0.234209 0.154274 0.072160 0.011602 0.096435 0.181708 0.266748 0.350839 0.433231 0.513138 0.589756 0.662260 0.729823 0.791617 0.846829 0.894671 0.934393 0.965293 0.986735 0.998156 0.999087 0.989159 0.968122 0.935853 0.892368 0.837834 0.772574 0.697076 0.611994 0.518155 0.416551 0.308342 0.194839 0.077503 0.042075 0.162192 0.281054 0.396801 0.507536 0.611355 0.706385 0.790815 0.862939 0.921191 0.964187 0.990760 0.999997 0.991275 0.964289 0.919078 0.856044 0.775965 0.680001 0.569688 0.446933 0.313983 0.173400 0.028015 0.119115 0.264776 0.405661 0.538442 0.659858 0.766792 0.856362 0.926007 0.973567 0.997365 0.996273 0.969771 0.917997 0.841769 0.742602 0.622698 0.484919 0.332730 0.170136 0.001582 0.168157 0.334107 0.491239 0.634624 0.759594 0.861904 0.937888 0.984610 0.999991 0.982924 0.933346 0.852298 0.741931 0.605484 0.447212 0.272278 0.086610 0.103294 0.290580 0.468279 0.629577 0.768076 0.878067 0.954787 0.994642 0.995407 0.956368 0.878421 0.764092 0.617499 0.444246 0.251227 0.046391 0.161579 0.363612 0.550658 0.714087 0.846108 0.940166 0.991295 0.996411 0.954537 0.866925 0.737082 0.570675 0.375332 0.160333 0.063812 0.285852 0.494355 0.678299 0.827676 0.934061 0.991121 0.995042 0.944819 0.842416 0.692758 0.503551 0.284942 0.049010 0.190862 0.420746 0.626965 0.796927 0.919924 0.987848 0.995776 0.942382 0.830141 0.665292 0.457561 0.219656 0.033477 0.285555 0.519993 0.721009 0.874705 0.970079 0.999862 0.961144 0.855710 0.690059 0.475087 0.225444 0.041409 0.306391 0.550139 0.754451 0.903670 0.985932 0.994192 0.926896 0.788267 0.588141 0.341374 0.066789 0.214181 0.479167 0.706622 0.877621 0.977485 0.997123 0.933942 0.792258 0.583116 0.323529 0.035191 0.257285 0.528457 0.754248 0.914143 0.993120 0.983151 0.884126 0.704072 0.458628 0.169803 0.135920 0.429984 0.684387 0.874404 0.981050 0.993074 0.908265 0.733902 0.486278 0.189293 0.127743 0.432972 0.695156 0.886924 0.987702 0.986033 0.881011 0.682634 0.411023 0.094490 0.233296 0.536870 0.782789 0.943389 0.999994 0.945225 0.784102 0.533773 0.221846 0.116534 0.442567 0.718246 0.910815 0.996769 0.964863 0.817743 0.571949 0.256236 0.091655 0.429423 0.715316 0.913358 0.997965 0.957414 0.795637 0.532079 0.199545 0.159736 0.499395 0.774882 0.949398 0.998921 0.915696 0.709638 0.407371 0.048986 0.317145 0.640843 0.877023 0.992076 0.968819 0.809273 0.534787 0.183394 0.195273 0.546907 0.820309 0.974927 0.987036 0.853598 0.593127 0.243406 0.143851 0.510464 0.800581 0.969199 0.989360 0.856674 0.590457 0.231198 0.165402 0.536929 0.824078 0.980210 0.979097 0.819607 0.526361 0.146226 0.258983 0.622436 0.883314 0.997135 0.943543 0.730234 0.392186 0.013809 0.418486
1.000000 1.000000 1.000000 1.000000 1.000000 1.000000 1.000000 1.000000 1.000000 1.000000 1.000000 1.000000 1.000000 1.000000 1.000000 1.000000 1.000000 1.000000 1.000000 1.000000 1.000000 1.000000 1.000000 1.000000 1.000000 1.000000 1.000000 1.000000 1.000000 1.000000 1.000000 1.000000 1.000000 1.000000 1.000000 1.000000 1.000000 1.000000 1.000000 1.000000 1.000000 1.000000 1.000000 1.000000 1.000000 1.000000 1.000000 1.000000 1.000000 1.000000 1.000000 1.000000 0.936782 0.936782 0.936782 0.936782 0.936782 0.936782 0.936782 0.936782 0.936782 0.936782 0.936782 0.936782 0.936782 0.936782 0.936782 0.936782 0.936782 0.936782 0.936782 0.936782 0.936782 0.936782 0.936782 0.936782 0.936782 0.936782 0.936782 0.936782 0.936782 0.936782 0.936782 0.936782 0.936782 0.936782 0.936782 0.936782 0.936782 0.936782 0.924566 0.927283 0.924885 0.924718 0.923755 0.930392 0.934067 0.934800 0.935198 0.936509 0.938016 0.941109 0.942320 0.945406 0.949603 0.957812 0.955596 0.953112 0.955854 0.952146 0.965273 0.965862 0.965851 0.966573 0.967171 0.967868 0.966204 0.967949 0.968422 0.967903 0.966855 0.966329 0.963542 0.962969 0.962919 0.963433 0.963082 0.963582 0.964962 0.964789 0.964864 0.964445 0.963868 0.960367 0.959026 0.958047 0.956130 0.954498 0.960986 0.960354 0.959645 0.959330 0.959469 0.959440 0.959474 0.958736 0.957580 0.956663 0.956139 0.955703 0.954689 0.955999 0.958350 0.959194 0.949573 0.942103 0.938152 0.940586 0.938175 0.933097 0.935017 0.920176 0.906775 0.901017 0.892204 0.889144 0.889796 0.893367 0.893177 0.887904 0.881239 0.876110 0.880675 0.879060 0.884236 0.880596 0.863346 0.858731 0.850739 0.852474 0.861705 0.867602 0.870753 0.868045 0.864377 0.849396 0.844411 0.846621 0.847860 0.846959 0.847052 0.841980 0.842988 0.846109 0.857466 0.860490 0.864786 0.867485 0.867894 0.870378 0.872224 0.869033 0.865072 0.867679 0.870081 0.863659 0.867671 0.864737 0.866611 0.863556 0.856538 0.858300 0.861354 0.860224 0.859384 0.849457 0.848873 0.855575 0.861722 0.846185 0.844548 0.837771 0.832717 0.832218 0.833572 0.837733 0.837405 0.836545 0.840986 0.839139 0.836128 0.838936 0.818101 0.829871 0.833053 0.823176 0.793980 0.789038 0.787790 0.795425 0.795247 0.792454 0.781241 0.779708 0.778038 0.783843 0.784569 0.767974 0.753976 0.761934 0.770447 0.771463 0.743632 0.695562 0.686324 0.668038 0.649712 0.649413 0.642429 0.649074 0.641034 0.634136 0.635595 0.647927 0.653259 0.638017 0.627142 0.621410 0.639795 0.619028 0.617791 0.626227 0.623555 0.642538 0.641967 0.645810 0.625061 0.629930 0.623201 0.614551 0.619158 0.601245 0.604752 0.597110 0.594253 0.573451 0.573652 0.574097 0.595627 0.561946 0.557278 0.576474 0.564585 0.553208 0.568605 0.548576 0.551273 0.557470 0.534573 0.521157 0.498265 0.510007 0.529376 0.506179 0.479354 0.469606 0.468016 0.442565 0.463941 0.518141 0.528507 0.516968 0.439868 0.422566 0.428639 0.431128 0.434243 0.385152 0.361856 0.355267 0.303358 0.282557 0.291888 0.287415 0.246309 0.221262 0.243446 0.173016 0.168385 0.180824 0.164170 0.154379 0.105459 0.114188 0.182941 0.186813 0.186813 0.186813 0.186813 0.186813 0.186813 0.186813 0.209159 0.209159 0.209159 0.209159 0.209159 0.209159 0.209159 0.209159 0.215501 0.215501 0.215501 0.215501 0.215501 0.215501 0.215501 0.215501 0.215501 0.215501 0.215501 0.215501 0.215501
0.000000 0.000000 0.000000 0.000000 0.000000 0.000000 0.000000 0.000000 0.000000 0.000000 0.000000 0.000000 0.000000 0.000000 0.000000 0.000000 0.000000 0.000000 0.000000 0.000000 0.000000 9401.000000 0.000000 0.000000 0.000000 0.000000 0.000000 0.000000 0.000000 0.000000 0.000000 0.000000 0.000000 0.000000 0.000000 0.000000 0.000000 0.000000 0.000000 0.000000 0.000000 0.000000 0.000000 0.000000 0.000000 0.000000 0.000000 0.000000 0.000000 0.000000 0.000000 0.000000 0.203069 0.203069 0.203069 0.203069 0.203069 0.203069 0.203069 0.203069 0.203069 0.203069 0.203069 0.203069 0.203069 0.203069 0.203069 0.203069 0.203069 0.203069 0.203069 0.203069 0.203069 0.203069 0.203069 0.203069 0.203069 0.203069 0.203069 0.203069 0.203069 0.203069 0.203069 0.203069 0.203069 0.203069 0.203069 0.203069 0.203069 0.203069 0.234082 0.234082 0.234082 0.234082 0.234082 0.234082 0.234082 0.234082 0.234082 0.234082 0.234082 0.234082 0.234082 0.234082 0.234082 0.234082 0.234082 0.234082 0.234082 0.234082 0.234082 0.234082 0.234082 0.234082 0.234082 0.234082 0.234082 0.256074 0.256074 0.256074 0.256074 0.256074 0.256074 0.256074 0.256074 0.256074 0.256074 0.256074 0.256074 0.256074 0.256074 0.256074 0.256074 0.256074 0.256074 0.256074 0.256074 0.256074 0.264906 0.264906 0.264906 0.264906 0.264906 0.264906 0.264906 0.264906 0.264906 0.264906 0.264906 0.264906 0.264906 0.264906 0.264906 0.264906 0.264906 0.264906 0.264906 0.264906 0.264906 0.264906 0.264906 0.264906 0.264906 0.264906 0.264906 0.264906 0.264906 0.264906 0.264906 0.264906 0.264906 0.264906 0.264906 0.269680 0.269680 0.269680 0.269680 0.269680 0.269680 0.269680 0.269680 0.269680 0.269680 0.269680 0.269680 0.269680 0.269680 0.269680 0.269680 0.269680 0.269680 0.269680 0.269680 0.269680 0.269680 0.269680 0.269680 0.269680 0.269680 0.269680 0.269680 0.269680 0.274721 0.274721 0.274721 0.274721 0.274721 0.274721 0.274721 0.274721 0.274721 0.274721 0.274721 0.274721 0.274721 0.274721 0.274721 0.274721 0.274721 0.274721 0.274721 0.274721 0.274721 0.274721 0.274721 0.274721 0.274721 0.269680 0.269680 0.269680 0.269680 0.269680 0.269680 0.269680 0.269680 0.269680 0.269680 0.269680 0.269680 0.274721 0.274721 0.274721 0.274721 0.274721 0.274721 0.274721 0.274721 0.274721 0.274721 0.274721 0.269680 0.269680 0.269680 0.269680 0.269680 0.269680 0.269680 0.269680 0.269680 0.269680 0.269680 0.274721 0.274721 0.274721 0.274721 0.274721 0.274721 0.274721 0.274721 0.274721 0.274721 0.269680 0.269680 0.269680 0.269680 0.269680 0.269680 0.269680 0.269680 0.269680 0.269680 0.264906 0.264906 0.264906 0.264906 0.264906 0.264906 0.264906 0.264906 0.264906 0.264906 0.269680 0.269680 0.269680 0.269680 0.269680 0.269680 0.269680 0.269680 0.269680 0.264906 0.264906 0.264906 0.264906 0.264906 0.264906 0.264906 0.264906 0.264906 0.274721 0.274721 0.274721 0.274721 0.274721 0.274721 0.274721 0.274721 0.256074 0.256074 0.256074 0.256074 0.256074 0.256074 0.256074 0.256074 0.256074 0.269680 0.269680 0.269680 0.269680 0.269680 0.269680 0.269680 0.269680 0.264906 0.264906 0.264906 0.264906 0.264906 0.264906 0.264906 0.264906 0.260378 0.260378 0.260378 0.260378 0.260378 0.260378 0.260378 0.260378 0.256074 0.256074 0.256074 0.256074 0.256074 0.256074 0.256074 0.256074 0.256074 0.256074 0.256074 0.256074 0.256074
