# Output from CTFFind version 4.1.9, run on 2019-11-03 18:51:21
# Input file: stack14_ub_averaged_250.mrc ; Number of micrographs: 1
# Pixel size: 3.000 Angstroms ; acceleration voltage: 300.0 keV ; spherical aberration: 0.00 mm ; amplitude contrast: 0.07
# Box size: 512 pixels ; min. res.: 30.0 Angstroms ; max. res.: 5.0 Angstroms ; min. def.: 5000.0 um; max. def. 50000.0 um; num. frames averaged: 1
# 6 lines per micrograph: #1 - spatial frequency (1/Angstroms); #2 - 1D rotational average of spectrum (assuming no astigmatism); #3 - 1D rotational average of spectrum; #4 - CTF fit; #5 - cross-correlation between spectrum and CTF fit; #6 - 2sigma of expected cross correlation of noise
0.000000 0.000651 0.001302 0.001953 0.002604 0.003255 0.003906 0.004557 0.005208 0.005859 0.006510 0.007161 0.007812 0.008464 0.009115 0.009766 0.010417 0.011068 0.011719 0.012370 0.013021 0.013672 0.014323 0.014974 0.015625 0.016276 0.016927 0.017578 0.018229 0.018880 0.019531 0.020182 0.020833 0.021484 0.022135 0.022786 0.023438 0.024089 0.024740 0.025391 0.026042 0.026693 0.027344 0.027995 0.028646 0.029297 0.029948 0.030599 0.031250 0.031901 0.032552 0.033203 0.033854 0.034505 0.035156 0.035807 0.036458 0.037109 0.037760 0.038411 0.039062 0.039714 0.040365 0.041016 0.041667 0.042318 0.042969 0.043620 0.044271 0.044922 0.045573 0.046224 0.046875 0.047526 0.048177 0.048828 0.049479 0.050130 0.050781 0.051432 0.052083 0.052734 0.053385 0.054036 0.054688 0.055339 0.055990 0.056641 0.057292 0.057943 0.058594 0.059245 0.059896 0.060547 0.061198 0.061849 0.062500 0.063151 0.063802 0.064453 0.065104 0.065755 0.066406 0.067057 0.067708 0.068359 0.069010 0.069661 0.070312 0.070964 0.071615 0.072266 0.072917 0.073568 0.074219 0.074870 0.075521 0.076172 0.076823 0.077474 0.078125 0.078776 0.079427 0.080078 0.080729 0.081380 0.082031 0.082682 0.083333 0.083984 0.084635 0.085286 0.085938 0.086589 0.087240 0.087891 0.088542 0.089193 0.089844 0.090495 0.091146 0.091797 0.092448 0.093099 0.093750 0.094401 0.095052 0.095703 0.096354 0.097005 0.097656 0.098307 0.098958 0.099609 0.100260 0.100911 0.101562 0.102214 0.102865 0.103516 0.104167 0.104818 0.105469 0.106120 0.106771 0.107422 0.108073 0.108724 0.109375 0.110026 0.110677 0.111328 0.111979 0.112630 0.113281 0.113932 0.114583 0.115234 0.115885 0.116536 0.117188 0.117839 0.118490 0.119141 0.119792 0.120443 0.121094 0.121745 0.122396 0.123047 0.123698 0.124349 0.125000 0.125651 0.126302 0.126953 0.127604 0.128255 0.128906 0.129557 0.130208 0.130859 0.131510 0.132161 0.132812 0.133464 0.134115 0.134766 0.135417 0.136068 0.136719 0.137370 0.138021 0.138672 0.139323 0.139974 0.140625 0.141276 0.141927 0.142578 0.143229 0.143880 0.144531 0.145182 0.145833 0.146484 0.147135 0.147786 0.148438 0.149089 0.149740 0.150391 0.151042 0.151693 0.152344 0.152995 0.153646 0.154297 0.154948 0.155599 0.156250 0.156901 0.157552 0.158203 0.158854 0.159505 0.160156 0.160807 0.161458 0.162109 0.162760 0.163411 0.164062 0.164714 0.165365 0.166016 0.166667 0.167318 0.167969 0.168620 0.169271 0.169922 0.170573 0.171224 0.171875 0.172526 0.173177 0.173828 0.174479 0.175130 0.175781 0.176432 0.177083 0.177734 0.178385 0.179036 0.179688 0.180339 0.180990 0.181641 0.182292 0.182943 0.183594 0.184245 0.184896 0.185547 0.186198 0.186849 0.187500 0.188151 0.188802 0.189453 0.190104 0.190755 0.191406 0.192057 0.192708 0.193359 0.194010 0.194661 0.195312 0.195964 0.196615 0.197266 0.197917 0.198568 0.199219 0.199870 0.200521 0.201172 0.201823 0.202474 0.203125 0.203776 0.204427 0.205078 0.205729 0.206380 0.207031 0.207682 0.208333 0.208984 0.209635 0.210286 0.210938 0.211589 0.212240 0.212891 0.213542 0.214193 0.214844 0.215495 0.216146 0.216797 0.217448 0.218099 0.218750 0.219401 0.220052 0.220703 0.221354 0.222005 0.222656 0.223307 0.223958 0.224609 0.225260 0.225911 0.226562 0.227214 0.227865 0.228516 0.229167 0.229818 0.230469 0.231120 0.231771 0.232422 0.233073 0.233724 0.234375 0.235026 0.235677
       0.30659        0.30659        0.30659        0.30659        0.30659        0.30659        0.30659        0.30659        0.30659        0.30659        0.30659        0.30659        0.30659        0.30659        0.30659        0.30659        0.30659        0.30659        0.30659        0.30659        0.30659        0.30659        0.30659        0.30659        0.30659        0.30659        0.30659        0.30659        0.30659        0.30659        0.30659        0.30659        0.30659        0.30659        0.30659        0.30659        0.30659        0.30659        0.30659        0.30659        0.30659        0.30659        0.30659        0.30659        0.30659        0.30659        0.30659        0.30659        0.30659        0.30659        0.30659        0.43214        0.54070        0.19280       -0.14607       -0.35161       -0.39421       -0.47372       -0.60447       -0.61165       -0.61380       -0.58711       -0.57258       -0.58666       -0.71467       -0.81238       -0.81067       -0.83727       -0.78655       -0.85674       -0.69539       -0.80119       -0.75014       -0.56382       -0.47475       -0.36640       -0.23062       -0.12188       -0.14194        0.09703        0.25168        0.23930        0.33564        0.44900        0.47314        0.58118        0.49365        0.62820        0.60994        0.62234        0.51835        0.41289        0.32530        0.27513        0.25282        0.17884        0.09011        0.06604       -0.06309       -0.03998       -0.06572       -0.07981       -0.01596        0.04556        0.13851        0.18710        0.36635        0.45351        0.53044        0.58368        0.55170        0.64545        0.70358        0.63286        0.53810        0.48917        0.49551        0.38322        0.29217        0.17098        0.08732        0.02947       -0.02082       -0.05408        0.05958        0.12315        0.22710        0.34661        0.44224        0.55722        0.54597        0.60898        0.64526        0.58008        0.52837        0.54545        0.43591        0.35500        0.25320        0.16840        0.09916        0.02860        0.06816        0.10048        0.18306        0.28422        0.31147        0.42144        0.47364        0.46823        0.50243        0.53750        0.43060        0.43745        0.32006        0.18585        0.20715        0.10135        0.13019        0.13479        0.15553        0.25379        0.33054        0.43594        0.43758        0.42176        0.48058        0.46884        0.44194        0.41130        0.34963        0.21685        0.14418        0.23380        0.24402        0.21452        0.22639        0.34526        0.41186        0.48268        0.49067        0.44014        0.39086        0.35336        0.27709        0.27590        0.23185        0.23461        0.18691        0.23951        0.26516        0.35332        0.38130        0.43682        0.41990        0.36720        0.33503        0.33974        0.27323        0.23812        0.23109        0.25411        0.26920        0.33836        0.36306        0.35188        0.35894        0.39165        0.38183        0.35871        0.25938        0.25817        0.25093        0.24223        0.25290        0.23582        0.31842        0.40530        0.36557        0.33772        0.35113        0.29833        0.27773        0.26505        0.23466        0.27030        0.31726        0.30349        0.32915        0.32769        0.34742        0.34710        0.32154        0.31338        0.25895        0.28241        0.26430        0.28233        0.30840        0.31504        0.29564        0.31120        0.32122        0.29646        0.28101        0.25095        0.27860        0.27227        0.27220        0.32959        0.31500        0.26321        0.29644        0.27437        0.26553        0.22788        0.23965        0.30419        0.28976        0.30307        0.29189        0.31568        0.28488        0.23918        0.27364        0.28229        0.26555        0.25901        0.31774        0.35765        0.35465        0.31949        0.30892        0.27264        0.29119        0.27141        0.27266        0.29381        0.29469        0.31261        0.26705        0.25853        0.26961        0.28045        0.26036        0.27349        0.29710        0.33675        0.31703        0.28383        0.29235        0.28925        0.25923        0.25725        0.25145        0.29229        0.29031        0.29998        0.25655        0.19667        0.24120        0.24076        0.23872        0.28372        0.30615        0.28701        0.23906        0.25042        0.26628        0.25972        0.23123        0.23064        0.27559        0.27505        0.35873        0.30910        0.24839        0.26055        0.23603        0.23118        0.29421        0.30442        0.30407        0.23922        0.31121        0.28260        0.24959        0.26769        0.27611        0.27066        0.29243        0.23662        0.24209        0.27874        0.25212        0.23664        0.21999        0.21740        0.23326        0.23170        0.19862        0.16939        0.23298        0.25646        0.21715        0.24742        0.30866        0.23808        0.27370        0.26143        0.34222        0.28561        0.19429        0.30112        0.21979        0.22367        0.30758        0.18724        0.09091        0.04042        0.04908       -0.24851       -0.16156
2.500971 2.473258 2.445707 2.418318 2.391092 2.364028 2.337127 2.310388 2.283812 2.257398 2.231146 2.205057 2.179131 2.153366 2.127764 2.102325 2.077048 2.051934 2.026981 2.002192 1.977565 1.953100 1.928797 1.904657 1.880680 1.856865 1.833212 1.809722 1.786394 1.763229 1.740226 1.717385 1.694707 1.672191 1.649838 1.627647 1.605619 1.583753 1.562050 1.540508 1.519130 1.497914 1.476860 1.455968 1.435240 1.414673 1.394269 1.374027 1.353948 1.334031 1.314277 1.425580 1.543014 1.189697 0.788143 0.457529 0.543306 0.359337 0.136818 0.209569 0.148158 0.090678 0.180916 0.128544 0.041657 -0.198737 -0.191088 -0.208510 -0.185256 -0.306646 -0.049250 -0.296851 -0.228576 -0.024107 0.011089 0.128400 0.289287 0.368904 0.347888 0.466256 0.750909 0.711204 0.780046 0.855013 0.909796 1.022546 0.978613 0.946905 1.034109 0.985195 0.978038 0.685747 0.762814 0.554550 0.578468 0.487342 0.351486 0.328635 0.155487 0.211078 0.110008 0.094088 0.192257 0.196442 0.249554 0.349485 0.466363 0.646119 0.642528 0.656574 0.784709 0.714580 0.793763 0.743103 0.673567 0.596560 0.599565 0.452588 0.386416 0.210516 0.163922 0.025354 -0.016619 -0.071937 -0.061961 0.134786 0.130956 0.328872 0.357841 0.455771 0.558759 0.545993 0.608579 0.614511 0.466825 0.530181 0.344203 0.371404 0.218455 0.092557 0.013469 -0.052077 -0.072304 -0.039993 0.001364 0.149953 0.190618 0.240633 0.361150 0.341888 0.421971 0.508136 0.388490 0.353046 0.303427 0.098718 0.072989 0.037531 -0.019138 0.019661 -0.004631 0.088832 0.150138 0.303572 0.278437 0.316793 0.340807 0.338893 0.309997 0.300984 0.230020 0.107475 -0.038713 0.029330 0.081125 0.044566 0.023948 0.104582 0.199020 0.285803 0.270643 0.310292 0.175870 0.214332 0.103479 0.075630 0.019150 -0.010641 0.022813 -0.026503 0.003904 0.109370 0.151502 0.193433 0.212012 0.159944 0.138026 0.097313 0.106615 -0.020308 0.006715 -0.015752 0.019894 0.058136 0.103530 0.132209 0.120452 0.135301 0.155090 0.162978 0.083378 0.000405 0.002395 0.011230 -0.000360 -0.003907 0.001770 0.119500 0.164340 0.099323 0.118717 0.093027 0.010683 0.020194 -0.018818 -0.009305 0.036305 0.059062 0.038887 0.077008 0.091598 0.078313 0.104746 0.075415 0.007809 0.009549 0.045446 -0.016390 0.033801 0.056601 0.036367 0.048635 0.055229 0.042063 0.026847 0.012459 -0.031353 0.021695 -0.011643 0.025446 0.076378 0.031200 0.002530 0.002715 0.025086 -0.019539 -0.064697 -0.006961 0.032891 0.033256 0.023090 0.037689 0.048694 -0.002481 -0.027438 0.016175 0.022550 0.004199 -0.023051 0.077337 0.093762 0.065815 0.061475 0.035040 -0.013704 0.035721 -0.018921 0.025555 0.040941 0.016031 0.054495 -0.013254 0.015644 0.005392 0.002639 0.026567 -0.010701 0.045114 0.100257 0.023737 0.054760 0.032286 0.023524 -0.007546 -0.002339 0.011549 0.046287 0.017307 0.045207 -0.058451 -0.049033 -0.000857 -0.060336 -0.039700 0.030996 0.069568 0.030260 -0.052567 -0.009797 0.029955 0.001394 -0.029867 -0.034836 0.072434 -0.029582 0.138546 0.018981 0.018068 0.014729 -0.031032 -0.000900 0.059374 0.048481 0.088446 -0.021058 0.077549 0.073288 -0.021411 0.054539 0.024155 0.076180 0.062834 0.008372 -0.002132 0.043239 0.007386 -0.018224 -0.085286 -0.038644 -0.072084 -0.027929 -0.079449 -0.122283 -0.036202 -0.032491 -0.107748 -0.054584 0.067786 -0.038098 0.006501 -0.000429 0.121685 0.023867 -0.091941 0.090541 0.013218 -0.029065 0.169023 0.153840 0.197837 -0.061605 0.058458 -0.172470
0.072396 0.073021 0.074895 0.078017 0.082387 0.088004 0.094865 0.102967 0.112308 0.122882 0.134683 0.147704 0.161936 0.177367 0.193984 0.211770 0.230705 0.250766 0.271926 0.294152 0.317408 0.341653 0.366838 0.392909 0.419805 0.447458 0.475792 0.504723 0.534156 0.563991 0.594115 0.624406 0.654734 0.684956 0.714918 0.744459 0.773405 0.801571 0.828763 0.854777 0.879401 0.902412 0.923582 0.942676 0.959452 0.973666 0.985072 0.993423 0.998474 0.999985 0.997722 0.991462 0.980993 0.966120 0.946667 0.922481 0.893435 0.859432 0.820411 0.776346 0.727254 0.673199 0.614290 0.550693 0.482624 0.410362 0.334242 0.254661 0.172081 0.087023 0.000072 0.088127 0.176873 0.265408 0.352929 0.438585 0.521494 0.600743 0.675405 0.744542 0.807226 0.862544 0.909621 0.947625 0.975792 0.993437 0.999972 0.994921 0.977939 0.948825 0.907536 0.854201 0.789131 0.712826 0.625985 0.529504 0.424478 0.312195 0.194126 0.071915 0.052640 0.177611 0.300966 0.420598 0.534365 0.640126 0.735781 0.819323 0.888879 0.942759 0.979502 0.997927 0.997168 0.976720 0.936466 0.876713 0.798200 0.702116 0.590093 0.464201 0.326915 0.181084 0.029885 0.123250 0.274692 0.420710 0.557556 0.681568 0.789270 0.877483 0.943425 0.984812 0.999952 0.987826 0.948152 0.881431 0.788979 0.672924 0.536185 0.382422 0.215952 0.041654 0.135173 0.308956 0.474023 0.624793 0.755968 0.862732 0.940948 0.987330 0.999610 0.976666 0.918617 0.826878 0.704166 0.554456 0.382886 0.195605 0.000423 0.197662 0.388289 0.564502 0.718843 0.844535 0.935796 0.988131 0.998591 0.965960 0.890891 0.775956 0.625599 0.446024 0.244966 0.031392 0.184874 0.393592 0.584594 0.748288 0.876156 0.961231 0.998515 0.985313 0.921465 0.809455 0.654376 0.463763 0.247273 0.016241 0.216899 0.439253 0.638194 0.802088 0.921012 0.987388 0.996524 0.946993 0.840846 0.683606 0.484060 0.253823 0.006723 0.242014 0.476664 0.682020 0.844399 0.952583 0.998661 0.978668 0.892990 0.746482 0.548295 0.311372 0.051672 0.212858 0.463505 0.682110 0.852421 0.961333 0.999979 0.964521 0.856609 0.683425 0.457317 0.194998 0.083621 0.356897 0.603134 0.802309 0.937765 0.997660 0.976100 0.873811 0.698278 0.463322 0.188113 0.104320 0.388972 0.640982 0.837824 0.961401 0.999774 0.948433 0.810928 0.598766 0.330594 0.030650 0.273354 0.552752 0.780648 0.934550 0.998686 0.965735 0.837784 0.626390 0.351674 0.040542 0.275883 0.565319 0.797647 0.948098 0.999999 0.946753 0.792822 0.553528 0.253713 0.074747 0.396228 0.675206 0.880224 0.987525 0.983937 0.868648 0.653628 0.362557 0.028400 0.310250 0.613566 0.845198 0.976710 0.991218 0.885721 0.671825 0.374669 0.030153 0.319286 0.629853 0.861899 0.985089 0.982521 0.853235 0.612726 0.291316 0.069496 0.422282 0.719875 0.921736 0.999605 0.941640 0.754440 0.462557 0.105501 0.267434 0.603924 0.855931 0.986703 0.976293 0.824842 0.553015 0.199431 0.184609 0.542472 0.820526 0.976277 0.985037 0.844094 0.573610 0.214019 0.179802 0.546776 0.829096 0.981418 0.978362 0.818992 0.527511 0.149858 0.253280 0.616126 0.878550 0.996154 0.948041 0.740801 0.407991 0.004992 0.400009 0.737457 0.948451 0.995223 0.868157 0.588095 0.203241 0.218833 0.602919 0.879563 0.997769 0.934664 0.700262 0.336280 0.090962 0.502416 0.820881 0.985579 0.964029 0.758787 0.407653 0.022941 0.450220 0.790938 0.977638 0.972290 0.774393 0.421786 0.016176 0.452012
1.000000 1.000000 1.000000 1.000000 1.000000 1.000000 1.000000 1.000000 1.000000 1.000000 1.000000 1.000000 1.000000 1.000000 1.000000 1.000000 1.000000 1.000000 1.000000 1.000000 1.000000 1.000000 1.000000 1.000000 1.000000 1.000000 1.000000 1.000000 1.000000 1.000000 1.000000 1.000000 1.000000 1.000000 1.000000 1.000000 1.000000 1.000000 1.000000 1.000000 1.000000 1.000000 1.000000 1.000000 1.000000 1.000000 1.000000 1.000000 1.000000 1.000000 1.000000 1.000000 0.942862 0.942862 0.942862 0.942862 0.942862 0.942862 0.942862 0.942862 0.942862 0.942862 0.942862 0.942862 0.942862 0.942862 0.942862 0.942862 0.942862 0.942862 0.942862 0.942862 0.942862 0.942862 0.942862 0.942862 0.942862 0.942862 0.942862 0.942862 0.942862 0.942862 0.942862 0.942862 0.942862 0.942862 0.942862 0.921879 0.923390 0.927131 0.928364 0.928700 0.944976 0.945041 0.946321 0.951834 0.953791 0.955415 0.956129 0.964762 0.966206 0.966419 0.966330 0.963543 0.984785 0.983875 0.983375 0.983533 0.984447 0.984686 0.984507 0.984909 0.986261 0.985792 0.985006 0.984115 0.983341 0.983232 0.984075 0.982527 0.982592 0.983225 0.983834 0.983735 0.984096 0.984447 0.984494 0.984883 0.985617 0.981339 0.980688 0.979336 0.978295 0.978260 0.977925 0.977496 0.976029 0.975823 0.974993 0.975192 0.975041 0.974714 0.972945 0.973531 0.973418 0.969969 0.968753 0.967232 0.965639 0.952389 0.940359 0.935413 0.935411 0.934466 0.935921 0.926545 0.925976 0.919713 0.918007 0.918948 0.921696 0.922132 0.910176 0.890223 0.882476 0.876962 0.879689 0.881996 0.878941 0.871144 0.867263 0.865772 0.872232 0.876122 0.880766 0.879117 0.873570 0.869143 0.865138 0.860585 0.860717 0.857170 0.859057 0.856973 0.840290 0.849842 0.851060 0.860745 0.867181 0.864279 0.839853 0.800727 0.797940 0.799293 0.801006 0.798534 0.802968 0.808170 0.815949 0.813236 0.818167 0.825398 0.810362 0.815889 0.821021 0.821118 0.802765 0.779475 0.774772 0.773302 0.764101 0.750380 0.745635 0.747489 0.744720 0.745375 0.740021 0.735849 0.719946 0.715407 0.678164 0.682155 0.676516 0.663666 0.669818 0.670294 0.663680 0.647099 0.643727 0.630804 0.627673 0.621043 0.625216 0.617246 0.622733 0.633160 0.625054 0.612084 0.595090 0.593142 0.588613 0.540124 0.544827 0.574128 0.612772 0.606709 0.593825 0.616137 0.610216 0.594075 0.581592 0.565738 0.555529 0.565530 0.568267 0.539631 0.543450 0.527478 0.541025 0.535498 0.502527 0.528064 0.501378 0.486791 0.493256 0.514562 0.525954 0.495173 0.459759 0.464665 0.467292 0.491431 0.510618 0.498197 0.519642 0.518795 0.505995 0.469612 0.471623 0.491677 0.490882 0.491337 0.479494 0.481070 0.449321 0.408788 0.409936 0.375399 0.363213 0.360233 0.346795 0.317343 0.304360 0.296950 0.325249 0.317377 0.342330 0.299586 0.315653 0.272347 0.271738 0.220519 0.240054 0.231570 0.237357 0.242106 0.235815 0.241561 0.239826 0.272556 0.270226 0.255539 0.238212 0.203577 0.224719 0.198549 0.172318 0.179895 0.172690 0.176289 0.107325 0.112281 0.098594 0.128980 0.145734 0.135652 0.092779 0.086169 0.065350 0.048627 0.050674 0.026867 -0.026549 -0.041198 -0.027627 0.008233 0.074024 0.074024 0.074024 0.074024 0.074024 0.074024 0.074024 0.074024 0.076019 0.076019 0.076019 0.076019 0.076019 0.076019 0.076019 0.076019 0.076019 0.076019 0.076019 0.076019 0.076019 0.076019 0.076019 0.076019 0.076019 0.076019 0.076019
0.000000 0.000000 0.000000 0.000000 0.000000 0.000000 0.000000 0.000000 0.000000 0.000000 0.000000 0.000000 0.000000 0.000000 0.000000 0.000000 0.000000 0.000000 0.000000 0.000000 0.000000 9401.000000 0.000000 0.000000 0.000000 0.000000 0.000000 0.000000 0.000000 0.000000 0.000000 0.000000 0.000000 0.000000 0.000000 0.000000 0.000000 0.000000 0.000000 0.000000 0.000000 0.000000 0.000000 0.000000 0.000000 0.000000 0.000000 0.000000 0.000000 0.000000 0.000000 0.000000 0.207390 0.207390 0.207390 0.207390 0.207390 0.207390 0.207390 0.207390 0.207390 0.207390 0.207390 0.207390 0.207390 0.207390 0.207390 0.207390 0.207390 0.207390 0.207390 0.207390 0.207390 0.207390 0.207390 0.207390 0.207390 0.207390 0.207390 0.207390 0.207390 0.207390 0.207390 0.207390 0.207390 0.207390 0.207390 0.244339 0.244339 0.244339 0.244339 0.244339 0.244339 0.244339 0.244339 0.244339 0.244339 0.244339 0.244339 0.244339 0.244339 0.244339 0.244339 0.244339 0.244339 0.244339 0.244339 0.244339 0.244339 0.244339 0.244339 0.244339 0.256074 0.256074 0.256074 0.256074 0.256074 0.256074 0.256074 0.256074 0.256074 0.256074 0.256074 0.256074 0.256074 0.256074 0.256074 0.256074 0.256074 0.256074 0.256074 0.256074 0.256074 0.269680 0.269680 0.269680 0.269680 0.269680 0.269680 0.269680 0.269680 0.269680 0.269680 0.269680 0.269680 0.269680 0.269680 0.269680 0.269680 0.269680 0.269680 0.269680 0.269680 0.269680 0.269680 0.269680 0.269680 0.269680 0.269680 0.269680 0.269680 0.269680 0.269680 0.269680 0.269680 0.269680 0.269680 0.269680 0.269680 0.269680 0.269680 0.269680 0.269680 0.269680 0.269680 0.269680 0.269680 0.269680 0.269680 0.269680 0.269680 0.280056 0.280056 0.280056 0.280056 0.280056 0.280056 0.280056 0.280056 0.280056 0.280056 0.280056 0.280056 0.280056 0.274721 0.274721 0.274721 0.274721 0.274721 0.274721 0.274721 0.274721 0.274721 0.274721 0.274721 0.274721 0.274721 0.274721 0.274721 0.274721 0.274721 0.274721 0.274721 0.274721 0.274721 0.274721 0.274721 0.274721 0.274721 0.280056 0.280056 0.280056 0.280056 0.280056 0.280056 0.280056 0.280056 0.280056 0.280056 0.280056 0.285714 0.285714 0.285714 0.285714 0.285714 0.285714 0.285714 0.285714 0.285714 0.285714 0.269680 0.269680 0.269680 0.269680 0.269680 0.269680 0.269680 0.269680 0.269680 0.269680 0.269680 0.285714 0.285714 0.285714 0.285714 0.285714 0.285714 0.285714 0.285714 0.285714 0.269680 0.269680 0.269680 0.269680 0.269680 0.269680 0.269680 0.269680 0.269680 0.269680 0.274721 0.274721 0.274721 0.274721 0.274721 0.274721 0.274721 0.274721 0.274721 0.269680 0.269680 0.269680 0.269680 0.269680 0.269680 0.269680 0.269680 0.269680 0.264906 0.264906 0.264906 0.264906 0.264906 0.264906 0.264906 0.264906 0.264906 0.274721 0.274721 0.274721 0.274721 0.274721 0.274721 0.274721 0.274721 0.269680 0.269680 0.269680 0.269680 0.269680 0.269680 0.269680 0.269680 0.269680 0.269680 0.269680 0.269680 0.269680 0.269680 0.269680 0.269680 0.264906 0.264906 0.264906 0.264906 0.264906 0.264906 0.264906 0.264906 0.274721 0.274721 0.274721 0.274721 0.274721 0.274721 0.274721 0.256074 0.256074 0.256074 0.256074 0.256074 0.256074 0.256074 0.256074 0.264906 0.264906 0.264906 0.264906 0.264906 0.264906 0.264906 0.264906 0.264906 0.264906 0.264906 0.264906 0.264906 0.264906 0.264906 0.264906 0.264906 0.264906 0.264906
