# Output from CTFFind version 4.1.9, run on 2019-11-03 18:51:34
# Input file: stack8_ub_averaged_750.mrc ; Number of micrographs: 1
# Pixel size: 3.000 Angstroms ; acceleration voltage: 300.0 keV ; spherical aberration: 0.00 mm ; amplitude contrast: 0.07
# Box size: 512 pixels ; min. res.: 30.0 Angstroms ; max. res.: 5.0 Angstroms ; min. def.: 5000.0 um; max. def. 50000.0 um; num. frames averaged: 1
# 6 lines per micrograph: #1 - spatial frequency (1/Angstroms); #2 - 1D rotational average of spectrum (assuming no astigmatism); #3 - 1D rotational average of spectrum; #4 - CTF fit; #5 - cross-correlation between spectrum and CTF fit; #6 - 2sigma of expected cross correlation of noise
0.000000 0.000651 0.001302 0.001953 0.002604 0.003255 0.003906 0.004557 0.005208 0.005859 0.006510 0.007161 0.007812 0.008464 0.009115 0.009766 0.010417 0.011068 0.011719 0.012370 0.013021 0.013672 0.014323 0.014974 0.015625 0.016276 0.016927 0.017578 0.018229 0.018880 0.019531 0.020182 0.020833 0.021484 0.022135 0.022786 0.023438 0.024089 0.024740 0.025391 0.026042 0.026693 0.027344 0.027995 0.028646 0.029297 0.029948 0.030599 0.031250 0.031901 0.032552 0.033203 0.033854 0.034505 0.035156 0.035807 0.036458 0.037109 0.037760 0.038411 0.039062 0.039714 0.040365 0.041016 0.041667 0.042318 0.042969 0.043620 0.044271 0.044922 0.045573 0.046224 0.046875 0.047526 0.048177 0.048828 0.049479 0.050130 0.050781 0.051432 0.052083 0.052734 0.053385 0.054036 0.054688 0.055339 0.055990 0.056641 0.057292 0.057943 0.058594 0.059245 0.059896 0.060547 0.061198 0.061849 0.062500 0.063151 0.063802 0.064453 0.065104 0.065755 0.066406 0.067057 0.067708 0.068359 0.069010 0.069661 0.070312 0.070964 0.071615 0.072266 0.072917 0.073568 0.074219 0.074870 0.075521 0.076172 0.076823 0.077474 0.078125 0.078776 0.079427 0.080078 0.080729 0.081380 0.082031 0.082682 0.083333 0.083984 0.084635 0.085286 0.085938 0.086589 0.087240 0.087891 0.088542 0.089193 0.089844 0.090495 0.091146 0.091797 0.092448 0.093099 0.093750 0.094401 0.095052 0.095703 0.096354 0.097005 0.097656 0.098307 0.098958 0.099609 0.100260 0.100911 0.101562 0.102214 0.102865 0.103516 0.104167 0.104818 0.105469 0.106120 0.106771 0.107422 0.108073 0.108724 0.109375 0.110026 0.110677 0.111328 0.111979 0.112630 0.113281 0.113932 0.114583 0.115234 0.115885 0.116536 0.117188 0.117839 0.118490 0.119141 0.119792 0.120443 0.121094 0.121745 0.122396 0.123047 0.123698 0.124349 0.125000 0.125651 0.126302 0.126953 0.127604 0.128255 0.128906 0.129557 0.130208 0.130859 0.131510 0.132161 0.132812 0.133464 0.134115 0.134766 0.135417 0.136068 0.136719 0.137370 0.138021 0.138672 0.139323 0.139974 0.140625 0.141276 0.141927 0.142578 0.143229 0.143880 0.144531 0.145182 0.145833 0.146484 0.147135 0.147786 0.148438 0.149089 0.149740 0.150391 0.151042 0.151693 0.152344 0.152995 0.153646 0.154297 0.154948 0.155599 0.156250 0.156901 0.157552 0.158203 0.158854 0.159505 0.160156 0.160807 0.161458 0.162109 0.162760 0.163411 0.164062 0.164714 0.165365 0.166016 0.166667 0.167318 0.167969 0.168620 0.169271 0.169922 0.170573 0.171224 0.171875 0.172526 0.173177 0.173828 0.174479 0.175130 0.175781 0.176432 0.177083 0.177734 0.178385 0.179036 0.179688 0.180339 0.180990 0.181641 0.182292 0.182943 0.183594 0.184245 0.184896 0.185547 0.186198 0.186849 0.187500 0.188151 0.188802 0.189453 0.190104 0.190755 0.191406 0.192057 0.192708 0.193359 0.194010 0.194661 0.195312 0.195964 0.196615 0.197266 0.197917 0.198568 0.199219 0.199870 0.200521 0.201172 0.201823 0.202474 0.203125 0.203776 0.204427 0.205078 0.205729 0.206380 0.207031 0.207682 0.208333 0.208984 0.209635 0.210286 0.210938 0.211589 0.212240 0.212891 0.213542 0.214193 0.214844 0.215495 0.216146 0.216797 0.217448 0.218099 0.218750 0.219401 0.220052 0.220703 0.221354 0.222005 0.222656 0.223307 0.223958 0.224609 0.225260 0.225911 0.226562 0.227214 0.227865 0.228516 0.229167 0.229818 0.230469 0.231120 0.231771 0.232422 0.233073 0.233724 0.234375 0.235026 0.235677
       0.33588        0.33588        0.33588        0.33588        0.33588        0.33588        0.33588        0.33588        0.33588        0.33588        0.33588        0.33588        0.33588        0.33588        0.33588        0.33588        0.33588        0.33588        0.33588        0.33588        0.33588        0.33588        0.33588        0.33588        0.33588        0.33588        0.33588        0.33588        0.33588        0.33588        0.33588        0.33588        0.33588        0.33588        0.33588        0.33588        0.33588        0.33588        0.33588        0.33588        0.33588        0.33588        0.33588        0.33588        0.33588        0.33588        0.33588        0.33588        0.33588        0.33588        0.33588        0.72979        0.89674        0.73406        0.37540        0.15909        0.07463        0.01591        0.06823        0.18274        0.20232        0.25326        0.36338        0.22405        0.10022        0.16009        0.08058       -0.24683       -0.04510        0.05663       -0.08789       -0.04891       -0.02814       -0.04771       -0.16978       -0.19059       -0.23393       -0.32925       -0.28218       -0.33471       -0.41158       -0.39403       -0.42599       -0.42022       -0.38085       -0.42728       -0.39048       -0.30856       -0.22390       -0.11297        0.01591        0.02086        0.04462        0.15495        0.27095        0.30537        0.35797        0.46752        0.60887        0.52872        0.62575        0.80268        0.75249        0.62230        0.67558        0.78214        0.75749        0.67882        0.62830        0.64585        0.50162        0.56176        0.48355        0.44777        0.27972        0.14921        0.04182        0.01936        0.02361       -0.04916       -0.08339       -0.10577        0.03472        0.08498        0.08942        0.16388        0.21581        0.32341        0.45622        0.50599        0.49791        0.62545        0.69585        0.77069        0.78952        0.73433        0.66798        0.54960        0.56549        0.55002        0.44892        0.31826        0.31163        0.18021        0.08955        0.12158        0.12583        0.13795        0.09008        0.08381        0.17839        0.23264        0.29016        0.36117        0.39095        0.39436        0.42134        0.49807        0.59300        0.58892        0.54105        0.51978        0.50661        0.41591        0.43151        0.30994        0.28753        0.24780        0.19219        0.16064        0.19204        0.13874        0.17415        0.23887        0.29755        0.29147        0.35868        0.47159        0.44915        0.45600        0.55353        0.56305        0.47540        0.51504        0.42287        0.36905        0.34798        0.31371        0.26283        0.21688        0.20754        0.22594        0.28346        0.27290        0.30579        0.36272        0.37500        0.43118        0.42923        0.44734        0.50270        0.43379        0.36980        0.41760        0.31108        0.29749        0.29271        0.29112        0.27285        0.27937        0.20305        0.24512        0.28423        0.28029        0.36715        0.38463        0.39397        0.44577        0.42035        0.39299        0.37665        0.32542        0.30758        0.28276        0.26575        0.23808        0.29443        0.29111        0.32610        0.31057        0.33803        0.37681        0.39687        0.37097        0.35840        0.39429        0.40659        0.38408        0.31889        0.32411        0.27596        0.26427        0.27850        0.28532        0.29798        0.34449        0.34506        0.28379        0.31698        0.33124        0.31756        0.32175        0.35896        0.29560        0.29279        0.26778        0.23850        0.25956        0.28315        0.29385        0.29027        0.35701        0.37529        0.33389        0.32584        0.31215        0.33092        0.31891        0.32875        0.29870        0.30919        0.32874        0.26724        0.32704        0.33090        0.38079        0.36753        0.31031        0.34634        0.33029        0.29941        0.30575        0.21024        0.28427        0.27688        0.29455        0.33040        0.32664        0.36884        0.32275        0.34718        0.32392        0.26538        0.33916        0.32987        0.31008        0.31581        0.30395        0.25491        0.26371        0.35187        0.36727        0.33034        0.27227        0.30481        0.27998        0.31251        0.28212        0.27650        0.29366        0.35733        0.35356        0.26121        0.23410        0.29491        0.30547        0.29937        0.31235        0.29126        0.28879        0.31834        0.31195        0.25612        0.30640        0.34786        0.32437        0.24719        0.30032        0.27142        0.25581        0.21389        0.19836        0.23488        0.22124        0.27129        0.25814        0.30691        0.28105        0.23231        0.24994        0.22799        0.20072        0.16684        0.21560        0.16828        0.29589        0.35692        0.23199        0.25471        0.19078        0.17085        0.26638        0.28155        0.22494        0.25005        0.36360        0.23569        0.15554        0.32085        0.25284       -0.08540       -0.24970       -0.37916
2.515881 2.492358 2.468951 2.445659 2.422483 2.399422 2.376477 2.353647 2.330932 2.308333 2.285850 2.263482 2.241229 2.219092 2.197071 2.175165 2.153374 2.131699 2.110139 2.088695 2.067366 2.046153 2.025055 2.004073 1.983206 1.962454 1.941818 1.921298 1.900893 1.880603 1.860429 1.840371 1.820428 1.800600 1.780888 1.761291 1.741810 1.722444 1.703194 1.684059 1.665040 1.646136 1.627347 1.608675 1.590117 1.571675 1.553349 1.535138 1.517042 1.499062 1.481197 1.887558 2.164787 1.919268 1.458700 1.286575 1.063070 0.947099 1.036838 1.143320 1.088136 1.216646 1.266515 1.226833 0.898788 1.029854 0.934835 0.457603 0.638945 0.892375 0.654673 0.595960 0.660960 0.639646 0.522413 0.400638 0.362889 0.232962 0.266882 0.171978 0.174376 0.018542 0.060333 0.035832 0.029571 -0.002273 -0.020085 0.051362 0.213252 0.269199 0.468172 0.407686 0.480852 0.548927 0.710016 0.765306 0.797598 0.847720 1.089936 1.055638 1.047573 1.120142 1.381465 1.099653 0.978685 1.176671 1.254423 1.095879 0.993783 1.031550 0.851341 0.893811 0.772482 0.752435 0.633289 0.359398 0.182655 0.202440 0.144270 0.101531 -0.018870 -0.004198 0.045937 0.185887 0.155312 0.232234 0.278649 0.374855 0.589566 0.604778 0.597584 0.709102 0.831990 0.892129 0.984326 0.831346 0.831696 0.628163 0.631146 0.666897 0.557801 0.352021 0.315249 0.150058 0.073693 0.023306 0.061478 0.012359 0.054642 -0.077604 0.060417 0.116850 0.195279 0.250602 0.311899 0.301212 0.359259 0.348327 0.474776 0.570199 0.482151 0.471861 0.498829 0.310046 0.375014 0.243547 0.115012 0.136292 0.047260 0.006835 -0.040198 -0.016821 -0.082108 0.069815 0.054797 0.133229 0.160976 0.198430 0.411307 0.233233 0.380039 0.505119 0.368853 0.371009 0.275060 0.262826 0.174403 0.151255 0.083484 0.028142 0.025051 -0.073630 0.066575 0.056245 0.064647 0.160400 0.138489 0.232150 0.246868 0.211344 0.322747 0.345072 0.198194 0.190768 0.205889 0.088454 0.090609 0.055782 0.095681 0.065587 0.024732 -0.032128 0.031346 0.084052 0.075897 0.189021 0.182175 0.210305 0.287041 0.198364 0.205025 0.123382 0.071447 0.102732 0.042907 0.009617 -0.028642 0.099125 0.045220 0.094670 0.069297 0.107571 0.174411 0.156932 0.163998 0.122721 0.169473 0.186503 0.123219 0.020504 0.078461 -0.017010 0.005391 0.015091 0.028717 0.052096 0.097252 0.076947 -0.021336 0.077589 0.083605 0.069401 0.090309 0.106118 0.014723 0.061934 -0.028833 -0.013231 -0.017394 0.019188 0.021854 0.037963 0.151841 0.087407 0.093815 -0.023601 0.069581 0.032254 0.025304 0.052188 -0.006020 0.006063 0.045415 -0.062212 0.053437 0.053856 0.120928 0.052311 0.024455 0.091524 -0.006319 0.002542 0.023300 -0.128068 -0.001786 -0.037301 -0.003785 0.065400 0.008639 0.119344 0.035917 0.048271 -0.015838 -0.031501 0.060456 -0.027085 0.035187 0.028466 -0.037182 -0.055457 -0.057213 0.074877 0.067297 0.072518 -0.061941 -0.009605 0.027929 0.040203 -0.002688 -0.039651 0.055196 0.069554 0.108495 -0.031910 -0.015892 0.052321 0.059805 0.049219 0.104745 0.060044 0.046094 0.065865 0.100615 0.007965 0.103834 0.164654 0.077885 0.048770 0.103536 -0.004442 0.052794 -0.059779 -0.033817 0.003569 -0.047761 0.064413 0.008475 0.085100 0.072889 -0.025941 0.030017 -0.029333 -0.064339 -0.117326 -0.023982 -0.102574 0.094317 0.115385 0.245231 0.336443 0.190072 0.225963 0.334624 0.376327 0.282555 0.286624 0.453033 0.230935 0.115493 0.384928 0.367458 -0.103732 -0.468066
0.072396 0.072823 0.074103 0.076237 0.079223 0.083061 0.087751 0.093290 0.099679 0.106914 0.114994 0.123915 0.133675 0.144268 0.155691 0.167936 0.180997 0.194866 0.209533 0.224986 0.241214 0.258202 0.275933 0.294388 0.313547 0.333386 0.353879 0.374997 0.396708 0.418977 0.441764 0.465027 0.488720 0.512794 0.537192 0.561857 0.586726 0.611730 0.636798 0.661851 0.686809 0.711583 0.736082 0.760209 0.783862 0.806935 0.829316 0.850890 0.871536 0.891131 0.909547 0.926653 0.942316 0.956399 0.968764 0.979272 0.987785 0.994162 0.998266 0.999961 0.999115 0.995599 0.989290 0.980072 0.967836 0.952482 0.933921 0.912076 0.886883 0.858292 0.826271 0.790804 0.751896 0.709571 0.663875 0.614879 0.562677 0.507389 0.449164 0.388174 0.324625 0.258746 0.190800 0.121077 0.049896 0.022395 0.095422 0.168781 0.242046 0.314767 0.386473 0.456674 0.524866 0.590532 0.653148 0.712185 0.767116 0.817419 0.862584 0.902117 0.935546 0.962429 0.982356 0.994963 0.999930 0.996991 0.985941 0.966641 0.939022 0.903095 0.858949 0.806761 0.746795 0.679407 0.605045 0.524250 0.437657 0.345988 0.250055 0.150749 0.049040 0.054037 0.157384 0.259858 0.360277 0.457436 0.550123 0.637130 0.717273 0.789412 0.852461 0.905414 0.947361 0.977504 0.995176 0.999858 0.991196 0.969009 0.933307 0.884298 0.822394 0.748215 0.662592 0.566559 0.461352 0.348395 0.229282 0.105769 0.020259 0.146812 0.271821 0.393174 0.508750 0.616462 0.714286 0.800317 0.872794 0.930153 0.971056 0.994436 0.999521 0.985869 0.953389 0.902357 0.833431 0.747646 0.646416 0.531516 0.405061 0.269472 0.127442 0.018122 0.164144 0.307452 0.444837 0.573136 0.689296 0.790463 0.874045 0.937795 0.979876 0.998920 0.994083 0.965088 0.912249 0.836491 0.739347 0.622941 0.489953 0.343574 0.187433 0.025519 0.137921 0.298482 0.451723 0.593295 0.719063 0.825233 0.908480 0.966057 0.995902 0.996719 0.968049 0.910310 0.824818 0.713774 0.580227 0.428008 0.261631 0.086174 0.092872 0.269766 0.438698 0.593985 0.730268 0.842701 0.927138 0.980301 0.999920 0.984847 0.935136 0.852078 0.738192 0.597174 0.433798 0.253775 0.063558 0.129867 0.319238 0.497290 0.657033 0.792036 0.896697 0.966499 0.998216 0.990085 0.941928 0.855197 0.732973 0.579877 0.401923 0.206307 0.001127 0.204938 0.402994 0.584307 0.740706 0.864961 0.951132 0.994878 0.993705 0.947126 0.856745 0.726242 0.561252 0.369155 0.158772 0.060026 0.276767 0.480873 0.662182 0.811468 0.920925 0.984603 0.998761 0.962112 0.875966 0.744221 0.573231 0.371538 0.149468 0.081368 0.308681 0.520134 0.704036 0.849996 0.949534 0.996605 0.988003 0.923614 0.806502 0.642812 0.441489 0.213833 0.027114 0.267301 0.492464 0.688994 0.844771 0.949936 0.997550 0.984095 0.909775 0.778596 0.598198 0.379468 0.135915 0.117136 0.363481 0.587085 0.773131 0.909020 0.985270 0.996216 0.940480 0.821168 0.645754 0.425678 0.175642 0.087342 0.345075 0.579442 0.773673 0.913600 0.988703 0.992964 0.925405 0.790269 0.596823 0.358786 0.093409 0.179753 0.440244 0.668257 0.846146 0.959835 0.999983 0.962807 0.850501 0.671187 0.438408 0.170158 0.112463 0.386885 0.630856 0.824274 0.950870 0.999641 0.965865 0.851624 0.665776 0.423350 0.144382 0.147676 0.427913 0.672070 0.858673 0.970959 0.998444 0.937981 0.794182 0.579168 0.311622 0.015233 0.283352 0.556912 0.780144 0.932033 0.997897 0.970877 0.852740 0.653879 0.392485
1.000000 1.000000 1.000000 1.000000 1.000000 1.000000 1.000000 1.000000 1.000000 1.000000 1.000000 1.000000 1.000000 1.000000 1.000000 1.000000 1.000000 1.000000 1.000000 1.000000 1.000000 1.000000 1.000000 1.000000 1.000000 1.000000 1.000000 1.000000 1.000000 1.000000 1.000000 1.000000 1.000000 1.000000 1.000000 1.000000 1.000000 1.000000 1.000000 1.000000 1.000000 1.000000 1.000000 1.000000 1.000000 1.000000 1.000000 1.000000 1.000000 1.000000 1.000000 1.000000 0.830683 0.830683 0.830683 0.830683 0.830683 0.830683 0.830683 0.830683 0.805294 0.805294 0.805294 0.805294 0.805294 0.805294 0.805294 0.805294 0.805294 0.805294 0.805294 0.805294 0.805294 0.805294 0.805294 0.805294 0.805294 0.805294 0.805294 0.805294 0.805294 0.805294 0.805294 0.805294 0.805294 0.805294 0.805294 0.805294 0.805294 0.805294 0.805294 0.805294 0.805294 0.805294 0.805294 0.805294 0.805294 0.805294 0.805294 0.805294 0.805294 0.805294 0.805294 0.805294 0.805294 0.954873 0.953915 0.954863 0.953751 0.956818 0.957164 0.957156 0.957055 0.957335 0.957162 0.957197 0.957387 0.957934 0.959186 0.959885 0.960627 0.960609 0.964074 0.962856 0.961751 0.961238 0.957901 0.955565 0.954383 0.954264 0.954825 0.956245 0.957566 0.956542 0.955828 0.956056 0.957194 0.955675 0.954214 0.953390 0.952509 0.952998 0.951850 0.951294 0.951182 0.951541 0.951782 0.952891 0.953152 0.953399 0.953522 0.953594 0.953745 0.955295 0.956165 0.957562 0.954526 0.952238 0.950399 0.947168 0.950453 0.948619 0.948540 0.948256 0.948563 0.948104 0.948132 0.948385 0.938012 0.929591 0.925937 0.913365 0.909211 0.906985 0.906768 0.905998 0.908516 0.906951 0.904296 0.902823 0.896805 0.894401 0.902850 0.898876 0.892735 0.889150 0.892071 0.891396 0.890368 0.883360 0.872440 0.869945 0.867857 0.868551 0.872452 0.861624 0.861722 0.861200 0.856517 0.852790 0.855518 0.852902 0.854130 0.845618 0.843717 0.836359 0.839730 0.832622 0.832063 0.839712 0.843684 0.848389 0.847474 0.843777 0.840519 0.832858 0.778113 0.774648 0.770050 0.774758 0.770797 0.760412 0.747996 0.751901 0.745048 0.743277 0.765495 0.773890 0.783653 0.785761 0.778400 0.768858 0.763423 0.764527 0.769665 0.738562 0.745271 0.745602 0.742952 0.729600 0.729049 0.711739 0.686185 0.676904 0.676684 0.683997 0.686681 0.690753 0.687808 0.684781 0.678852 0.673236 0.665588 0.683039 0.657082 0.653966 0.644021 0.621830 0.630325 0.632470 0.634826 0.644738 0.635604 0.621509 0.607772 0.566313 0.524131 0.527055 0.506703 0.472892 0.482791 0.499225 0.513770 0.455270 0.426886 0.411637 0.396022 0.400784 0.400976 0.465541 0.448037 0.444000 0.451763 0.415110 0.376144 0.360967 0.353532 0.318790 0.285966 0.268968 0.280436 0.287369 0.276029 0.266574 0.239170 0.268896 0.284901 0.302347 0.307526 0.324563 0.310762 0.295225 0.334632 0.345821 0.358820 0.349072 0.363029 0.371620 0.351626 0.343183 0.343606 0.344560 0.371137 0.371491 0.367745 0.391496 0.348098 0.360668 0.339241 0.341689 0.335330 0.300424 0.287309 0.280821 0.271089 0.257907 0.237148 0.238019 0.256915 0.278062 0.262801 0.281643 0.283146 0.283146 0.283146 0.283146 0.283146 0.283146 0.260818 0.260818 0.260818 0.260818 0.260818 0.260818 0.260818 0.260818 0.260818 0.260818 0.237972 0.237972 0.237972 0.237972 0.237972 0.237972 0.237972 0.237972 0.237972 0.237972 0.237972 0.237972 0.237972 0.237972 0.237972
0.000000 0.000000 0.000000 0.000000 0.000000 0.000000 0.000000 0.000000 0.000000 0.000000 0.000000 0.000000 0.000000 0.000000 0.000000 0.000000 0.000000 0.000000 0.000000 0.000000 0.000000 0.000000 0.000000 0.000000 0.000000 0.000000 0.000000 0.000000 0.000000 0.000000 0.000000 0.000000 0.000000 0.000000 0.000000 0.000000 0.000000 0.000000 0.000000 0.000000 0.000000 0.000000 0.000000 0.000000 0.000000 0.000000 0.000000 0.000000 0.000000 0.000000 0.000000 0.000000 0.172133 0.172133 0.172133 0.172133 0.172133 0.172133 0.172133 0.172133 0.189832 0.189832 0.189832 0.189832 0.189832 0.189832 0.189832 0.189832 0.189832 0.189832 0.189832 0.189832 0.189832 0.189832 0.189832 0.189832 0.189832 0.189832 0.189832 0.189832 0.189832 0.189832 0.189832 0.189832 0.189832 0.189832 0.189832 0.189832 0.189832 0.189832 0.189832 0.189832 0.189832 0.189832 0.189832 0.189832 0.189832 0.189832 0.189832 0.189832 0.189832 0.189832 0.189832 0.189832 0.189832 0.222222 0.222222 0.222222 0.222222 0.222222 0.222222 0.222222 0.222222 0.222222 0.222222 0.222222 0.222222 0.222222 0.222222 0.222222 0.222222 0.222222 0.222222 0.222222 0.222222 0.222222 0.222222 0.222222 0.222222 0.222222 0.222222 0.222222 0.222222 0.222222 0.222222 0.234082 0.234082 0.234082 0.234082 0.234082 0.234082 0.234082 0.234082 0.234082 0.234082 0.234082 0.234082 0.234082 0.234082 0.234082 0.234082 0.234082 0.234082 0.234082 0.234082 0.234082 0.234082 0.234082 0.234082 0.234082 0.240772 0.240772 0.240772 0.240772 0.240772 0.240772 0.240772 0.240772 0.240772 0.240772 0.240772 0.240772 0.240772 0.240772 0.240772 0.240772 0.240772 0.240772 0.240772 0.240772 0.240772 0.240772 0.248069 0.248069 0.248069 0.248069 0.248069 0.248069 0.248069 0.248069 0.248069 0.248069 0.248069 0.248069 0.248069 0.248069 0.248069 0.248069 0.248069 0.248069 0.248069 0.248069 0.248069 0.248069 0.248069 0.248069 0.248069 0.248069 0.248069 0.248069 0.248069 0.248069 0.248069 0.248069 0.248069 0.248069 0.248069 0.248069 0.248069 0.256074 0.256074 0.256074 0.256074 0.256074 0.256074 0.256074 0.256074 0.256074 0.256074 0.256074 0.256074 0.256074 0.256074 0.256074 0.256074 0.256074 0.256074 0.256074 0.256074 0.256074 0.256074 0.256074 0.256074 0.256074 0.256074 0.256074 0.256074 0.256074 0.256074 0.256074 0.256074 0.256074 0.256074 0.256074 0.256074 0.256074 0.256074 0.256074 0.256074 0.256074 0.256074 0.256074 0.256074 0.256074 0.251976 0.251976 0.251976 0.251976 0.251976 0.251976 0.251976 0.251976 0.251976 0.251976 0.251976 0.251976 0.251976 0.251976 0.256074 0.256074 0.256074 0.256074 0.256074 0.256074 0.256074 0.256074 0.256074 0.256074 0.256074 0.256074 0.256074 0.260378 0.260378 0.260378 0.260378 0.260378 0.260378 0.260378 0.260378 0.260378 0.260378 0.260378 0.260378 0.251976 0.251976 0.251976 0.251976 0.251976 0.251976 0.251976 0.251976 0.251976 0.251976 0.251976 0.251976 0.248069 0.248069 0.248069 0.248069 0.248069 0.248069 0.248069 0.248069 0.248069 0.248069 0.248069 0.248069 0.251976 0.251976 0.251976 0.251976 0.251976 0.251976 0.251976 0.251976 0.251976 0.251976 0.251976 0.260378 0.260378 0.260378 0.260378 0.260378 0.260378 0.260378 0.260378 0.260378 0.260378 0.244339 0.244339 0.244339 0.244339 0.244339 0.244339 0.244339 0.244339 0.244339 0.244339 0.244339 0.244339 0.244339 0.244339 0.244339
