# Output from CTFFind version 4.1.9, run on 2019-11-03 18:51:21
# Input file: stack5_ub_averaged_250.mrc ; Number of micrographs: 1
# Pixel size: 3.000 Angstroms ; acceleration voltage: 300.0 keV ; spherical aberration: 0.00 mm ; amplitude contrast: 0.07
# Box size: 512 pixels ; min. res.: 30.0 Angstroms ; max. res.: 5.0 Angstroms ; min. def.: 5000.0 um; max. def. 50000.0 um; num. frames averaged: 1
# 6 lines per micrograph: #1 - spatial frequency (1/Angstroms); #2 - 1D rotational average of spectrum (assuming no astigmatism); #3 - 1D rotational average of spectrum; #4 - CTF fit; #5 - cross-correlation between spectrum and CTF fit; #6 - 2sigma of expected cross correlation of noise
0.000000 0.000651 0.001302 0.001953 0.002604 0.003255 0.003906 0.004557 0.005208 0.005859 0.006510 0.007161 0.007812 0.008464 0.009115 0.009766 0.010417 0.011068 0.011719 0.012370 0.013021 0.013672 0.014323 0.014974 0.015625 0.016276 0.016927 0.017578 0.018229 0.018880 0.019531 0.020182 0.020833 0.021484 0.022135 0.022786 0.023438 0.024089 0.024740 0.025391 0.026042 0.026693 0.027344 0.027995 0.028646 0.029297 0.029948 0.030599 0.031250 0.031901 0.032552 0.033203 0.033854 0.034505 0.035156 0.035807 0.036458 0.037109 0.037760 0.038411 0.039062 0.039714 0.040365 0.041016 0.041667 0.042318 0.042969 0.043620 0.044271 0.044922 0.045573 0.046224 0.046875 0.047526 0.048177 0.048828 0.049479 0.050130 0.050781 0.051432 0.052083 0.052734 0.053385 0.054036 0.054688 0.055339 0.055990 0.056641 0.057292 0.057943 0.058594 0.059245 0.059896 0.060547 0.061198 0.061849 0.062500 0.063151 0.063802 0.064453 0.065104 0.065755 0.066406 0.067057 0.067708 0.068359 0.069010 0.069661 0.070312 0.070964 0.071615 0.072266 0.072917 0.073568 0.074219 0.074870 0.075521 0.076172 0.076823 0.077474 0.078125 0.078776 0.079427 0.080078 0.080729 0.081380 0.082031 0.082682 0.083333 0.083984 0.084635 0.085286 0.085938 0.086589 0.087240 0.087891 0.088542 0.089193 0.089844 0.090495 0.091146 0.091797 0.092448 0.093099 0.093750 0.094401 0.095052 0.095703 0.096354 0.097005 0.097656 0.098307 0.098958 0.099609 0.100260 0.100911 0.101562 0.102214 0.102865 0.103516 0.104167 0.104818 0.105469 0.106120 0.106771 0.107422 0.108073 0.108724 0.109375 0.110026 0.110677 0.111328 0.111979 0.112630 0.113281 0.113932 0.114583 0.115234 0.115885 0.116536 0.117188 0.117839 0.118490 0.119141 0.119792 0.120443 0.121094 0.121745 0.122396 0.123047 0.123698 0.124349 0.125000 0.125651 0.126302 0.126953 0.127604 0.128255 0.128906 0.129557 0.130208 0.130859 0.131510 0.132161 0.132812 0.133464 0.134115 0.134766 0.135417 0.136068 0.136719 0.137370 0.138021 0.138672 0.139323 0.139974 0.140625 0.141276 0.141927 0.142578 0.143229 0.143880 0.144531 0.145182 0.145833 0.146484 0.147135 0.147786 0.148438 0.149089 0.149740 0.150391 0.151042 0.151693 0.152344 0.152995 0.153646 0.154297 0.154948 0.155599 0.156250 0.156901 0.157552 0.158203 0.158854 0.159505 0.160156 0.160807 0.161458 0.162109 0.162760 0.163411 0.164062 0.164714 0.165365 0.166016 0.166667 0.167318 0.167969 0.168620 0.169271 0.169922 0.170573 0.171224 0.171875 0.172526 0.173177 0.173828 0.174479 0.175130 0.175781 0.176432 0.177083 0.177734 0.178385 0.179036 0.179688 0.180339 0.180990 0.181641 0.182292 0.182943 0.183594 0.184245 0.184896 0.185547 0.186198 0.186849 0.187500 0.188151 0.188802 0.189453 0.190104 0.190755 0.191406 0.192057 0.192708 0.193359 0.194010 0.194661 0.195312 0.195964 0.196615 0.197266 0.197917 0.198568 0.199219 0.199870 0.200521 0.201172 0.201823 0.202474 0.203125 0.203776 0.204427 0.205078 0.205729 0.206380 0.207031 0.207682 0.208333 0.208984 0.209635 0.210286 0.210938 0.211589 0.212240 0.212891 0.213542 0.214193 0.214844 0.215495 0.216146 0.216797 0.217448 0.218099 0.218750 0.219401 0.220052 0.220703 0.221354 0.222005 0.222656 0.223307 0.223958 0.224609 0.225260 0.225911 0.226562 0.227214 0.227865 0.228516 0.229167 0.229818 0.230469 0.231120 0.231771 0.232422 0.233073 0.233724 0.234375 0.235026 0.235677
       0.35271        0.35271        0.35271        0.35271        0.35271        0.35271        0.35271        0.35271        0.35271        0.35271        0.35271        0.35271        0.35271        0.35271        0.35271        0.35271        0.35271        0.35271        0.35271        0.35271        0.35271        0.35271        0.35271        0.35271        0.35271        0.35271        0.35271        0.35271        0.35271        0.35271        0.35271        0.35271        0.35271        0.35271        0.35271        0.35271        0.35271        0.35271        0.35271        0.35271        0.35271        0.35271        0.35271        0.35271        0.35271        0.35271        0.35271        0.35271        0.35271        0.35271        0.35271        0.53191        0.89190        0.66260        0.18416        0.21617        0.03510        0.07750       -0.02172        0.03945        0.17434        0.43829        0.44942        0.23819        0.26559        0.05943        0.00311       -0.02278       -0.12781       -0.13082       -0.10501        0.03553       -0.08716       -0.06157       -0.12126       -0.20691       -0.20460       -0.30803       -0.25958       -0.26929       -0.22936       -0.26122       -0.25371       -0.30127       -0.37841       -0.29851       -0.24552       -0.12482       -0.09763       -0.01218        0.11968        0.17261        0.09951        0.29093        0.42989        0.34700        0.48705        0.65107        0.57474        0.59016        0.67015        0.59269        0.69078        0.71120        0.76111        0.62530        0.63231        0.68101        0.66029        0.49664        0.48607        0.50418        0.37816        0.28843        0.19351        0.13810        0.09404        0.01695        0.13252        0.06061        0.08212        0.07320        0.13934        0.10770        0.20063        0.26603        0.34844        0.38760        0.46558        0.56154        0.57742        0.67788        0.72947        0.63765        0.62515        0.68339        0.58419        0.47617        0.49344        0.40265        0.37695        0.32132        0.24528        0.19001        0.16389        0.16852        0.07191        0.14994        0.17573        0.14630        0.16451        0.29545        0.40549        0.42480        0.44971        0.47703        0.51729        0.59773        0.53639        0.57528        0.55816        0.48968        0.42242        0.35162        0.38751        0.29916        0.22979        0.27616        0.28168        0.22656        0.18751        0.27353        0.29747        0.30837        0.37972        0.41605        0.46787        0.47111        0.52945        0.54608        0.44741        0.42286        0.41504        0.45646        0.39810        0.27765        0.31861        0.27958        0.28758        0.30075        0.32292        0.30020        0.30388        0.35640        0.33627        0.38570        0.44383        0.47060        0.40075        0.36913        0.43939        0.42392        0.35572        0.33575        0.32196        0.34769        0.34770        0.33189        0.26766        0.32900        0.37440        0.32139        0.34427        0.41474        0.43988        0.43589        0.45885        0.39855        0.38965        0.36504        0.30873        0.30166        0.24214        0.26391        0.32339        0.29917        0.33979        0.33753        0.35217        0.36549        0.36458        0.37341        0.40016        0.40296        0.37132        0.35955        0.33364        0.32553        0.30256        0.34297        0.30050        0.29647        0.31154        0.35435        0.36648        0.37955        0.40585        0.37834        0.36996        0.34539        0.31803        0.28510        0.29885        0.29027        0.30882        0.29679        0.32030        0.31560        0.34700        0.32039        0.35603        0.33553        0.39279        0.34057        0.34458        0.29870        0.32227        0.28300        0.30033        0.29402        0.30770        0.32212        0.31382        0.32223        0.31097        0.31843        0.32794        0.38037        0.30544        0.32351        0.29559        0.32593        0.29947        0.32638        0.32291        0.32722        0.33246        0.31808        0.34825        0.38087        0.34325        0.32474        0.31334        0.33938        0.29874        0.35702        0.30821        0.32783        0.36993        0.40163        0.35574        0.38749        0.34008        0.31992        0.30640        0.34347        0.31861        0.32887        0.33530        0.28772        0.28533        0.32987        0.34912        0.29970        0.31679        0.36342        0.35032        0.25689        0.30321        0.33586        0.30300        0.21102        0.31122        0.31196        0.26118        0.26866        0.26377        0.29844        0.27394        0.23929        0.19333        0.26502        0.27935        0.25541        0.31304        0.38832        0.33292        0.27808        0.27756        0.26451        0.29564        0.25018        0.26971        0.25700        0.24797        0.28384        0.25633        0.26037        0.26973        0.27555        0.26223        0.30234        0.25329        0.19800        0.23021        0.25820        0.26352        0.17957        0.19686        0.16488        0.15927       -0.40924       -0.75175
2.910140 2.881748 2.853498 2.825391 2.797427 2.769605 2.741925 2.714388 2.686994 2.659742 2.632633 2.605667 2.578843 2.552161 2.525622 2.499226 2.472973 2.446861 2.420893 2.395067 2.369383 2.343843 2.318444 2.293189 2.268076 2.243105 2.218277 2.193592 2.169049 2.144649 2.120391 2.096276 2.072303 2.048473 2.024786 2.001241 1.977839 1.954579 1.931462 1.908488 1.885656 1.862966 1.840420 1.818015 1.795754 1.773635 1.751658 1.729824 1.708133 1.686584 1.665178 1.739084 2.494488 2.247600 1.272599 1.299944 1.148513 1.261022 0.935646 0.907325 1.133357 1.627983 1.493766 1.364933 1.168541 0.966816 0.804796 0.746644 0.572726 0.593496 0.521977 0.796881 0.611047 0.585507 0.480483 0.330259 0.286969 0.185777 0.184687 0.187392 0.190297 0.092329 0.175062 0.048927 -0.064787 0.032733 0.000474 0.220426 0.271499 0.325357 0.553476 0.657359 0.478819 0.711992 0.917066 0.897325 0.934283 1.282745 1.179041 1.071373 1.308509 1.186318 1.117970 1.265770 1.402678 1.093577 1.035546 1.192798 1.224487 0.843705 0.869978 0.867480 0.737436 0.496831 0.429956 0.251797 0.254055 -0.047163 0.190335 0.161945 0.109649 0.037582 0.225970 0.072942 0.191607 0.249590 0.501038 0.449592 0.511557 0.776804 0.675285 0.864285 0.995333 0.876906 0.690050 0.965291 0.783363 0.503617 0.577247 0.415586 0.446598 0.285387 0.112692 0.146048 -0.044695 0.041344 -0.146709 -0.071937 -0.007285 -0.032471 -0.114311 0.060471 0.301228 0.317649 0.352999 0.352424 0.437401 0.528829 0.539239 0.492513 0.469477 0.492498 0.287037 0.158636 0.294834 0.135125 -0.005354 -0.048716 0.072287 -0.016002 -0.129514 -0.036419 0.065866 0.003611 0.138074 0.165700 0.288419 0.286837 0.306857 0.480494 0.336022 0.299762 0.191299 0.335931 0.279844 0.076053 0.067957 0.044978 0.040696 0.015767 0.145233 0.054146 0.039618 0.062773 0.172527 0.087427 0.200933 0.316657 0.225676 0.084669 0.239032 0.174997 0.173331 0.048777 0.006145 0.100595 0.079834 0.069269 -0.031085 -0.027911 0.096469 0.079774 -0.019079 0.119604 0.164058 0.238170 0.155542 0.240263 0.122171 0.111378 0.040295 -0.016429 -0.027691 -0.145451 0.011705 0.003923 0.000164 0.043524 0.079609 0.072867 0.128025 0.079547 0.113245 0.131439 0.150142 0.089735 0.044825 0.073324 -0.005395 0.046039 0.020145 0.031977 -0.052774 0.051500 0.078433 0.109706 0.132397 0.189937 0.120455 0.125453 0.056207 0.015820 0.003566 0.021562 0.004281 0.046111 -0.008396 0.059671 0.052988 0.054785 0.058245 0.118898 0.090763 0.200618 0.005801 0.094197 0.013122 0.071830 -0.038986 0.053864 -0.014555 0.026887 0.047615 0.047164 0.024815 0.042645 -0.007038 0.086151 0.102428 -0.015364 0.015397 -0.034209 0.022073 0.021957 -0.003284 0.045149 0.004342 0.037575 0.011887 0.082974 0.090627 -0.014269 0.036450 -0.028839 0.064960 -0.069839 0.070853 -0.039686 -0.000930 0.104672 0.168009 0.052179 0.109309 -0.018248 0.021783 -0.024239 0.033377 0.048805 -0.030212 0.053820 -0.079787 -0.035578 0.144790 0.051156 0.014007 0.030486 0.147993 0.054522 -0.058956 0.108298 0.051707 0.034290 -0.172599 0.094221 0.032917 -0.046093 -0.011224 0.023025 0.079582 -0.012436 -0.046280 -0.093147 0.084113 0.022802 -0.027690 0.083927 0.244799 0.081839 0.069548 0.082083 -0.023416 0.107739 0.005788 0.097708 0.019388 0.117188 0.076157 0.049946 0.128368 0.096900 0.114461 0.135355 0.130807 0.147650 0.061021 0.283948 0.401733 0.387886 0.269188 0.324333 0.161955 0.250895 -1.142301
0.072396 0.072830 0.074133 0.076304 0.079343 0.083249 0.088021 0.093659 0.100160 0.107522 0.115744 0.124822 0.134752 0.145531 0.157152 0.169610 0.182897 0.197005 0.211924 0.227641 0.244144 0.261417 0.279443 0.298202 0.317673 0.337831 0.358648 0.380093 0.402134 0.424733 0.447849 0.471437 0.495450 0.519834 0.544532 0.569483 0.594620 0.619873 0.645165 0.670415 0.695537 0.720441 0.745030 0.769203 0.792853 0.815869 0.838136 0.859531 0.879932 0.899208 0.917228 0.933856 0.948952 0.962377 0.973988 0.983642 0.991197 0.996509 0.999439 0.999848 0.997603 0.992574 0.984639 0.973681 0.959595 0.942284 0.921663 0.897660 0.870219 0.839298 0.804875 0.766945 0.725526 0.680658 0.632402 0.580847 0.526107 0.468325 0.407670 0.344340 0.278566 0.210606 0.140748 0.069314 0.003350 0.076864 0.150822 0.224794 0.298322 0.370928 0.442112 0.511360 0.578144 0.641928 0.702168 0.758323 0.809855 0.856240 0.896966 0.931545 0.959520 0.980466 0.994002 0.999794 0.997564 0.987096 0.968240 0.940922 0.905146 0.861000 0.808660 0.748394 0.680565 0.605632 0.524148 0.436763 0.344223 0.247358 0.147088 0.044409 0.059612 0.163847 0.267119 0.368212 0.465889 0.558905 0.646021 0.726027 0.797756 0.860104 0.912049 0.952671 0.981169 0.996883 0.999305 0.988101 0.963121 0.924414 0.872234 0.807046 0.729537 0.640604 0.541361 0.433122 0.317395 0.195864 0.070367 0.057129 0.184552 0.309762 0.430583 0.544847 0.650427 0.745281 0.827499 0.895338 0.947272 0.982025 0.998610 0.996363 0.974969 0.934483 0.875348 0.798402 0.704876 0.596383 0.474905 0.342760 0.202569 0.057204 0.090256 0.236600 0.378543 0.512806 0.636188 0.745655 0.838409 0.911973 0.964264 0.993657 0.999048 0.979902 0.936286 0.868896 0.779057 0.668717 0.540417 0.397245 0.242771 0.080971 0.083874 0.247284 0.404701 0.551612 0.683694 0.796932 0.887761 0.953181 0.990873 0.999291 0.977738 0.926417 0.846458 0.739914 0.609728 0.459669 0.294235 0.118539 0.061852 0.241073 0.413159 0.572246 0.712766 0.829660 0.918563 0.975993 0.999492 0.987754 0.940710 0.859570 0.746820 0.606172 0.442457 0.261490 0.069865 0.125261 0.316441 0.496213 0.657395 0.793388 0.898449 0.967957 0.998637 0.988733 0.938130 0.848405 0.722818 0.566215 0.384875 0.186271 0.021209 0.228618 0.426824 0.606910 0.760594 0.880615 0.961101 0.997878 0.988714 0.933481 0.834218 0.695098 0.522286 0.323695 0.108647 0.112541 0.329042 0.530061 0.705356 0.845793 0.943832 0.993968 0.993064 0.940582 0.838684 0.692185 0.508372 0.296668 0.068187 0.164838 0.389692 0.593877 0.765820 0.895535 0.975243 0.999871 0.967408 0.879108 0.739492 0.556175 0.339477 0.101901 0.142589 0.379357 0.593980 0.773132 0.905433 0.982214 0.998110 0.951493 0.844661 0.683788 0.478615 0.241919 0.011261 0.264551 0.501287 0.705623 0.863611 0.964184 0.999971 0.967894 0.869476 0.710844 0.502411 0.258239 0.004857 0.268450 0.513775 0.723078 0.880913 0.975327 0.998815 0.948973 0.828790 0.646547 0.415311 0.152058 0.123542 0.390553 0.628389 0.818389 0.945325 0.998682 0.973579 0.871282 0.699240 0.470617 0.203348 0.081221 0.359999 0.610026 0.810374 0.943937 0.998942 0.970061 0.858992 0.674468 0.431651 0.150947 0.143641 0.426550 0.672869 0.860556 0.972447 0.997905 0.933902 0.785442 0.565284 0.292917 0.007098 0.307292 0.579781 0.798890 0.943589 0.999586 0.960824 0.830212 0.619533 0.348466 0.042837 0.267794 0.552971
1.000000 1.000000 1.000000 1.000000 1.000000 1.000000 1.000000 1.000000 1.000000 1.000000 1.000000 1.000000 1.000000 1.000000 1.000000 1.000000 1.000000 1.000000 1.000000 1.000000 1.000000 1.000000 1.000000 1.000000 1.000000 1.000000 1.000000 1.000000 1.000000 1.000000 1.000000 1.000000 1.000000 1.000000 1.000000 1.000000 1.000000 1.000000 1.000000 1.000000 1.000000 1.000000 1.000000 1.000000 1.000000 1.000000 1.000000 1.000000 1.000000 1.000000 1.000000 1.000000 0.832098 0.832098 0.832098 0.832098 0.832098 0.832098 0.832098 0.825674 0.825674 0.825674 0.825674 0.825674 0.825674 0.825674 0.825674 0.825674 0.825674 0.825674 0.825674 0.825674 0.825674 0.825674 0.825674 0.825674 0.825674 0.825674 0.825674 0.825674 0.825674 0.825674 0.825674 0.825674 0.825674 0.825674 0.825674 0.825674 0.825674 0.825674 0.825674 0.825674 0.825674 0.825674 0.825674 0.825674 0.825674 0.825674 0.825674 0.825674 0.825674 0.825674 0.825674 0.825674 0.939675 0.938477 0.940143 0.941268 0.938291 0.942782 0.939269 0.942768 0.943903 0.944101 0.944704 0.945444 0.946584 0.947755 0.953206 0.955195 0.955195 0.955429 0.954098 0.956379 0.953396 0.950503 0.942637 0.935231 0.931140 0.928500 0.930252 0.931725 0.929725 0.930282 0.932777 0.933134 0.929784 0.928757 0.927175 0.926382 0.925399 0.924797 0.925246 0.926373 0.926354 0.926185 0.924324 0.924152 0.924574 0.924264 0.924095 0.924401 0.926497 0.928957 0.900698 0.899030 0.892411 0.894422 0.888790 0.894069 0.895410 0.893208 0.891148 0.891569 0.892133 0.888073 0.856105 0.855262 0.850112 0.846271 0.827887 0.811850 0.810551 0.811227 0.809881 0.818906 0.822131 0.823019 0.819811 0.795346 0.777140 0.776765 0.773178 0.777120 0.777094 0.781642 0.779837 0.778050 0.773042 0.767692 0.765181 0.766497 0.753431 0.745033 0.741157 0.738810 0.738288 0.738292 0.739834 0.737163 0.740220 0.747296 0.748844 0.740135 0.734055 0.738246 0.741698 0.736008 0.732640 0.730355 0.723466 0.717638 0.710805 0.706394 0.706006 0.712266 0.708597 0.708393 0.704528 0.697245 0.664539 0.696585 0.690017 0.692942 0.707768 0.716182 0.720150 0.718150 0.708086 0.691989 0.695963 0.689926 0.682171 0.684869 0.673154 0.681275 0.682736 0.678391 0.699020 0.676752 0.670304 0.672009 0.668039 0.677445 0.652586 0.646393 0.610856 0.606504 0.585678 0.578272 0.574303 0.593104 0.585217 0.582248 0.568491 0.581112 0.573659 0.573933 0.573429 0.583265 0.582721 0.576696 0.564391 0.541528 0.535623 0.459648 0.473875 0.460975 0.448111 0.456708 0.480827 0.503946 0.497794 0.504113 0.499849 0.505049 0.478803 0.455028 0.437577 0.430366 0.390070 0.400423 0.430497 0.439323 0.432762 0.408531 0.364129 0.314126 0.310861 0.296379 0.259440 0.283722 0.298413 0.299774 0.293827 0.290525 0.239731 0.258108 0.266150 0.257638 0.264722 0.197189 0.218363 0.236018 0.242837 0.264563 0.204915 0.194200 0.207359 0.199649 0.159250 0.161819 0.217327 0.236703 0.204222 0.195030 0.181723 0.172238 0.146637 0.141588 0.141443 0.151991 0.101147 0.064379 0.069464 0.038645 0.063430 0.031959 0.056390 0.098325 0.121579 0.099248 0.123519 0.123519 0.123519 0.053905 0.053905 0.053905 0.053905 0.053905 0.053905 0.053905 0.053905 0.053905 0.053905 0.130024 0.130024 0.130024 0.130024 0.130024 0.130024 0.130024 0.130024 0.130024 0.130024 0.130024 0.130024 0.130024 0.130024 0.130024 0.130024 0.130024 0.130024
0.000000 0.000000 0.000000 0.000000 0.000000 0.000000 0.000000 0.000000 0.000000 0.000000 0.000000 0.000000 0.000000 0.000000 0.000000 0.000000 0.000000 0.000000 0.000000 0.000000 0.000000 0.000000 0.000000 0.000000 0.000000 0.000000 0.000000 0.000000 0.000000 0.000000 0.000000 0.000000 0.000000 0.000000 0.000000 0.000000 0.000000 0.000000 0.000000 0.000000 0.000000 0.000000 0.000000 0.000000 0.000000 0.000000 0.000000 0.000000 0.000000 0.000000 0.000000 0.000000 0.173422 0.173422 0.173422 0.173422 0.173422 0.173422 0.173422 0.189832 0.189832 0.189832 0.189832 0.189832 0.189832 0.189832 0.189832 0.189832 0.189832 0.189832 0.189832 0.189832 0.189832 0.189832 0.189832 0.189832 0.189832 0.189832 0.189832 0.189832 0.189832 0.189832 0.189832 0.189832 0.189832 0.189832 0.189832 0.189832 0.189832 0.189832 0.189832 0.189832 0.189832 0.189832 0.189832 0.189832 0.189832 0.189832 0.189832 0.189832 0.189832 0.189832 0.189832 0.189832 0.222222 0.222222 0.222222 0.222222 0.222222 0.222222 0.222222 0.222222 0.222222 0.222222 0.222222 0.222222 0.222222 0.222222 0.222222 0.222222 0.222222 0.222222 0.222222 0.222222 0.222222 0.222222 0.222222 0.222222 0.222222 0.222222 0.222222 0.222222 0.222222 0.222222 0.234082 0.234082 0.234082 0.234082 0.234082 0.234082 0.234082 0.234082 0.234082 0.234082 0.234082 0.234082 0.234082 0.234082 0.234082 0.234082 0.234082 0.234082 0.234082 0.234082 0.234082 0.234082 0.234082 0.234082 0.234082 0.244339 0.244339 0.244339 0.244339 0.244339 0.244339 0.244339 0.244339 0.244339 0.244339 0.244339 0.244339 0.244339 0.244339 0.244339 0.244339 0.244339 0.244339 0.244339 0.244339 0.244339 0.248069 0.248069 0.248069 0.248069 0.248069 0.248069 0.248069 0.248069 0.248069 0.248069 0.248069 0.248069 0.248069 0.248069 0.248069 0.248069 0.248069 0.248069 0.248069 0.248069 0.248069 0.248069 0.248069 0.248069 0.248069 0.248069 0.248069 0.248069 0.248069 0.248069 0.248069 0.248069 0.248069 0.248069 0.248069 0.248069 0.248069 0.256074 0.256074 0.256074 0.256074 0.256074 0.256074 0.256074 0.256074 0.256074 0.256074 0.256074 0.256074 0.256074 0.256074 0.256074 0.256074 0.256074 0.256074 0.256074 0.256074 0.256074 0.256074 0.256074 0.256074 0.256074 0.256074 0.256074 0.256074 0.256074 0.256074 0.256074 0.256074 0.256074 0.256074 0.256074 0.256074 0.256074 0.256074 0.256074 0.256074 0.256074 0.256074 0.256074 0.256074 0.256074 0.260378 0.260378 0.260378 0.260378 0.260378 0.260378 0.260378 0.260378 0.260378 0.260378 0.260378 0.260378 0.260378 0.256074 0.256074 0.256074 0.256074 0.256074 0.256074 0.256074 0.256074 0.256074 0.256074 0.256074 0.256074 0.256074 0.248069 0.248069 0.248069 0.248069 0.248069 0.248069 0.248069 0.248069 0.248069 0.248069 0.248069 0.248069 0.248069 0.264906 0.264906 0.264906 0.264906 0.264906 0.264906 0.264906 0.264906 0.264906 0.264906 0.264906 0.248069 0.248069 0.248069 0.248069 0.248069 0.248069 0.248069 0.248069 0.248069 0.248069 0.248069 0.248069 0.251976 0.251976 0.251976 0.251976 0.251976 0.251976 0.251976 0.251976 0.251976 0.251976 0.251976 0.260378 0.260378 0.260378 0.260378 0.260378 0.260378 0.260378 0.260378 0.260378 0.260378 0.244339 0.244339 0.244339 0.244339 0.244339 0.244339 0.244339 0.244339 0.244339 0.244339 0.244339 0.244339 0.244339 0.244339 0.244339 0.244339 0.244339 0.244339
