# Output from CTFFind version 4.1.9, run on 2019-11-03 18:51:21
# Input file: stack3_ub_averaged_250.mrc ; Number of micrographs: 1
# Pixel size: 3.000 Angstroms ; acceleration voltage: 300.0 keV ; spherical aberration: 0.00 mm ; amplitude contrast: 0.07
# Box size: 512 pixels ; min. res.: 30.0 Angstroms ; max. res.: 5.0 Angstroms ; min. def.: 5000.0 um; max. def. 50000.0 um; num. frames averaged: 1
# 6 lines per micrograph: #1 - spatial frequency (1/Angstroms); #2 - 1D rotational average of spectrum (assuming no astigmatism); #3 - 1D rotational average of spectrum; #4 - CTF fit; #5 - cross-correlation between spectrum and CTF fit; #6 - 2sigma of expected cross correlation of noise
0.000000 0.000651 0.001302 0.001953 0.002604 0.003255 0.003906 0.004557 0.005208 0.005859 0.006510 0.007161 0.007812 0.008464 0.009115 0.009766 0.010417 0.011068 0.011719 0.012370 0.013021 0.013672 0.014323 0.014974 0.015625 0.016276 0.016927 0.017578 0.018229 0.018880 0.019531 0.020182 0.020833 0.021484 0.022135 0.022786 0.023438 0.024089 0.024740 0.025391 0.026042 0.026693 0.027344 0.027995 0.028646 0.029297 0.029948 0.030599 0.031250 0.031901 0.032552 0.033203 0.033854 0.034505 0.035156 0.035807 0.036458 0.037109 0.037760 0.038411 0.039062 0.039714 0.040365 0.041016 0.041667 0.042318 0.042969 0.043620 0.044271 0.044922 0.045573 0.046224 0.046875 0.047526 0.048177 0.048828 0.049479 0.050130 0.050781 0.051432 0.052083 0.052734 0.053385 0.054036 0.054688 0.055339 0.055990 0.056641 0.057292 0.057943 0.058594 0.059245 0.059896 0.060547 0.061198 0.061849 0.062500 0.063151 0.063802 0.064453 0.065104 0.065755 0.066406 0.067057 0.067708 0.068359 0.069010 0.069661 0.070312 0.070964 0.071615 0.072266 0.072917 0.073568 0.074219 0.074870 0.075521 0.076172 0.076823 0.077474 0.078125 0.078776 0.079427 0.080078 0.080729 0.081380 0.082031 0.082682 0.083333 0.083984 0.084635 0.085286 0.085938 0.086589 0.087240 0.087891 0.088542 0.089193 0.089844 0.090495 0.091146 0.091797 0.092448 0.093099 0.093750 0.094401 0.095052 0.095703 0.096354 0.097005 0.097656 0.098307 0.098958 0.099609 0.100260 0.100911 0.101562 0.102214 0.102865 0.103516 0.104167 0.104818 0.105469 0.106120 0.106771 0.107422 0.108073 0.108724 0.109375 0.110026 0.110677 0.111328 0.111979 0.112630 0.113281 0.113932 0.114583 0.115234 0.115885 0.116536 0.117188 0.117839 0.118490 0.119141 0.119792 0.120443 0.121094 0.121745 0.122396 0.123047 0.123698 0.124349 0.125000 0.125651 0.126302 0.126953 0.127604 0.128255 0.128906 0.129557 0.130208 0.130859 0.131510 0.132161 0.132812 0.133464 0.134115 0.134766 0.135417 0.136068 0.136719 0.137370 0.138021 0.138672 0.139323 0.139974 0.140625 0.141276 0.141927 0.142578 0.143229 0.143880 0.144531 0.145182 0.145833 0.146484 0.147135 0.147786 0.148438 0.149089 0.149740 0.150391 0.151042 0.151693 0.152344 0.152995 0.153646 0.154297 0.154948 0.155599 0.156250 0.156901 0.157552 0.158203 0.158854 0.159505 0.160156 0.160807 0.161458 0.162109 0.162760 0.163411 0.164062 0.164714 0.165365 0.166016 0.166667 0.167318 0.167969 0.168620 0.169271 0.169922 0.170573 0.171224 0.171875 0.172526 0.173177 0.173828 0.174479 0.175130 0.175781 0.176432 0.177083 0.177734 0.178385 0.179036 0.179688 0.180339 0.180990 0.181641 0.182292 0.182943 0.183594 0.184245 0.184896 0.185547 0.186198 0.186849 0.187500 0.188151 0.188802 0.189453 0.190104 0.190755 0.191406 0.192057 0.192708 0.193359 0.194010 0.194661 0.195312 0.195964 0.196615 0.197266 0.197917 0.198568 0.199219 0.199870 0.200521 0.201172 0.201823 0.202474 0.203125 0.203776 0.204427 0.205078 0.205729 0.206380 0.207031 0.207682 0.208333 0.208984 0.209635 0.210286 0.210938 0.211589 0.212240 0.212891 0.213542 0.214193 0.214844 0.215495 0.216146 0.216797 0.217448 0.218099 0.218750 0.219401 0.220052 0.220703 0.221354 0.222005 0.222656 0.223307 0.223958 0.224609 0.225260 0.225911 0.226562 0.227214 0.227865 0.228516 0.229167 0.229818 0.230469 0.231120 0.231771 0.232422 0.233073 0.233724 0.234375 0.235026 0.235677
       0.33468        0.33468        0.33468        0.33468        0.33468        0.33468        0.33468        0.33468        0.33468        0.33468        0.33468        0.33468        0.33468        0.33468        0.33468        0.33468        0.33468        0.33468        0.33468        0.33468        0.33468        0.33468        0.33468        0.33468        0.33468        0.33468        0.33468        0.33468        0.33468        0.33468        0.33468        0.33468        0.33468        0.33468        0.33468        0.33468        0.33468        0.33468        0.33468        0.33468        0.33468        0.33468        0.33468        0.33468        0.33468        0.33468        0.33468        0.33468        0.33468        0.33468        0.33468        0.45070        0.75832        0.36209        0.09359       -0.16336       -0.20710       -0.37148       -0.43308       -0.44670       -0.37435       -0.42830       -0.39979       -0.41287       -0.58644       -0.59405       -0.62169       -0.75327       -0.74561       -0.64202       -0.67215       -0.67235       -0.68744       -0.61498       -0.60656       -0.54302       -0.34166       -0.34353       -0.29986       -0.12539        0.01964        0.04691        0.20406        0.21602        0.39388        0.49862        0.58701        0.54010        0.60439        0.58198        0.50506        0.62012        0.60538        0.57049        0.54529        0.47815        0.38607        0.30422        0.18177        0.07348        0.00835       -0.05405       -0.03473       -0.02415        0.00773        0.00973        0.11522        0.16034        0.27186        0.33115        0.41727        0.54139        0.57321        0.64422        0.77517        0.76413        0.79276        0.75850        0.57487        0.49951        0.34441        0.34894        0.21578        0.13461        0.13627        0.08573        0.01667        0.03814        0.07907        0.18209        0.31287        0.33967        0.48529        0.54862        0.62027        0.54981        0.56963        0.57817        0.51797        0.49695        0.48817        0.36322        0.22467        0.15880        0.15032        0.16990        0.10737        0.13016        0.14840        0.21747        0.33363        0.36707        0.41288        0.50110        0.62232        0.51569        0.53146        0.46845        0.40576        0.30589        0.26976        0.23408        0.22619        0.15792        0.18829        0.20868        0.27180        0.39038        0.44359        0.45013        0.50020        0.50607        0.50438        0.46779        0.42387        0.38866        0.27325        0.23469        0.22848        0.22523        0.25933        0.31331        0.37305        0.40734        0.41319        0.42586        0.43440        0.44900        0.41408        0.36085        0.27211        0.31496        0.29924        0.31696        0.26835        0.31203        0.31418        0.41066        0.43592        0.39700        0.40140        0.36299        0.36402        0.35078        0.29025        0.23848        0.26033        0.23962        0.23827        0.31733        0.37147        0.37348        0.38535        0.37348        0.39721        0.37858        0.34905        0.27921        0.29558        0.31817        0.29567        0.32973        0.36757        0.34907        0.38657        0.34778        0.34431        0.32765        0.34435        0.33789        0.35018        0.30870        0.28945        0.32521        0.35884        0.34688        0.33084        0.31547        0.31964        0.30769        0.31653        0.32075        0.32314        0.31206        0.30056        0.33618        0.31485        0.32528        0.31759        0.34339        0.32076        0.29979        0.29516        0.29987        0.30677        0.28923        0.31026        0.35982        0.34144        0.32979        0.29049        0.31781        0.33316        0.32932        0.29322        0.27866        0.27541        0.32027        0.31628        0.31238        0.30932        0.30324        0.28666        0.28448        0.28011        0.29441        0.30503        0.33411        0.31695        0.34904        0.28203        0.27174        0.32167        0.33752        0.31880        0.30695        0.27810        0.30179        0.35681        0.37629        0.35716        0.29678        0.30989        0.34626        0.28610        0.32601        0.32093        0.31037        0.32289        0.30807        0.32499        0.31738        0.26658        0.29264        0.30147        0.29618        0.35839        0.34786        0.32059        0.30673        0.29689        0.26617        0.27928        0.29418        0.30479        0.26563        0.29863        0.28119        0.28885        0.25982        0.23598        0.25097        0.28612        0.33567        0.35780        0.33476        0.34560        0.27695        0.29902        0.28210        0.20804        0.19065        0.26742        0.28080        0.30641        0.35648        0.25076        0.27158        0.20578        0.26106        0.26889        0.32801        0.24423        0.18527        0.20766        0.26363        0.21681        0.20421        0.27003        0.28566        0.24180        0.19679        0.26399        0.23878        0.17978        0.19625        0.27617        0.10879        0.14257        0.23565       -0.04099       -0.36066       -0.41914
2.492958 2.464568 2.436344 2.408288 2.380400 2.352679 2.325125 2.297738 2.270519 2.243467 2.216582 2.189865 2.163315 2.136933 2.110718 2.084670 2.058790 2.033076 2.007531 1.982152 1.956941 1.931897 1.907021 1.882312 1.857770 1.833396 1.809189 1.785149 1.761277 1.737572 1.714035 1.690664 1.667461 1.644426 1.621558 1.598857 1.576323 1.553957 1.531758 1.509727 1.487863 1.466166 1.444637 1.423274 1.402080 1.381052 1.360192 1.339500 1.318974 1.298616 1.278426 1.424342 1.596169 1.274487 0.930156 0.790718 0.690098 0.510861 0.480218 0.362279 0.419805 0.408368 0.402738 0.349503 0.186792 0.166359 0.148524 -0.014393 -0.067546 0.056454 -0.001164 0.017542 -0.064778 0.006026 -0.019593 0.025296 0.215224 0.173524 0.150495 0.308052 0.497848 0.389456 0.650755 0.536483 0.754188 0.747288 0.940571 0.804840 0.806575 0.962244 0.761298 0.901021 0.798774 0.755178 0.797366 0.692770 0.596104 0.543238 0.375022 0.266748 0.208589 0.110588 0.087769 0.158791 0.139140 0.146596 0.164024 0.246384 0.298395 0.357530 0.443596 0.511184 0.559536 0.599593 0.693473 0.732046 0.702876 0.709570 0.551602 0.495032 0.285159 0.324547 0.155946 0.094111 0.053288 0.062385 -0.053119 -0.056034 -0.020291 0.038838 0.177836 0.150004 0.303250 0.315003 0.490909 0.367463 0.401656 0.401869 0.331795 0.342945 0.305980 0.261952 0.053859 0.039924 -0.030309 -0.017325 -0.053847 -0.050419 -0.033787 -0.028256 0.076358 0.150675 0.140475 0.227032 0.349034 0.272778 0.327930 0.327584 0.238032 0.146970 0.090463 0.066306 0.077830 -0.001694 -0.036702 0.008834 0.060649 0.100228 0.247437 0.199313 0.246849 0.273510 0.257332 0.234356 0.193848 0.171289 0.075891 0.007497 -0.018160 -0.000803 -0.005234 0.045990 0.068218 0.158309 0.119306 0.165492 0.169326 0.166009 0.159462 0.128321 0.038991 0.022630 0.042230 0.048818 0.009320 0.025707 0.048130 0.057420 0.143239 0.142451 0.106199 0.086957 0.087133 0.094062 0.011666 -0.008810 -0.015724 -0.060306 -0.031713 -0.040371 0.065128 0.064389 0.082159 0.110436 0.067818 0.067415 0.086507 0.037117 -0.014264 0.005957 0.013752 -0.007668 0.048661 0.075254 0.042876 0.098807 0.017196 0.049579 0.044234 0.029548 0.052159 0.031464 -0.002899 0.013312 0.045731 0.041509 0.055051 -0.019081 -0.005611 -0.006958 -0.016091 -0.004081 -0.000391 -0.016106 -0.016511 -0.021994 0.021243 -0.004229 0.005686 0.019789 0.005555 0.031172 -0.029072 -0.004830 -0.013291 0.012208 -0.019292 0.011940 0.033634 0.054764 0.028540 -0.034834 0.040984 0.025952 0.020673 0.003730 -0.032989 -0.015288 0.028447 0.007670 0.001877 0.018784 -0.026204 -0.003708 -0.036824 -0.015688 0.000057 -0.001752 0.030790 -0.007346 0.049378 -0.050762 -0.034243 0.015475 0.030259 0.005636 -0.007224 -0.032323 -0.023247 0.029007 0.084487 0.026128 -0.017771 0.014746 0.019246 -0.025552 0.009550 0.022634 0.013841 0.017564 0.001102 0.026248 -0.000103 -0.037512 -0.004445 -0.007029 -0.002405 0.050312 0.036602 0.029155 0.038858 -0.011029 -0.022938 -0.006353 0.004159 -0.002861 -0.064320 -0.002108 -0.005540 -0.031703 -0.046783 -0.057130 -0.022732 -0.004620 0.013051 0.065009 0.026594 0.035008 -0.026675 0.037125 -0.001888 -0.078398 -0.111247 0.003854 -0.021456 0.038145 0.073023 -0.070772 0.040236 -0.048885 0.007557 0.014698 0.119777 -0.064662 -0.005018 -0.031338 0.039048 0.023072 -0.028433 0.062850 0.105057 0.060203 -0.016689 0.075037 0.070074 0.183889 0.177860 0.297424 0.125321 0.096821 0.232895 -0.032674 -0.377365
0.072396 0.072980 0.074733 0.077653 0.081740 0.086993 0.093410 0.100989 0.109726 0.119618 0.130659 0.142844 0.156165 0.170612 0.186173 0.202835 0.220581 0.239392 0.259245 0.280115 0.301969 0.324774 0.348490 0.373073 0.398470 0.424627 0.451480 0.478958 0.506985 0.535476 0.564337 0.593468 0.622758 0.652088 0.681332 0.710351 0.739000 0.767123 0.794555 0.821124 0.846646 0.870932 0.893784 0.914998 0.934361 0.951659 0.966672 0.979178 0.988953 0.995774 0.999423 0.999683 0.996346 0.989212 0.978094 0.962820 0.943234 0.919202 0.890611 0.857379 0.819451 0.776805 0.729459 0.677466 0.620925 0.559980 0.494821 0.425690 0.352882 0.276742 0.197673 0.116131 0.032626 0.052277 0.137964 0.223771 0.308988 0.392868 0.474625 0.553450 0.628508 0.698958 0.763952 0.822654 0.874247 0.917947 0.953014 0.978770 0.994605 1.000000 0.994534 0.977901 0.949921 0.910553 0.859906 0.798247 0.726010 0.643799 0.552393 0.452744 0.345975 0.233371 0.116372 0.003441 0.124367 0.244604 0.362271 0.475442 0.582176 0.680547 0.768688 0.844824 0.907317 0.954700 0.985723 0.999386 0.994978 0.972108 0.930731 0.871173 0.794141 0.700736 0.592447 0.471141 0.339049 0.198723 0.053009 0.095017 0.242095 0.384865 0.519930 0.643949 0.753717 0.846258 0.918913 0.969426 0.996026 0.997500 0.973252 0.923358 0.848589 0.750434 0.631086 0.493418 0.340930 0.177677 0.008174 0.162722 0.329944 0.488361 0.632942 0.758922 0.861967 0.938338 0.985041 0.999969 0.982008 0.931123 0.848407 0.736099 0.597545 0.437136 0.260187 0.072785 0.118411 0.306392 0.484053 0.644473 0.781184 0.888449 0.961531 0.996918 0.992522 0.947824 0.863962 0.743749 0.591618 0.413501 0.216626 0.009247 0.199685 0.400893 0.585192 0.743917 0.869348 0.955107 0.996519 0.990899 0.937760 0.838921 0.698501 0.522799 0.320058 0.100111 0.126067 0.346895 0.550768 0.726683 0.864850 0.957265 0.998219 0.984693 0.916623 0.797006 0.631840 0.429875 0.202210 0.038289 0.277684 0.501766 0.696900 0.850883 0.953738 0.998409 0.981300 0.902621 0.766493 0.580820 0.356890 0.108751 0.147635 0.395386 0.617825 0.799601 0.927795 0.992888 0.989530 0.917051 0.779651 0.586249 0.349995 0.087425 0.182633 0.440392 0.666555 0.843783 0.958066 0.999908 0.965180 0.855611 0.678821 0.447899 0.180506 0.102408 0.378196 0.624330 0.820265 0.949189 0.999544 0.966156 0.850850 0.662492 0.416427 0.133315 0.162537 0.445208 0.689443 0.872945 0.978460 0.995500 0.921487 0.762210 0.531506 0.250174 0.055797 0.357590 0.626237 0.835433 0.964169 0.998940 0.935276 0.778424 0.543071 0.252111 0.065496 0.377518 0.651728 0.859238 0.977627 0.993471 0.904000 0.717658 0.453472 0.139259 0.191221 0.501815 0.757943 0.930504 0.999270 0.955405 0.802744 0.557659 0.247477 0.092452 0.422696 0.704290 0.903384 0.995410 0.968250 0.824004 0.579065 0.262436 0.087545 0.427776 0.715668 0.914512 0.998283 0.955203 0.789571 0.521584 0.185058 0.176684 0.516311 0.788660 0.956829 0.997298 0.903413 0.686662 0.375503 0.011820 0.354585 0.672759 0.897721 0.996926 0.955172 0.777132 0.487108 0.125947 0.254548 0.598970 0.856381 0.987949 0.972990 0.812443 0.529182 0.165017 0.225310 0.582232 0.850455 0.987638 0.971262 0.802565 0.506844 0.129914 0.268777 0.625446 0.882170 0.996438 0.948394 0.744555 0.417260 0.019821 0.382000 0.720767 0.938766 0.997983 0.886999 0.623469 0.251630 0.164863 0.553674 0.846346 0.990463
1.000000 1.000000 1.000000 1.000000 1.000000 1.000000 1.000000 1.000000 1.000000 1.000000 1.000000 1.000000 1.000000 1.000000 1.000000 1.000000 1.000000 1.000000 1.000000 1.000000 1.000000 1.000000 1.000000 1.000000 1.000000 1.000000 1.000000 1.000000 1.000000 1.000000 1.000000 1.000000 1.000000 1.000000 1.000000 1.000000 1.000000 1.000000 1.000000 1.000000 1.000000 1.000000 1.000000 1.000000 1.000000 1.000000 1.000000 1.000000 1.000000 1.000000 1.000000 1.000000 0.955178 0.955178 0.955178 0.955178 0.955178 0.955178 0.955178 0.955178 0.955178 0.955178 0.955178 0.955178 0.955178 0.955178 0.955178 0.955178 0.955178 0.955178 0.955178 0.955178 0.955178 0.955178 0.955178 0.955178 0.955178 0.955178 0.955178 0.955178 0.955178 0.955178 0.955178 0.955178 0.955178 0.955178 0.955178 0.955178 0.955178 0.955178 0.945633 0.947520 0.948114 0.947824 0.947127 0.948973 0.949442 0.949321 0.949904 0.950609 0.951982 0.953424 0.954710 0.962670 0.971618 0.971404 0.970471 0.970949 0.970156 0.968107 0.966253 0.967779 0.972061 0.972197 0.972675 0.972436 0.973010 0.973533 0.973143 0.972218 0.971074 0.970675 0.970116 0.970093 0.970428 0.969776 0.970092 0.970445 0.970062 0.969357 0.968469 0.963162 0.962989 0.963818 0.967146 0.965611 0.964343 0.964309 0.963959 0.963526 0.961765 0.961281 0.961312 0.961362 0.961058 0.960431 0.958411 0.957329 0.951085 0.945213 0.945147 0.947251 0.948183 0.948812 0.945310 0.942028 0.932575 0.928740 0.931022 0.936916 0.937768 0.938233 0.918937 0.907842 0.908183 0.903574 0.905647 0.904453 0.900422 0.892666 0.892646 0.895183 0.893790 0.898930 0.895637 0.895694 0.894487 0.895556 0.898601 0.900672 0.904476 0.904961 0.899028 0.895078 0.893589 0.894092 0.896269 0.891396 0.889654 0.889414 0.890987 0.885514 0.886176 0.886610 0.889119 0.890803 0.893664 0.884141 0.884721 0.843680 0.833506 0.828496 0.825371 0.825328 0.814808 0.798312 0.800545 0.794922 0.792565 0.787899 0.785011 0.729124 0.708282 0.688463 0.669286 0.660761 0.638872 0.656962 0.664913 0.647299 0.648560 0.622196 0.613506 0.620006 0.623097 0.605061 0.602387 0.595729 0.569756 0.547455 0.541689 0.552730 0.568412 0.572117 0.547004 0.505970 0.469425 0.433040 0.427473 0.409946 0.378291 0.355379 0.370943 0.380108 0.387083 0.376441 0.361124 0.335438 0.358921 0.354197 0.357154 0.330788 0.365299 0.379765 0.373230 0.388723 0.380280 0.386699 0.326136 0.283242 0.272407 0.249390 0.214054 0.208383 0.258941 0.272836 0.304865 0.316622 0.316846 0.289022 0.318894 0.308072 0.301397 0.303370 0.249255 0.245252 0.256858 0.242451 0.237154 0.252531 0.260945 0.242314 0.203935 0.210635 0.223323 0.219320 0.226442 0.234472 0.181292 0.189427 0.198252 0.190620 0.206824 0.217168 0.212503 0.223800 0.183685 0.167496 0.173248 0.150516 0.168727 0.165252 0.157607 0.091764 0.054295 0.058407 0.055091 0.020701 0.028767 -0.010810 -0.033926 -0.006144 0.006018 -0.013120 0.001040 0.026206 0.027127 0.029500 0.024402 0.054382 0.034998 0.009035 0.027252 0.005349 -0.019778 -0.027222 -0.043536 -0.070949 -0.087180 -0.066534 -0.055472 -0.050466 -0.014929 -0.033120 -0.082222 -0.078649 -0.078649 -0.078649 -0.078649 -0.078649 -0.061209 -0.061209 -0.061209 -0.061209 -0.061209 -0.061209 -0.061209 -0.061209 -0.084825 -0.084825 -0.084825 -0.084825 -0.084825 -0.084825 -0.084825 -0.084825 -0.084825 -0.084825 -0.084825 -0.084825 -0.084825 -0.084825 -0.084825
0.000000 0.000000 0.000000 0.000000 0.000000 0.000000 0.000000 0.000000 0.000000 0.000000 0.000000 0.000000 0.000000 0.000000 0.000000 0.000000 0.000000 0.000000 0.000000 0.000000 0.000000 0.000000 0.000000 0.000000 0.000000 0.000000 0.000000 0.000000 0.000000 0.000000 0.000000 0.000000 0.000000 0.000000 0.000000 0.000000 0.000000 0.000000 0.000000 0.000000 0.000000 0.000000 0.000000 0.000000 0.000000 0.000000 0.000000 0.000000 0.000000 0.000000 0.000000 0.000000 0.203069 0.203069 0.203069 0.203069 0.203069 0.203069 0.203069 0.203069 0.203069 0.203069 0.203069 0.203069 0.203069 0.203069 0.203069 0.203069 0.203069 0.203069 0.203069 0.203069 0.203069 0.203069 0.203069 0.203069 0.203069 0.203069 0.203069 0.203069 0.203069 0.203069 0.203069 0.203069 0.203069 0.203069 0.203069 0.203069 0.203069 0.203069 0.237356 0.237356 0.237356 0.237356 0.237356 0.237356 0.237356 0.237356 0.237356 0.237356 0.237356 0.237356 0.237356 0.237356 0.237356 0.237356 0.237356 0.237356 0.237356 0.237356 0.237356 0.237356 0.237356 0.237356 0.237356 0.237356 0.256074 0.256074 0.256074 0.256074 0.256074 0.256074 0.256074 0.256074 0.256074 0.256074 0.256074 0.256074 0.256074 0.256074 0.256074 0.256074 0.256074 0.256074 0.256074 0.256074 0.256074 0.264906 0.264906 0.264906 0.264906 0.264906 0.264906 0.264906 0.264906 0.264906 0.264906 0.264906 0.264906 0.264906 0.264906 0.264906 0.264906 0.264906 0.264906 0.264906 0.264906 0.264906 0.264906 0.264906 0.264906 0.264906 0.264906 0.264906 0.264906 0.264906 0.264906 0.264906 0.264906 0.264906 0.264906 0.264906 0.269680 0.269680 0.269680 0.269680 0.269680 0.269680 0.269680 0.269680 0.269680 0.269680 0.269680 0.269680 0.269680 0.269680 0.269680 0.269680 0.269680 0.269680 0.269680 0.269680 0.269680 0.269680 0.269680 0.269680 0.269680 0.269680 0.269680 0.269680 0.269680 0.274721 0.274721 0.274721 0.274721 0.274721 0.274721 0.274721 0.274721 0.274721 0.274721 0.274721 0.274721 0.274721 0.274721 0.274721 0.274721 0.274721 0.274721 0.274721 0.274721 0.274721 0.274721 0.274721 0.274721 0.274721 0.269680 0.269680 0.269680 0.269680 0.269680 0.269680 0.269680 0.269680 0.269680 0.269680 0.269680 0.269680 0.274721 0.274721 0.274721 0.274721 0.274721 0.274721 0.274721 0.274721 0.274721 0.274721 0.274721 0.280056 0.280056 0.280056 0.280056 0.280056 0.280056 0.280056 0.280056 0.280056 0.280056 0.274721 0.274721 0.274721 0.274721 0.274721 0.274721 0.274721 0.274721 0.274721 0.274721 0.269680 0.269680 0.269680 0.269680 0.269680 0.269680 0.269680 0.269680 0.269680 0.269680 0.264906 0.264906 0.264906 0.264906 0.264906 0.264906 0.264906 0.264906 0.264906 0.264906 0.269680 0.269680 0.269680 0.269680 0.269680 0.269680 0.269680 0.269680 0.269680 0.264906 0.264906 0.264906 0.264906 0.264906 0.264906 0.264906 0.264906 0.264906 0.274721 0.274721 0.274721 0.274721 0.274721 0.274721 0.274721 0.274721 0.256074 0.256074 0.256074 0.256074 0.256074 0.256074 0.256074 0.256074 0.256074 0.269680 0.269680 0.269680 0.269680 0.269680 0.269680 0.269680 0.269680 0.264906 0.264906 0.264906 0.264906 0.264906 0.264906 0.264906 0.264906 0.260378 0.260378 0.260378 0.260378 0.260378 0.260378 0.260378 0.260378 0.269680 0.269680 0.269680 0.269680 0.269680 0.269680 0.269680 0.269680 0.269680 0.269680 0.269680 0.269680 0.269680 0.269680 0.269680
