# Output from CTFFind version 4.1.9, run on 2019-11-03 18:51:44
# Input file: stack17_ub_averaged_1000.mrc ; Number of micrographs: 1
# Pixel size: 3.000 Angstroms ; acceleration voltage: 300.0 keV ; spherical aberration: 0.00 mm ; amplitude contrast: 0.07
# Box size: 512 pixels ; min. res.: 30.0 Angstroms ; max. res.: 5.0 Angstroms ; min. def.: 5000.0 um; max. def. 50000.0 um; num. frames averaged: 1
# 6 lines per micrograph: #1 - spatial frequency (1/Angstroms); #2 - 1D rotational average of spectrum (assuming no astigmatism); #3 - 1D rotational average of spectrum; #4 - CTF fit; #5 - cross-correlation between spectrum and CTF fit; #6 - 2sigma of expected cross correlation of noise
0.000000 0.000651 0.001302 0.001953 0.002604 0.003255 0.003906 0.004557 0.005208 0.005859 0.006510 0.007161 0.007812 0.008464 0.009115 0.009766 0.010417 0.011068 0.011719 0.012370 0.013021 0.013672 0.014323 0.014974 0.015625 0.016276 0.016927 0.017578 0.018229 0.018880 0.019531 0.020182 0.020833 0.021484 0.022135 0.022786 0.023438 0.024089 0.024740 0.025391 0.026042 0.026693 0.027344 0.027995 0.028646 0.029297 0.029948 0.030599 0.031250 0.031901 0.032552 0.033203 0.033854 0.034505 0.035156 0.035807 0.036458 0.037109 0.037760 0.038411 0.039062 0.039714 0.040365 0.041016 0.041667 0.042318 0.042969 0.043620 0.044271 0.044922 0.045573 0.046224 0.046875 0.047526 0.048177 0.048828 0.049479 0.050130 0.050781 0.051432 0.052083 0.052734 0.053385 0.054036 0.054688 0.055339 0.055990 0.056641 0.057292 0.057943 0.058594 0.059245 0.059896 0.060547 0.061198 0.061849 0.062500 0.063151 0.063802 0.064453 0.065104 0.065755 0.066406 0.067057 0.067708 0.068359 0.069010 0.069661 0.070312 0.070964 0.071615 0.072266 0.072917 0.073568 0.074219 0.074870 0.075521 0.076172 0.076823 0.077474 0.078125 0.078776 0.079427 0.080078 0.080729 0.081380 0.082031 0.082682 0.083333 0.083984 0.084635 0.085286 0.085938 0.086589 0.087240 0.087891 0.088542 0.089193 0.089844 0.090495 0.091146 0.091797 0.092448 0.093099 0.093750 0.094401 0.095052 0.095703 0.096354 0.097005 0.097656 0.098307 0.098958 0.099609 0.100260 0.100911 0.101562 0.102214 0.102865 0.103516 0.104167 0.104818 0.105469 0.106120 0.106771 0.107422 0.108073 0.108724 0.109375 0.110026 0.110677 0.111328 0.111979 0.112630 0.113281 0.113932 0.114583 0.115234 0.115885 0.116536 0.117188 0.117839 0.118490 0.119141 0.119792 0.120443 0.121094 0.121745 0.122396 0.123047 0.123698 0.124349 0.125000 0.125651 0.126302 0.126953 0.127604 0.128255 0.128906 0.129557 0.130208 0.130859 0.131510 0.132161 0.132812 0.133464 0.134115 0.134766 0.135417 0.136068 0.136719 0.137370 0.138021 0.138672 0.139323 0.139974 0.140625 0.141276 0.141927 0.142578 0.143229 0.143880 0.144531 0.145182 0.145833 0.146484 0.147135 0.147786 0.148438 0.149089 0.149740 0.150391 0.151042 0.151693 0.152344 0.152995 0.153646 0.154297 0.154948 0.155599 0.156250 0.156901 0.157552 0.158203 0.158854 0.159505 0.160156 0.160807 0.161458 0.162109 0.162760 0.163411 0.164062 0.164714 0.165365 0.166016 0.166667 0.167318 0.167969 0.168620 0.169271 0.169922 0.170573 0.171224 0.171875 0.172526 0.173177 0.173828 0.174479 0.175130 0.175781 0.176432 0.177083 0.177734 0.178385 0.179036 0.179688 0.180339 0.180990 0.181641 0.182292 0.182943 0.183594 0.184245 0.184896 0.185547 0.186198 0.186849 0.187500 0.188151 0.188802 0.189453 0.190104 0.190755 0.191406 0.192057 0.192708 0.193359 0.194010 0.194661 0.195312 0.195964 0.196615 0.197266 0.197917 0.198568 0.199219 0.199870 0.200521 0.201172 0.201823 0.202474 0.203125 0.203776 0.204427 0.205078 0.205729 0.206380 0.207031 0.207682 0.208333 0.208984 0.209635 0.210286 0.210938 0.211589 0.212240 0.212891 0.213542 0.214193 0.214844 0.215495 0.216146 0.216797 0.217448 0.218099 0.218750 0.219401 0.220052 0.220703 0.221354 0.222005 0.222656 0.223307 0.223958 0.224609 0.225260 0.225911 0.226562 0.227214 0.227865 0.228516 0.229167 0.229818 0.230469 0.231120 0.231771 0.232422 0.233073 0.233724 0.234375 0.235026 0.235677
       0.33342        0.33512        0.33654        0.33705        0.33727        0.33745        0.33752        0.33760        0.33765        0.33769        0.33773        0.33774        0.33778        0.33779        0.33781        0.33782        0.33783        0.33785        0.33785        0.33786        0.33787        0.33788        0.33788        0.33789        0.33789        0.33790        0.33790        0.33791        0.33791        0.33792        0.33792        0.33792        0.33792        0.33793        0.33793        0.33793        0.33793        0.33794        0.33794        0.33794        0.33794        0.33794        0.33794        0.33795        0.33795        0.33795        0.33795        0.33795        0.33795        0.33796        0.33796        0.57354        1.06033        0.81330        0.25012        0.10318       -0.01095       -0.14543        0.09507        0.15087        0.33901        0.27470        0.28527        0.16382        0.23756        0.12040        0.07368        0.01540        0.03792       -0.01560       -0.02368        0.01843       -0.09078       -0.16396       -0.13032       -0.12942       -0.21558       -0.24971       -0.31544       -0.26639       -0.30326       -0.42840       -0.43786       -0.31118       -0.34286       -0.30318       -0.20985       -0.19350       -0.19717       -0.15756       -0.07842       -0.03269        0.00520        0.16353        0.28717        0.40140        0.46377        0.46534        0.47163        0.58059        0.57716        0.63028        0.67274        0.66168        0.69758        0.66619        0.64960        0.68832        0.66256        0.59413        0.63682        0.47791        0.39073        0.32357        0.30639        0.18484        0.11027        0.04590        0.06023        0.00450       -0.02389       -0.01221        0.04996        0.05630        0.02490        0.14655        0.23949        0.37887        0.46780        0.49551        0.61180        0.65692        0.65234        0.63589        0.72670        0.65706        0.60737        0.63928        0.63636        0.55817        0.52308        0.40097        0.26851        0.20448        0.13930        0.17095        0.13584        0.09255        0.08795        0.11198        0.10611        0.17075        0.22907        0.31588        0.38205        0.41008        0.49278        0.52237        0.49206        0.44130        0.49759        0.51316        0.51313        0.43595        0.39394        0.34014        0.27367        0.24421        0.25582        0.22393        0.17267        0.23481        0.26982        0.26677        0.31955        0.35381        0.40807        0.45897        0.52626        0.47450        0.49322        0.51347        0.46877        0.42758        0.41288        0.37041        0.36332        0.29244        0.20928        0.22840        0.22906        0.20978        0.28032        0.25877        0.30950        0.30338        0.37466        0.40893        0.42325        0.44698        0.42691        0.41982        0.41700        0.40904        0.31322        0.33031        0.31986        0.29121        0.24569        0.25822        0.28391        0.29365        0.35922        0.34172        0.35203        0.40421        0.41168        0.39535        0.40060        0.40610        0.39823        0.37805        0.33457        0.28666        0.29488        0.27782        0.29667        0.29583        0.25723        0.28427        0.32780        0.39789        0.38032        0.40003        0.39083        0.38890        0.35747        0.30912        0.33301        0.31081        0.28734        0.29319        0.29420        0.32246        0.32489        0.34002        0.31216        0.32995        0.36529        0.35270        0.33828        0.33594        0.31807        0.27317        0.27544        0.23803        0.25713        0.26458        0.28193        0.31910        0.34073        0.32883        0.33784        0.31966        0.29410        0.30877        0.31863        0.32120        0.26765        0.28085        0.30834        0.30159        0.31530        0.31276        0.34068        0.31791        0.35333        0.32810        0.30280        0.27960        0.33492        0.30004        0.31058        0.32168        0.27806        0.32259        0.34070        0.33740        0.30029        0.33730        0.36392        0.34144        0.31447        0.30284        0.32725        0.32052        0.29019        0.28274        0.32295        0.31253        0.34511        0.34299        0.32395        0.36258        0.26689        0.26989        0.30980        0.23375        0.27339        0.25766        0.26259        0.28078        0.33212        0.30412        0.26508        0.28873        0.29722        0.27181        0.27077        0.25754        0.29529        0.30750        0.27055        0.25451        0.26999        0.27279        0.33724        0.30248        0.31255        0.28982        0.24490        0.24351        0.24663        0.31184        0.27865        0.36823        0.37670        0.25592        0.24938        0.26658        0.26497        0.28981        0.27209        0.24153        0.20805        0.34821        0.35242        0.32292        0.22724        0.19369        0.26558        0.26861        0.10429        0.13310        0.18314        0.24811        0.23596        0.21931        0.00006        0.03111       -0.20305       -0.50224       -0.72569
2.274734 2.258002 2.239252 2.220065 2.201235 2.181591 2.162424 2.143077 2.123927 2.104919 2.085768 2.066888 2.047980 2.029268 2.010563 1.991937 1.973491 1.955062 1.936725 1.918487 1.900325 1.882313 1.864338 1.846464 1.828677 1.811007 1.793400 1.775885 1.758486 1.741148 1.723933 1.706783 1.689727 1.672779 1.655919 1.639142 1.622458 1.605862 1.589371 1.572955 1.556648 1.540415 1.524286 1.508247 1.492292 1.476440 1.460668 1.445000 1.429416 1.413922 1.398528 1.660051 2.240344 2.299619 0.987043 1.166457 0.922186 0.529312 0.991727 0.851492 1.190542 1.108420 1.217512 0.943489 0.973644 0.931117 0.872628 0.698314 0.662272 0.660258 0.637910 0.684496 0.573182 0.333418 0.422142 0.350823 0.315918 0.223066 0.131367 0.075638 0.197318 -0.049293 -0.217557 0.087806 0.020357 0.007134 0.132421 0.127483 0.158547 0.133338 0.288592 0.353888 0.327144 0.495393 0.717374 0.868590 0.919035 0.955167 0.986895 1.012252 1.102455 1.107418 1.149284 1.202012 1.125578 1.207677 1.021497 1.217075 1.145259 0.997497 1.045312 0.840655 0.734993 0.671702 0.586727 0.392449 0.254782 0.229559 0.193725 0.163316 -0.015676 0.043337 0.130372 0.139984 0.125953 0.105501 0.364531 0.400225 0.695526 0.699608 0.727579 0.864268 0.923350 0.848098 0.948602 0.870266 0.800079 0.770282 0.838160 0.754660 0.614203 0.590924 0.313615 0.233819 0.062668 0.157200 0.082837 0.032434 0.002090 -0.021945 -0.010627 0.055697 0.145062 0.219263 0.311450 0.358381 0.485588 0.561864 0.506978 0.395269 0.451836 0.501810 0.511127 0.408511 0.348559 0.249536 0.187587 0.141688 0.024661 0.135024 0.007004 0.052874 0.031903 0.130477 0.112374 0.217600 0.252556 0.245917 0.455433 0.356843 0.394328 0.387826 0.391873 0.296872 0.300949 0.254097 0.177627 0.147223 0.024877 -0.031931 0.016995 -0.044596 -0.000179 0.046743 0.043360 0.121063 0.096211 0.231441 0.204554 0.267911 0.281514 0.230184 0.221717 0.251308 0.133267 0.083020 0.105968 0.117321 -0.007160 -0.002473 0.007256 0.044494 0.072556 0.131271 0.125853 0.142560 0.239971 0.188895 0.220398 0.188339 0.226516 0.203780 0.185350 0.074046 0.074567 0.049981 0.007887 0.114113 0.026621 0.021155 0.053530 0.171216 0.181726 0.185972 0.197243 0.182489 0.185204 0.100782 0.107948 0.085561 0.043281 0.071541 0.023329 0.054283 0.077525 0.129930 0.070201 0.080687 0.114317 0.133138 0.134480 0.090967 0.098626 0.080222 -0.017980 0.034823 -0.052801 -0.000777 0.030558 0.014490 0.089250 0.106198 0.067288 0.108261 0.013833 0.035847 0.035103 0.060773 0.029159 -0.023618 0.008364 0.045414 0.021373 0.078096 0.028296 0.102193 0.026274 0.108082 0.075876 0.017903 -0.028725 0.125805 -0.000432 0.057458 0.030807 -0.002731 0.082092 0.071523 0.078608 0.040776 0.084185 0.090063 0.036776 0.059959 -0.017655 0.042843 0.014471 0.018995 -0.030015 0.085525 -0.016615 0.120393 0.114194 0.043193 0.158758 -0.030755 -0.014710 0.067886 -0.051936 0.002250 -0.028715 0.001291 0.016536 0.111206 0.030409 -0.041828 0.047367 0.011918 -0.017312 -0.007729 0.018810 -0.006705 0.090967 -0.025260 0.009754 0.006924 0.000841 0.173098 -0.004224 0.120121 0.043175 -0.022943 0.022342 0.026790 0.102802 0.037899 0.251090 0.159705 0.048223 0.042001 0.127915 0.044254 0.120493 0.115999 0.123438 0.036598 0.242488 0.279133 0.432187 0.294037 0.232312 0.392526 0.369241 0.101305 0.176417 0.232550 0.405871 0.266555 0.082219 -0.077638 0.139970 -0.275755 -0.999274
0.072396 0.072824 0.074107 0.076244 0.079237 0.083083 0.087782 0.093333 0.099734 0.106984 0.115080 0.124019 0.133798 0.144413 0.155858 0.168128 0.181215 0.195111 0.209807 0.225291 0.241550 0.258570 0.276335 0.294825 0.314020 0.333896 0.354426 0.375582 0.397331 0.419637 0.442462 0.465763 0.489493 0.513602 0.538035 0.562733 0.587633 0.612666 0.637760 0.662837 0.687814 0.712604 0.737114 0.761247 0.784901 0.807968 0.830337 0.851892 0.872511 0.892071 0.910444 0.927497 0.943096 0.957106 0.969386 0.979799 0.988204 0.994461 0.998433 0.999983 0.998979 0.995292 0.988799 0.979384 0.966938 0.951362 0.932568 0.910477 0.885028 0.856172 0.823876 0.788128 0.748932 0.706315 0.660325 0.611034 0.558540 0.502964 0.444456 0.383194 0.319384 0.253260 0.185088 0.115160 0.043799 0.028643 0.101788 0.175230 0.248540 0.321263 0.392925 0.463035 0.531083 0.596553 0.658916 0.717643 0.772205 0.822080 0.866757 0.905743 0.938566 0.964787 0.984000 0.995841 0.999997 0.996206 0.984270 0.964057 0.935506 0.898634 0.853543 0.800418 0.739535 0.671261 0.596056 0.514475 0.427162 0.334855 0.238376 0.138629 0.036596 0.066677 0.170084 0.272472 0.372651 0.469412 0.561538 0.647820 0.727076 0.798166 0.860012 0.911616 0.952079 0.980616 0.996579 0.999469 0.988950 0.964871 0.927266 0.876372 0.812631 0.736696 0.649429 0.551896 0.445366 0.331291 0.211298 0.087166 0.039197 0.165780 0.290498 0.411230 0.525853 0.632277 0.728491 0.812602 0.882874 0.937769 0.975987 0.996502 0.998590 0.981865 0.946294 0.892216 0.820350 0.731802 0.628048 0.510930 0.382622 0.245602 0.102611 0.043402 0.189330 0.331979 0.468136 0.594640 0.708458 0.806769 0.887030 0.947056 0.985084 0.999835 0.990563 0.957097 0.899864 0.819905 0.718870 0.598997 0.463078 0.314398 0.156675 0.006034 0.169427 0.329072 0.480522 0.619446 0.741753 0.843724 0.922127 0.974338 0.998435 0.993283 0.958598 0.894981 0.803936 0.687849 0.549948 0.394226 0.225337 0.048479 0.130776 0.306638 0.473293 0.625090 0.756749 0.863548 0.941502 0.987530 0.999596 0.976807 0.919489 0.829212 0.708772 0.562130 0.394299 0.211190 0.019420 0.173917 0.361514 0.536120 0.690828 0.819359 0.916326 0.977482 0.999923 0.982249 0.924663 0.829017 0.698777 0.538933 0.355822 0.156910 0.049509 0.254642 0.449569 0.625636 0.774842 0.890227 0.966205 0.998866 0.986200 0.928244 0.827139 0.687088 0.514215 0.316327 0.102579 0.116925 0.331606 0.530908 0.704840 0.844473 0.942429 0.993294 0.993947 0.943787 0.844823 0.701646 0.521254 0.312739 0.086866 0.144475 0.368876 0.574075 0.748636 0.882613 0.968127 0.999871 0.975480 0.895730 0.764585 0.589033 0.378774 0.145702 0.096733 0.334284 0.552757 0.738840 0.880958 0.970011 0.999996 0.968456 0.876715 0.729895 0.536671 0.308814 0.060514 0.192494 0.433898 0.647870 0.820113 0.938856 0.995682 0.986181 0.910339 0.772641 0.581862 0.350577 0.094360 0.169223 0.421814 0.645520 0.824218 0.944738 0.997877 0.979159 0.889263 0.734091 0.524449 0.275344 0.004972 0.266598 0.518892 0.732580 0.890986 0.981429 0.996296 0.933737 0.797945 0.598947 0.351932 0.076151 0.206545 0.473419 0.702674 0.875268 0.976524 0.997449 0.935595 0.795403 0.587966 0.330240 0.043705 0.247387 0.518023 0.744611 0.907050 0.990570 0.987140 0.896323 0.725461 0.489175 0.208191 0.092415 0.385438 0.643966 0.843904 0.966242 0.998943 0.938199 0.788958 0.564622 0.285938
1.000000 1.000000 1.000000 1.000000 1.000000 1.000000 1.000000 1.000000 1.000000 1.000000 1.000000 1.000000 1.000000 1.000000 1.000000 1.000000 1.000000 1.000000 1.000000 1.000000 1.000000 1.000000 1.000000 1.000000 1.000000 1.000000 1.000000 1.000000 1.000000 1.000000 1.000000 1.000000 1.000000 1.000000 1.000000 1.000000 1.000000 1.000000 1.000000 1.000000 1.000000 1.000000 1.000000 1.000000 1.000000 1.000000 1.000000 1.000000 1.000000 1.000000 1.000000 1.000000 0.805633 0.805633 0.805633 0.805633 0.805633 0.805633 0.805633 0.805633 0.784306 0.784306 0.784306 0.784306 0.784306 0.784306 0.784306 0.784306 0.784306 0.784306 0.784306 0.784306 0.784306 0.784306 0.784306 0.784306 0.784306 0.784306 0.784306 0.784306 0.784306 0.784306 0.784306 0.784306 0.784306 0.784306 0.784306 0.784306 0.784306 0.784306 0.784306 0.784306 0.784306 0.784306 0.784306 0.784306 0.784306 0.784306 0.784306 0.784306 0.784306 0.784306 0.784306 0.784306 0.784306 0.955194 0.954222 0.955200 0.956872 0.958812 0.959037 0.959014 0.959588 0.959553 0.961874 0.962098 0.962537 0.963073 0.964108 0.964572 0.968842 0.970325 0.972280 0.974052 0.976675 0.978096 0.978684 0.976709 0.972194 0.967541 0.968349 0.965856 0.967231 0.966639 0.965345 0.965963 0.966667 0.965516 0.963607 0.962963 0.961613 0.960442 0.959526 0.961077 0.960966 0.961211 0.961615 0.961735 0.961965 0.962172 0.962292 0.962387 0.962561 0.961617 0.960375 0.961655 0.961509 0.957982 0.955130 0.952563 0.959670 0.958353 0.957875 0.957745 0.957862 0.958334 0.958861 0.956695 0.954689 0.954258 0.946278 0.935627 0.933810 0.933082 0.932114 0.935048 0.937137 0.937702 0.936666 0.938154 0.935345 0.931135 0.928181 0.921213 0.921971 0.923260 0.924956 0.924685 0.924828 0.924135 0.922040 0.917753 0.918332 0.918798 0.921427 0.910612 0.907787 0.896020 0.884071 0.885034 0.886463 0.887406 0.892115 0.890139 0.894992 0.896171 0.897643 0.891178 0.889602 0.889701 0.889342 0.885502 0.888380 0.887846 0.886115 0.883763 0.871617 0.858025 0.860116 0.861355 0.862694 0.862229 0.857445 0.855493 0.855403 0.849613 0.850969 0.850588 0.852557 0.852643 0.852426 0.853538 0.824185 0.810247 0.801884 0.805043 0.804018 0.803815 0.805719 0.802658 0.792711 0.766337 0.763225 0.754313 0.749921 0.753693 0.739218 0.739945 0.733738 0.709515 0.676240 0.652398 0.654528 0.637248 0.632071 0.634899 0.622151 0.602669 0.616207 0.593044 0.601918 0.615873 0.607959 0.602992 0.596140 0.590733 0.581451 0.571210 0.558635 0.536191 0.548049 0.556223 0.540463 0.542173 0.498074 0.485350 0.474951 0.503430 0.485884 0.462317 0.482264 0.485244 0.489756 0.484637 0.478715 0.461668 0.462365 0.426786 0.432826 0.434452 0.416847 0.402732 0.388824 0.369925 0.343519 0.350562 0.320411 0.331026 0.337262 0.365575 0.374651 0.377637 0.365156 0.372032 0.355108 0.381357 0.388995 0.365196 0.362243 0.344675 0.345462 0.347223 0.365277 0.380122 0.358175 0.385914 0.386455 0.414530 0.426656 0.420526 0.425100 0.399004 0.357168 0.381142 0.384240 0.382966 0.372591 0.351691 0.321383 0.313138 0.303898 0.340782 0.337025 0.337025 0.337025 0.337025 0.337025 0.340756 0.340756 0.340756 0.340756 0.340756 0.340756 0.340756 0.340756 0.340756 0.340756 0.340756 0.351413 0.351413 0.351413 0.351413 0.351413 0.351413 0.351413 0.351413 0.351413 0.351413 0.351413 0.351413 0.351413 0.351413 0.351413
0.000000 0.000000 0.000000 0.000000 0.000000 0.000000 0.000000 0.000000 0.000000 0.000000 0.000000 0.000000 0.000000 0.000000 0.000000 0.000000 0.000000 0.000000 0.000000 0.000000 0.000000 0.000000 0.000000 0.000000 0.000000 0.000000 0.000000 0.000000 0.000000 0.000000 0.000000 0.000000 0.000000 0.000000 0.000000 0.000000 0.000000 0.000000 0.000000 0.000000 0.000000 0.000000 0.000000 0.000000 0.000000 0.000000 0.000000 0.000000 0.000000 0.000000 0.000000 0.000000 0.172133 0.172133 0.172133 0.172133 0.172133 0.172133 0.172133 0.172133 0.189832 0.189832 0.189832 0.189832 0.189832 0.189832 0.189832 0.189832 0.189832 0.189832 0.189832 0.189832 0.189832 0.189832 0.189832 0.189832 0.189832 0.189832 0.189832 0.189832 0.189832 0.189832 0.189832 0.189832 0.189832 0.189832 0.189832 0.189832 0.189832 0.189832 0.189832 0.189832 0.189832 0.189832 0.189832 0.189832 0.189832 0.189832 0.189832 0.189832 0.189832 0.189832 0.189832 0.189832 0.189832 0.222222 0.222222 0.222222 0.222222 0.222222 0.222222 0.222222 0.222222 0.222222 0.222222 0.222222 0.222222 0.222222 0.222222 0.222222 0.222222 0.222222 0.222222 0.222222 0.222222 0.222222 0.222222 0.222222 0.222222 0.222222 0.222222 0.222222 0.222222 0.222222 0.222222 0.234082 0.234082 0.234082 0.234082 0.234082 0.234082 0.234082 0.234082 0.234082 0.234082 0.234082 0.234082 0.234082 0.234082 0.234082 0.234082 0.234082 0.234082 0.234082 0.234082 0.234082 0.234082 0.234082 0.234082 0.234082 0.240772 0.240772 0.240772 0.240772 0.240772 0.240772 0.240772 0.240772 0.240772 0.240772 0.240772 0.240772 0.240772 0.240772 0.240772 0.240772 0.240772 0.240772 0.240772 0.240772 0.240772 0.240772 0.248069 0.248069 0.248069 0.248069 0.248069 0.248069 0.248069 0.248069 0.248069 0.248069 0.248069 0.248069 0.248069 0.248069 0.248069 0.248069 0.248069 0.248069 0.248069 0.256074 0.256074 0.256074 0.256074 0.256074 0.256074 0.256074 0.256074 0.256074 0.256074 0.256074 0.256074 0.256074 0.256074 0.256074 0.256074 0.256074 0.248069 0.248069 0.248069 0.248069 0.248069 0.248069 0.248069 0.248069 0.248069 0.248069 0.248069 0.248069 0.248069 0.248069 0.248069 0.248069 0.248069 0.256074 0.256074 0.256074 0.256074 0.256074 0.256074 0.256074 0.256074 0.256074 0.256074 0.256074 0.256074 0.256074 0.256074 0.256074 0.256074 0.256074 0.256074 0.256074 0.256074 0.256074 0.256074 0.256074 0.256074 0.256074 0.256074 0.256074 0.256074 0.256074 0.251976 0.251976 0.251976 0.251976 0.251976 0.251976 0.251976 0.251976 0.251976 0.251976 0.251976 0.251976 0.251976 0.251976 0.264906 0.264906 0.264906 0.264906 0.264906 0.264906 0.264906 0.264906 0.264906 0.264906 0.264906 0.264906 0.248069 0.248069 0.248069 0.248069 0.248069 0.248069 0.248069 0.248069 0.248069 0.248069 0.248069 0.248069 0.248069 0.251976 0.251976 0.251976 0.251976 0.251976 0.251976 0.251976 0.251976 0.251976 0.251976 0.251976 0.251976 0.256074 0.256074 0.256074 0.256074 0.256074 0.256074 0.256074 0.256074 0.256074 0.256074 0.256074 0.251976 0.251976 0.251976 0.251976 0.251976 0.251976 0.251976 0.251976 0.251976 0.251976 0.251976 0.248069 0.248069 0.248069 0.248069 0.248069 0.248069 0.248069 0.248069 0.248069 0.248069 0.248069 0.256074 0.256074 0.256074 0.256074 0.256074 0.256074 0.256074 0.256074 0.256074 0.256074 0.256074 0.256074 0.256074 0.256074 0.256074
