# Output from CTFFind version 4.1.9, run on 2019-11-03 18:52:15
# Input file: stack7_ub_averaged_3000.mrc ; Number of micrographs: 1
# Pixel size: 3.000 Angstroms ; acceleration voltage: 300.0 keV ; spherical aberration: 0.00 mm ; amplitude contrast: 0.07
# Box size: 512 pixels ; min. res.: 30.0 Angstroms ; max. res.: 5.0 Angstroms ; min. def.: 5000.0 um; max. def. 50000.0 um; num. frames averaged: 1
# 6 lines per micrograph: #1 - spatial frequency (1/Angstroms); #2 - 1D rotational average of spectrum (assuming no astigmatism); #3 - 1D rotational average of spectrum; #4 - CTF fit; #5 - cross-correlation between spectrum and CTF fit; #6 - 2sigma of expected cross correlation of noise
0.000000 0.000651 0.001302 0.001953 0.002604 0.003255 0.003906 0.004557 0.005208 0.005859 0.006510 0.007161 0.007812 0.008464 0.009115 0.009766 0.010417 0.011068 0.011719 0.012370 0.013021 0.013672 0.014323 0.014974 0.015625 0.016276 0.016927 0.017578 0.018229 0.018880 0.019531 0.020182 0.020833 0.021484 0.022135 0.022786 0.023438 0.024089 0.024740 0.025391 0.026042 0.026693 0.027344 0.027995 0.028646 0.029297 0.029948 0.030599 0.031250 0.031901 0.032552 0.033203 0.033854 0.034505 0.035156 0.035807 0.036458 0.037109 0.037760 0.038411 0.039062 0.039714 0.040365 0.041016 0.041667 0.042318 0.042969 0.043620 0.044271 0.044922 0.045573 0.046224 0.046875 0.047526 0.048177 0.048828 0.049479 0.050130 0.050781 0.051432 0.052083 0.052734 0.053385 0.054036 0.054688 0.055339 0.055990 0.056641 0.057292 0.057943 0.058594 0.059245 0.059896 0.060547 0.061198 0.061849 0.062500 0.063151 0.063802 0.064453 0.065104 0.065755 0.066406 0.067057 0.067708 0.068359 0.069010 0.069661 0.070312 0.070964 0.071615 0.072266 0.072917 0.073568 0.074219 0.074870 0.075521 0.076172 0.076823 0.077474 0.078125 0.078776 0.079427 0.080078 0.080729 0.081380 0.082031 0.082682 0.083333 0.083984 0.084635 0.085286 0.085938 0.086589 0.087240 0.087891 0.088542 0.089193 0.089844 0.090495 0.091146 0.091797 0.092448 0.093099 0.093750 0.094401 0.095052 0.095703 0.096354 0.097005 0.097656 0.098307 0.098958 0.099609 0.100260 0.100911 0.101562 0.102214 0.102865 0.103516 0.104167 0.104818 0.105469 0.106120 0.106771 0.107422 0.108073 0.108724 0.109375 0.110026 0.110677 0.111328 0.111979 0.112630 0.113281 0.113932 0.114583 0.115234 0.115885 0.116536 0.117188 0.117839 0.118490 0.119141 0.119792 0.120443 0.121094 0.121745 0.122396 0.123047 0.123698 0.124349 0.125000 0.125651 0.126302 0.126953 0.127604 0.128255 0.128906 0.129557 0.130208 0.130859 0.131510 0.132161 0.132812 0.133464 0.134115 0.134766 0.135417 0.136068 0.136719 0.137370 0.138021 0.138672 0.139323 0.139974 0.140625 0.141276 0.141927 0.142578 0.143229 0.143880 0.144531 0.145182 0.145833 0.146484 0.147135 0.147786 0.148438 0.149089 0.149740 0.150391 0.151042 0.151693 0.152344 0.152995 0.153646 0.154297 0.154948 0.155599 0.156250 0.156901 0.157552 0.158203 0.158854 0.159505 0.160156 0.160807 0.161458 0.162109 0.162760 0.163411 0.164062 0.164714 0.165365 0.166016 0.166667 0.167318 0.167969 0.168620 0.169271 0.169922 0.170573 0.171224 0.171875 0.172526 0.173177 0.173828 0.174479 0.175130 0.175781 0.176432 0.177083 0.177734 0.178385 0.179036 0.179688 0.180339 0.180990 0.181641 0.182292 0.182943 0.183594 0.184245 0.184896 0.185547 0.186198 0.186849 0.187500 0.188151 0.188802 0.189453 0.190104 0.190755 0.191406 0.192057 0.192708 0.193359 0.194010 0.194661 0.195312 0.195964 0.196615 0.197266 0.197917 0.198568 0.199219 0.199870 0.200521 0.201172 0.201823 0.202474 0.203125 0.203776 0.204427 0.205078 0.205729 0.206380 0.207031 0.207682 0.208333 0.208984 0.209635 0.210286 0.210938 0.211589 0.212240 0.212891 0.213542 0.214193 0.214844 0.215495 0.216146 0.216797 0.217448 0.218099 0.218750 0.219401 0.220052 0.220703 0.221354 0.222005 0.222656 0.223307 0.223958 0.224609 0.225260 0.225911 0.226562 0.227214 0.227865 0.228516 0.229167 0.229818 0.230469 0.231120 0.231771 0.232422 0.233073 0.233724 0.234375 0.235026 0.235677
       0.35270        0.35270        0.35270        0.35270        0.35270        0.35270        0.35270        0.35270        0.35270        0.35270        0.35270        0.35270        0.35270        0.35270        0.35270        0.35270        0.35270        0.35270        0.35270        0.35270        0.35270        0.35270        0.35270        0.35270        0.35270        0.35270        0.35270        0.35270        0.35270        0.35270        0.35270        0.35270        0.35270        0.35270        0.35270        0.35270        0.35270        0.35270        0.35270        0.35270        0.35270        0.35270        0.35270        0.35270        0.35270        0.35270        0.35270        0.35270        0.35270        0.35270        0.35270        0.54255        0.93337        0.45719        0.24142        0.28137       -0.00840        0.08181       -0.06709        0.03330        0.20404        0.15911        0.35971        0.24277        0.05671       -0.03293       -0.03814       -0.03945       -0.20356       -0.25027       -0.17723       -0.19107       -0.14021       -0.12558       -0.30580       -0.29844       -0.32885       -0.40366       -0.46891       -0.39132       -0.27754       -0.31423       -0.33602       -0.41168       -0.23425       -0.17593       -0.19060       -0.17716       -0.02327        0.03605        0.15851        0.29318        0.33955        0.43530        0.51742        0.60120        0.59761        0.62881        0.60068        0.57012        0.66223        0.67603        0.72508        0.79941        0.64725        0.53922        0.53862        0.49658        0.43370        0.30368        0.28962        0.22219        0.12309        0.03670        0.05917        0.07352        0.07370        0.02621        0.05753        0.07343        0.16378        0.16749        0.30871        0.39201        0.35245        0.52878        0.60546        0.57666        0.64196        0.72791        0.69374        0.67750        0.66364        0.53387        0.52090        0.41456        0.42338        0.29687        0.26031        0.23069        0.15535        0.08742        0.03433        0.06719        0.17214        0.19655        0.21083        0.24881        0.37424        0.42994        0.46875        0.57562        0.58101        0.57685        0.58680        0.57359        0.53760        0.47666        0.47735        0.38115        0.26989        0.25462        0.34752        0.23002        0.11230        0.20183        0.22292        0.23335        0.33233        0.35166        0.42276        0.46695        0.49333        0.53084        0.50796        0.51932        0.48079        0.50985        0.42512        0.44234        0.36502        0.28525        0.26987        0.23423        0.19713        0.26785        0.27189        0.32283        0.32295        0.38860        0.38063        0.48396        0.48082        0.46121        0.44499        0.46867        0.43508        0.31753        0.34130        0.30902        0.31836        0.28442        0.26175        0.27653        0.33600        0.35358        0.36168        0.37612        0.40764        0.45392        0.46140        0.39938        0.42053        0.35600        0.28651        0.29629        0.33148        0.32185        0.29886        0.28083        0.32719        0.36982        0.37549        0.34503        0.40249        0.41622        0.41421        0.36158        0.35699        0.35242        0.30937        0.30230        0.30642        0.29880        0.29000        0.32138        0.35568        0.38995        0.34749        0.39999        0.37222        0.37854        0.35181        0.32704        0.34824        0.33379        0.32895        0.30396        0.31122        0.30681        0.32438        0.31103        0.35045        0.35343        0.34957        0.32717        0.29004        0.31017        0.32659        0.29578        0.29046        0.27788        0.28821        0.30086        0.36188        0.36418        0.35715        0.37048        0.37591        0.30859        0.30438        0.37983        0.30750        0.29671        0.36323        0.36219        0.33969        0.30692        0.35238        0.37204        0.34658        0.37586        0.33036        0.36513        0.29978        0.31671        0.29227        0.34495        0.33145        0.30187        0.31521        0.36158        0.35217        0.34136        0.35726        0.35136        0.29757        0.28263        0.29531        0.32557        0.32171        0.32084        0.31963        0.26146        0.32868        0.36169        0.31010        0.29191        0.34001        0.30020        0.29197        0.31247        0.35126        0.34359        0.31955        0.29599        0.28428        0.29316        0.33773        0.33110        0.27996        0.26854        0.29565        0.33245        0.30860        0.27537        0.29171        0.26314        0.23922        0.24493        0.25834        0.31289        0.35321        0.27033        0.25652        0.31670        0.32353        0.30922        0.29331        0.27482        0.27110        0.22567        0.32653        0.27116        0.26070        0.26030        0.30020        0.20420        0.19331        0.29520        0.23144        0.25998        0.24132        0.31556        0.27317        0.22085        0.27407        0.17321        0.03969        0.01017       -0.05300       -0.49819       -0.85579
2.222442 2.201990 2.181638 2.161385 2.141233 2.121180 2.101227 2.081374 2.061620 2.041967 2.022413 2.002959 1.983605 1.964350 1.945196 1.926141 1.907186 1.888331 1.869575 1.850920 1.832364 1.813908 1.795552 1.777296 1.759139 1.741083 1.723126 1.705269 1.687512 1.669854 1.652297 1.634839 1.617481 1.600223 1.583064 1.566006 1.549047 1.532188 1.515429 1.498770 1.482210 1.465750 1.449391 1.433131 1.416970 1.400910 1.384949 1.369088 1.353327 1.337666 1.322105 1.377768 2.182065 1.560132 1.035862 1.283121 0.764799 0.885974 0.625848 0.700251 0.976031 0.904737 1.127640 1.032358 0.708805 0.640215 0.483796 0.555744 0.371514 0.117148 0.393868 0.294988 0.353619 0.308572 0.130309 0.060908 0.065975 -0.033457 -0.259484 -0.122045 0.027100 0.060153 -0.072430 -0.219544 0.037804 0.082478 0.092610 0.091661 0.282943 0.317969 0.460887 0.639322 0.739212 0.840153 0.912870 1.083613 1.014921 1.042142 1.110437 0.954323 1.031331 1.091499 1.152781 1.253908 1.099938 0.931234 0.829388 0.748294 0.767371 0.567995 0.451807 0.493391 0.211276 0.198410 0.056364 0.147262 0.174710 0.076997 0.078290 0.068979 0.209955 0.175171 0.347621 0.528790 0.443425 0.550556 0.847547 0.670192 0.800368 0.879053 0.891545 0.825062 0.821592 0.678173 0.655378 0.336645 0.580388 0.301279 0.233985 0.185351 0.118145 -0.031750 -0.059916 -0.112775 0.004270 0.039057 0.139332 0.062431 0.226344 0.382395 0.405200 0.483990 0.566788 0.553522 0.682641 0.483509 0.592472 0.431580 0.457219 0.286284 0.193400 0.056931 0.226277 0.125472 -0.071310 -0.035485 0.074969 -0.023206 0.140927 0.191557 0.213551 0.344131 0.366259 0.395952 0.412056 0.458438 0.390847 0.486570 0.330499 0.383485 0.291855 0.104005 0.185588 0.034470 -0.019519 0.103912 0.064249 0.110758 0.133261 0.270025 0.207485 0.229960 0.423287 0.325133 0.295256 0.226988 0.362715 0.127434 0.116588 0.115954 0.041755 0.094383 -0.005737 -0.019360 0.063265 0.104792 0.137961 0.121145 0.121795 0.218813 0.263079 0.205745 0.166775 0.155873 0.020228 -0.007209 0.011681 0.039243 0.055139 -0.051870 -0.023779 0.081064 0.105547 0.074528 0.055439 0.135636 0.114109 0.107103 0.012968 0.046824 -0.019143 -0.007779 -0.047788 -0.046421 -0.036601 -0.080544 -0.010006 0.085642 0.036898 0.009196 0.134960 0.052026 0.055261 0.051590 -0.015463 0.023188 0.008636 0.023244 -0.031762 -0.023993 -0.009282 -0.022336 0.013766 0.034692 0.095548 0.045963 -0.006768 -0.018570 0.024138 0.052952 -0.084049 0.028310 -0.022976 -0.017952 0.009565 0.094000 0.085292 0.085291 0.104928 0.135555 -0.022711 0.024018 0.188385 -0.055253 0.040790 0.117390 0.085468 0.066329 0.012663 0.109971 0.095499 0.106886 0.115780 0.059326 0.117724 0.061582 0.023336 0.026709 0.072167 0.076189 0.013911 0.063908 0.072294 0.012042 0.102927 0.086317 0.010692 -0.034525 -0.013868 0.007422 0.023170 -0.009581 0.022521 -0.052823 -0.052798 -0.006558 0.059247 -0.042964 -0.035541 0.030342 -0.054864 -0.040153 -0.028498 0.045080 0.064724 -0.028728 -0.023270 -0.042706 -0.039732 0.047451 0.020298 -0.076310 -0.066752 -0.033337 0.037314 -0.090830 -0.081350 -0.080208 -0.103264 -0.158229 -0.095399 -0.136258 0.016174 0.057513 -0.112262 -0.074049 -0.020981 0.033980 0.022433 -0.012046 0.005072 -0.032958 -0.064162 0.136329 0.006734 0.051533 0.024248 0.109486 -0.059505 0.012371 0.134028 0.111544 0.078608 0.038476 0.232219 0.377000 0.301755 0.428569 0.238025 -0.043143 0.009074 -0.067129 -1.162224
0.072396 0.072856 0.074236 0.076536 0.079755 0.083892 0.088946 0.094917 0.101802 0.109599 0.118305 0.127918 0.138432 0.149842 0.162143 0.175327 0.189385 0.204308 0.220084 0.236698 0.254136 0.272379 0.291408 0.311198 0.331725 0.352960 0.374869 0.397418 0.420566 0.444270 0.468483 0.493151 0.518218 0.543622 0.569296 0.595168 0.621160 0.647190 0.673168 0.699002 0.724589 0.749825 0.774599 0.798793 0.822284 0.844946 0.866644 0.887242 0.906597 0.924564 0.940992 0.955732 0.968626 0.979522 0.988262 0.994690 0.998654 1.000000 0.998582 0.994257 0.986888 0.976348 0.962518 0.945291 0.924571 0.900278 0.872349 0.840737 0.805415 0.766379 0.723648 0.677265 0.627301 0.573853 0.517051 0.457051 0.394047 0.328260 0.259949 0.189404 0.116951 0.042947 0.032216 0.108114 0.184293 0.260269 0.335535 0.409555 0.481778 0.551634 0.618540 0.681907 0.741144 0.795663 0.844887 0.888253 0.925223 0.955291 0.977986 0.992886 0.999620 0.997879 0.987422 0.968083 0.939782 0.902523 0.856408 0.801637 0.738513 0.667446 0.588953 0.503660 0.412297 0.315702 0.214808 0.110645 0.004326 0.102959 0.209958 0.315369 0.417853 0.516055 0.608619 0.694211 0.771534 0.839355 0.896527 0.942006 0.974878 0.994378 0.999911 0.991068 0.967647 0.929666 0.877371 0.811247 0.732023 0.640669 0.538393 0.426633 0.307040 0.181463 0.051920 0.079425 0.210302 0.338367 0.461247 0.576585 0.682083 0.775556 0.854976 0.918526 0.964645 0.992069 0.999879 0.987529 0.954881 0.902221 0.830275 0.740214 0.633644 0.512589 0.379465 0.237039 0.088377 0.063213 0.214251 0.361164 0.500373 0.628378 0.741851 0.837727 0.913299 0.966298 0.994973 0.998161 0.975336 0.926658 0.852988 0.755897 0.637646 0.501154 0.349936 0.188026 0.019876 0.149753 0.315930 0.473691 0.618193 0.744863 0.849553 0.928692 0.979411 0.999670 0.988349 0.945320 0.871489 0.768802 0.640214 0.489632 0.321803 0.142194 0.043188 0.227979 0.405682 0.569889 0.714521 0.834061 0.923782 0.979944 0.999973 0.982600 0.927949 0.837584 0.714493 0.563014 0.388714 0.198198 0.001119 0.201293 0.394168 0.571693 0.726280 0.851136 0.940575 0.990302 0.997646 0.961723 0.883536 0.765986 0.613802 0.433376 0.232535 0.020208 0.193952 0.399993 0.588135 0.749242 0.875274 0.959723 0.997962 0.987543 0.928375 0.822797 0.675537 0.493533 0.285646 0.062252 0.165260 0.385045 0.585431 0.755549 0.885929 0.969066 0.999879 0.976063 0.898292 0.770262 0.598570 0.392415 0.163142 0.076356 0.312342 0.531022 0.719357 0.865863 0.961329 0.999450 0.977275 0.895484 0.758438 0.574000 0.353147 0.109340 0.142253 0.385691 0.605266 0.786525 0.917261 0.988358 0.994483 0.934535 0.811826 0.633970 0.412462 0.161995 0.100485 0.356898 0.589269 0.781015 0.918134 0.990290 0.991636 0.921353 0.783825 0.588441 0.349033 0.082930 0.190241 0.450002 0.676535 0.852239 0.963122 0.999978 0.959211 0.843252 0.660504 0.424810 0.154470 0.129131 0.403190 0.645308 0.835354 0.957166 0.999990 0.959502 0.838318 0.645920 0.398007 0.115279 0.178238 0.457205 0.697156 0.876682 0.979374 0.995406 0.922552 0.766554 0.540764 0.265105 0.035635 0.333978 0.602251 0.815181 0.952300 0.999999 0.952958 0.814832 0.598080 0.322952 0.015664 0.294024 0.575700 0.801266 0.947804 0.999977 0.951725 0.807069 0.579907 0.292778 0.025270 0.341581 0.623216 0.840400 0.969728 0.996775 0.917807 0.740396 0.482822 0.172303 0.157798 0.471520 0.734200
1.000000 1.000000 1.000000 1.000000 1.000000 1.000000 1.000000 1.000000 1.000000 1.000000 1.000000 1.000000 1.000000 1.000000 1.000000 1.000000 1.000000 1.000000 1.000000 1.000000 1.000000 1.000000 1.000000 1.000000 1.000000 1.000000 1.000000 1.000000 1.000000 1.000000 1.000000 1.000000 1.000000 1.000000 1.000000 1.000000 1.000000 1.000000 1.000000 1.000000 1.000000 1.000000 1.000000 1.000000 1.000000 1.000000 1.000000 1.000000 1.000000 1.000000 1.000000 1.000000 0.885616 0.885616 0.885616 0.885616 0.885616 0.876662 0.876662 0.876662 0.876662 0.876662 0.876662 0.876662 0.876662 0.876662 0.876662 0.876662 0.876662 0.876662 0.876662 0.876662 0.876662 0.876662 0.876662 0.876662 0.876662 0.876662 0.876662 0.876662 0.876662 0.876662 0.876662 0.876662 0.876662 0.876662 0.876662 0.876662 0.876662 0.876662 0.876662 0.876662 0.876662 0.876662 0.876662 0.876662 0.876662 0.876662 0.876662 0.876662 0.876662 0.917579 0.918702 0.921249 0.922264 0.922089 0.921823 0.918536 0.920463 0.938121 0.938134 0.939541 0.940742 0.942288 0.943392 0.945768 0.946020 0.948637 0.951423 0.951616 0.955304 0.967515 0.963662 0.958218 0.955973 0.956836 0.957797 0.957232 0.955605 0.955728 0.957036 0.956930 0.954888 0.954334 0.953494 0.953355 0.953298 0.953173 0.953081 0.953161 0.953156 0.951191 0.951312 0.950484 0.949417 0.949317 0.948020 0.947705 0.948825 0.951400 0.951530 0.949091 0.953202 0.951291 0.953178 0.953111 0.950743 0.951579 0.951688 0.952349 0.951802 0.948974 0.940441 0.938470 0.924916 0.917631 0.915564 0.914872 0.913531 0.918639 0.918500 0.918220 0.916299 0.912561 0.901456 0.893145 0.874160 0.869730 0.872655 0.877638 0.875494 0.875935 0.862917 0.855129 0.855587 0.853513 0.840173 0.841272 0.837289 0.834057 0.831588 0.823964 0.809433 0.814331 0.821170 0.817121 0.816508 0.821304 0.810817 0.811804 0.811403 0.813232 0.817664 0.817027 0.815974 0.809476 0.803874 0.796502 0.794141 0.783871 0.793063 0.791372 0.792239 0.773179 0.774522 0.767630 0.758247 0.762994 0.774963 0.763181 0.769263 0.766473 0.754072 0.724519 0.706719 0.697507 0.707630 0.706895 0.706286 0.681798 0.692447 0.651748 0.654220 0.640912 0.629120 0.628511 0.636256 0.636523 0.642973 0.652712 0.634228 0.624382 0.563562 0.576054 0.564915 0.555860 0.558151 0.553694 0.536027 0.557342 0.546186 0.546004 0.547422 0.546976 0.518603 0.514813 0.496247 0.503453 0.514504 0.511319 0.514307 0.473429 0.459481 0.456086 0.435165 0.423742 0.411167 0.416091 0.417264 0.427492 0.444428 0.447694 0.447376 0.439552 0.433514 0.380649 0.342717 0.311862 0.288498 0.298070 0.279419 0.305789 0.315059 0.313593 0.306702 0.319388 0.312329 0.311034 0.310456 0.331622 0.256441 0.254171 0.245701 0.255839 0.235149 0.207222 0.222139 0.208537 0.195246 0.203881 0.204745 0.263916 0.239052 0.220316 0.221852 0.260322 0.229322 0.228582 0.231849 0.242206 0.241831 0.258538 0.224236 0.229608 0.221820 0.196431 0.170997 0.193420 0.198024 0.232129 0.232632 0.220240 0.166712 0.139959 0.144400 0.102230 0.112575 0.130114 0.159872 0.165715 0.104542 0.129781 0.129781 0.129781 0.129781 0.129781 0.090958 0.090958 0.090958 0.090958 0.090958 0.090958 0.090958 0.090958 0.090958 0.090958 0.093816 0.093816 0.093816 0.093816 0.093816 0.093816 0.093816 0.093816 0.093816 0.093816 0.093816 0.093816 0.093816 0.093816 0.093816 0.093816 0.093816
0.000000 0.000000 0.000000 0.000000 0.000000 0.000000 0.000000 0.000000 0.000000 0.000000 0.000000 0.000000 0.000000 0.000000 0.000000 0.000000 0.000000 0.000000 0.000000 0.000000 0.000000 9401.000000 0.000000 0.000000 0.000000 0.000000 0.000000 0.000000 0.000000 0.000000 0.000000 0.000000 0.000000 0.000000 0.000000 0.000000 0.000000 0.000000 0.000000 0.000000 0.000000 0.000000 0.000000 0.000000 0.000000 0.000000 0.000000 0.000000 0.000000 0.000000 0.000000 0.000000 0.177471 0.177471 0.177471 0.177471 0.177471 0.191565 0.191565 0.191565 0.191565 0.191565 0.191565 0.191565 0.191565 0.191565 0.191565 0.191565 0.191565 0.191565 0.191565 0.191565 0.191565 0.191565 0.191565 0.191565 0.191565 0.191565 0.191565 0.191565 0.191565 0.191565 0.191565 0.191565 0.191565 0.191565 0.191565 0.191565 0.191565 0.191565 0.191565 0.191565 0.191565 0.191565 0.191565 0.191565 0.191565 0.191565 0.191565 0.191565 0.191565 0.225018 0.225018 0.225018 0.225018 0.225018 0.225018 0.225018 0.225018 0.225018 0.225018 0.225018 0.225018 0.225018 0.225018 0.225018 0.225018 0.225018 0.225018 0.225018 0.225018 0.225018 0.225018 0.225018 0.225018 0.225018 0.225018 0.225018 0.225018 0.225018 0.237356 0.237356 0.237356 0.237356 0.237356 0.237356 0.237356 0.237356 0.237356 0.237356 0.237356 0.237356 0.237356 0.237356 0.237356 0.237356 0.237356 0.237356 0.237356 0.237356 0.237356 0.237356 0.237356 0.237356 0.244339 0.244339 0.244339 0.244339 0.244339 0.244339 0.244339 0.244339 0.244339 0.244339 0.244339 0.244339 0.244339 0.244339 0.244339 0.244339 0.244339 0.244339 0.244339 0.244339 0.244339 0.248069 0.248069 0.248069 0.248069 0.248069 0.248069 0.248069 0.248069 0.248069 0.248069 0.248069 0.248069 0.248069 0.248069 0.248069 0.248069 0.248069 0.248069 0.248069 0.256074 0.256074 0.256074 0.256074 0.256074 0.256074 0.256074 0.256074 0.256074 0.256074 0.256074 0.256074 0.256074 0.256074 0.256074 0.256074 0.256074 0.264906 0.264906 0.264906 0.264906 0.264906 0.264906 0.264906 0.264906 0.264906 0.264906 0.264906 0.264906 0.264906 0.264906 0.264906 0.256074 0.256074 0.256074 0.256074 0.256074 0.256074 0.256074 0.256074 0.256074 0.256074 0.256074 0.256074 0.256074 0.256074 0.256074 0.256074 0.256074 0.256074 0.256074 0.256074 0.256074 0.256074 0.256074 0.256074 0.256074 0.256074 0.256074 0.256074 0.256074 0.260378 0.260378 0.260378 0.260378 0.260378 0.260378 0.260378 0.260378 0.260378 0.260378 0.260378 0.260378 0.260378 0.264906 0.264906 0.264906 0.264906 0.264906 0.264906 0.264906 0.264906 0.264906 0.264906 0.264906 0.264906 0.260378 0.260378 0.260378 0.260378 0.260378 0.260378 0.260378 0.260378 0.260378 0.260378 0.260378 0.260378 0.264906 0.264906 0.264906 0.264906 0.264906 0.264906 0.264906 0.264906 0.264906 0.264906 0.264906 0.248069 0.248069 0.248069 0.248069 0.248069 0.248069 0.248069 0.248069 0.248069 0.248069 0.248069 0.248069 0.264906 0.264906 0.264906 0.264906 0.264906 0.264906 0.264906 0.264906 0.264906 0.264906 0.248069 0.248069 0.248069 0.248069 0.248069 0.248069 0.248069 0.248069 0.248069 0.248069 0.248069 0.256074 0.256074 0.256074 0.256074 0.256074 0.256074 0.256074 0.256074 0.256074 0.256074 0.260378 0.260378 0.260378 0.260378 0.260378 0.260378 0.260378 0.260378 0.260378 0.260378 0.260378 0.260378 0.260378 0.260378 0.260378 0.260378 0.260378
