# Output from CTFFind version 4.1.9, run on 2019-11-03 18:51:56
# Input file: stack13_ub_averaged_1500.mrc ; Number of micrographs: 1
# Pixel size: 3.000 Angstroms ; acceleration voltage: 300.0 keV ; spherical aberration: 0.00 mm ; amplitude contrast: 0.07
# Box size: 512 pixels ; min. res.: 30.0 Angstroms ; max. res.: 5.0 Angstroms ; min. def.: 5000.0 um; max. def. 50000.0 um; num. frames averaged: 1
# 6 lines per micrograph: #1 - spatial frequency (1/Angstroms); #2 - 1D rotational average of spectrum (assuming no astigmatism); #3 - 1D rotational average of spectrum; #4 - CTF fit; #5 - cross-correlation between spectrum and CTF fit; #6 - 2sigma of expected cross correlation of noise
0.000000 0.000651 0.001302 0.001953 0.002604 0.003255 0.003906 0.004557 0.005208 0.005859 0.006510 0.007161 0.007812 0.008464 0.009115 0.009766 0.010417 0.011068 0.011719 0.012370 0.013021 0.013672 0.014323 0.014974 0.015625 0.016276 0.016927 0.017578 0.018229 0.018880 0.019531 0.020182 0.020833 0.021484 0.022135 0.022786 0.023438 0.024089 0.024740 0.025391 0.026042 0.026693 0.027344 0.027995 0.028646 0.029297 0.029948 0.030599 0.031250 0.031901 0.032552 0.033203 0.033854 0.034505 0.035156 0.035807 0.036458 0.037109 0.037760 0.038411 0.039062 0.039714 0.040365 0.041016 0.041667 0.042318 0.042969 0.043620 0.044271 0.044922 0.045573 0.046224 0.046875 0.047526 0.048177 0.048828 0.049479 0.050130 0.050781 0.051432 0.052083 0.052734 0.053385 0.054036 0.054688 0.055339 0.055990 0.056641 0.057292 0.057943 0.058594 0.059245 0.059896 0.060547 0.061198 0.061849 0.062500 0.063151 0.063802 0.064453 0.065104 0.065755 0.066406 0.067057 0.067708 0.068359 0.069010 0.069661 0.070312 0.070964 0.071615 0.072266 0.072917 0.073568 0.074219 0.074870 0.075521 0.076172 0.076823 0.077474 0.078125 0.078776 0.079427 0.080078 0.080729 0.081380 0.082031 0.082682 0.083333 0.083984 0.084635 0.085286 0.085938 0.086589 0.087240 0.087891 0.088542 0.089193 0.089844 0.090495 0.091146 0.091797 0.092448 0.093099 0.093750 0.094401 0.095052 0.095703 0.096354 0.097005 0.097656 0.098307 0.098958 0.099609 0.100260 0.100911 0.101562 0.102214 0.102865 0.103516 0.104167 0.104818 0.105469 0.106120 0.106771 0.107422 0.108073 0.108724 0.109375 0.110026 0.110677 0.111328 0.111979 0.112630 0.113281 0.113932 0.114583 0.115234 0.115885 0.116536 0.117188 0.117839 0.118490 0.119141 0.119792 0.120443 0.121094 0.121745 0.122396 0.123047 0.123698 0.124349 0.125000 0.125651 0.126302 0.126953 0.127604 0.128255 0.128906 0.129557 0.130208 0.130859 0.131510 0.132161 0.132812 0.133464 0.134115 0.134766 0.135417 0.136068 0.136719 0.137370 0.138021 0.138672 0.139323 0.139974 0.140625 0.141276 0.141927 0.142578 0.143229 0.143880 0.144531 0.145182 0.145833 0.146484 0.147135 0.147786 0.148438 0.149089 0.149740 0.150391 0.151042 0.151693 0.152344 0.152995 0.153646 0.154297 0.154948 0.155599 0.156250 0.156901 0.157552 0.158203 0.158854 0.159505 0.160156 0.160807 0.161458 0.162109 0.162760 0.163411 0.164062 0.164714 0.165365 0.166016 0.166667 0.167318 0.167969 0.168620 0.169271 0.169922 0.170573 0.171224 0.171875 0.172526 0.173177 0.173828 0.174479 0.175130 0.175781 0.176432 0.177083 0.177734 0.178385 0.179036 0.179688 0.180339 0.180990 0.181641 0.182292 0.182943 0.183594 0.184245 0.184896 0.185547 0.186198 0.186849 0.187500 0.188151 0.188802 0.189453 0.190104 0.190755 0.191406 0.192057 0.192708 0.193359 0.194010 0.194661 0.195312 0.195964 0.196615 0.197266 0.197917 0.198568 0.199219 0.199870 0.200521 0.201172 0.201823 0.202474 0.203125 0.203776 0.204427 0.205078 0.205729 0.206380 0.207031 0.207682 0.208333 0.208984 0.209635 0.210286 0.210938 0.211589 0.212240 0.212891 0.213542 0.214193 0.214844 0.215495 0.216146 0.216797 0.217448 0.218099 0.218750 0.219401 0.220052 0.220703 0.221354 0.222005 0.222656 0.223307 0.223958 0.224609 0.225260 0.225911 0.226562 0.227214 0.227865 0.228516 0.229167 0.229818 0.230469 0.231120 0.231771 0.232422 0.233073 0.233724 0.234375 0.235026 0.235677
       0.36193        0.36193        0.36193        0.36193        0.36193        0.36193        0.36193        0.36193        0.36193        0.36193        0.36193        0.36193        0.36193        0.36193        0.36193        0.36193        0.36193        0.36193        0.36193        0.36193        0.36193        0.36193        0.36193        0.36193        0.36193        0.36193        0.36193        0.36193        0.36193        0.36193        0.36193        0.36193        0.36193        0.36193        0.36193        0.36193        0.36193        0.36193        0.36193        0.36193        0.36193        0.36193        0.36193        0.36193        0.36193        0.36193        0.36193        0.36193        0.36193        0.36193        0.36193        0.58144        1.00092        0.80482        0.07030       -0.24149       -0.19435       -0.34794       -0.35199       -0.31086       -0.36062       -0.08226       -0.31161       -0.27988       -0.49997       -0.52216       -0.61946       -0.65985       -0.67965       -0.80545       -0.72979       -0.73152       -0.64313       -0.65196       -0.59260       -0.55590       -0.57166       -0.45647       -0.32947       -0.29340       -0.17019       -0.02958        0.07799        0.26659        0.37378        0.41632        0.45456        0.56455        0.69410        0.60315        0.61500        0.54966        0.70251        0.65375        0.61774        0.67123        0.61310        0.55072        0.35910        0.31392        0.23104        0.15408        0.05379        0.04518       -0.07781        0.01682        0.01461        0.06472        0.13511        0.17798        0.22738        0.41067        0.49056        0.60859        0.62370        0.68754        0.68072        0.74884        0.72377        0.63028        0.60271        0.63570        0.53594        0.41296        0.35665        0.26958        0.15459        0.14964        0.06891        0.09051        0.02610        0.12092        0.18706        0.36685        0.45385        0.44602        0.51234        0.58868        0.59061        0.55574        0.65161        0.57775        0.50895        0.48135        0.42191        0.29007        0.26580        0.18416        0.13514        0.11968        0.16317        0.17962        0.28963        0.35117        0.46828        0.45760        0.53392        0.56233        0.56037        0.56419        0.55441        0.46815        0.39987        0.32112        0.26731        0.21841        0.19777        0.19395        0.23267        0.29383        0.28750        0.38033        0.46515        0.49593        0.52759        0.51481        0.51993        0.46595        0.40784        0.34203        0.27679        0.26137        0.23675        0.22182        0.25415        0.33608        0.37962        0.42861        0.51757        0.48982        0.49210        0.45645        0.40355        0.39489        0.35711        0.33456        0.24698        0.24498        0.29162        0.34084        0.35324        0.40172        0.43477        0.48414        0.43269        0.42750        0.39957        0.40930        0.36170        0.32504        0.30384        0.34472        0.33145        0.32969        0.35790        0.39530        0.37477        0.41900        0.44267        0.39073        0.33465        0.28578        0.27090        0.30209        0.29000        0.33177        0.36280        0.39762        0.45915        0.42120        0.42884        0.41140        0.35118        0.36293        0.35474        0.29610        0.31588        0.34282        0.35294        0.37934        0.39812        0.39718        0.38598        0.36586        0.36377        0.31640        0.30436        0.26971        0.29444        0.31779        0.32532        0.35548        0.38050        0.39276        0.35998        0.31485        0.30246        0.28592        0.27063        0.27881        0.33971        0.33934        0.35736        0.34443        0.36629        0.35560        0.31342        0.29790        0.32566        0.32133        0.31741        0.36385        0.33915        0.34661        0.41180        0.34811        0.38126        0.33349        0.27657        0.31574        0.34953        0.36209        0.32958        0.34675        0.39036        0.38379        0.38858        0.37773        0.30904        0.28543        0.35958        0.28314        0.36137        0.36498        0.37160        0.33091        0.34332        0.34509        0.33519        0.32675        0.32166        0.32661        0.34795        0.40930        0.32947        0.38359        0.32289        0.30636        0.27390        0.32571        0.34796        0.32454        0.35137        0.34253        0.28332        0.26115        0.37206        0.28608        0.27898        0.31379        0.36351        0.33769        0.29969        0.25794        0.29065        0.32366        0.33793        0.33334        0.34856        0.29209        0.31926        0.27179        0.23055        0.24330        0.28014        0.33882        0.33043        0.33451        0.28515        0.31248        0.28219        0.24790        0.29057        0.34068        0.22914        0.26115        0.27668        0.29296        0.24194        0.26409        0.19352        0.26220        0.21252        0.20819        0.30498        0.30466        0.20675        0.23138        0.21734        0.20744        0.08487       -0.51785       -0.79754
2.386058 2.359639 2.333374 2.307262 2.281305 2.255502 2.229854 2.204359 2.179018 2.153832 2.128799 2.103921 2.079197 2.054626 2.030210 2.005948 1.981840 1.957887 1.934087 1.910442 1.886950 1.863613 1.840430 1.817400 1.794525 1.771805 1.749238 1.726825 1.704566 1.682462 1.660511 1.638715 1.617073 1.595585 1.574251 1.553071 1.532045 1.511173 1.490456 1.469892 1.449483 1.429228 1.409127 1.389179 1.369386 1.349748 1.330263 1.310932 1.291756 1.272733 1.253865 1.378368 1.778270 1.651344 1.008778 0.580346 0.639250 0.491188 0.390214 0.520308 0.354346 0.634843 0.472911 0.441075 0.234790 0.113721 0.090599 0.031665 -0.025584 -0.159418 -0.067873 -0.213007 -0.046866 -0.094528 -0.050365 0.027846 -0.088579 0.037961 0.122272 0.129674 0.216721 0.402067 0.397499 0.654252 0.643840 0.770527 0.735366 0.848505 0.908785 0.921517 0.832412 0.751828 0.903171 0.892063 0.823130 0.857040 0.780901 0.783804 0.531337 0.454872 0.419973 0.305398 0.234324 0.191486 0.075216 0.098703 0.097147 0.153119 0.193880 0.251840 0.214082 0.443912 0.441021 0.596208 0.593186 0.681700 0.654385 0.650253 0.727480 0.573734 0.456514 0.661623 0.471430 0.355375 0.304629 0.237064 0.090788 0.063787 0.004859 0.010406 -0.119593 0.043573 0.007743 0.197228 0.270917 0.294659 0.315509 0.402431 0.414521 0.423847 0.407347 0.452033 0.354863 0.290903 0.321719 0.120316 0.109374 0.067500 -0.017471 -0.095243 -0.023777 0.013982 0.020747 0.097191 0.258554 0.204154 0.276878 0.356311 0.378173 0.391087 0.408041 0.328370 0.242918 0.222247 0.071775 0.098496 0.016951 0.023146 0.034787 0.085210 0.128928 0.132196 0.219039 0.264944 0.325590 0.276034 0.350583 0.271145 0.207163 0.152247 0.127234 0.021975 0.068698 -0.000364 0.027301 0.067543 0.110675 0.181095 0.245658 0.279563 0.220151 0.222429 0.199903 0.100025 0.127346 0.104828 0.016439 -0.024725 -0.014783 0.074208 0.032309 0.144890 0.108480 0.177498 0.195326 0.142082 0.113555 0.115161 0.117981 0.053682 0.022217 0.036669 0.075808 0.026396 0.073453 0.053183 0.097217 0.092472 0.142992 0.117673 0.074414 0.028585 -0.053467 0.004340 -0.012967 0.018856 0.037901 0.069404 0.129917 0.147128 0.106262 0.122340 0.124260 0.058094 0.056599 0.049276 0.009622 0.047127 0.039735 0.071478 0.096925 0.089420 0.111269 0.085986 0.072025 0.073660 0.008020 0.025467 -0.023444 0.011965 0.041919 0.038958 0.078455 0.102659 0.096278 0.052240 0.019170 0.012508 -0.003171 -0.008449 0.004200 0.045058 0.066901 0.051254 0.065185 0.093065 0.066574 0.027122 0.022844 0.055770 0.032146 0.043086 0.089428 0.052438 0.050842 0.101362 0.056572 0.114762 0.042748 -0.045172 0.040753 0.061963 0.074888 0.031626 0.058136 0.126197 0.078624 0.101509 0.099623 -0.003027 0.016314 0.081401 -0.030935 0.091001 0.080825 0.068273 0.014691 0.063259 0.031288 0.023241 0.010709 0.023996 0.015631 0.021230 0.039924 0.006504 0.046775 -0.046326 -0.042765 -0.056787 -0.009589 -0.022419 -0.044197 0.021357 -0.044569 -0.075182 -0.085912 0.045842 -0.078703 -0.078915 -0.008278 0.017459 -0.007920 -0.021857 -0.078993 -0.005187 0.024738 -0.007020 0.010866 0.012535 0.024054 0.015121 -0.026342 -0.061477 -0.042120 -0.002695 0.044034 0.047782 0.062191 -0.013879 0.096364 -0.015492 -0.041779 0.024850 0.069549 -0.017484 -0.047366 0.002944 0.050937 -0.014698 0.010814 -0.053050 -0.012728 -0.102130 0.198411 0.316344 0.276132 0.185672 0.258467 0.192881 0.151760 0.085228 -0.741919
0.072396 0.072957 0.074639 0.077443 0.081367 0.086410 0.092571 0.099848 0.108237 0.117736 0.128340 0.140042 0.152837 0.166715 0.181666 0.197678 0.214736 0.232822 0.251917 0.271997 0.293035 0.314999 0.337855 0.361562 0.386075 0.411344 0.437312 0.463918 0.491091 0.518756 0.546831 0.575224 0.603837 0.632563 0.661289 0.689891 0.718237 0.746187 0.773593 0.800299 0.826138 0.850938 0.874520 0.896694 0.917269 0.936045 0.952819 0.967384 0.979530 0.989048 0.995728 0.999364 0.999752 0.996697 0.990009 0.979512 0.965042 0.946451 0.923608 0.896406 0.864761 0.828615 0.787943 0.742749 0.693077 0.639006 0.580659 0.518200 0.451841 0.381840 0.308504 0.232190 0.153306 0.072308 0.010294 0.093945 0.178044 0.261946 0.344966 0.426384 0.505451 0.581396 0.653430 0.720757 0.782584 0.838129 0.886629 0.927359 0.959635 0.982834 0.996398 0.999857 0.992833 0.975054 0.946368 0.906753 0.856325 0.795346 0.724231 0.643557 0.554056 0.456624 0.352311 0.242322 0.127999 0.010820 0.107627 0.225656 0.341508 0.453377 0.559436 0.657868 0.746901 0.824839 0.890103 0.941262 0.977073 0.996514 0.998818 0.983500 0.950389 0.899645 0.831779 0.747659 0.648513 0.535926 0.411824 0.278451 0.138336 0.005743 0.150813 0.293766 0.431416 0.560579 0.678143 0.781149 0.866876 0.932914 0.977247 0.998321 0.995110 0.967167 0.914671 0.838444 0.739972 0.621385 0.485439 0.335463 0.175293 0.009185 0.158288 0.322363 0.478210 0.621090 0.746492 0.850292 0.928900 0.979396 0.999657 0.988462 0.945573 0.871786 0.768951 0.639952 0.488655 0.319814 0.138945 0.047848 0.234062 0.413017 0.578103 0.723020 0.842038 0.930237 0.983736 0.999877 0.977392 0.916500 0.818967 0.688087 0.528614 0.346613 0.149266 0.055403 0.258833 0.452282 0.627201 0.775629 0.890567 0.966339 0.998892 0.986057 0.927710 0.825860 0.684630 0.510135 0.310256 0.094320 0.127321 0.343763 0.544085 0.717913 0.855972 0.950605 0.996240 0.989756 0.930732 0.821570 0.667454 0.476163 0.257720 0.023909 0.212334 0.437630 0.638914 0.804203 0.923346 0.988682 0.995583 0.942830 0.832802 0.671442 0.468005 0.234581 0.014583 0.263915 0.497486 0.700032 0.857973 0.960364 0.999703 0.972544 0.879856 0.727084 0.523921 0.283752 0.022837 0.240763 0.488412 0.702218 0.866364 0.968308 0.999816 0.957693 0.844167 0.666884 0.438478 0.175750 0.101520 0.372018 0.614534 0.809637 0.941277 0.998176 0.974862 0.872289 0.697930 0.465338 0.193186 0.096176 0.378511 0.629704 0.827859 0.955252 0.999992 0.957221 0.829735 0.627935 0.369102 0.075987 0.225103 0.506636 0.742392 0.909929 0.992799 0.982258 0.878298 0.689869 0.434249 0.135557 0.177433 0.474026 0.724603 0.903638 0.992352 0.980811 0.869147 0.667801 0.396681 0.083327 0.239820 0.538710 0.781303 0.941052 0.999888 0.950407 0.796929 0.555298 0.251396 0.081511 0.406342 0.686323 0.889165 0.990894 0.978798 0.853171 0.627580 0.327559 0.012125 0.351427 0.649700 0.870593 0.986575 0.982488 0.857699 0.626503 0.316673 0.033742 0.380968 0.680949 0.894985 0.994809 0.966477 0.812495 0.551851 0.217853 0.145951 0.491393 0.772030 0.949454 0.998685 0.911864 0.699688 0.390338 0.025908 0.343178 0.665107 0.893956 0.996380 0.956627 0.779182 0.488528 0.125980 0.256010 0.601382 0.858680 0.988842 0.971295 0.807430 0.520830 0.154125 0.237179 0.593011 0.857945 0.989940 0.967221 0.792089 0.491027 0.110955 0.287889 0.641421 0.892025 0.998053
1.000000 1.000000 1.000000 1.000000 1.000000 1.000000 1.000000 1.000000 1.000000 1.000000 1.000000 1.000000 1.000000 1.000000 1.000000 1.000000 1.000000 1.000000 1.000000 1.000000 1.000000 1.000000 1.000000 1.000000 1.000000 1.000000 1.000000 1.000000 1.000000 1.000000 1.000000 1.000000 1.000000 1.000000 1.000000 1.000000 1.000000 1.000000 1.000000 1.000000 1.000000 1.000000 1.000000 1.000000 1.000000 1.000000 1.000000 1.000000 1.000000 1.000000 1.000000 1.000000 0.940086 0.940086 0.940086 0.940086 0.940086 0.940086 0.940086 0.940086 0.940086 0.940086 0.940086 0.940086 0.940086 0.940086 0.940086 0.940086 0.940086 0.940086 0.940086 0.940086 0.940086 0.940086 0.940086 0.940086 0.940086 0.940086 0.940086 0.940086 0.940086 0.940086 0.940086 0.940086 0.940086 0.940086 0.940086 0.940086 0.940086 0.940086 0.940086 0.921299 0.923885 0.924623 0.927976 0.928613 0.927253 0.929194 0.929421 0.930216 0.931055 0.932475 0.934167 0.935786 0.938727 0.943262 0.949614 0.949866 0.952770 0.954997 0.955691 0.969644 0.970337 0.971453 0.971894 0.972051 0.972111 0.972211 0.972933 0.973046 0.972784 0.972291 0.970659 0.972637 0.978087 0.978060 0.977695 0.977782 0.978014 0.978026 0.979005 0.979215 0.977988 0.975697 0.975520 0.975028 0.975098 0.975399 0.974612 0.973349 0.974701 0.974714 0.974857 0.975213 0.975125 0.970824 0.971091 0.969112 0.964218 0.958088 0.955692 0.952101 0.953227 0.955468 0.955085 0.952278 0.947679 0.944981 0.943886 0.945956 0.942994 0.942990 0.943864 0.945225 0.946025 0.946078 0.937794 0.936304 0.934356 0.934277 0.936858 0.939878 0.938845 0.935165 0.934763 0.933239 0.934313 0.927812 0.913117 0.906668 0.906103 0.904955 0.908526 0.912968 0.909946 0.903658 0.897952 0.875145 0.862386 0.858851 0.861378 0.862658 0.864764 0.872370 0.864507 0.860250 0.857520 0.854405 0.853934 0.855657 0.856526 0.854821 0.853124 0.854321 0.854454 0.852475 0.852500 0.849477 0.847825 0.844700 0.844623 0.837535 0.837281 0.839174 0.841328 0.842908 0.843590 0.842098 0.846271 0.837468 0.841667 0.840546 0.843928 0.838817 0.842355 0.843430 0.838649 0.828644 0.823781 0.825124 0.834040 0.819294 0.826106 0.834666 0.842570 0.844649 0.840745 0.837523 0.834439 0.831420 0.836139 0.856614 0.803287 0.806134 0.815738 0.815048 0.810467 0.809996 0.806368 0.793902 0.791661 0.806726 0.789155 0.780010 0.780510 0.779698 0.770900 0.756852 0.758216 0.753491 0.745922 0.722939 0.730746 0.732265 0.707753 0.704443 0.668576 0.670870 0.673906 0.669428 0.629024 0.617616 0.622536 0.627745 0.632400 0.599807 0.563405 0.568325 0.568577 0.558044 0.564582 0.564859 0.560643 0.560287 0.555457 0.545419 0.532651 0.510804 0.501202 0.411227 0.422023 0.407664 0.408378 0.424591 0.412777 0.415712 0.403003 0.414087 0.381291 0.334507 0.329709 0.337541 0.351745 0.351733 0.357798 0.366997 0.385780 0.383884 0.355390 0.378094 0.393934 0.373120 0.378546 0.407459 0.406686 0.386761 0.364968 0.355041 0.380519 0.370673 0.362284 0.340386 0.356682 0.313963 0.340907 0.345946 0.312494 0.275036 0.250795 0.247427 0.275790 0.171468 0.184716 0.184716 0.184716 0.184716 0.184716 0.184716 0.184716 0.159011 0.159011 0.159011 0.159011 0.159011 0.159011 0.159011 0.159011 0.173552 0.173552 0.173552 0.173552 0.173552 0.173552 0.173552 0.173552 0.173552 0.173552 0.173552 0.173552 0.173552 0.173552 0.173552 0.173552
0.000000 0.000000 0.000000 0.000000 0.000000 0.000000 0.000000 0.000000 0.000000 0.000000 0.000000 0.000000 0.000000 0.000000 0.000000 0.000000 0.000000 0.000000 0.000000 0.000000 0.000000 0.000000 0.000000 0.000000 0.000000 0.000000 0.000000 0.000000 0.000000 0.000000 0.000000 0.000000 0.000000 0.000000 0.000000 0.000000 0.000000 0.000000 0.000000 0.000000 0.000000 0.000000 0.000000 0.000000 0.000000 0.000000 0.000000 0.000000 0.000000 0.000000 0.000000 0.000000 0.203069 0.203069 0.203069 0.203069 0.203069 0.203069 0.203069 0.203069 0.203069 0.203069 0.203069 0.203069 0.203069 0.203069 0.203069 0.203069 0.203069 0.203069 0.203069 0.203069 0.203069 0.203069 0.203069 0.203069 0.203069 0.203069 0.203069 0.203069 0.203069 0.203069 0.203069 0.203069 0.203069 0.203069 0.203069 0.203069 0.203069 0.203069 0.203069 0.234082 0.234082 0.234082 0.234082 0.234082 0.234082 0.234082 0.234082 0.234082 0.234082 0.234082 0.234082 0.234082 0.234082 0.234082 0.234082 0.234082 0.234082 0.234082 0.234082 0.234082 0.234082 0.234082 0.234082 0.234082 0.234082 0.234082 0.248069 0.248069 0.248069 0.248069 0.248069 0.248069 0.248069 0.248069 0.248069 0.248069 0.248069 0.248069 0.248069 0.248069 0.248069 0.248069 0.248069 0.248069 0.248069 0.248069 0.248069 0.248069 0.256074 0.256074 0.256074 0.256074 0.256074 0.256074 0.256074 0.256074 0.256074 0.256074 0.256074 0.256074 0.256074 0.256074 0.256074 0.256074 0.256074 0.256074 0.256074 0.269680 0.269680 0.269680 0.269680 0.269680 0.269680 0.269680 0.269680 0.269680 0.269680 0.269680 0.269680 0.269680 0.269680 0.269680 0.269680 0.264906 0.264906 0.264906 0.264906 0.264906 0.264906 0.264906 0.264906 0.264906 0.264906 0.264906 0.264906 0.264906 0.264906 0.264906 0.264906 0.269680 0.269680 0.269680 0.269680 0.269680 0.269680 0.269680 0.269680 0.269680 0.269680 0.269680 0.269680 0.269680 0.269680 0.274721 0.274721 0.274721 0.274721 0.274721 0.274721 0.274721 0.274721 0.274721 0.274721 0.274721 0.274721 0.274721 0.264906 0.264906 0.264906 0.264906 0.264906 0.264906 0.264906 0.264906 0.264906 0.264906 0.264906 0.264906 0.264906 0.280056 0.280056 0.280056 0.280056 0.280056 0.280056 0.280056 0.280056 0.280056 0.280056 0.280056 0.264906 0.264906 0.264906 0.264906 0.264906 0.264906 0.264906 0.264906 0.264906 0.264906 0.264906 0.264906 0.269680 0.269680 0.269680 0.269680 0.269680 0.269680 0.269680 0.269680 0.269680 0.269680 0.269680 0.274721 0.274721 0.274721 0.274721 0.274721 0.274721 0.274721 0.274721 0.274721 0.274721 0.269680 0.269680 0.269680 0.269680 0.269680 0.269680 0.269680 0.269680 0.269680 0.269680 0.264906 0.264906 0.264906 0.264906 0.264906 0.264906 0.264906 0.264906 0.264906 0.264906 0.269680 0.269680 0.269680 0.269680 0.269680 0.269680 0.269680 0.269680 0.269680 0.264906 0.264906 0.264906 0.264906 0.264906 0.264906 0.264906 0.264906 0.264906 0.260378 0.260378 0.260378 0.260378 0.260378 0.260378 0.260378 0.260378 0.260378 0.269680 0.269680 0.269680 0.269680 0.269680 0.269680 0.269680 0.269680 0.251976 0.251976 0.251976 0.251976 0.251976 0.251976 0.251976 0.251976 0.251976 0.264906 0.264906 0.264906 0.264906 0.264906 0.264906 0.264906 0.264906 0.260378 0.260378 0.260378 0.260378 0.260378 0.260378 0.260378 0.260378 0.260378 0.260378 0.260378 0.260378 0.260378 0.260378 0.260378 0.260378
