# Output from CTFFind version 4.1.9, run on 2019-11-03 18:51:52
# Input file: stack20_ub_averaged_1500.mrc ; Number of micrographs: 1
# Pixel size: 3.000 Angstroms ; acceleration voltage: 300.0 keV ; spherical aberration: 0.00 mm ; amplitude contrast: 0.07
# Box size: 512 pixels ; min. res.: 30.0 Angstroms ; max. res.: 5.0 Angstroms ; min. def.: 5000.0 um; max. def. 50000.0 um; num. frames averaged: 1
# 6 lines per micrograph: #1 - spatial frequency (1/Angstroms); #2 - 1D rotational average of spectrum (assuming no astigmatism); #3 - 1D rotational average of spectrum; #4 - CTF fit; #5 - cross-correlation between spectrum and CTF fit; #6 - 2sigma of expected cross correlation of noise
0.000000 0.000651 0.001302 0.001953 0.002604 0.003255 0.003906 0.004557 0.005208 0.005859 0.006510 0.007161 0.007812 0.008464 0.009115 0.009766 0.010417 0.011068 0.011719 0.012370 0.013021 0.013672 0.014323 0.014974 0.015625 0.016276 0.016927 0.017578 0.018229 0.018880 0.019531 0.020182 0.020833 0.021484 0.022135 0.022786 0.023438 0.024089 0.024740 0.025391 0.026042 0.026693 0.027344 0.027995 0.028646 0.029297 0.029948 0.030599 0.031250 0.031901 0.032552 0.033203 0.033854 0.034505 0.035156 0.035807 0.036458 0.037109 0.037760 0.038411 0.039062 0.039714 0.040365 0.041016 0.041667 0.042318 0.042969 0.043620 0.044271 0.044922 0.045573 0.046224 0.046875 0.047526 0.048177 0.048828 0.049479 0.050130 0.050781 0.051432 0.052083 0.052734 0.053385 0.054036 0.054688 0.055339 0.055990 0.056641 0.057292 0.057943 0.058594 0.059245 0.059896 0.060547 0.061198 0.061849 0.062500 0.063151 0.063802 0.064453 0.065104 0.065755 0.066406 0.067057 0.067708 0.068359 0.069010 0.069661 0.070312 0.070964 0.071615 0.072266 0.072917 0.073568 0.074219 0.074870 0.075521 0.076172 0.076823 0.077474 0.078125 0.078776 0.079427 0.080078 0.080729 0.081380 0.082031 0.082682 0.083333 0.083984 0.084635 0.085286 0.085938 0.086589 0.087240 0.087891 0.088542 0.089193 0.089844 0.090495 0.091146 0.091797 0.092448 0.093099 0.093750 0.094401 0.095052 0.095703 0.096354 0.097005 0.097656 0.098307 0.098958 0.099609 0.100260 0.100911 0.101562 0.102214 0.102865 0.103516 0.104167 0.104818 0.105469 0.106120 0.106771 0.107422 0.108073 0.108724 0.109375 0.110026 0.110677 0.111328 0.111979 0.112630 0.113281 0.113932 0.114583 0.115234 0.115885 0.116536 0.117188 0.117839 0.118490 0.119141 0.119792 0.120443 0.121094 0.121745 0.122396 0.123047 0.123698 0.124349 0.125000 0.125651 0.126302 0.126953 0.127604 0.128255 0.128906 0.129557 0.130208 0.130859 0.131510 0.132161 0.132812 0.133464 0.134115 0.134766 0.135417 0.136068 0.136719 0.137370 0.138021 0.138672 0.139323 0.139974 0.140625 0.141276 0.141927 0.142578 0.143229 0.143880 0.144531 0.145182 0.145833 0.146484 0.147135 0.147786 0.148438 0.149089 0.149740 0.150391 0.151042 0.151693 0.152344 0.152995 0.153646 0.154297 0.154948 0.155599 0.156250 0.156901 0.157552 0.158203 0.158854 0.159505 0.160156 0.160807 0.161458 0.162109 0.162760 0.163411 0.164062 0.164714 0.165365 0.166016 0.166667 0.167318 0.167969 0.168620 0.169271 0.169922 0.170573 0.171224 0.171875 0.172526 0.173177 0.173828 0.174479 0.175130 0.175781 0.176432 0.177083 0.177734 0.178385 0.179036 0.179688 0.180339 0.180990 0.181641 0.182292 0.182943 0.183594 0.184245 0.184896 0.185547 0.186198 0.186849 0.187500 0.188151 0.188802 0.189453 0.190104 0.190755 0.191406 0.192057 0.192708 0.193359 0.194010 0.194661 0.195312 0.195964 0.196615 0.197266 0.197917 0.198568 0.199219 0.199870 0.200521 0.201172 0.201823 0.202474 0.203125 0.203776 0.204427 0.205078 0.205729 0.206380 0.207031 0.207682 0.208333 0.208984 0.209635 0.210286 0.210938 0.211589 0.212240 0.212891 0.213542 0.214193 0.214844 0.215495 0.216146 0.216797 0.217448 0.218099 0.218750 0.219401 0.220052 0.220703 0.221354 0.222005 0.222656 0.223307 0.223958 0.224609 0.225260 0.225911 0.226562 0.227214 0.227865 0.228516 0.229167 0.229818 0.230469 0.231120 0.231771 0.232422 0.233073 0.233724 0.234375 0.235026 0.235677
       0.32562        0.32562        0.32562        0.32562        0.32562        0.32562        0.32562        0.32562        0.32562        0.32562        0.32562        0.32562        0.32562        0.32562        0.32562        0.32562        0.32562        0.32562        0.32562        0.32562        0.32562        0.32562        0.32562        0.32562        0.32562        0.32562        0.32562        0.32562        0.32562        0.32562        0.32562        0.32562        0.32562        0.32562        0.32562        0.32562        0.32562        0.32562        0.32562        0.32562        0.32562        0.32562        0.32562        0.32562        0.32562        0.32562        0.32562        0.32562        0.32562        0.32562        0.32562        0.67759        0.99675        0.52782        0.23083        0.13471        0.10282        0.03451        0.16024        0.21643        0.14796        0.32300        0.45695        0.41100        0.21646        0.05153        0.00144        0.12327        0.11502        0.01333        0.12747        0.00426        0.04342        0.07712        0.16642        0.01439       -0.08167       -0.11917       -0.10948       -0.19217       -0.39381       -0.29342       -0.33267       -0.29888       -0.37522       -0.30045       -0.35522       -0.26117       -0.30264       -0.30213       -0.26976       -0.18071       -0.17881       -0.02531       -0.03571        0.06133        0.24248        0.32118        0.46769        0.41458        0.43007        0.55865        0.60963        0.69756        0.55112        0.63319        0.67037        0.76394        0.65875        0.69778        0.72563        0.72330        0.59439        0.55417        0.51879        0.49221        0.39706        0.30760        0.20384        0.19804        0.05198       -0.03028       -0.04732       -0.02335       -0.07133       -0.01367       -0.01045        0.05202        0.08766        0.18112        0.27371        0.40991        0.44251        0.50716        0.52032        0.55813        0.59922        0.63256        0.70083        0.63258        0.63370        0.59010        0.54922        0.49410        0.42359        0.39504        0.35581        0.31212        0.22214        0.18311        0.08511        0.06713        0.01798        0.08052        0.19704        0.22333        0.26018        0.27407        0.35445        0.40176        0.46459        0.53043        0.55730        0.53265        0.55676        0.54295        0.49784        0.47639        0.43377        0.40669        0.32353        0.30715        0.19882        0.21777        0.18743        0.14987        0.22202        0.21164        0.18845        0.26266        0.30960        0.27360        0.39007        0.38667        0.47294        0.45538        0.44239        0.46205        0.47471        0.42253        0.39898        0.30885        0.30613        0.28490        0.23520        0.25700        0.22714        0.25604        0.29359        0.25607        0.30393        0.35197        0.36148        0.36161        0.45366        0.39859        0.39130        0.37596        0.36492        0.41047        0.35604        0.33593        0.28667        0.25542        0.26216        0.26080        0.25095        0.29230        0.27801        0.33227        0.33096        0.35746        0.38533        0.38498        0.39905        0.37457        0.34718        0.31533        0.29080        0.30489        0.29491        0.29290        0.26550        0.24662        0.28805        0.29648        0.29615        0.34814        0.36669        0.33261        0.39714        0.36152        0.33671        0.31006        0.29466        0.28296        0.30676        0.27956        0.28187        0.26575        0.25074        0.30239        0.27984        0.30481        0.30723        0.31889        0.29456        0.33420        0.33509        0.30062        0.32395        0.31935        0.25146        0.25940        0.26908        0.26497        0.27678        0.27744        0.28929        0.31583        0.32213        0.33856        0.28500        0.32406        0.33220        0.27249        0.30389        0.25743        0.30362        0.28580        0.30370        0.34936        0.33348        0.33962        0.32123        0.31311        0.33501        0.31697        0.29530        0.32257        0.28805        0.28684        0.24496        0.32403        0.31006        0.33196        0.28140        0.28668        0.31855        0.30002        0.29179        0.32487        0.29463        0.31738        0.25414        0.25271        0.33063        0.29715        0.26902        0.35115        0.30610        0.29797        0.26627        0.32828        0.32235        0.26529        0.27329        0.24042        0.28622        0.30168        0.32276        0.28785        0.23371        0.22563        0.22499        0.29450        0.27385        0.26867        0.28350        0.29163        0.28021        0.22820        0.20385        0.27013        0.32643        0.26081        0.27079        0.25720        0.29871        0.23334        0.25120        0.24131        0.25219        0.23641        0.18613        0.20985        0.20617        0.16789        0.18310        0.21612        0.17900        0.16527        0.18237        0.19097        0.30580        0.14888        0.11756        0.31637        0.08192        0.07653       -0.05105       -0.28811       -0.63107
1.476185 1.465988 1.455826 1.445700 1.435610 1.425556 1.415538 1.405556 1.395610 1.385699 1.375825 1.365987 1.356185 1.346418 1.336688 1.326993 1.317334 1.307712 1.298125 1.288574 1.279059 1.269580 1.260138 1.250731 1.241359 1.232024 1.222725 1.213462 1.204235 1.195043 1.185888 1.176768 1.167685 1.158637 1.149626 1.140650 1.131710 1.122806 1.113938 1.105107 1.096311 1.087551 1.078826 1.070138 1.061486 1.052870 1.044289 1.035745 1.027237 1.018764 1.010328 1.347915 1.893217 1.223246 0.859627 0.794190 0.621178 0.684294 0.683221 0.846224 0.684523 1.022399 1.023591 1.066090 0.809512 0.538371 0.440015 0.661483 0.746002 0.408353 0.555217 0.500752 0.529504 0.501663 0.582549 0.476071 0.360142 0.290407 0.236672 0.190145 -0.061150 0.041157 -0.071885 0.021447 -0.080036 -0.009615 -0.105963 0.000685 -0.000134 0.028395 -0.092561 0.039168 0.120844 0.224570 0.186043 0.349541 0.472512 0.650284 0.803289 0.720421 0.761040 0.882943 0.896546 1.080841 0.925238 0.949709 0.906887 1.131979 1.000313 1.073012 0.994576 1.077343 0.876140 0.889325 0.788740 0.765141 0.609948 0.565081 0.368836 0.392144 0.233211 0.097275 0.063710 0.101140 0.018870 -0.004215 0.081143 0.105672 0.179071 0.253527 0.306092 0.562685 0.525181 0.639468 0.644410 0.675225 0.774123 0.716916 0.864815 0.733811 0.811428 0.690737 0.699721 0.646094 0.448846 0.479842 0.476559 0.294340 0.360691 0.151104 0.123079 0.061554 -0.048410 -0.029461 0.164437 0.172556 0.216379 0.269774 0.263947 0.456350 0.319588 0.596655 0.532572 0.568183 0.527495 0.528357 0.456184 0.450200 0.403290 0.341163 0.250408 0.263868 0.130299 0.080284 0.104037 0.016834 0.053021 0.079158 0.063299 0.065380 0.184881 0.122510 0.227742 0.244686 0.368234 0.333527 0.330247 0.307703 0.371938 0.319372 0.272402 0.207777 0.103783 0.161269 0.068410 0.031020 0.092915 0.006806 0.102299 0.079205 0.070792 0.175560 0.138875 0.192396 0.195952 0.298564 0.198646 0.166216 0.135030 0.203935 0.183723 0.117993 0.094016 0.044461 -0.019281 0.030021 -0.008663 0.004218 0.073048 0.049561 0.110381 0.069484 0.165239 0.114205 0.161873 0.207196 0.109760 0.123309 0.061361 0.065716 0.058291 0.074206 0.028161 -0.026705 0.047625 0.045329 0.057858 0.070298 0.127345 0.090110 0.101038 0.179627 0.122815 0.046751 0.086169 0.023910 0.013904 0.061162 0.000872 0.026188 -0.021973 0.036618 0.015270 0.011834 0.053391 0.057073 0.036748 0.026232 0.105085 0.042397 0.012365 0.071646 0.017639 -0.039961 -0.013283 -0.017480 -0.020818 0.009388 -0.013694 0.027465 0.042852 0.054983 0.048061 -0.032326 0.071675 0.044448 -0.027059 0.002704 0.000447 -0.003278 -0.003409 0.045448 0.070324 0.094228 0.060205 0.015989 0.079803 0.078862 0.072794 0.021152 0.085689 0.015174 0.036403 -0.026260 0.105305 0.054150 0.092897 -0.012256 0.073891 0.036256 0.054696 0.037826 0.090040 0.076659 0.063651 -0.025316 0.021627 0.107691 0.042394 0.024719 0.145415 0.056173 0.065174 -0.013986 0.150115 0.075197 0.002939 0.056419 -0.041670 0.071923 0.072357 0.077901 0.101639 -0.015528 -0.068262 0.008170 0.051967 0.040427 0.023549 0.064498 0.034068 0.055571 -0.019602 -0.037194 0.050186 0.117304 0.026994 0.014750 0.067324 0.041152 0.057486 0.027428 0.057061 0.016465 0.015795 -0.028578 -0.012128 0.309970 0.193893 0.237285 0.244887 0.211662 0.202799 0.199990 0.228512 0.478712 0.182567 0.038709 0.516339 0.118629 0.167831 -0.060948 -0.754438
0.072396 0.072799 0.074006 0.076017 0.078833 0.082452 0.086875 0.092098 0.098123 0.104946 0.112567 0.120981 0.130188 0.140181 0.150959 0.162515 0.174843 0.187936 0.201786 0.216384 0.231719 0.247778 0.264548 0.282013 0.300154 0.318952 0.338385 0.358428 0.379054 0.400233 0.421932 0.444115 0.466743 0.489774 0.513160 0.536852 0.560796 0.584935 0.609206 0.633544 0.657879 0.682136 0.706236 0.730095 0.753627 0.776738 0.799334 0.821312 0.842570 0.862997 0.882483 0.900911 0.918164 0.934120 0.948655 0.961644 0.972960 0.982476 0.990063 0.995596 0.998948 0.999996 0.998618 0.994700 0.988128 0.978797 0.966609 0.951474 0.933310 0.912047 0.887627 0.860005 0.829149 0.795045 0.757695 0.717117 0.673353 0.626461 0.576524 0.523646 0.467954 0.409601 0.348765 0.285647 0.220477 0.153509 0.085023 0.015326 0.055251 0.126353 0.197602 0.268599 0.338923 0.408137 0.475788 0.541411 0.604530 0.664664 0.721329 0.774042 0.822328 0.865719 0.903766 0.936038 0.962131 0.981671 0.994321 0.999786 0.997819 0.988226 0.970869 0.945676 0.912639 0.871825 0.823373 0.767503 0.704513 0.634785 0.558782 0.477051 0.390218 0.298990 0.204148 0.106542 0.007089 0.093237 0.193415 0.292383 0.389051 0.482311 0.571052 0.654175 0.730601 0.799294 0.859271 0.909623 0.949523 0.978252 0.995203 0.999905 0.992030 0.971406 0.938031 0.892075 0.833893 0.764021 0.683186 0.592293 0.492431 0.384856 0.270985 0.152378 0.030721 0.092200 0.214514 0.334301 0.449620 0.558539 0.659171 0.749703 0.828440 0.893836 0.944526 0.979360 0.997438 0.998131 0.981107 0.946351 0.894178 0.825238 0.740525 0.641360 0.529391 0.406562 0.275093 0.137442 0.003738 0.145640 0.285367 0.419982 0.546574 0.662325 0.764571 0.850870 0.919068 0.967358 0.994332 0.999034 0.980996 0.940271 0.877447 0.793656 0.690565 0.570353 0.435683 0.289639 0.135676 0.022464 0.180833 0.335379 0.482047 0.616883 0.736155 0.836451 0.914789 0.968715 0.996392 0.996668 0.969136 0.914172 0.832945 0.727417 0.600308 0.455037 0.295651 0.126709 0.046824 0.219733 0.386697 0.542458 0.681989 0.800666 0.894423 0.959910 0.994621 0.997007 0.966557 0.903848 0.810557 0.689444 0.544282 0.379760 0.201347 0.015123 0.172427 0.354629 0.524858 0.676784 0.804617 0.903334 0.968899 0.998433 0.990371 0.944555 0.862278 0.746280 0.600684 0.430863 0.243271 0.045200 0.155480 0.350633 0.532193 0.692492 0.824599 0.922634 0.982047 0.999852 0.974797 0.907468 0.800316 0.657593 0.485213 0.290539 0.082072 0.130889 0.338672 0.531653 0.700718 0.837702 0.935802 0.989936 0.997030 0.956227 0.868976 0.739030 0.572312 0.376679 0.161574 0.062402 0.284015 0.491943 0.675374 0.824561 0.931382 0.989788 0.996188 0.949698 0.852255 0.708580 0.525991 0.314060 0.084149 0.151196 0.378902 0.586107 0.760898 0.892992 0.974394 0.999901 0.967473 0.878428 0.737443 0.552351 0.333750 0.094429 0.151359 0.388742 0.603112 0.781042 0.911154 0.984871 0.997023 0.946253 0.835188 0.670363 0.461879 0.222836 0.031471 0.284499 0.519526 0.720771 0.874469 0.969840 0.999890 0.961971 0.858058 0.694708 0.482711 0.236416 0.027206 0.289686 0.532366 0.737726 0.890664 0.979652 0.997645 0.942695 0.818205 0.632780 0.399697 0.136006 0.138689 0.403655 0.638605 0.825266 0.948815 0.999129 0.971652 0.867875 0.695337 0.467149 0.201050 0.081922 0.359061 0.607821 0.807662 0.941767 0.998517 0.972559 0.865376 0.685290 0.446903
1.000000 1.000000 1.000000 1.000000 1.000000 1.000000 1.000000 1.000000 1.000000 1.000000 1.000000 1.000000 1.000000 1.000000 1.000000 1.000000 1.000000 1.000000 1.000000 1.000000 1.000000 1.000000 1.000000 1.000000 1.000000 1.000000 1.000000 1.000000 1.000000 1.000000 1.000000 1.000000 1.000000 1.000000 1.000000 1.000000 1.000000 1.000000 1.000000 1.000000 1.000000 1.000000 1.000000 1.000000 1.000000 1.000000 1.000000 1.000000 1.000000 1.000000 1.000000 1.000000 0.802871 0.802871 0.802871 0.802871 0.802871 0.802871 0.802871 0.802871 0.802871 0.780614 0.780614 0.780614 0.780614 0.780614 0.780614 0.780614 0.780614 0.780614 0.780614 0.780614 0.780614 0.780614 0.780614 0.780614 0.780614 0.780614 0.780614 0.780614 0.780614 0.780614 0.780614 0.780614 0.780614 0.780614 0.780614 0.780614 0.780614 0.780614 0.780614 0.780614 0.780614 0.780614 0.780614 0.780614 0.780614 0.780614 0.780614 0.780614 0.780614 0.780614 0.780614 0.780614 0.780614 0.780614 0.780614 0.780614 0.942866 0.943089 0.944096 0.952471 0.953225 0.954070 0.953869 0.953535 0.953728 0.953841 0.953360 0.953937 0.954504 0.955389 0.965532 0.966277 0.969836 0.969874 0.969754 0.969374 0.968717 0.975279 0.974593 0.974539 0.973359 0.972547 0.972473 0.973357 0.967652 0.967393 0.967078 0.974496 0.968404 0.967844 0.966904 0.964573 0.963730 0.962994 0.962894 0.962483 0.962440 0.962517 0.962458 0.962828 0.963144 0.963304 0.963362 0.958415 0.958668 0.957643 0.957013 0.946539 0.948424 0.943004 0.940622 0.932251 0.929044 0.935237 0.930440 0.928799 0.928022 0.927946 0.927991 0.928159 0.927159 0.923820 0.916367 0.915315 0.914467 0.912464 0.911384 0.913350 0.910637 0.912376 0.917325 0.919148 0.918287 0.915419 0.912778 0.904447 0.895030 0.895260 0.891400 0.894774 0.896790 0.888114 0.883903 0.871638 0.865410 0.862471 0.859762 0.859753 0.864729 0.861707 0.861094 0.859646 0.857562 0.859043 0.853097 0.852686 0.840770 0.838902 0.845096 0.816698 0.809762 0.799443 0.792468 0.793992 0.799837 0.798894 0.803298 0.800449 0.792701 0.776089 0.765687 0.753448 0.741810 0.732469 0.741840 0.739126 0.727270 0.741905 0.727904 0.749885 0.753159 0.758403 0.769619 0.769941 0.760823 0.756750 0.753124 0.749114 0.746351 0.694982 0.747751 0.697892 0.697891 0.690697 0.682098 0.671623 0.664204 0.672506 0.676770 0.669860 0.661238 0.653166 0.652709 0.641341 0.641944 0.659220 0.626627 0.625988 0.602100 0.621537 0.576527 0.574066 0.575564 0.541992 0.523304 0.512720 0.507893 0.502032 0.502182 0.495025 0.491144 0.465943 0.481142 0.497593 0.474681 0.484016 0.479751 0.491351 0.476963 0.470650 0.422262 0.421559 0.417902 0.428798 0.438571 0.438075 0.476195 0.450024 0.447061 0.454777 0.461782 0.443537 0.379233 0.364535 0.352618 0.335837 0.325139 0.216385 0.217093 0.212354 0.224218 0.243935 0.233074 0.217418 0.257757 0.248332 0.244236 0.253330 0.240198 0.229697 0.185563 0.185902 0.161012 0.119702 0.115874 0.105896 0.083504 0.065948 0.058890 0.070342 0.089483 0.083490 0.073931 0.043829 -0.004144 -0.002256 -0.013693 -0.023595 0.030927 0.016958 0.016958 0.016958 0.016958 0.016958 0.022265 0.022265 0.022265 0.022265 0.022265 0.022265 0.022265 0.022265 0.022265 0.022265 0.022265 0.022265 0.016958 0.016958 0.016958 0.016958 0.016958 0.016958 0.016958 0.016958 0.016958 0.016958 0.016958 0.016958 0.016958 0.016958 0.016958
0.000000 0.000000 0.000000 0.000000 0.000000 0.000000 0.000000 0.000000 0.000000 0.000000 0.000000 0.000000 0.000000 0.000000 0.000000 0.000000 0.000000 0.000000 0.000000 0.000000 0.000000 0.000000 0.000000 0.000000 0.000000 0.000000 0.000000 0.000000 0.000000 0.000000 0.000000 0.000000 0.000000 0.000000 0.000000 0.000000 0.000000 0.000000 0.000000 0.000000 0.000000 0.000000 0.000000 0.000000 0.000000 0.000000 0.000000 0.000000 0.000000 0.000000 0.000000 0.000000 0.170872 0.170872 0.170872 0.170872 0.170872 0.170872 0.170872 0.170872 0.170872 0.186501 0.186501 0.186501 0.186501 0.186501 0.186501 0.186501 0.186501 0.186501 0.186501 0.186501 0.186501 0.186501 0.186501 0.186501 0.186501 0.186501 0.186501 0.186501 0.186501 0.186501 0.186501 0.186501 0.186501 0.186501 0.186501 0.186501 0.186501 0.186501 0.186501 0.186501 0.186501 0.186501 0.186501 0.186501 0.186501 0.186501 0.186501 0.186501 0.186501 0.186501 0.186501 0.186501 0.186501 0.186501 0.186501 0.186501 0.219529 0.219529 0.219529 0.219529 0.219529 0.219529 0.219529 0.219529 0.219529 0.219529 0.219529 0.219529 0.219529 0.219529 0.219529 0.219529 0.219529 0.219529 0.219529 0.219529 0.219529 0.219529 0.219529 0.219529 0.219529 0.219529 0.219529 0.219529 0.219529 0.219529 0.219529 0.230940 0.230940 0.230940 0.230940 0.230940 0.230940 0.230940 0.230940 0.230940 0.230940 0.230940 0.230940 0.230940 0.230940 0.230940 0.230940 0.230940 0.230940 0.230940 0.230940 0.230940 0.230940 0.230940 0.230940 0.230940 0.230940 0.240772 0.240772 0.240772 0.240772 0.240772 0.240772 0.240772 0.240772 0.240772 0.240772 0.240772 0.240772 0.240772 0.240772 0.240772 0.240772 0.240772 0.240772 0.240772 0.240772 0.240772 0.240772 0.244339 0.244339 0.244339 0.244339 0.244339 0.244339 0.244339 0.244339 0.244339 0.244339 0.244339 0.244339 0.244339 0.244339 0.244339 0.244339 0.244339 0.244339 0.244339 0.244339 0.248069 0.248069 0.248069 0.248069 0.248069 0.248069 0.248069 0.248069 0.248069 0.248069 0.248069 0.248069 0.248069 0.248069 0.248069 0.248069 0.248069 0.248069 0.248069 0.248069 0.248069 0.248069 0.248069 0.248069 0.248069 0.248069 0.248069 0.248069 0.248069 0.248069 0.248069 0.248069 0.248069 0.248069 0.248069 0.256074 0.256074 0.256074 0.256074 0.256074 0.256074 0.256074 0.256074 0.256074 0.256074 0.256074 0.256074 0.256074 0.256074 0.256074 0.248069 0.248069 0.248069 0.248069 0.248069 0.248069 0.248069 0.248069 0.248069 0.248069 0.248069 0.248069 0.248069 0.248069 0.248069 0.251976 0.251976 0.251976 0.251976 0.251976 0.251976 0.251976 0.251976 0.251976 0.251976 0.251976 0.251976 0.251976 0.251976 0.256074 0.256074 0.256074 0.256074 0.256074 0.256074 0.256074 0.256074 0.256074 0.256074 0.256074 0.256074 0.256074 0.248069 0.248069 0.248069 0.248069 0.248069 0.248069 0.248069 0.248069 0.248069 0.248069 0.248069 0.248069 0.248069 0.251976 0.251976 0.251976 0.251976 0.251976 0.251976 0.251976 0.251976 0.251976 0.251976 0.251976 0.251976 0.248069 0.248069 0.248069 0.248069 0.248069 0.248069 0.248069 0.248069 0.248069 0.248069 0.248069 0.248069 0.244339 0.244339 0.244339 0.244339 0.244339 0.244339 0.244339 0.244339 0.244339 0.244339 0.244339 0.244339 0.248069 0.248069 0.248069 0.248069 0.248069 0.248069 0.248069 0.248069 0.248069 0.248069 0.248069 0.248069 0.248069 0.248069 0.248069
