# Output from CTFFind version 4.1.9, run on 2019-11-03 18:51:09
# Input file: stack18_ub_averaged_50.mrc ; Number of micrographs: 1
# Pixel size: 3.000 Angstroms ; acceleration voltage: 300.0 keV ; spherical aberration: 0.00 mm ; amplitude contrast: 0.07
# Box size: 512 pixels ; min. res.: 30.0 Angstroms ; max. res.: 5.0 Angstroms ; min. def.: 5000.0 um; max. def. 50000.0 um; num. frames averaged: 1
# 6 lines per micrograph: #1 - spatial frequency (1/Angstroms); #2 - 1D rotational average of spectrum (assuming no astigmatism); #3 - 1D rotational average of spectrum; #4 - CTF fit; #5 - cross-correlation between spectrum and CTF fit; #6 - 2sigma of expected cross correlation of noise
0.000000 0.000651 0.001302 0.001953 0.002604 0.003255 0.003906 0.004557 0.005208 0.005859 0.006510 0.007161 0.007812 0.008464 0.009115 0.009766 0.010417 0.011068 0.011719 0.012370 0.013021 0.013672 0.014323 0.014974 0.015625 0.016276 0.016927 0.017578 0.018229 0.018880 0.019531 0.020182 0.020833 0.021484 0.022135 0.022786 0.023438 0.024089 0.024740 0.025391 0.026042 0.026693 0.027344 0.027995 0.028646 0.029297 0.029948 0.030599 0.031250 0.031901 0.032552 0.033203 0.033854 0.034505 0.035156 0.035807 0.036458 0.037109 0.037760 0.038411 0.039062 0.039714 0.040365 0.041016 0.041667 0.042318 0.042969 0.043620 0.044271 0.044922 0.045573 0.046224 0.046875 0.047526 0.048177 0.048828 0.049479 0.050130 0.050781 0.051432 0.052083 0.052734 0.053385 0.054036 0.054688 0.055339 0.055990 0.056641 0.057292 0.057943 0.058594 0.059245 0.059896 0.060547 0.061198 0.061849 0.062500 0.063151 0.063802 0.064453 0.065104 0.065755 0.066406 0.067057 0.067708 0.068359 0.069010 0.069661 0.070312 0.070964 0.071615 0.072266 0.072917 0.073568 0.074219 0.074870 0.075521 0.076172 0.076823 0.077474 0.078125 0.078776 0.079427 0.080078 0.080729 0.081380 0.082031 0.082682 0.083333 0.083984 0.084635 0.085286 0.085938 0.086589 0.087240 0.087891 0.088542 0.089193 0.089844 0.090495 0.091146 0.091797 0.092448 0.093099 0.093750 0.094401 0.095052 0.095703 0.096354 0.097005 0.097656 0.098307 0.098958 0.099609 0.100260 0.100911 0.101562 0.102214 0.102865 0.103516 0.104167 0.104818 0.105469 0.106120 0.106771 0.107422 0.108073 0.108724 0.109375 0.110026 0.110677 0.111328 0.111979 0.112630 0.113281 0.113932 0.114583 0.115234 0.115885 0.116536 0.117188 0.117839 0.118490 0.119141 0.119792 0.120443 0.121094 0.121745 0.122396 0.123047 0.123698 0.124349 0.125000 0.125651 0.126302 0.126953 0.127604 0.128255 0.128906 0.129557 0.130208 0.130859 0.131510 0.132161 0.132812 0.133464 0.134115 0.134766 0.135417 0.136068 0.136719 0.137370 0.138021 0.138672 0.139323 0.139974 0.140625 0.141276 0.141927 0.142578 0.143229 0.143880 0.144531 0.145182 0.145833 0.146484 0.147135 0.147786 0.148438 0.149089 0.149740 0.150391 0.151042 0.151693 0.152344 0.152995 0.153646 0.154297 0.154948 0.155599 0.156250 0.156901 0.157552 0.158203 0.158854 0.159505 0.160156 0.160807 0.161458 0.162109 0.162760 0.163411 0.164062 0.164714 0.165365 0.166016 0.166667 0.167318 0.167969 0.168620 0.169271 0.169922 0.170573 0.171224 0.171875 0.172526 0.173177 0.173828 0.174479 0.175130 0.175781 0.176432 0.177083 0.177734 0.178385 0.179036 0.179688 0.180339 0.180990 0.181641 0.182292 0.182943 0.183594 0.184245 0.184896 0.185547 0.186198 0.186849 0.187500 0.188151 0.188802 0.189453 0.190104 0.190755 0.191406 0.192057 0.192708 0.193359 0.194010 0.194661 0.195312 0.195964 0.196615 0.197266 0.197917 0.198568 0.199219 0.199870 0.200521 0.201172 0.201823 0.202474 0.203125 0.203776 0.204427 0.205078 0.205729 0.206380 0.207031 0.207682 0.208333 0.208984 0.209635 0.210286 0.210938 0.211589 0.212240 0.212891 0.213542 0.214193 0.214844 0.215495 0.216146 0.216797 0.217448 0.218099 0.218750 0.219401 0.220052 0.220703 0.221354 0.222005 0.222656 0.223307 0.223958 0.224609 0.225260 0.225911 0.226562 0.227214 0.227865 0.228516 0.229167 0.229818 0.230469 0.231120 0.231771 0.232422 0.233073 0.233724 0.234375 0.235026 0.235677
       0.33194        0.33194        0.33194        0.33194        0.33194        0.33194        0.33194        0.33194        0.33194        0.33194        0.33194        0.33194        0.33194        0.33194        0.33194        0.33194        0.33194        0.33194        0.33194        0.33194        0.33194        0.33194        0.33194        0.33194        0.33194        0.33194        0.33194        0.33194        0.33194        0.33194        0.33194        0.33194        0.33194        0.33194        0.33194        0.33194        0.33194        0.33194        0.33194        0.33194        0.33194        0.33194        0.33194        0.33194        0.33194        0.33194        0.33194        0.33194        0.33194        0.33194        0.33194        0.68517        1.09477        0.56371        0.11718       -0.00614       -0.20095       -0.13494       -0.16989       -0.21604       -0.13502       -0.04807        0.00133        0.10932        0.00789       -0.08425       -0.10520       -0.28710       -0.26604       -0.37061       -0.18498       -0.34456       -0.43950       -0.36191       -0.33622       -0.44263       -0.46539       -0.46472       -0.46042       -0.56201       -0.53509       -0.41609       -0.30864       -0.31964       -0.32278       -0.22926       -0.13304        0.07547        0.13408        0.22258        0.25821        0.33761        0.36330        0.40379        0.52440        0.59045        0.67876        0.76514        0.66015        0.72312        0.72590        0.65260        0.70632        0.61605        0.56718        0.49217        0.41247        0.33381        0.30495        0.22851        0.10218        0.03120       -0.00242       -0.04234       -0.06650       -0.06288       -0.07883       -0.01931        0.08479        0.14528        0.30239        0.40957        0.42679        0.44286        0.51153        0.68813        0.63846        0.67420        0.77296        0.74944        0.75273        0.55296        0.50693        0.43565        0.43003        0.35994        0.24087        0.18591        0.06889        0.00288        0.07196        0.02314        0.09390        0.14800        0.20660        0.30666        0.38996        0.46020        0.54441        0.56780        0.57314        0.56497        0.60690        0.56322        0.40936        0.39493        0.39195        0.37480        0.25431        0.22809        0.18624        0.12710        0.10124        0.10721        0.18153        0.25743        0.30301        0.36468        0.40545        0.51350        0.45100        0.53070        0.56255        0.53276        0.50082        0.43533        0.36402        0.31572        0.34704        0.27894        0.28607        0.17529        0.20460        0.21608        0.22798        0.30888        0.39895        0.40655        0.45337        0.47366        0.43334        0.45169        0.44801        0.41364        0.36428        0.31383        0.25139        0.25478        0.29627        0.22736        0.28273        0.28557        0.28745        0.33694        0.37249        0.44030        0.42801        0.37573        0.40423        0.37176        0.35704        0.31780        0.29295        0.24905        0.26736        0.26178        0.28184        0.28812        0.31497        0.36465        0.39497        0.43354        0.40583        0.37288        0.35154        0.30137        0.31941        0.28793        0.25378        0.21915        0.29310        0.29467        0.34690        0.34739        0.35353        0.37070        0.34022        0.40439        0.34260        0.34225        0.35158        0.26392        0.27114        0.28302        0.29725        0.29798        0.32919        0.31312        0.37048        0.36353        0.34625        0.33514        0.34035        0.31861        0.30761        0.24205        0.21696        0.22800        0.26440        0.29474        0.32123        0.31525        0.35823        0.35112        0.30507        0.30851        0.29707        0.28194        0.27137        0.24388        0.26749        0.25941        0.28632        0.32840        0.36108        0.37152        0.31315        0.29543        0.32016        0.30588        0.26164        0.32486        0.30331        0.29810        0.32287        0.32874        0.33270        0.35997        0.35436        0.35340        0.30848        0.29616        0.28895        0.28944        0.33304        0.30038        0.30489        0.35809        0.35099        0.31504        0.33686        0.32595        0.32341        0.26041        0.25180        0.31988        0.30138        0.32791        0.32586        0.27764        0.27823        0.28229        0.26073        0.28768        0.28287        0.28855        0.26968        0.24764        0.30647        0.33382        0.28216        0.29066        0.27504        0.23474        0.27655        0.25471        0.26622        0.30282        0.24913        0.25539        0.22659        0.25416        0.28075        0.26622        0.27143        0.26924        0.22271        0.23824        0.28971        0.25570        0.31969        0.26664        0.22967        0.22553        0.26763        0.19490        0.21799        0.29720        0.21016        0.20135        0.19731        0.28056        0.30346        0.37262        0.26564        0.19053        0.35410        0.33152        0.15560        0.08430       -0.11592       -0.40847       -0.51085
2.709265 2.682041 2.654959 2.628020 2.601224 2.574570 2.548059 2.521691 2.495466 2.469384 2.443445 2.417648 2.391994 2.366483 2.341115 2.315889 2.290806 2.265867 2.241070 2.216415 2.191904 2.167535 2.143309 2.119226 2.095286 2.071488 2.047833 2.024321 2.000952 1.977726 1.954642 1.931702 1.908904 1.886248 1.863736 1.841367 1.819140 1.797056 1.775115 1.753316 1.731661 1.710148 1.688778 1.667551 1.646466 1.625525 1.604726 1.584070 1.563557 1.543186 1.522959 1.679121 2.388653 1.930790 1.127799 1.169369 0.876649 0.830346 0.777866 0.751129 0.794578 0.856939 0.962070 0.988226 0.889804 0.806772 0.804504 0.493675 0.537421 0.360056 0.571692 0.425796 0.254541 0.340483 0.322186 0.247508 0.144793 0.123298 0.179991 0.027874 -0.051729 0.127223 0.264508 0.202568 0.175473 0.241289 0.363888 0.560951 0.600230 0.686098 0.793031 0.759829 0.883461 0.781299 0.965776 1.032477 1.091219 1.259754 1.081730 1.153924 1.108191 1.137726 1.044246 0.974967 0.907103 0.858210 0.727617 0.628403 0.584283 0.461803 0.378234 0.243601 0.158402 0.141949 0.103636 0.079464 0.050915 0.072259 0.186900 0.158570 0.413154 0.533609 0.525592 0.514390 0.623345 0.764505 0.782691 0.676124 0.832317 0.812159 0.996468 0.572635 0.583699 0.464360 0.480509 0.359474 0.282235 0.158648 0.080950 -0.090431 0.006649 -0.078760 -0.019297 0.029025 0.083589 0.192584 0.249049 0.395999 0.401008 0.486243 0.501245 0.492793 0.549014 0.565917 0.306059 0.324555 0.227411 0.300955 0.207344 0.049332 0.055945 0.039090 -0.073477 -0.091069 -0.031939 0.082236 0.090575 0.193965 0.204548 0.302444 0.340463 0.318415 0.418251 0.488282 0.329502 0.330728 0.284802 0.196958 0.177299 0.159216 0.101219 0.095098 -0.021081 0.049325 0.036513 0.067930 0.201070 0.208726 0.293277 0.292799 0.329640 0.243315 0.267734 0.266835 0.194288 0.168568 0.089396 0.003476 0.125222 0.015406 0.067922 0.084713 0.054193 0.067836 0.172306 0.176957 0.232416 0.243434 0.137123 0.169318 0.116624 0.093621 0.046987 0.034548 -0.032627 0.028448 0.010320 0.034848 0.020082 0.094038 0.100860 0.181864 0.181072 0.149861 0.078068 0.063134 0.059905 0.032815 0.046810 -0.065619 -0.029928 0.050591 0.006800 0.123650 0.056679 0.110372 0.079054 0.195969 0.147715 0.094068 0.099459 0.124371 -0.024407 0.040594 0.035389 0.062750 0.058809 0.076695 0.068293 0.140086 0.104733 0.111106 0.080744 0.126410 0.068939 0.029780 -0.025018 -0.034248 -0.011294 0.011206 0.042480 0.095237 0.057999 0.112143 0.079363 0.009974 0.036080 0.027156 -0.009406 -0.024499 -0.036551 0.005085 -0.027469 0.013262 0.050061 0.105293 0.035690 0.044544 -0.013234 0.039898 0.004940 -0.042378 0.063960 -0.009707 -0.007666 0.056525 -0.002366 0.071174 0.039546 0.072020 0.047375 -0.017112 -0.027891 0.002495 -0.046399 0.036195 -0.014657 -0.002737 0.062359 -0.014924 0.053411 0.019608 0.033043 -0.005361 -0.029420 -0.075172 0.062216 -0.006278 0.042535 0.012315 -0.023831 0.035129 0.015452 0.007980 0.023810 0.006064 0.024304 0.018733 -0.032006 0.054979 0.115136 0.016127 0.032720 0.002081 -0.024926 0.009451 -0.015979 0.017856 0.084496 -0.049278 -0.002139 -0.044509 0.028182 0.003458 0.009382 -0.012616 0.009270 -0.026920 -0.062828 0.097116 -0.029404 0.045486 -0.015750 -0.041691 -0.059418 0.006111 -0.096818 -0.050338 0.012240 -0.087603 0.251692 0.240137 0.295447 0.307184 0.413315 0.329642 0.223857 0.378490 0.472198 0.151373 0.149692 -0.124577 -0.566730
0.072396 0.072869 0.074288 0.076653 0.079963 0.084217 0.089414 0.095553 0.102633 0.110649 0.119601 0.129483 0.140292 0.152021 0.164665 0.178216 0.192663 0.207997 0.224205 0.241271 0.259179 0.277910 0.297442 0.317749 0.338805 0.360576 0.383030 0.406126 0.429823 0.454072 0.478823 0.504018 0.529596 0.555490 0.581629 0.607933 0.634320 0.660701 0.686978 0.713053 0.738815 0.764153 0.788947 0.813070 0.836393 0.858778 0.880085 0.900165 0.918869 0.936043 0.951527 0.965163 0.976789 0.986241 0.993357 0.997976 0.999940 0.999093 0.995285 0.988373 0.978223 0.964707 0.947714 0.927140 0.902902 0.874930 0.843175 0.807606 0.768218 0.725029 0.678083 0.627453 0.573241 0.515580 0.454637 0.390613 0.323741 0.254292 0.182572 0.108923 0.033722 0.042618 0.119652 0.196901 0.273857 0.349984 0.424723 0.497494 0.567698 0.634727 0.697964 0.756795 0.810608 0.858805 0.900806 0.936061 0.964051 0.984304 0.996396 0.999964 0.994711 0.980418 0.956947 0.924251 0.882378 0.831480 0.771817 0.703757 0.627782 0.544491 0.454592 0.358908 0.258368 0.154004 0.046940 0.061614 0.170378 0.278009 0.383125 0.484316 0.580168 0.669278 0.750281 0.821870 0.882821 0.932014 0.968460 0.991323 0.999941 0.993845 0.972783 0.936729 0.885899 0.820763 0.742042 0.650718 0.548023 0.435433 0.314654 0.187598 0.056362 0.076806 0.209539 0.339395 0.463901 0.580596 0.687090 0.781109 0.860553 0.923542 0.968473 0.994064 0.999398 0.983959 0.947665 0.890884 0.814452 0.719675 0.608315 0.482571 0.345051 0.198716 0.046837 0.107081 0.259377 0.406314 0.544173 0.669355 0.778469 0.868445 0.936614 0.980809 0.999437 0.991552 0.956903 0.895973 0.809996 0.700946 0.571517 0.425066 0.265544 0.097397 0.074543 0.245199 0.409392 0.561996 0.698111 0.813220 0.903351 0.965230 0.996413 0.995397 0.961707 0.895951 0.799834 0.676149 0.528709 0.362256 0.182320 0.004944 0.192965 0.374976 0.544260 0.694403 0.819549 0.914635 0.975621 0.999678 0.985340 0.932609 0.843010 0.719569 0.566752 0.390330 0.197171 0.004997 0.207884 0.402984 0.581920 0.736816 0.860657 0.947626 0.993398 0.995388 0.952915 0.867302 0.741870 0.581853 0.394210 0.187347 0.029230 0.245349 0.450632 0.635004 0.789198 0.905239 0.976876 0.999961 0.972712 0.895882 0.772794 0.609240 0.413253 0.194745 0.034970 0.263744 0.479228 0.669544 0.823960 0.933511 0.991556 0.994220 0.940692 0.833356 0.677744 0.482302 0.257971 0.017616 0.224703 0.454529 0.657877 0.822104 0.936721 0.994103 0.990035 0.924075 0.799680 0.624093 0.407972 0.164785 0.089976 0.339779 0.568120 0.759604 0.901028 0.982327 0.997333 0.944303 0.826152 0.650368 0.428601 0.175951 0.090027 0.350511 0.586748 0.781396 0.919858 0.991390 0.990020 0.915093 0.771458 0.569231 0.323159 0.051589 0.224854 0.484807 0.707848 0.876091 0.975700 0.998064 0.940622 0.807214 0.607909 0.358334 0.078514 0.208700 0.479451 0.710893 0.883110 0.980908 0.995215 0.923996 0.772598 0.553448 0.285112 0.009201 0.303603 0.571795 0.789419 0.936313 0.998446 0.969340 0.850833 0.653090 0.393834 0.096835 0.210191 0.498159 0.739368 0.910185 0.993451 0.980267 0.871061 0.675734 0.412881 0.108108 0.208383 0.504771 0.750790 0.920885 0.996927 0.970241 0.842705 0.626774 0.344376 0.024793 0.298321 0.590446 0.819902 0.961336 0.998620 0.926794 0.752840 0.495140 0.181666 0.152982 0.471332 0.737233 0.919999 0.998037 0.961510 0.813700 0.570885
1.000000 1.000000 1.000000 1.000000 1.000000 1.000000 1.000000 1.000000 1.000000 1.000000 1.000000 1.000000 1.000000 1.000000 1.000000 1.000000 1.000000 1.000000 1.000000 1.000000 1.000000 1.000000 1.000000 1.000000 1.000000 1.000000 1.000000 1.000000 1.000000 1.000000 1.000000 1.000000 1.000000 1.000000 1.000000 1.000000 1.000000 1.000000 1.000000 1.000000 1.000000 1.000000 1.000000 1.000000 1.000000 1.000000 1.000000 1.000000 1.000000 1.000000 1.000000 1.000000 0.888233 0.888233 0.888233 0.888233 0.888233 0.872294 0.872294 0.872294 0.872294 0.872294 0.872294 0.872294 0.872294 0.872294 0.872294 0.872294 0.872294 0.872294 0.872294 0.872294 0.872294 0.872294 0.872294 0.872294 0.872294 0.872294 0.872294 0.872294 0.872294 0.872294 0.872294 0.872294 0.872294 0.872294 0.872294 0.872294 0.872294 0.872294 0.872294 0.872294 0.872294 0.872294 0.872294 0.872294 0.872294 0.872294 0.872294 0.952996 0.957365 0.958269 0.957952 0.957173 0.956347 0.955707 0.955353 0.955977 0.958870 0.959642 0.965574 0.967276 0.967922 0.974454 0.972305 0.972599 0.970873 0.970702 0.970749 0.968903 0.967773 0.966899 0.967087 0.970598 0.970535 0.970464 0.970461 0.970635 0.971013 0.971888 0.972259 0.971970 0.971722 0.970893 0.970123 0.969526 0.969231 0.969337 0.969787 0.970554 0.971456 0.971854 0.972408 0.972870 0.973082 0.973038 0.972767 0.972344 0.971911 0.973744 0.972057 0.968441 0.970078 0.970114 0.970377 0.970780 0.971838 0.972394 0.966626 0.964933 0.964235 0.960581 0.958006 0.952744 0.944537 0.940457 0.942575 0.944140 0.944445 0.937267 0.924853 0.921780 0.915744 0.916398 0.913390 0.908515 0.908983 0.911832 0.903611 0.902348 0.896757 0.892072 0.886873 0.885601 0.887083 0.883631 0.885150 0.885865 0.881711 0.879831 0.875847 0.879124 0.878574 0.874163 0.864436 0.858356 0.857925 0.859750 0.859728 0.866537 0.868067 0.859165 0.856944 0.848009 0.842350 0.840685 0.835882 0.839451 0.840247 0.843353 0.842321 0.828957 0.832591 0.825631 0.824829 0.825699 0.821119 0.815924 0.813917 0.810277 0.802801 0.802079 0.804615 0.809348 0.811925 0.806008 0.806547 0.813300 0.808611 0.817526 0.820857 0.825460 0.834818 0.833729 0.833752 0.833639 0.834329 0.818428 0.816835 0.826100 0.832163 0.833910 0.825081 0.823234 0.823844 0.821204 0.817561 0.811601 0.789445 0.791684 0.793831 0.792633 0.797361 0.735156 0.740551 0.740244 0.742319 0.723060 0.732177 0.724579 0.718948 0.727336 0.723808 0.736893 0.735188 0.723372 0.724859 0.708745 0.703638 0.692418 0.704162 0.691159 0.696148 0.699791 0.697534 0.692173 0.701607 0.677507 0.680258 0.679150 0.679168 0.639547 0.642599 0.642812 0.642021 0.619179 0.590308 0.549198 0.532582 0.531174 0.496279 0.506568 0.506817 0.481694 0.494015 0.491434 0.498876 0.494319 0.487852 0.467865 0.433671 0.368171 0.362719 0.361062 0.364949 0.368708 0.348571 0.351932 0.327751 0.359144 0.369012 0.369590 0.365819 0.348178 0.345209 0.355128 0.355354 0.358053 0.333589 0.289024 0.253635 0.255841 0.216189 0.213397 0.186733 0.165001 0.168789 0.184244 0.159674 0.186737 0.141272 0.098868 0.096378 0.102749 0.102749 0.102749 0.102749 0.102749 0.102749 0.102749 0.102749 0.099148 0.099148 0.099148 0.099148 0.099148 0.099148 0.099148 0.099148 0.099148 0.131655 0.131655 0.131655 0.131655 0.131655 0.131655 0.131655 0.131655 0.131655 0.131655 0.131655 0.131655 0.131655
0.000000 0.000000 0.000000 0.000000 0.000000 0.000000 0.000000 0.000000 0.000000 0.000000 0.000000 0.000000 0.000000 0.000000 0.000000 0.000000 0.000000 0.000000 0.000000 0.000000 0.000000 0.000000 0.000000 0.000000 0.000000 0.000000 0.000000 0.000000 0.000000 0.000000 0.000000 0.000000 0.000000 0.000000 0.000000 0.000000 0.000000 0.000000 0.000000 0.000000 0.000000 0.000000 0.000000 0.000000 0.000000 0.000000 0.000000 0.000000 0.000000 0.000000 0.000000 0.000000 0.177471 0.177471 0.177471 0.177471 0.177471 0.197066 0.197066 0.197066 0.197066 0.197066 0.197066 0.197066 0.197066 0.197066 0.197066 0.197066 0.197066 0.197066 0.197066 0.197066 0.197066 0.197066 0.197066 0.197066 0.197066 0.197066 0.197066 0.197066 0.197066 0.197066 0.197066 0.197066 0.197066 0.197066 0.197066 0.197066 0.197066 0.197066 0.197066 0.197066 0.197066 0.197066 0.197066 0.197066 0.197066 0.197066 0.197066 0.222222 0.222222 0.222222 0.222222 0.222222 0.222222 0.222222 0.222222 0.222222 0.222222 0.222222 0.222222 0.222222 0.222222 0.222222 0.222222 0.222222 0.222222 0.222222 0.222222 0.222222 0.222222 0.222222 0.222222 0.222222 0.222222 0.222222 0.222222 0.222222 0.222222 0.244339 0.244339 0.244339 0.244339 0.244339 0.244339 0.244339 0.244339 0.244339 0.244339 0.244339 0.244339 0.244339 0.244339 0.244339 0.244339 0.244339 0.244339 0.244339 0.244339 0.244339 0.244339 0.244339 0.244339 0.244339 0.244339 0.244339 0.244339 0.244339 0.244339 0.244339 0.244339 0.244339 0.244339 0.244339 0.244339 0.244339 0.244339 0.244339 0.244339 0.244339 0.244339 0.244339 0.244339 0.256074 0.256074 0.256074 0.256074 0.256074 0.256074 0.256074 0.256074 0.256074 0.256074 0.256074 0.256074 0.256074 0.256074 0.256074 0.256074 0.256074 0.256074 0.256074 0.256074 0.256074 0.256074 0.256074 0.256074 0.256074 0.256074 0.256074 0.256074 0.256074 0.256074 0.256074 0.256074 0.256074 0.256074 0.256074 0.264906 0.264906 0.264906 0.264906 0.264906 0.264906 0.264906 0.264906 0.264906 0.264906 0.264906 0.264906 0.264906 0.264906 0.264906 0.264906 0.264906 0.264906 0.264906 0.264906 0.264906 0.264906 0.264906 0.264906 0.264906 0.264906 0.264906 0.264906 0.264906 0.256074 0.256074 0.256074 0.256074 0.256074 0.256074 0.256074 0.256074 0.256074 0.256074 0.256074 0.256074 0.256074 0.256074 0.260378 0.260378 0.260378 0.260378 0.260378 0.260378 0.260378 0.260378 0.260378 0.260378 0.260378 0.260378 0.260378 0.264906 0.264906 0.264906 0.264906 0.264906 0.264906 0.264906 0.264906 0.264906 0.264906 0.264906 0.264906 0.260378 0.260378 0.260378 0.260378 0.260378 0.260378 0.260378 0.260378 0.260378 0.260378 0.260378 0.260378 0.264906 0.264906 0.264906 0.264906 0.264906 0.264906 0.264906 0.264906 0.264906 0.264906 0.264906 0.256074 0.256074 0.256074 0.256074 0.256074 0.256074 0.256074 0.256074 0.256074 0.256074 0.256074 0.251976 0.251976 0.251976 0.251976 0.251976 0.251976 0.251976 0.251976 0.251976 0.251976 0.251976 0.260378 0.260378 0.260378 0.260378 0.260378 0.260378 0.260378 0.260378 0.260378 0.260378 0.256074 0.256074 0.256074 0.256074 0.256074 0.256074 0.256074 0.256074 0.256074 0.256074 0.260378 0.260378 0.260378 0.260378 0.260378 0.260378 0.260378 0.260378 0.260378 0.244339 0.244339 0.244339 0.244339 0.244339 0.244339 0.244339 0.244339 0.244339 0.244339 0.244339 0.244339 0.244339
