# Output from CTFFind version 4.1.9, run on 2019-11-03 18:51:09
# Input file: stack7_ub_averaged_50.mrc ; Number of micrographs: 1
# Pixel size: 3.000 Angstroms ; acceleration voltage: 300.0 keV ; spherical aberration: 0.00 mm ; amplitude contrast: 0.07
# Box size: 512 pixels ; min. res.: 30.0 Angstroms ; max. res.: 5.0 Angstroms ; min. def.: 5000.0 um; max. def. 50000.0 um; num. frames averaged: 1
# 6 lines per micrograph: #1 - spatial frequency (1/Angstroms); #2 - 1D rotational average of spectrum (assuming no astigmatism); #3 - 1D rotational average of spectrum; #4 - CTF fit; #5 - cross-correlation between spectrum and CTF fit; #6 - 2sigma of expected cross correlation of noise
0.000000 0.000651 0.001302 0.001953 0.002604 0.003255 0.003906 0.004557 0.005208 0.005859 0.006510 0.007161 0.007812 0.008464 0.009115 0.009766 0.010417 0.011068 0.011719 0.012370 0.013021 0.013672 0.014323 0.014974 0.015625 0.016276 0.016927 0.017578 0.018229 0.018880 0.019531 0.020182 0.020833 0.021484 0.022135 0.022786 0.023438 0.024089 0.024740 0.025391 0.026042 0.026693 0.027344 0.027995 0.028646 0.029297 0.029948 0.030599 0.031250 0.031901 0.032552 0.033203 0.033854 0.034505 0.035156 0.035807 0.036458 0.037109 0.037760 0.038411 0.039062 0.039714 0.040365 0.041016 0.041667 0.042318 0.042969 0.043620 0.044271 0.044922 0.045573 0.046224 0.046875 0.047526 0.048177 0.048828 0.049479 0.050130 0.050781 0.051432 0.052083 0.052734 0.053385 0.054036 0.054688 0.055339 0.055990 0.056641 0.057292 0.057943 0.058594 0.059245 0.059896 0.060547 0.061198 0.061849 0.062500 0.063151 0.063802 0.064453 0.065104 0.065755 0.066406 0.067057 0.067708 0.068359 0.069010 0.069661 0.070312 0.070964 0.071615 0.072266 0.072917 0.073568 0.074219 0.074870 0.075521 0.076172 0.076823 0.077474 0.078125 0.078776 0.079427 0.080078 0.080729 0.081380 0.082031 0.082682 0.083333 0.083984 0.084635 0.085286 0.085938 0.086589 0.087240 0.087891 0.088542 0.089193 0.089844 0.090495 0.091146 0.091797 0.092448 0.093099 0.093750 0.094401 0.095052 0.095703 0.096354 0.097005 0.097656 0.098307 0.098958 0.099609 0.100260 0.100911 0.101562 0.102214 0.102865 0.103516 0.104167 0.104818 0.105469 0.106120 0.106771 0.107422 0.108073 0.108724 0.109375 0.110026 0.110677 0.111328 0.111979 0.112630 0.113281 0.113932 0.114583 0.115234 0.115885 0.116536 0.117188 0.117839 0.118490 0.119141 0.119792 0.120443 0.121094 0.121745 0.122396 0.123047 0.123698 0.124349 0.125000 0.125651 0.126302 0.126953 0.127604 0.128255 0.128906 0.129557 0.130208 0.130859 0.131510 0.132161 0.132812 0.133464 0.134115 0.134766 0.135417 0.136068 0.136719 0.137370 0.138021 0.138672 0.139323 0.139974 0.140625 0.141276 0.141927 0.142578 0.143229 0.143880 0.144531 0.145182 0.145833 0.146484 0.147135 0.147786 0.148438 0.149089 0.149740 0.150391 0.151042 0.151693 0.152344 0.152995 0.153646 0.154297 0.154948 0.155599 0.156250 0.156901 0.157552 0.158203 0.158854 0.159505 0.160156 0.160807 0.161458 0.162109 0.162760 0.163411 0.164062 0.164714 0.165365 0.166016 0.166667 0.167318 0.167969 0.168620 0.169271 0.169922 0.170573 0.171224 0.171875 0.172526 0.173177 0.173828 0.174479 0.175130 0.175781 0.176432 0.177083 0.177734 0.178385 0.179036 0.179688 0.180339 0.180990 0.181641 0.182292 0.182943 0.183594 0.184245 0.184896 0.185547 0.186198 0.186849 0.187500 0.188151 0.188802 0.189453 0.190104 0.190755 0.191406 0.192057 0.192708 0.193359 0.194010 0.194661 0.195312 0.195964 0.196615 0.197266 0.197917 0.198568 0.199219 0.199870 0.200521 0.201172 0.201823 0.202474 0.203125 0.203776 0.204427 0.205078 0.205729 0.206380 0.207031 0.207682 0.208333 0.208984 0.209635 0.210286 0.210938 0.211589 0.212240 0.212891 0.213542 0.214193 0.214844 0.215495 0.216146 0.216797 0.217448 0.218099 0.218750 0.219401 0.220052 0.220703 0.221354 0.222005 0.222656 0.223307 0.223958 0.224609 0.225260 0.225911 0.226562 0.227214 0.227865 0.228516 0.229167 0.229818 0.230469 0.231120 0.231771 0.232422 0.233073 0.233724 0.234375 0.235026 0.235677
       0.35215        0.35215        0.35215        0.35215        0.35215        0.35215        0.35215        0.35215        0.35215        0.35215        0.35215        0.35215        0.35215        0.35215        0.35215        0.35215        0.35215        0.35215        0.35215        0.35215        0.35215        0.35215        0.35215        0.35215        0.35215        0.35215        0.35215        0.35215        0.35215        0.35215        0.35215        0.35215        0.35215        0.35215        0.35215        0.35215        0.35215        0.35215        0.35215        0.35215        0.35215        0.35215        0.35215        0.35215        0.35215        0.35215        0.35215        0.35215        0.35215        0.35215        0.35215        0.54056        0.92957        0.46257        0.24006        0.28522       -0.00404        0.08537       -0.06763        0.03410        0.19344        0.16118        0.35766        0.24244        0.07148       -0.03403       -0.03139       -0.03796       -0.20642       -0.25155       -0.17022       -0.18539       -0.14533       -0.12351       -0.30657       -0.29588       -0.32883       -0.39356       -0.46972       -0.39970       -0.28924       -0.31462       -0.33605       -0.41391       -0.23186       -0.17316       -0.19269       -0.18294       -0.02692        0.03491        0.15916        0.29087        0.33322        0.42834        0.51354        0.60424        0.59814        0.62993        0.60346        0.57870        0.67154        0.67298        0.73261        0.80038        0.65644        0.54310        0.53344        0.50146        0.42757        0.30617        0.28490        0.21518        0.12801        0.03777        0.04781        0.06287        0.06608        0.02204        0.05113        0.05623        0.15331        0.16665        0.30825        0.38904        0.35517        0.52766        0.59691        0.58866        0.64075        0.72289        0.69567        0.67228        0.67615        0.55439        0.52597        0.40572        0.41956        0.30260        0.26562        0.22495        0.15026        0.09454        0.03097        0.05594        0.16296        0.18931        0.20720        0.24592        0.38444        0.43265        0.47373        0.56670        0.58636        0.58706        0.58577        0.57791        0.53226        0.46348        0.46714        0.38302        0.27274        0.23485        0.33683        0.22636        0.11647        0.19958        0.22123        0.24046        0.33341        0.35117        0.42510        0.46671        0.49243        0.52861        0.50006        0.52346        0.48740        0.50481        0.41688        0.45225        0.38124        0.30043        0.27694        0.22708        0.19796        0.25780        0.25806        0.31275        0.32695        0.40218        0.38991        0.49500        0.47884        0.46886        0.44975        0.47021        0.44391        0.32277        0.34230        0.30377        0.31174        0.27733        0.26538        0.27056        0.33431        0.35704        0.36486        0.36806        0.39834        0.45430        0.46770        0.39465        0.41973        0.36287        0.29684        0.31055        0.32854        0.31891        0.30005        0.27874        0.32292        0.36646        0.38018        0.34011        0.39545        0.40329        0.41272        0.35051        0.35186        0.35084        0.31013        0.30619        0.31271        0.29026        0.28658        0.32549        0.36187        0.40339        0.35102        0.39660        0.37599        0.37762        0.35045        0.33144        0.34055        0.32497        0.32754        0.30116        0.31253        0.30505        0.32289        0.31835        0.35688        0.34724        0.33523        0.31266        0.29382        0.31048        0.33348        0.29968        0.27175        0.27836        0.29523        0.29512        0.35354        0.35413        0.34819        0.37076        0.37509        0.29713        0.31053        0.37844        0.31231        0.29274        0.36427        0.37542        0.34385        0.30856        0.35013        0.37772        0.34439        0.38030        0.32261        0.36734        0.30263        0.31270        0.30605        0.35651        0.33793        0.31808        0.33016        0.35634        0.35340        0.35704        0.34607        0.33902        0.29004        0.26848        0.29135        0.32073        0.32883        0.31630        0.32883        0.26883        0.30304        0.33993        0.30552        0.29897        0.33052        0.30486        0.29340        0.30204        0.34574        0.35023        0.30549        0.29171        0.27199        0.29003        0.32472        0.32257        0.28309        0.26766        0.30376        0.31877        0.31569        0.28938        0.28067        0.24900        0.25134        0.23702        0.27778        0.32637        0.34346        0.26044        0.24963        0.31158        0.33544        0.29081        0.31624        0.30996        0.28913        0.23929        0.34938        0.26281        0.24304        0.25833        0.27430        0.19522        0.15773        0.30750        0.26051        0.25705        0.26118        0.31200        0.24908        0.23227        0.30750        0.15143        0.05876        0.14703        0.12200       -0.47199       -0.71390
1.974896 1.957813 1.940808 1.923881 1.907034 1.890264 1.873573 1.856960 1.840426 1.823970 1.807593 1.791294 1.775074 1.758932 1.742868 1.726883 1.710976 1.695148 1.679398 1.663727 1.648134 1.632619 1.617183 1.601825 1.586546 1.571345 1.556223 1.541179 1.526214 1.511326 1.496518 1.481788 1.467136 1.452563 1.438068 1.423651 1.409313 1.395054 1.380872 1.366770 1.352745 1.338800 1.324932 1.311143 1.297433 1.283801 1.270247 1.256772 1.243375 1.230056 1.216817 1.269505 2.039105 1.451885 0.946895 1.196386 0.665950 0.773567 0.656208 0.639808 0.885137 0.837391 1.054615 0.953625 0.671771 0.585944 0.449644 0.513689 0.330651 0.095967 0.371871 0.273934 0.317946 0.287925 0.110384 0.053501 0.049917 -0.022297 -0.250040 -0.132539 0.008584 0.050475 -0.071146 -0.211321 0.035782 0.086882 0.087296 0.084057 0.271211 0.304119 0.449176 0.617388 0.701583 0.807185 0.874081 1.045480 0.982578 1.011739 1.068467 0.923952 1.056794 1.019628 1.147480 1.215570 1.078549 0.915470 0.802100 0.740933 0.746450 0.568961 0.446317 0.479239 0.229958 0.214210 0.066899 0.151887 0.184727 0.091086 0.092202 0.080049 0.198763 0.197531 0.351329 0.540105 0.435810 0.573170 0.817122 0.680495 0.803784 0.804505 0.954039 0.820220 0.830232 0.698560 0.669204 0.344966 0.575151 0.333344 0.264065 0.200510 0.130859 0.014653 -0.025406 -0.091433 0.024855 0.062393 0.152248 0.091097 0.257736 0.401949 0.421201 0.496528 0.555096 0.648881 0.520982 0.554180 0.613041 0.411771 0.442280 0.295842 0.214676 0.061482 0.217728 0.133610 -0.046046 -0.014600 0.093175 0.005113 0.156056 0.211561 0.227132 0.337252 0.367671 0.388476 0.399229 0.481974 0.380371 0.483042 0.329295 0.361651 0.312294 0.143080 0.199624 0.044874 -0.007628 0.096693 0.062462 0.097503 0.126923 0.286890 0.218252 0.254993 0.401117 0.257974 0.302999 0.205475 0.348543 0.119728 0.091764 0.102889 0.009098 0.070893 -0.014865 -0.030319 0.032167 0.098208 0.115423 0.109191 0.089077 0.201491 0.200963 0.212662 0.170752 0.145313 0.038478 0.010745 0.031746 0.022852 0.056668 -0.042298 -0.017563 0.060265 0.119169 0.078756 0.051781 0.134650 0.093476 0.132076 0.017892 0.075600 -0.001607 0.029835 -0.013672 -0.014594 -0.029813 -0.057135 0.022366 0.118403 0.073977 0.036693 0.099320 0.091925 0.049073 0.075206 -0.000128 0.024090 0.015629 0.044704 -0.027834 0.002879 -0.001977 -0.008027 0.040090 0.059144 0.029336 0.057833 -0.002001 -0.007948 0.036116 0.072088 -0.082271 0.004589 -0.012900 0.002437 0.022251 0.078546 0.059480 0.099659 0.072606 0.107762 -0.027061 0.018627 0.177302 -0.045242 0.023329 0.098832 0.105343 0.050279 0.016992 0.093436 0.126608 0.058044 0.081732 0.014310 0.100795 0.028192 -0.011543 0.028817 0.061989 0.035965 0.038334 0.010757 0.070390 0.030177 0.113032 0.047168 -0.001983 -0.055853 -0.041269 -0.004724 -0.007643 -0.001270 0.054230 0.018620 -0.066222 -0.053458 0.056340 -0.017798 -0.010119 0.043361 -0.028579 -0.001216 -0.038525 0.072878 0.052951 -0.056630 0.024012 -0.045794 -0.025610 0.054934 0.040047 -0.062801 -0.048458 0.002404 0.043973 -0.002036 -0.033170 -0.061264 -0.069320 -0.093804 -0.079432 -0.041426 0.053605 0.073016 -0.102778 -0.045233 0.063693 -0.000829 0.027786 0.042392 0.054749 -0.008574 -0.066113 0.168360 -0.037741 -0.015983 0.030413 0.020361 -0.083160 -0.081010 0.111966 0.087994 0.001303 0.001369 0.139615 0.046334 0.303881 0.486899 0.150393 0.060474 0.167056 0.167532 -0.925089
0.072396 0.072855 0.074230 0.076521 0.079729 0.083852 0.088889 0.094839 0.101700 0.109471 0.118147 0.127726 0.138204 0.149575 0.161834 0.174973 0.188984 0.203856 0.219579 0.236138 0.253518 0.271701 0.290668 0.310395 0.330857 0.352025 0.373868 0.396349 0.419430 0.443066 0.467212 0.491815 0.516818 0.542161 0.567777 0.593594 0.619537 0.645521 0.671461 0.697262 0.722826 0.748046 0.772814 0.797013 0.820521 0.843211 0.864953 0.885609 0.905038 0.923096 0.939634 0.954501 0.967544 0.978609 0.987539 0.994181 0.998381 0.999988 0.998854 0.994836 0.987800 0.977616 0.964165 0.947340 0.927044 0.903196 0.875729 0.844597 0.809770 0.771242 0.729028 0.683167 0.633728 0.580803 0.524517 0.465024 0.402509 0.337191 0.269320 0.199183 0.127097 0.053414 0.021480 0.097169 0.173204 0.249110 0.324383 0.398497 0.470903 0.541037 0.608323 0.672173 0.732001 0.787220 0.837253 0.881539 0.919538 0.950740 0.974671 0.990901 0.999052 0.998807 0.989913 0.972191 0.945546 0.909966 0.865535 0.812434 0.750945 0.681456 0.604461 0.520562 0.430466 0.334986 0.235033 0.131613 0.025816 0.081188 0.188164 0.293826 0.396848 0.495885 0.589586 0.676617 0.755678 0.825529 0.885007 0.933049 0.968717 0.991213 0.999907 0.994350 0.974293 0.939702 0.890769 0.827921 0.751827 0.663396 0.563773 0.454336 0.336679 0.212594 0.084051 0.046829 0.177813 0.306581 0.430778 0.548048 0.656087 0.752688 0.835788 0.903522 0.954264 0.986677 0.999751 0.992842 0.965701 0.918496 0.851833 0.766753 0.664739 0.547688 0.417903 0.278040 0.131073 0.019769 0.171065 0.319281 0.460847 0.592250 0.710119 0.811318 0.893041 0.952893 0.988970 0.999931 0.985059 0.944300 0.878298 0.788397 0.676640 0.545729 0.398986 0.240268 0.073887 0.095507 0.263048 0.423789 0.572859 0.705603 0.817742 0.905518 0.965834 0.996373 0.995708 0.963374 0.899922 0.806940 0.687031 0.543767 0.381595 0.205727 0.021971 0.163444 0.344077 0.513490 0.665497 0.794382 0.895138 0.963668 0.996975 0.993313 0.952292 0.874940 0.763713 0.622443 0.456231 0.271288 0.074718 0.125740 0.322013 0.506014 0.669976 0.806800 0.910369 0.975844 0.999916 0.980995 0.919336 0.817084 0.678237 0.508520 0.315187 0.106718 0.107523 0.317699 0.513957 0.686890 0.827999 0.930134 0.987880 0.997873 0.959029 0.872664 0.742494 0.574524 0.376800 0.159058 0.067733 0.291911 0.501719 0.685919 0.834411 0.938818 0.992978 0.993351 0.939285 0.833132 0.680198 0.488526 0.268511 0.032368 0.206520 0.434359 0.637737 0.804424 0.924138 0.989210 0.995116 0.940838 0.829018 0.665889 0.460981 0.226611 0.022824 0.271709 0.504175 0.705130 0.861241 0.961861 0.999797 0.971876 0.879253 0.727450 0.526078 0.288295 0.029987 0.231270 0.477382 0.691011 0.856793 0.962498 0.999977 0.965840 0.861826 0.694791 0.476338 0.222051 0.049549 0.318335 0.564063 0.767889 0.913865 0.990214 0.990356 0.913533 0.765003 0.555769 0.301830 0.023009 0.258534 0.520075 0.740152 0.900349 0.986901 0.991936 0.914262 0.759622 0.540357 0.274499 0.015640 0.305314 0.569433 0.784744 0.931919 0.997350 0.974479 0.864545 0.676634 0.427024 0.137856 0.164770 0.453123 0.700377 0.883136 0.983702 0.991867 0.906041 0.733583 0.490273 0.198970 0.112469 0.413816 0.675392 0.871015 0.980690 0.992716 0.905048 0.725696 0.472104 0.169564 0.151239 0.457290 0.716654 0.901818 0.992694 0.978888 0.860997 0.650758 0.370013 0.048522 0.279101 0.577104
1.000000 1.000000 1.000000 1.000000 1.000000 1.000000 1.000000 1.000000 1.000000 1.000000 1.000000 1.000000 1.000000 1.000000 1.000000 1.000000 1.000000 1.000000 1.000000 1.000000 1.000000 1.000000 1.000000 1.000000 1.000000 1.000000 1.000000 1.000000 1.000000 1.000000 1.000000 1.000000 1.000000 1.000000 1.000000 1.000000 1.000000 1.000000 1.000000 1.000000 1.000000 1.000000 1.000000 1.000000 1.000000 1.000000 1.000000 1.000000 1.000000 1.000000 1.000000 1.000000 0.852256 0.852256 0.852256 0.852256 0.852256 0.852256 0.841008 0.841008 0.841008 0.841008 0.841008 0.841008 0.841008 0.841008 0.841008 0.841008 0.841008 0.841008 0.841008 0.841008 0.841008 0.841008 0.841008 0.841008 0.841008 0.841008 0.841008 0.841008 0.841008 0.841008 0.841008 0.841008 0.841008 0.841008 0.841008 0.841008 0.841008 0.841008 0.841008 0.841008 0.841008 0.841008 0.841008 0.841008 0.841008 0.841008 0.841008 0.841008 0.841008 0.924780 0.926219 0.928321 0.929050 0.928859 0.927211 0.925924 0.925308 0.927244 0.945227 0.945853 0.947400 0.948884 0.950292 0.951259 0.953226 0.953016 0.955248 0.959086 0.958279 0.957828 0.968547 0.968258 0.967336 0.966660 0.964730 0.963623 0.963422 0.963187 0.963054 0.964302 0.963306 0.962783 0.961938 0.961655 0.961110 0.961252 0.961102 0.960937 0.961123 0.960666 0.960955 0.959687 0.959760 0.959352 0.956868 0.956916 0.957448 0.958707 0.957759 0.956676 0.956741 0.954612 0.951429 0.955870 0.955699 0.955057 0.950667 0.950095 0.949533 0.949413 0.942367 0.940504 0.928639 0.927637 0.911959 0.902652 0.900781 0.898549 0.900110 0.904786 0.906776 0.905772 0.902482 0.891667 0.868495 0.861250 0.861731 0.866402 0.867268 0.867591 0.856336 0.848096 0.847739 0.847879 0.835222 0.838627 0.836948 0.833652 0.830655 0.826571 0.814058 0.816026 0.826495 0.820670 0.818315 0.824786 0.805166 0.807280 0.804159 0.806117 0.810348 0.810327 0.812259 0.810122 0.804908 0.787668 0.785639 0.779249 0.784681 0.789901 0.786012 0.790176 0.772856 0.761286 0.770168 0.745392 0.761679 0.769101 0.778413 0.766434 0.761390 0.758041 0.760005 0.760154 0.757826 0.770144 0.766770 0.762126 0.756637 0.706212 0.702170 0.663259 0.655573 0.652485 0.655413 0.665707 0.669593 0.660724 0.643444 0.623558 0.578797 0.585858 0.580449 0.571374 0.571249 0.567309 0.546278 0.553331 0.544614 0.526189 0.527726 0.518208 0.505840 0.507487 0.506520 0.520042 0.537246 0.531013 0.533606 0.525514 0.489256 0.485956 0.463184 0.452786 0.451736 0.463933 0.509255 0.510890 0.512681 0.490544 0.480706 0.484516 0.429926 0.410672 0.412275 0.409041 0.421516 0.337557 0.336633 0.339961 0.341955 0.327135 0.327612 0.330692 0.294755 0.304802 0.293507 0.316226 0.251064 0.213401 0.234420 0.237376 0.229408 0.213831 0.221337 0.232080 0.223433 0.235117 0.234824 0.268666 0.259218 0.251321 0.213636 0.185817 0.212273 0.215260 0.215833 0.220371 0.200475 0.184487 0.195835 0.187858 0.174914 0.188182 0.203291 0.187388 0.159447 0.101413 0.071391 0.075710 0.075698 0.110703 0.081607 0.066194 0.055934 0.012543 -0.029304 -0.038658 -0.020467 0.015429 0.025354 0.021739 0.033296 0.033296 0.039567 0.039567 0.039567 0.039567 0.039567 0.039567 0.039567 0.039567 0.039567 0.039567 0.046380 0.046380 0.046380 0.046380 0.046380 0.046380 0.046380 0.046380 0.046380 0.046380 0.046380 0.046380 0.046380 0.046380 0.046380 0.046380 0.046380
0.000000 0.000000 0.000000 0.000000 0.000000 0.000000 0.000000 0.000000 0.000000 0.000000 0.000000 0.000000 0.000000 0.000000 0.000000 0.000000 0.000000 0.000000 0.000000 0.000000 0.000000 0.000000 0.000000 0.000000 0.000000 0.000000 0.000000 0.000000 0.000000 0.000000 0.000000 0.000000 0.000000 0.000000 0.000000 0.000000 0.000000 0.000000 0.000000 0.000000 0.000000 0.000000 0.000000 0.000000 0.000000 0.000000 0.000000 0.000000 0.000000 0.000000 0.000000 0.000000 0.176090 0.176090 0.176090 0.176090 0.176090 0.176090 0.195180 0.195180 0.195180 0.195180 0.195180 0.195180 0.195180 0.195180 0.195180 0.195180 0.195180 0.195180 0.195180 0.195180 0.195180 0.195180 0.195180 0.195180 0.195180 0.195180 0.195180 0.195180 0.195180 0.195180 0.195180 0.195180 0.195180 0.195180 0.195180 0.195180 0.195180 0.195180 0.195180 0.195180 0.195180 0.195180 0.195180 0.195180 0.195180 0.195180 0.195180 0.195180 0.195180 0.222222 0.222222 0.222222 0.222222 0.222222 0.222222 0.222222 0.222222 0.222222 0.222222 0.222222 0.222222 0.222222 0.222222 0.222222 0.222222 0.222222 0.222222 0.222222 0.222222 0.222222 0.222222 0.222222 0.222222 0.222222 0.222222 0.222222 0.222222 0.222222 0.222222 0.237356 0.237356 0.237356 0.237356 0.237356 0.237356 0.237356 0.237356 0.237356 0.237356 0.237356 0.237356 0.237356 0.237356 0.237356 0.237356 0.237356 0.237356 0.237356 0.237356 0.237356 0.237356 0.237356 0.237356 0.251976 0.251976 0.251976 0.251976 0.251976 0.251976 0.251976 0.251976 0.251976 0.251976 0.251976 0.251976 0.251976 0.251976 0.251976 0.251976 0.251976 0.251976 0.251976 0.251976 0.248069 0.248069 0.248069 0.248069 0.248069 0.248069 0.248069 0.248069 0.248069 0.248069 0.248069 0.248069 0.248069 0.248069 0.248069 0.248069 0.248069 0.248069 0.248069 0.256074 0.256074 0.256074 0.256074 0.256074 0.256074 0.256074 0.256074 0.256074 0.256074 0.256074 0.256074 0.256074 0.256074 0.256074 0.256074 0.256074 0.256074 0.256074 0.256074 0.256074 0.256074 0.256074 0.256074 0.256074 0.256074 0.256074 0.256074 0.256074 0.256074 0.256074 0.256074 0.256074 0.264906 0.264906 0.264906 0.264906 0.264906 0.264906 0.264906 0.264906 0.264906 0.264906 0.264906 0.264906 0.264906 0.264906 0.256074 0.256074 0.256074 0.256074 0.256074 0.256074 0.256074 0.256074 0.256074 0.256074 0.256074 0.256074 0.256074 0.256074 0.260378 0.260378 0.260378 0.260378 0.260378 0.260378 0.260378 0.260378 0.260378 0.260378 0.260378 0.260378 0.260378 0.256074 0.256074 0.256074 0.256074 0.256074 0.256074 0.256074 0.256074 0.256074 0.256074 0.256074 0.256074 0.256074 0.260378 0.260378 0.260378 0.260378 0.260378 0.260378 0.260378 0.260378 0.260378 0.260378 0.260378 0.260378 0.264906 0.264906 0.264906 0.264906 0.264906 0.264906 0.264906 0.264906 0.264906 0.264906 0.264906 0.256074 0.256074 0.256074 0.256074 0.256074 0.256074 0.256074 0.256074 0.256074 0.256074 0.256074 0.251976 0.251976 0.251976 0.251976 0.251976 0.251976 0.251976 0.251976 0.251976 0.251976 0.251976 0.260378 0.260378 0.260378 0.260378 0.260378 0.260378 0.260378 0.260378 0.260378 0.260378 0.256074 0.256074 0.256074 0.256074 0.256074 0.256074 0.256074 0.256074 0.256074 0.256074 0.251976 0.251976 0.251976 0.251976 0.251976 0.251976 0.251976 0.251976 0.251976 0.251976 0.251976 0.251976 0.251976 0.251976 0.251976 0.251976 0.251976
