# Output from CTFFind version 4.1.9, run on 2019-11-03 18:51:09
# Input file: stack14_ub_averaged_50.mrc ; Number of micrographs: 1
# Pixel size: 3.000 Angstroms ; acceleration voltage: 300.0 keV ; spherical aberration: 0.00 mm ; amplitude contrast: 0.07
# Box size: 512 pixels ; min. res.: 30.0 Angstroms ; max. res.: 5.0 Angstroms ; min. def.: 5000.0 um; max. def. 50000.0 um; num. frames averaged: 1
# 6 lines per micrograph: #1 - spatial frequency (1/Angstroms); #2 - 1D rotational average of spectrum (assuming no astigmatism); #3 - 1D rotational average of spectrum; #4 - CTF fit; #5 - cross-correlation between spectrum and CTF fit; #6 - 2sigma of expected cross correlation of noise
0.000000 0.000651 0.001302 0.001953 0.002604 0.003255 0.003906 0.004557 0.005208 0.005859 0.006510 0.007161 0.007812 0.008464 0.009115 0.009766 0.010417 0.011068 0.011719 0.012370 0.013021 0.013672 0.014323 0.014974 0.015625 0.016276 0.016927 0.017578 0.018229 0.018880 0.019531 0.020182 0.020833 0.021484 0.022135 0.022786 0.023438 0.024089 0.024740 0.025391 0.026042 0.026693 0.027344 0.027995 0.028646 0.029297 0.029948 0.030599 0.031250 0.031901 0.032552 0.033203 0.033854 0.034505 0.035156 0.035807 0.036458 0.037109 0.037760 0.038411 0.039062 0.039714 0.040365 0.041016 0.041667 0.042318 0.042969 0.043620 0.044271 0.044922 0.045573 0.046224 0.046875 0.047526 0.048177 0.048828 0.049479 0.050130 0.050781 0.051432 0.052083 0.052734 0.053385 0.054036 0.054688 0.055339 0.055990 0.056641 0.057292 0.057943 0.058594 0.059245 0.059896 0.060547 0.061198 0.061849 0.062500 0.063151 0.063802 0.064453 0.065104 0.065755 0.066406 0.067057 0.067708 0.068359 0.069010 0.069661 0.070312 0.070964 0.071615 0.072266 0.072917 0.073568 0.074219 0.074870 0.075521 0.076172 0.076823 0.077474 0.078125 0.078776 0.079427 0.080078 0.080729 0.081380 0.082031 0.082682 0.083333 0.083984 0.084635 0.085286 0.085938 0.086589 0.087240 0.087891 0.088542 0.089193 0.089844 0.090495 0.091146 0.091797 0.092448 0.093099 0.093750 0.094401 0.095052 0.095703 0.096354 0.097005 0.097656 0.098307 0.098958 0.099609 0.100260 0.100911 0.101562 0.102214 0.102865 0.103516 0.104167 0.104818 0.105469 0.106120 0.106771 0.107422 0.108073 0.108724 0.109375 0.110026 0.110677 0.111328 0.111979 0.112630 0.113281 0.113932 0.114583 0.115234 0.115885 0.116536 0.117188 0.117839 0.118490 0.119141 0.119792 0.120443 0.121094 0.121745 0.122396 0.123047 0.123698 0.124349 0.125000 0.125651 0.126302 0.126953 0.127604 0.128255 0.128906 0.129557 0.130208 0.130859 0.131510 0.132161 0.132812 0.133464 0.134115 0.134766 0.135417 0.136068 0.136719 0.137370 0.138021 0.138672 0.139323 0.139974 0.140625 0.141276 0.141927 0.142578 0.143229 0.143880 0.144531 0.145182 0.145833 0.146484 0.147135 0.147786 0.148438 0.149089 0.149740 0.150391 0.151042 0.151693 0.152344 0.152995 0.153646 0.154297 0.154948 0.155599 0.156250 0.156901 0.157552 0.158203 0.158854 0.159505 0.160156 0.160807 0.161458 0.162109 0.162760 0.163411 0.164062 0.164714 0.165365 0.166016 0.166667 0.167318 0.167969 0.168620 0.169271 0.169922 0.170573 0.171224 0.171875 0.172526 0.173177 0.173828 0.174479 0.175130 0.175781 0.176432 0.177083 0.177734 0.178385 0.179036 0.179688 0.180339 0.180990 0.181641 0.182292 0.182943 0.183594 0.184245 0.184896 0.185547 0.186198 0.186849 0.187500 0.188151 0.188802 0.189453 0.190104 0.190755 0.191406 0.192057 0.192708 0.193359 0.194010 0.194661 0.195312 0.195964 0.196615 0.197266 0.197917 0.198568 0.199219 0.199870 0.200521 0.201172 0.201823 0.202474 0.203125 0.203776 0.204427 0.205078 0.205729 0.206380 0.207031 0.207682 0.208333 0.208984 0.209635 0.210286 0.210938 0.211589 0.212240 0.212891 0.213542 0.214193 0.214844 0.215495 0.216146 0.216797 0.217448 0.218099 0.218750 0.219401 0.220052 0.220703 0.221354 0.222005 0.222656 0.223307 0.223958 0.224609 0.225260 0.225911 0.226562 0.227214 0.227865 0.228516 0.229167 0.229818 0.230469 0.231120 0.231771 0.232422 0.233073 0.233724 0.234375 0.235026 0.235677
       0.30656        0.30656        0.30656        0.30656        0.30656        0.30656        0.30656        0.30656        0.30656        0.30656        0.30656        0.30656        0.30656        0.30656        0.30656        0.30656        0.30656        0.30656        0.30656        0.30656        0.30656        0.30656        0.30656        0.30656        0.30656        0.30656        0.30656        0.30656        0.30656        0.30656        0.30656        0.30656        0.30656        0.30656        0.30656        0.30656        0.30656        0.30656        0.30656        0.30656        0.30656        0.30656        0.30656        0.30656        0.30656        0.30656        0.30656        0.30656        0.30656        0.30656        0.30656        0.43236        0.54076        0.19296       -0.14706       -0.35194       -0.39380       -0.47421       -0.60388       -0.61184       -0.61438       -0.58759       -0.57277       -0.58705       -0.71461       -0.81335       -0.81067       -0.83703       -0.78708       -0.85701       -0.69534       -0.80146       -0.75067       -0.56329       -0.47365       -0.36589       -0.23093       -0.12172       -0.14179        0.09702        0.25124        0.23945        0.33659        0.44812        0.47293        0.58157        0.49372        0.62798        0.60985        0.62305        0.51849        0.41251        0.32447        0.27498        0.25270        0.17937        0.09043        0.06558       -0.06431       -0.03992       -0.06520       -0.07999       -0.01538        0.04593        0.13879        0.18779        0.36649        0.45366        0.53023        0.58360        0.55090        0.64519        0.70413        0.63298        0.53877        0.48877        0.49497        0.38264        0.29184        0.17151        0.08601        0.02904       -0.02059       -0.05480        0.06008        0.12315        0.22696        0.34656        0.44132        0.55738        0.54451        0.60833        0.64639        0.57958        0.52798        0.54581        0.43708        0.35619        0.25383        0.16818        0.09874        0.02920        0.06809        0.10192        0.18353        0.28379        0.31131        0.42114        0.47380        0.46825        0.50241        0.53701        0.43076        0.43751        0.32037        0.18485        0.20656        0.10202        0.13005        0.13463        0.15469        0.25299        0.33037        0.43425        0.43687        0.42149        0.47959        0.46960        0.44144        0.41125        0.34984        0.21710        0.14439        0.23319        0.24359        0.21522        0.22725        0.34569        0.41213        0.48338        0.48960        0.44009        0.39099        0.35268        0.27793        0.27535        0.23254        0.23445        0.18661        0.23941        0.26476        0.35357        0.38222        0.43686        0.42048        0.36685        0.33351        0.33944        0.27426        0.23878        0.23179        0.25477        0.26944        0.33966        0.36244        0.35207        0.35865        0.39187        0.38194        0.35811        0.25983        0.25762        0.25155        0.24218        0.25226        0.23658        0.31840        0.40508        0.36536        0.33798        0.35074        0.29823        0.27799        0.26527        0.23516        0.27055        0.31708        0.30296        0.32884        0.32827        0.34725        0.34783        0.32081        0.31299        0.25848        0.28178        0.26424        0.28316        0.30813        0.31467        0.29657        0.31080        0.32010        0.29627        0.28101        0.25105        0.27805        0.27167        0.27291        0.32934        0.31488        0.26302        0.29674        0.27263        0.26452        0.22763        0.23970        0.30389        0.29018        0.30349        0.29281        0.31522        0.28679        0.24029        0.27463        0.28236        0.26466        0.25821        0.31873        0.35689        0.35489        0.31997        0.30745        0.27324        0.29088        0.27069        0.27338        0.29401        0.29399        0.31236        0.26777        0.25857        0.26978        0.28019        0.25861        0.27216        0.29752        0.33716        0.31737        0.28354        0.29159        0.28973        0.25862        0.25717        0.25282        0.29342        0.29055        0.30145        0.25717        0.19592        0.24260        0.24044        0.23746        0.28314        0.30621        0.28720        0.23737        0.24969        0.26657        0.26022        0.23228        0.23155        0.27660        0.27629        0.35935        0.30817        0.24788        0.25932        0.23422        0.23119        0.29392        0.30425        0.30440        0.23757        0.31031        0.28494        0.25027        0.26719        0.27612        0.26894        0.29203        0.23841        0.24192        0.27937        0.25033        0.23496        0.22142        0.21600        0.23088        0.23124        0.20070        0.17065        0.23218        0.25429        0.21849        0.24436        0.31160        0.24254        0.27683        0.25744        0.34203        0.28185        0.19554        0.30025        0.22252        0.22773        0.30690        0.18853        0.08697        0.03884        0.05506       -0.23804       -0.14831
2.503130 2.475378 2.447789 2.420362 2.393099 2.365998 2.339059 2.312283 2.285671 2.259220 2.232933 2.206808 2.180846 2.155047 2.129411 2.103937 2.078626 2.053477 2.028492 2.003669 1.979009 1.954511 1.930177 1.906005 1.881996 1.858149 1.834466 1.810944 1.787586 1.764391 1.741358 1.718488 1.695781 1.673236 1.650854 1.628635 1.606579 1.584685 1.562954 1.541386 1.519981 1.498738 1.477658 1.456741 1.435986 1.415394 1.394965 1.374699 1.354595 1.334654 1.314876 1.426465 1.543915 1.190374 0.787406 0.457079 0.544299 0.359006 0.137379 0.209709 0.147383 0.090479 0.180908 0.127534 0.041931 -0.200044 -0.191165 -0.208637 -0.185792 -0.307581 -0.049239 -0.297239 -0.229435 -0.024080 0.012337 0.129089 0.288774 0.369030 0.347742 0.466179 0.750542 0.711412 0.780980 0.854705 0.908872 1.023022 0.979983 0.946599 1.033946 0.985772 0.978589 0.685619 0.761315 0.554309 0.578144 0.487682 0.351654 0.328385 0.153600 0.210643 0.109934 0.094369 0.192344 0.196550 0.249433 0.350029 0.465872 0.646433 0.642980 0.655930 0.784342 0.713279 0.794387 0.743373 0.673695 0.596659 0.598111 0.451498 0.385942 0.211061 0.162873 0.023614 -0.016524 -0.073238 -0.061891 0.134558 0.130634 0.328284 0.356942 0.455258 0.558402 0.543612 0.608540 0.614851 0.466084 0.529858 0.344727 0.372953 0.218825 0.092103 0.012625 -0.051631 -0.073070 -0.039543 0.002337 0.149405 0.190302 0.239810 0.361146 0.341784 0.421236 0.508398 0.388308 0.353177 0.303439 0.098436 0.071583 0.037864 -0.019040 0.019571 -0.004688 0.087169 0.149878 0.302223 0.276360 0.316726 0.339426 0.340280 0.309171 0.301919 0.229811 0.107903 -0.038165 0.028438 0.080644 0.044496 0.024925 0.105125 0.199870 0.286531 0.271199 0.309540 0.176376 0.214486 0.103678 0.075673 0.019948 -0.010443 0.022817 -0.026662 0.003454 0.109739 0.152541 0.193750 0.212690 0.160270 0.137152 0.095315 0.107150 -0.018809 0.007419 -0.014870 0.020014 0.058542 0.104890 0.131001 0.121418 0.134911 0.155610 0.162775 0.083310 0.000449 0.001964 0.011656 -0.001186 -0.003335 0.002528 0.119514 0.164498 0.099133 0.120201 0.092422 0.010867 0.021059 -0.018640 -0.008254 0.037076 0.059382 0.037944 0.077727 0.092716 0.079701 0.105470 0.075149 0.008739 0.009169 0.046611 -0.015851 0.035247 0.056860 0.037334 0.050806 0.054811 0.040898 0.027896 0.012865 -0.031005 0.021841 -0.011695 0.026686 0.075820 0.031687 0.002699 0.002375 0.023124 -0.020174 -0.064383 -0.006905 0.032067 0.034069 0.021243 0.038980 0.046901 -0.000008 -0.028517 0.016531 0.021373 0.002040 -0.026021 0.078244 0.091402 0.064860 0.060341 0.031262 -0.013950 0.033007 -0.020884 0.024819 0.039842 0.013970 0.052517 -0.013106 0.012875 0.006419 -0.000056 0.022988 -0.013318 0.044324 0.099914 0.023892 0.052886 0.031097 0.023230 -0.008897 -0.003138 0.013666 0.046368 0.017824 0.045430 -0.057222 -0.050226 0.000457 -0.061591 -0.042038 0.031833 0.070611 0.031613 -0.053145 -0.008916 0.031316 0.003587 -0.027546 -0.033678 0.075718 -0.027750 0.140432 0.017861 0.018099 0.013827 -0.031824 -0.000411 0.059909 0.048410 0.091349 -0.023115 0.077897 0.077151 -0.019677 0.053318 0.024377 0.073856 0.062724 0.011050 -0.002663 0.043189 0.005483 -0.018345 -0.082571 -0.042192 -0.073814 -0.029821 -0.077092 -0.120030 -0.038100 -0.036292 -0.105578 -0.060013 0.069650 -0.035043 0.008962 -0.007917 0.120060 0.014474 -0.091666 0.087041 0.014549 -0.024284 0.161643 0.154960 0.191657 -0.063561 0.064827 -0.158383
0.072396 0.073021 0.074895 0.078017 0.082387 0.088004 0.094865 0.102967 0.112308 0.122882 0.134683 0.147704 0.161936 0.177367 0.193984 0.211770 0.230705 0.250766 0.271926 0.294152 0.317408 0.341653 0.366838 0.392909 0.419805 0.447458 0.475792 0.504723 0.534156 0.563991 0.594115 0.624406 0.654734 0.684956 0.714918 0.744459 0.773405 0.801571 0.828763 0.854777 0.879401 0.902412 0.923582 0.942676 0.959452 0.973666 0.985072 0.993423 0.998474 0.999985 0.997722 0.991462 0.980993 0.966120 0.946667 0.922481 0.893435 0.859432 0.820411 0.776346 0.727254 0.673199 0.614290 0.550693 0.482624 0.410362 0.334242 0.254661 0.172081 0.087023 0.000072 0.088127 0.176873 0.265408 0.352929 0.438585 0.521494 0.600743 0.675405 0.744542 0.807226 0.862544 0.909621 0.947625 0.975792 0.993437 0.999972 0.994921 0.977939 0.948825 0.907536 0.854201 0.789131 0.712826 0.625985 0.529504 0.424478 0.312195 0.194126 0.071915 0.052640 0.177611 0.300966 0.420598 0.534365 0.640126 0.735781 0.819323 0.888879 0.942759 0.979502 0.997927 0.997168 0.976720 0.936466 0.876713 0.798200 0.702116 0.590093 0.464201 0.326915 0.181084 0.029885 0.123250 0.274692 0.420710 0.557556 0.681568 0.789270 0.877483 0.943425 0.984812 0.999952 0.987826 0.948152 0.881431 0.788979 0.672924 0.536185 0.382422 0.215952 0.041654 0.135173 0.308956 0.474023 0.624793 0.755968 0.862732 0.940948 0.987330 0.999610 0.976666 0.918617 0.826878 0.704166 0.554456 0.382886 0.195605 0.000423 0.197662 0.388289 0.564502 0.718843 0.844535 0.935796 0.988131 0.998591 0.965960 0.890891 0.775956 0.625599 0.446024 0.244966 0.031392 0.184874 0.393592 0.584594 0.748288 0.876156 0.961231 0.998515 0.985313 0.921465 0.809455 0.654376 0.463763 0.247273 0.016241 0.216899 0.439253 0.638194 0.802088 0.921012 0.987388 0.996524 0.946993 0.840846 0.683606 0.484060 0.253823 0.006723 0.242014 0.476664 0.682020 0.844399 0.952583 0.998661 0.978668 0.892990 0.746482 0.548295 0.311372 0.051672 0.212858 0.463505 0.682110 0.852421 0.961333 0.999979 0.964521 0.856609 0.683425 0.457317 0.194998 0.083621 0.356897 0.603134 0.802309 0.937765 0.997660 0.976100 0.873811 0.698278 0.463322 0.188113 0.104320 0.388972 0.640982 0.837824 0.961401 0.999774 0.948433 0.810928 0.598766 0.330594 0.030650 0.273354 0.552752 0.780648 0.934550 0.998686 0.965735 0.837784 0.626390 0.351674 0.040542 0.275883 0.565319 0.797647 0.948098 0.999999 0.946753 0.792822 0.553528 0.253713 0.074747 0.396228 0.675206 0.880224 0.987525 0.983937 0.868648 0.653628 0.362557 0.028400 0.310250 0.613566 0.845198 0.976710 0.991218 0.885721 0.671825 0.374669 0.030153 0.319286 0.629853 0.861899 0.985089 0.982521 0.853235 0.612726 0.291316 0.069496 0.422282 0.719875 0.921736 0.999605 0.941640 0.754440 0.462557 0.105501 0.267434 0.603924 0.855931 0.986703 0.976293 0.824842 0.553015 0.199431 0.184609 0.542472 0.820526 0.976277 0.985037 0.844094 0.573610 0.214019 0.179802 0.546776 0.829096 0.981418 0.978362 0.818992 0.527511 0.149858 0.253280 0.616126 0.878550 0.996154 0.948041 0.740801 0.407991 0.004992 0.400009 0.737457 0.948451 0.995223 0.868157 0.588095 0.203241 0.218833 0.602919 0.879563 0.997769 0.934664 0.700262 0.336280 0.090962 0.502416 0.820881 0.985579 0.964029 0.758787 0.407653 0.022941 0.450220 0.790938 0.977638 0.972290 0.774393 0.421786 0.016176 0.452012
1.000000 1.000000 1.000000 1.000000 1.000000 1.000000 1.000000 1.000000 1.000000 1.000000 1.000000 1.000000 1.000000 1.000000 1.000000 1.000000 1.000000 1.000000 1.000000 1.000000 1.000000 1.000000 1.000000 1.000000 1.000000 1.000000 1.000000 1.000000 1.000000 1.000000 1.000000 1.000000 1.000000 1.000000 1.000000 1.000000 1.000000 1.000000 1.000000 1.000000 1.000000 1.000000 1.000000 1.000000 1.000000 1.000000 1.000000 1.000000 1.000000 1.000000 1.000000 1.000000 0.942862 0.942862 0.942862 0.942862 0.942862 0.942862 0.942862 0.942862 0.942862 0.942862 0.942862 0.942862 0.942862 0.942862 0.942862 0.942862 0.942862 0.942862 0.942862 0.942862 0.942862 0.942862 0.942862 0.942862 0.942862 0.942862 0.942862 0.942862 0.942862 0.942862 0.942862 0.942862 0.942862 0.942862 0.942862 0.921879 0.923390 0.927131 0.928364 0.928700 0.944976 0.945041 0.946321 0.951834 0.953791 0.955415 0.956129 0.964762 0.966206 0.966419 0.966330 0.963543 0.984785 0.983875 0.983375 0.983533 0.984447 0.984686 0.984507 0.984909 0.986261 0.985792 0.985006 0.984115 0.983341 0.983232 0.984075 0.982527 0.982592 0.983225 0.983834 0.983735 0.984096 0.984447 0.984494 0.984883 0.985617 0.981339 0.980688 0.979336 0.978295 0.978260 0.977925 0.977496 0.976029 0.975823 0.974930 0.975106 0.974952 0.974652 0.972889 0.973521 0.973401 0.969938 0.968863 0.967434 0.965794 0.952612 0.940565 0.935625 0.935624 0.934811 0.936266 0.927115 0.926593 0.920432 0.918763 0.919709 0.922401 0.922832 0.910841 0.890830 0.883209 0.877961 0.880632 0.882922 0.879834 0.871926 0.867840 0.866421 0.872876 0.876893 0.881520 0.879780 0.874168 0.869799 0.865537 0.861319 0.861469 0.857966 0.859863 0.857708 0.841026 0.850657 0.851873 0.861619 0.868008 0.864964 0.840855 0.802247 0.799521 0.800877 0.802534 0.800059 0.804495 0.809342 0.817036 0.814370 0.819084 0.826109 0.810572 0.816141 0.821287 0.821373 0.803023 0.780265 0.775430 0.774320 0.764878 0.751134 0.746709 0.748650 0.746381 0.747047 0.741757 0.738202 0.721126 0.716547 0.678764 0.682855 0.677332 0.664558 0.671148 0.671584 0.664881 0.648267 0.644916 0.633122 0.630540 0.624188 0.628479 0.620591 0.625950 0.636603 0.628066 0.615710 0.599078 0.597288 0.589360 0.538878 0.544291 0.573245 0.611527 0.605567 0.593607 0.615379 0.609863 0.593813 0.581839 0.565509 0.555535 0.566965 0.569961 0.539735 0.543549 0.527769 0.541635 0.533831 0.499553 0.524274 0.498522 0.483473 0.490189 0.510681 0.521949 0.491645 0.458285 0.462477 0.464386 0.489395 0.509087 0.496808 0.518333 0.516744 0.503413 0.466143 0.468403 0.488513 0.487829 0.488006 0.475071 0.475731 0.444961 0.405153 0.406803 0.372582 0.361414 0.359164 0.344654 0.315064 0.303098 0.295043 0.325610 0.318135 0.343172 0.301067 0.316985 0.275327 0.273630 0.225565 0.244961 0.237338 0.242667 0.241642 0.235084 0.242274 0.239737 0.272418 0.269029 0.257346 0.240483 0.206875 0.230428 0.203554 0.175411 0.180566 0.173088 0.178714 0.109737 0.114705 0.098964 0.129507 0.144318 0.134176 0.091535 0.084587 0.064865 0.048181 0.051578 0.026615 -0.027346 -0.042540 -0.028730 0.007416 0.072574 0.072574 0.072574 0.072574 0.072574 0.072574 0.072574 0.072574 0.075368 0.075368 0.075368 0.075368 0.075368 0.075368 0.075368 0.075368 0.075368 0.075368 0.075368 0.075368 0.075368 0.075368 0.075368 0.075368 0.075368 0.075368 0.075368
0.000000 0.000000 0.000000 0.000000 0.000000 0.000000 0.000000 0.000000 0.000000 0.000000 0.000000 0.000000 0.000000 0.000000 0.000000 0.000000 0.000000 0.000000 0.000000 0.000000 0.000000 0.000000 0.000000 0.000000 0.000000 0.000000 0.000000 0.000000 0.000000 0.000000 0.000000 0.000000 0.000000 0.000000 0.000000 0.000000 0.000000 0.000000 0.000000 0.000000 0.000000 0.000000 0.000000 0.000000 0.000000 0.000000 0.000000 0.000000 0.000000 0.000000 0.000000 0.000000 0.207390 0.207390 0.207390 0.207390 0.207390 0.207390 0.207390 0.207390 0.207390 0.207390 0.207390 0.207390 0.207390 0.207390 0.207390 0.207390 0.207390 0.207390 0.207390 0.207390 0.207390 0.207390 0.207390 0.207390 0.207390 0.207390 0.207390 0.207390 0.207390 0.207390 0.207390 0.207390 0.207390 0.207390 0.207390 0.244339 0.244339 0.244339 0.244339 0.244339 0.244339 0.244339 0.244339 0.244339 0.244339 0.244339 0.244339 0.244339 0.244339 0.244339 0.244339 0.244339 0.244339 0.244339 0.244339 0.244339 0.244339 0.244339 0.244339 0.244339 0.256074 0.256074 0.256074 0.256074 0.256074 0.256074 0.256074 0.256074 0.256074 0.256074 0.256074 0.256074 0.256074 0.256074 0.256074 0.256074 0.256074 0.256074 0.256074 0.256074 0.256074 0.269680 0.269680 0.269680 0.269680 0.269680 0.269680 0.269680 0.269680 0.269680 0.269680 0.269680 0.269680 0.269680 0.269680 0.269680 0.269680 0.269680 0.269680 0.269680 0.269680 0.269680 0.269680 0.269680 0.269680 0.269680 0.269680 0.269680 0.269680 0.269680 0.269680 0.269680 0.269680 0.269680 0.269680 0.269680 0.269680 0.269680 0.269680 0.269680 0.269680 0.269680 0.269680 0.269680 0.269680 0.269680 0.269680 0.269680 0.269680 0.280056 0.280056 0.280056 0.280056 0.280056 0.280056 0.280056 0.280056 0.280056 0.280056 0.280056 0.280056 0.280056 0.274721 0.274721 0.274721 0.274721 0.274721 0.274721 0.274721 0.274721 0.274721 0.274721 0.274721 0.274721 0.274721 0.274721 0.274721 0.274721 0.274721 0.274721 0.274721 0.274721 0.274721 0.274721 0.274721 0.274721 0.274721 0.280056 0.280056 0.280056 0.280056 0.280056 0.280056 0.280056 0.280056 0.280056 0.280056 0.280056 0.285714 0.285714 0.285714 0.285714 0.285714 0.285714 0.285714 0.285714 0.285714 0.285714 0.269680 0.269680 0.269680 0.269680 0.269680 0.269680 0.269680 0.269680 0.269680 0.269680 0.269680 0.285714 0.285714 0.285714 0.285714 0.285714 0.285714 0.285714 0.285714 0.285714 0.269680 0.269680 0.269680 0.269680 0.269680 0.269680 0.269680 0.269680 0.269680 0.269680 0.274721 0.274721 0.274721 0.274721 0.274721 0.274721 0.274721 0.274721 0.274721 0.269680 0.269680 0.269680 0.269680 0.269680 0.269680 0.269680 0.269680 0.269680 0.264906 0.264906 0.264906 0.264906 0.264906 0.264906 0.264906 0.264906 0.264906 0.274721 0.274721 0.274721 0.274721 0.274721 0.274721 0.274721 0.274721 0.269680 0.269680 0.269680 0.269680 0.269680 0.269680 0.269680 0.269680 0.269680 0.269680 0.269680 0.269680 0.269680 0.269680 0.269680 0.269680 0.264906 0.264906 0.264906 0.264906 0.264906 0.264906 0.264906 0.264906 0.274721 0.274721 0.274721 0.274721 0.274721 0.274721 0.274721 0.256074 0.256074 0.256074 0.256074 0.256074 0.256074 0.256074 0.256074 0.264906 0.264906 0.264906 0.264906 0.264906 0.264906 0.264906 0.264906 0.264906 0.264906 0.264906 0.264906 0.264906 0.264906 0.264906 0.264906 0.264906 0.264906 0.264906
