# Output from CTFFind version 4.1.9, run on 2019-11-02 12:25:40
# Input file: stack6_ub_averaged_50.mrc ; Number of micrographs: 1
# Pixel size: 3.000 Angstroms ; acceleration voltage: 300.0 keV ; spherical aberration: 0.00 mm ; amplitude contrast: 0.07
# Box size: 512 pixels ; min. res.: 30.0 Angstroms ; max. res.: 5.0 Angstroms ; min. def.: 5000.0 um; max. def. 50000.0 um; num. frames averaged: 1
# 6 lines per micrograph: #1 - spatial frequency (1/Angstroms); #2 - 1D rotational average of spectrum (assuming no astigmatism); #3 - 1D rotational average of spectrum; #4 - CTF fit; #5 - cross-correlation between spectrum and CTF fit; #6 - 2sigma of expected cross correlation of noise
0.000000 0.000651 0.001302 0.001953 0.002604 0.003255 0.003906 0.004557 0.005208 0.005859 0.006510 0.007161 0.007812 0.008464 0.009115 0.009766 0.010417 0.011068 0.011719 0.012370 0.013021 0.013672 0.014323 0.014974 0.015625 0.016276 0.016927 0.017578 0.018229 0.018880 0.019531 0.020182 0.020833 0.021484 0.022135 0.022786 0.023438 0.024089 0.024740 0.025391 0.026042 0.026693 0.027344 0.027995 0.028646 0.029297 0.029948 0.030599 0.031250 0.031901 0.032552 0.033203 0.033854 0.034505 0.035156 0.035807 0.036458 0.037109 0.037760 0.038411 0.039062 0.039714 0.040365 0.041016 0.041667 0.042318 0.042969 0.043620 0.044271 0.044922 0.045573 0.046224 0.046875 0.047526 0.048177 0.048828 0.049479 0.050130 0.050781 0.051432 0.052083 0.052734 0.053385 0.054036 0.054688 0.055339 0.055990 0.056641 0.057292 0.057943 0.058594 0.059245 0.059896 0.060547 0.061198 0.061849 0.062500 0.063151 0.063802 0.064453 0.065104 0.065755 0.066406 0.067057 0.067708 0.068359 0.069010 0.069661 0.070312 0.070964 0.071615 0.072266 0.072917 0.073568 0.074219 0.074870 0.075521 0.076172 0.076823 0.077474 0.078125 0.078776 0.079427 0.080078 0.080729 0.081380 0.082031 0.082682 0.083333 0.083984 0.084635 0.085286 0.085938 0.086589 0.087240 0.087891 0.088542 0.089193 0.089844 0.090495 0.091146 0.091797 0.092448 0.093099 0.093750 0.094401 0.095052 0.095703 0.096354 0.097005 0.097656 0.098307 0.098958 0.099609 0.100260 0.100911 0.101562 0.102214 0.102865 0.103516 0.104167 0.104818 0.105469 0.106120 0.106771 0.107422 0.108073 0.108724 0.109375 0.110026 0.110677 0.111328 0.111979 0.112630 0.113281 0.113932 0.114583 0.115234 0.115885 0.116536 0.117188 0.117839 0.118490 0.119141 0.119792 0.120443 0.121094 0.121745 0.122396 0.123047 0.123698 0.124349 0.125000 0.125651 0.126302 0.126953 0.127604 0.128255 0.128906 0.129557 0.130208 0.130859 0.131510 0.132161 0.132812 0.133464 0.134115 0.134766 0.135417 0.136068 0.136719 0.137370 0.138021 0.138672 0.139323 0.139974 0.140625 0.141276 0.141927 0.142578 0.143229 0.143880 0.144531 0.145182 0.145833 0.146484 0.147135 0.147786 0.148438 0.149089 0.149740 0.150391 0.151042 0.151693 0.152344 0.152995 0.153646 0.154297 0.154948 0.155599 0.156250 0.156901 0.157552 0.158203 0.158854 0.159505 0.160156 0.160807 0.161458 0.162109 0.162760 0.163411 0.164062 0.164714 0.165365 0.166016 0.166667 0.167318 0.167969 0.168620 0.169271 0.169922 0.170573 0.171224 0.171875 0.172526 0.173177 0.173828 0.174479 0.175130 0.175781 0.176432 0.177083 0.177734 0.178385 0.179036 0.179688 0.180339 0.180990 0.181641 0.182292 0.182943 0.183594 0.184245 0.184896 0.185547 0.186198 0.186849 0.187500 0.188151 0.188802 0.189453 0.190104 0.190755 0.191406 0.192057 0.192708 0.193359 0.194010 0.194661 0.195312 0.195964 0.196615 0.197266 0.197917 0.198568 0.199219 0.199870 0.200521 0.201172 0.201823 0.202474 0.203125 0.203776 0.204427 0.205078 0.205729 0.206380 0.207031 0.207682 0.208333 0.208984 0.209635 0.210286 0.210938 0.211589 0.212240 0.212891 0.213542 0.214193 0.214844 0.215495 0.216146 0.216797 0.217448 0.218099 0.218750 0.219401 0.220052 0.220703 0.221354 0.222005 0.222656 0.223307 0.223958 0.224609 0.225260 0.225911 0.226562 0.227214 0.227865 0.228516 0.229167 0.229818 0.230469 0.231120 0.231771 0.232422 0.233073 0.233724 0.234375 0.235026 0.235677
       0.31290        0.31290        0.31290        0.31290        0.31290        0.31290        0.31290        0.31290        0.31290        0.31290        0.31290        0.31290        0.31290        0.31290        0.31290        0.31290        0.31290        0.31290        0.31290        0.31290        0.31290        0.31290        0.31290        0.31290        0.31290        0.31290        0.31290        0.31290        0.31290        0.31290        0.31290        0.31290        0.31290        0.31290        0.31290        0.31290        0.31290        0.31290        0.31290        0.31290        0.31290        0.31290        0.31290        0.31290        0.31290        0.31290        0.31290        0.31290        0.31290        0.31290        0.31290        0.63153        0.82231        0.41951        0.31457        0.18407       -0.10318        0.10933       -0.00493        0.03281        0.12127        0.33642        0.42122        0.40932        0.22875       -0.01462        0.04928        0.06859       -0.17107       -0.18193       -0.08866       -0.10193       -0.29485       -0.19779       -0.29701       -0.24965       -0.28717       -0.40651       -0.47380       -0.48725       -0.43619       -0.34014       -0.44215       -0.36806       -0.40817       -0.35419       -0.28097       -0.20728       -0.19268       -0.14257       -0.09836        0.03918        0.07528        0.25184        0.27201        0.35739        0.40566        0.53425        0.60279        0.61691        0.74750        0.70597        0.74715        0.65791        0.66396        0.69195        0.63441        0.61506        0.60618        0.42800        0.40772        0.35610        0.30849        0.22337        0.12905        0.05934        0.06040        0.00193       -0.08040       -0.02872       -0.02926       -0.07111        0.06794        0.16325        0.25022        0.32351        0.33915        0.42990        0.55131        0.60615        0.55469        0.67012        0.57909        0.55492        0.59595        0.66002        0.53929        0.44969        0.41606        0.37592        0.24401        0.21776        0.12833        0.11817        0.05398        0.04507        0.10513        0.17726        0.14124        0.17998        0.22067        0.24419        0.32848        0.46837        0.49853        0.50363        0.50618        0.57980        0.56675        0.52327        0.43890        0.39403        0.36564        0.27660        0.25133        0.20288        0.20045        0.19490        0.17258        0.16716        0.13752        0.20073        0.25350        0.33610        0.38812        0.41334        0.46027        0.54321        0.48371        0.49943        0.42204        0.39515        0.38308        0.36342        0.29484        0.24909        0.18650        0.23339        0.21308        0.18558        0.22505        0.22638        0.23204        0.29942        0.39948        0.40148        0.37928        0.40013        0.46417        0.49410        0.42223        0.34809        0.33057        0.27601        0.27099        0.25462        0.21456        0.28514        0.29576        0.29845        0.31780        0.31726        0.35444        0.37073        0.37725        0.37815        0.35109        0.31570        0.33028        0.32266        0.29974        0.27751        0.27596        0.22086        0.27593        0.27940        0.29608        0.31652        0.34577        0.38349        0.34642        0.31139        0.36625        0.35683        0.26115        0.29408        0.30421        0.24479        0.20510        0.25013        0.27560        0.28009        0.29673        0.31652        0.35048        0.33687        0.36872        0.32430        0.32118        0.31120        0.30609        0.27511        0.25394        0.25841        0.25818        0.28208        0.30786        0.31248        0.30367        0.30147        0.32171        0.26481        0.29675        0.26789        0.25808        0.28024        0.26565        0.26341        0.26212        0.30400        0.29516        0.32930        0.28968        0.26536        0.30763        0.32189        0.33819        0.31948        0.28688        0.25027        0.25982        0.26425        0.26425        0.32106        0.31217        0.33673        0.31395        0.31531        0.23728        0.27442        0.20459        0.22422        0.25051        0.25085        0.26629        0.28514        0.30352        0.30325        0.35917        0.31098        0.25807        0.25044        0.23323        0.27976        0.32388        0.31247        0.27064        0.27254        0.27069        0.33262        0.28728        0.26279        0.26670        0.27009        0.27713        0.24713        0.26589        0.31439        0.29688        0.25087        0.25173        0.28555        0.31253        0.26980        0.26594        0.25270        0.26300        0.29640        0.36162        0.27104        0.27972        0.26828        0.24161        0.22804        0.17579        0.23653        0.23854        0.23588        0.18111        0.21029        0.23060        0.20895        0.23081        0.21131        0.23486        0.24445        0.21714        0.15315        0.18712        0.21204        0.25812        0.10727        0.05220        0.19432        0.15148        0.12844        0.25568        0.16669        0.22735        0.23865        0.03323       -0.44087       -0.94046
2.755312 2.728482 2.701790 2.675235 2.648818 2.622537 2.596394 2.570388 2.544519 2.518787 2.493193 2.467736 2.442416 2.417233 2.392188 2.367279 2.342508 2.317874 2.293378 2.269018 2.244796 2.220711 2.196763 2.172953 2.149279 2.125743 2.102344 2.079083 2.055958 2.032971 2.010121 1.987408 1.964832 1.942394 1.920093 1.897929 1.875902 1.854012 1.832260 1.810645 1.789167 1.767826 1.746623 1.725557 1.704628 1.683836 1.663181 1.642664 1.622284 1.602041 1.581935 1.863909 2.221827 1.655297 1.703754 1.343428 0.913507 1.165860 0.991660 1.044741 1.006617 1.455080 1.480869 1.499361 1.262420 0.913712 0.802043 0.987232 0.685171 0.480956 0.569344 0.667454 0.412403 0.465045 0.324700 0.378469 0.238900 0.143090 -0.028102 -0.002673 -0.000362 0.084231 0.035300 0.073433 -0.040840 0.032820 0.110667 0.211988 0.272365 0.206304 0.307490 0.548372 0.434651 0.717300 0.774048 0.841277 0.903802 1.106822 1.156288 1.162401 1.309334 1.230801 1.356337 1.191534 1.097004 1.285382 1.116008 1.033046 1.114999 0.861816 0.739860 0.675563 0.651395 0.453701 0.387460 0.262669 0.236212 0.100634 0.009092 0.093042 0.042259 -0.052347 0.125699 0.252329 0.320511 0.454180 0.493812 0.554192 0.717059 0.834832 0.675066 0.965415 0.776650 0.697139 0.764297 0.820695 0.730088 0.625483 0.443586 0.516715 0.290231 0.187147 0.155660 0.019368 -0.011495 -0.100464 -0.022435 0.071056 0.075964 -0.026328 0.249514 0.102345 0.235146 0.388000 0.443756 0.552861 0.421699 0.557413 0.633588 0.501431 0.411051 0.360911 0.333516 0.156999 0.160915 0.010234 0.095735 0.027356 -0.000737 -0.017613 -0.090306 0.013606 0.047066 0.109123 0.287605 0.228683 0.360420 0.365182 0.476569 0.378068 0.396282 0.327438 0.229137 0.308832 0.182656 0.154300 0.003449 0.034103 0.080491 -0.030993 0.006092 0.029407 0.062198 0.067544 0.219116 0.318538 0.241617 0.227910 0.382737 0.404634 0.348119 0.236877 0.178156 0.154956 0.093475 0.079661 0.038541 0.021396 0.141501 0.068865 0.179769 0.104540 0.152715 0.234040 0.207982 0.240030 0.203857 0.196633 0.107584 0.162710 0.140390 0.095675 0.102991 0.007792 0.045793 0.099817 0.053956 0.133869 0.127352 0.207107 0.218110 0.156960 0.122895 0.228159 0.092051 0.073431 0.080114 0.061197 0.001275 -0.039165 0.039786 0.072247 0.042147 0.115617 0.119493 0.147298 0.132756 0.185811 0.092624 0.094735 0.105568 0.095616 0.027675 0.020406 0.049299 -0.003541 0.081910 0.115433 0.089452 0.080411 0.082864 0.110912 0.019216 0.103174 0.037967 0.020275 0.092940 0.017376 0.028900 0.044033 0.091679 0.055380 0.128239 0.067882 0.001849 0.120263 0.096357 0.104277 0.094416 0.015813 -0.008537 -0.004098 0.049904 0.002928 0.096184 0.062631 0.129548 0.061082 0.124857 -0.039217 0.022997 -0.080071 0.014799 -0.045745 0.021915 0.021922 0.042962 0.086783 0.070632 0.129528 0.029833 -0.011736 -0.031651 -0.058357 0.057968 0.089362 0.059446 0.003244 -0.004504 0.006639 0.079893 -0.011493 -0.041735 -0.017346 -0.030461 -0.000062 -0.048059 -0.019031 0.042312 0.006947 -0.040752 -0.002595 0.041072 0.001628 0.009532 -0.014831 -0.035816 0.040825 0.069533 0.141035 0.006745 0.028730 0.042357 0.018401 -0.039931 -0.060888 0.039363 0.035364 0.033431 -0.046107 -0.008198 0.075756 -0.037088 0.122182 0.016544 0.127870 0.057569 0.103573 -0.094936 0.062960 0.015429 0.207014 -0.025373 0.002522 0.266395 0.196806 0.176065 0.464170 0.178750 0.298124 0.372845 0.047898 -1.285483
0.072396 0.072835 0.074150 0.076343 0.079412 0.083357 0.088176 0.093870 0.100435 0.107870 0.116173 0.125341 0.135369 0.146254 0.157989 0.170569 0.183986 0.198230 0.213293 0.229161 0.245821 0.263257 0.281452 0.300385 0.320034 0.340373 0.361375 0.383007 0.405236 0.428022 0.451325 0.475098 0.499291 0.523851 0.548718 0.573829 0.599117 0.624507 0.649923 0.675281 0.700492 0.725464 0.750097 0.774288 0.797927 0.820901 0.843091 0.864374 0.884622 0.903703 0.921481 0.937819 0.952575 0.965606 0.976768 0.985914 0.992901 0.997583 0.999820 0.999472 0.996405 0.990488 0.981600 0.969626 0.954461 0.936010 0.914192 0.888937 0.860195 0.827928 0.792121 0.752776 0.709918 0.663596 0.613883 0.560877 0.504705 0.445520 0.383508 0.318881 0.251883 0.182789 0.111906 0.039569 0.033855 0.107971 0.182356 0.256561 0.330111 0.402513 0.473252 0.541799 0.607615 0.670150 0.728854 0.783180 0.832585 0.876544 0.914548 0.946115 0.970798 0.988186 0.997914 0.999673 0.993211 0.978343 0.954954 0.923011 0.882563 0.833745 0.776786 0.712011 0.639840 0.560793 0.475485 0.384632 0.289039 0.189602 0.087301 0.016812 0.121615 0.225933 0.328546 0.428206 0.523650 0.613616 0.696862 0.772186 0.838440 0.894555 0.939557 0.972588 0.992925 0.999997 0.993403 0.972925 0.938545 0.890451 0.829046 0.754953 0.669019 0.572305 0.466084 0.351830 0.231202 0.106021 0.021750 0.150035 0.276677 0.399477 0.516224 0.624746 0.722945 0.808844 0.880631 0.936699 0.975690 0.996532 0.998475 0.981119 0.944438 0.888798 0.814966 0.724112 0.617800 0.497972 0.366920 0.227251 0.081840 0.066222 0.213690 0.357240 0.493537 0.619316 0.731467 0.827112 0.903688 0.959026 0.991414 0.999666 0.983167 0.941920 0.876560 0.788368 0.679262 0.551769 0.408974 0.254467 0.092252 0.073342 0.237780 0.396436 0.544726 0.678245 0.792905 0.885064 0.951655 0.990301 0.999411 0.978258 0.927033 0.846873 0.739851 0.608957 0.458014 0.291596 0.114896 0.066424 0.246411 0.419015 0.578282 0.718584 0.834809 0.922569 0.978378 0.999807 0.985607 0.935795 0.851694 0.735924 0.592350 0.425972 0.242769 0.049503 0.146523 0.337734 0.516572 0.675806 0.808825 0.909934 0.974611 0.999734 0.983750 0.926792 0.830724 0.699114 0.537127 0.351355 0.149565 0.059606 0.267010 0.463389 0.639789 0.787974 0.900830 0.972730 0.999835 0.980332 0.914574 0.805127 0.656708 0.476019 0.271469 0.052813 0.169305 0.383853 0.579966 0.747497 0.877568 0.963055 0.999013 0.982994 0.915243 0.798762 0.639214 0.444700 0.225371 0.007072 0.239982 0.460450 0.656022 0.815418 0.929200 0.990372 0.994836 0.941715 0.833482 0.675903 0.477772 0.250472 0.007337 0.237092 0.467942 0.670904 0.833147 0.944149 0.996416 0.986038 0.913021 0.781387 0.599008 0.377187 0.130002 0.126552 0.375593 0.600446 0.785783 0.918686 0.989593 0.993028 0.928081 0.798578 0.612920 0.383599 0.126414 0.140598 0.398394 0.628281 0.813297 0.939489 0.997002 0.980921 0.891740 0.735442 0.523185 0.270558 0.003520 0.278175 0.532156 0.745495 0.901094 0.986151 0.993262 0.921138 0.774843 0.565513 0.309597 0.027596 0.257514 0.522153 0.744096 0.904356 0.988866 0.989782 0.906277 0.744770 0.518507 0.246571 0.047682 0.338594 0.600419 0.809621 0.947033 0.999670 0.962036 0.836774 0.634596 0.373454 0.077016 0.227419 0.511408 0.748037 0.914495 0.994334 0.979181 0.869699 0.675702 0.415383 0.113683 0.200023 0.494774 0.741060 0.913823
1.000000 1.000000 1.000000 1.000000 1.000000 1.000000 1.000000 1.000000 1.000000 1.000000 1.000000 1.000000 1.000000 1.000000 1.000000 1.000000 1.000000 1.000000 1.000000 1.000000 1.000000 1.000000 1.000000 1.000000 1.000000 1.000000 1.000000 1.000000 1.000000 1.000000 1.000000 1.000000 1.000000 1.000000 1.000000 1.000000 1.000000 1.000000 1.000000 1.000000 1.000000 1.000000 1.000000 1.000000 1.000000 1.000000 1.000000 1.000000 1.000000 1.000000 1.000000 1.000000 0.832548 0.832548 0.832548 0.832548 0.832548 0.832548 0.832548 0.815553 0.815553 0.815553 0.815553 0.815553 0.815553 0.815553 0.815553 0.815553 0.815553 0.815553 0.815553 0.815553 0.815553 0.815553 0.815553 0.815553 0.815553 0.815553 0.815553 0.815553 0.815553 0.815553 0.815553 0.815553 0.815553 0.815553 0.815553 0.815553 0.815553 0.815553 0.815553 0.815553 0.815553 0.815553 0.815553 0.815553 0.815553 0.815553 0.815553 0.815553 0.815553 0.815553 0.815553 0.952271 0.953062 0.950419 0.949470 0.948005 0.944398 0.940346 0.939821 0.941102 0.941339 0.941809 0.943922 0.944510 0.946117 0.947312 0.948122 0.949601 0.957657 0.961318 0.960905 0.961217 0.952425 0.959202 0.958103 0.955608 0.956242 0.956452 0.957094 0.957011 0.956878 0.956507 0.955004 0.955622 0.955417 0.954690 0.953691 0.951615 0.951513 0.951116 0.951271 0.952223 0.952761 0.953533 0.954057 0.953332 0.953483 0.953487 0.953396 0.949084 0.949062 0.941610 0.941849 0.942704 0.942211 0.941217 0.939704 0.939784 0.939723 0.939727 0.939658 0.940049 0.924186 0.923868 0.924113 0.923487 0.915848 0.906118 0.900266 0.895728 0.897157 0.901522 0.906007 0.906335 0.903343 0.902061 0.886666 0.883294 0.870343 0.866662 0.854760 0.864685 0.865730 0.866571 0.856825 0.856567 0.854758 0.853326 0.846849 0.851482 0.851732 0.847958 0.843032 0.841877 0.839965 0.844377 0.852671 0.854254 0.850624 0.852639 0.839361 0.831964 0.830907 0.831995 0.838402 0.850014 0.850053 0.848981 0.843316 0.839935 0.834968 0.832995 0.830949 0.832139 0.831959 0.834602 0.827598 0.838850 0.829008 0.821791 0.826535 0.833668 0.835545 0.835268 0.837494 0.835524 0.838168 0.824090 0.815880 0.817283 0.765106 0.768261 0.761428 0.758517 0.724455 0.726586 0.719506 0.721761 0.716453 0.710581 0.721263 0.721415 0.670486 0.678430 0.671893 0.655329 0.629850 0.642698 0.659745 0.669993 0.668176 0.662041 0.649135 0.642294 0.654571 0.654272 0.659144 0.646036 0.641248 0.627537 0.633199 0.613428 0.622452 0.619292 0.619424 0.621397 0.619359 0.601918 0.610677 0.606223 0.596935 0.592524 0.569892 0.522666 0.505390 0.497228 0.472689 0.463456 0.480731 0.468249 0.449804 0.436010 0.422027 0.416176 0.431310 0.429901 0.437645 0.436756 0.435030 0.391906 0.408032 0.404155 0.395052 0.384000 0.407896 0.396964 0.369225 0.338004 0.313559 0.330343 0.341405 0.335409 0.312635 0.302896 0.312627 0.265539 0.268659 0.268450 0.289825 0.244267 0.190778 0.216675 0.221703 0.222367 0.215803 0.170696 0.197447 0.166863 0.177452 0.185482 0.134470 0.102718 0.092854 0.069130 0.075309 0.100267 0.109638 0.096554 0.076582 -0.024413 0.011061 0.038940 0.038940 0.038940 0.038940 0.038940 0.038940 0.038940 0.038940 0.038940 0.038940 0.038940 -0.028844 -0.028844 -0.028844 -0.028844 -0.028844 -0.028844 -0.028844 -0.028844 -0.028844 -0.028844 -0.028844 -0.028844 -0.028844 -0.028844 -0.028844 -0.028844 -0.028844 -0.028844 -0.028844
0.000000 0.000000 0.000000 0.000000 0.000000 0.000000 0.000000 0.000000 0.000000 0.000000 0.000000 0.000000 0.000000 0.000000 0.000000 0.000000 0.000000 0.000000 0.000000 0.000000 0.000000 0.000000 0.000000 0.000000 0.000000 0.000000 0.000000 0.000000 0.000000 0.000000 0.000000 0.000000 0.000000 0.000000 0.000000 0.000000 0.000000 0.000000 0.000000 0.000000 0.000000 0.000000 0.000000 0.000000 0.000000 0.000000 0.000000 0.000000 0.000000 0.000000 0.000000 0.000000 0.173422 0.173422 0.173422 0.173422 0.173422 0.173422 0.173422 0.191565 0.191565 0.191565 0.191565 0.191565 0.191565 0.191565 0.191565 0.191565 0.191565 0.191565 0.191565 0.191565 0.191565 0.191565 0.191565 0.191565 0.191565 0.191565 0.191565 0.191565 0.191565 0.191565 0.191565 0.191565 0.191565 0.191565 0.191565 0.191565 0.191565 0.191565 0.191565 0.191565 0.191565 0.191565 0.191565 0.191565 0.191565 0.191565 0.191565 0.191565 0.191565 0.191565 0.191565 0.219529 0.219529 0.219529 0.219529 0.219529 0.219529 0.219529 0.219529 0.219529 0.219529 0.219529 0.219529 0.219529 0.219529 0.219529 0.219529 0.219529 0.219529 0.219529 0.219529 0.219529 0.219529 0.219529 0.219529 0.219529 0.219529 0.219529 0.219529 0.219529 0.219529 0.219529 0.237356 0.237356 0.237356 0.237356 0.237356 0.237356 0.237356 0.237356 0.237356 0.237356 0.237356 0.237356 0.237356 0.237356 0.237356 0.237356 0.237356 0.237356 0.237356 0.237356 0.237356 0.237356 0.237356 0.237356 0.244339 0.244339 0.244339 0.244339 0.244339 0.244339 0.244339 0.244339 0.244339 0.244339 0.244339 0.244339 0.244339 0.244339 0.244339 0.244339 0.244339 0.244339 0.244339 0.244339 0.244339 0.248069 0.248069 0.248069 0.248069 0.248069 0.248069 0.248069 0.248069 0.248069 0.248069 0.248069 0.248069 0.248069 0.248069 0.248069 0.248069 0.248069 0.248069 0.248069 0.248069 0.248069 0.248069 0.248069 0.248069 0.248069 0.248069 0.248069 0.248069 0.248069 0.248069 0.248069 0.248069 0.248069 0.248069 0.248069 0.248069 0.248069 0.256074 0.256074 0.256074 0.256074 0.256074 0.256074 0.256074 0.256074 0.256074 0.256074 0.256074 0.256074 0.256074 0.256074 0.256074 0.256074 0.256074 0.256074 0.256074 0.256074 0.256074 0.256074 0.256074 0.256074 0.256074 0.256074 0.256074 0.256074 0.256074 0.256074 0.256074 0.256074 0.256074 0.256074 0.256074 0.256074 0.256074 0.256074 0.256074 0.256074 0.256074 0.256074 0.256074 0.256074 0.256074 0.260378 0.260378 0.260378 0.260378 0.260378 0.260378 0.260378 0.260378 0.260378 0.260378 0.260378 0.260378 0.260378 0.256074 0.256074 0.256074 0.256074 0.256074 0.256074 0.256074 0.256074 0.256074 0.256074 0.256074 0.256074 0.256074 0.260378 0.260378 0.260378 0.260378 0.260378 0.260378 0.260378 0.260378 0.260378 0.260378 0.260378 0.260378 0.251976 0.251976 0.251976 0.251976 0.251976 0.251976 0.251976 0.251976 0.251976 0.251976 0.251976 0.251976 0.256074 0.256074 0.256074 0.256074 0.256074 0.256074 0.256074 0.256074 0.256074 0.256074 0.256074 0.251976 0.251976 0.251976 0.251976 0.251976 0.251976 0.251976 0.251976 0.251976 0.251976 0.251976 0.248069 0.248069 0.248069 0.248069 0.248069 0.248069 0.248069 0.248069 0.248069 0.248069 0.248069 0.256074 0.256074 0.256074 0.256074 0.256074 0.256074 0.256074 0.256074 0.256074 0.256074 0.256074 0.256074 0.256074 0.256074 0.256074 0.256074 0.256074 0.256074 0.256074
