# Output from CTFFind version 4.1.9, run on 2019-11-02 12:27:36
# Input file: stack16_ub_averaged_3000.mrc ; Number of micrographs: 1
# Pixel size: 3.000 Angstroms ; acceleration voltage: 300.0 keV ; spherical aberration: 0.00 mm ; amplitude contrast: 0.07
# Box size: 512 pixels ; min. res.: 30.0 Angstroms ; max. res.: 5.0 Angstroms ; min. def.: 5000.0 um; max. def. 50000.0 um; num. frames averaged: 1
# 6 lines per micrograph: #1 - spatial frequency (1/Angstroms); #2 - 1D rotational average of spectrum (assuming no astigmatism); #3 - 1D rotational average of spectrum; #4 - CTF fit; #5 - cross-correlation between spectrum and CTF fit; #6 - 2sigma of expected cross correlation of noise
0.000000 0.000651 0.001302 0.001953 0.002604 0.003255 0.003906 0.004557 0.005208 0.005859 0.006510 0.007161 0.007812 0.008464 0.009115 0.009766 0.010417 0.011068 0.011719 0.012370 0.013021 0.013672 0.014323 0.014974 0.015625 0.016276 0.016927 0.017578 0.018229 0.018880 0.019531 0.020182 0.020833 0.021484 0.022135 0.022786 0.023438 0.024089 0.024740 0.025391 0.026042 0.026693 0.027344 0.027995 0.028646 0.029297 0.029948 0.030599 0.031250 0.031901 0.032552 0.033203 0.033854 0.034505 0.035156 0.035807 0.036458 0.037109 0.037760 0.038411 0.039062 0.039714 0.040365 0.041016 0.041667 0.042318 0.042969 0.043620 0.044271 0.044922 0.045573 0.046224 0.046875 0.047526 0.048177 0.048828 0.049479 0.050130 0.050781 0.051432 0.052083 0.052734 0.053385 0.054036 0.054688 0.055339 0.055990 0.056641 0.057292 0.057943 0.058594 0.059245 0.059896 0.060547 0.061198 0.061849 0.062500 0.063151 0.063802 0.064453 0.065104 0.065755 0.066406 0.067057 0.067708 0.068359 0.069010 0.069661 0.070312 0.070964 0.071615 0.072266 0.072917 0.073568 0.074219 0.074870 0.075521 0.076172 0.076823 0.077474 0.078125 0.078776 0.079427 0.080078 0.080729 0.081380 0.082031 0.082682 0.083333 0.083984 0.084635 0.085286 0.085938 0.086589 0.087240 0.087891 0.088542 0.089193 0.089844 0.090495 0.091146 0.091797 0.092448 0.093099 0.093750 0.094401 0.095052 0.095703 0.096354 0.097005 0.097656 0.098307 0.098958 0.099609 0.100260 0.100911 0.101562 0.102214 0.102865 0.103516 0.104167 0.104818 0.105469 0.106120 0.106771 0.107422 0.108073 0.108724 0.109375 0.110026 0.110677 0.111328 0.111979 0.112630 0.113281 0.113932 0.114583 0.115234 0.115885 0.116536 0.117188 0.117839 0.118490 0.119141 0.119792 0.120443 0.121094 0.121745 0.122396 0.123047 0.123698 0.124349 0.125000 0.125651 0.126302 0.126953 0.127604 0.128255 0.128906 0.129557 0.130208 0.130859 0.131510 0.132161 0.132812 0.133464 0.134115 0.134766 0.135417 0.136068 0.136719 0.137370 0.138021 0.138672 0.139323 0.139974 0.140625 0.141276 0.141927 0.142578 0.143229 0.143880 0.144531 0.145182 0.145833 0.146484 0.147135 0.147786 0.148438 0.149089 0.149740 0.150391 0.151042 0.151693 0.152344 0.152995 0.153646 0.154297 0.154948 0.155599 0.156250 0.156901 0.157552 0.158203 0.158854 0.159505 0.160156 0.160807 0.161458 0.162109 0.162760 0.163411 0.164062 0.164714 0.165365 0.166016 0.166667 0.167318 0.167969 0.168620 0.169271 0.169922 0.170573 0.171224 0.171875 0.172526 0.173177 0.173828 0.174479 0.175130 0.175781 0.176432 0.177083 0.177734 0.178385 0.179036 0.179688 0.180339 0.180990 0.181641 0.182292 0.182943 0.183594 0.184245 0.184896 0.185547 0.186198 0.186849 0.187500 0.188151 0.188802 0.189453 0.190104 0.190755 0.191406 0.192057 0.192708 0.193359 0.194010 0.194661 0.195312 0.195964 0.196615 0.197266 0.197917 0.198568 0.199219 0.199870 0.200521 0.201172 0.201823 0.202474 0.203125 0.203776 0.204427 0.205078 0.205729 0.206380 0.207031 0.207682 0.208333 0.208984 0.209635 0.210286 0.210938 0.211589 0.212240 0.212891 0.213542 0.214193 0.214844 0.215495 0.216146 0.216797 0.217448 0.218099 0.218750 0.219401 0.220052 0.220703 0.221354 0.222005 0.222656 0.223307 0.223958 0.224609 0.225260 0.225911 0.226562 0.227214 0.227865 0.228516 0.229167 0.229818 0.230469 0.231120 0.231771 0.232422 0.233073 0.233724 0.234375 0.235026 0.235677
       0.34356        0.34356        0.34356        0.34356        0.34356        0.34356        0.34356        0.34356        0.34356        0.34356        0.34356        0.34356        0.34356        0.34356        0.34356        0.34356        0.34356        0.34356        0.34356        0.34356        0.34356        0.34356        0.34356        0.34356        0.34356        0.34356        0.34356        0.34356        0.34356        0.34356        0.34356        0.34356        0.34356        0.34356        0.34356        0.34356        0.34356        0.34356        0.34356        0.34356        0.34356        0.34356        0.34356        0.34356        0.34356        0.34356        0.34356        0.34356        0.34356        0.34356        0.34356        0.48950        0.70535        0.45629       -0.10890       -0.41461       -0.57070       -0.66011       -0.74632       -0.76218       -0.86887       -0.91338       -0.76140       -0.92480       -0.87166       -1.02428       -1.09406       -0.98879       -0.96021       -0.88353       -0.86493       -0.75173       -0.64103       -0.49953       -0.42248       -0.21791       -0.11945       -0.02381        0.20384        0.24399        0.30890        0.38679        0.44079        0.51732        0.58183        0.59632        0.59484        0.50314        0.54628        0.48609        0.38978        0.32397        0.20830        0.17498        0.10321       -0.06386       -0.11313       -0.09314        0.00848       -0.01680        0.00776        0.03028        0.21224        0.22025        0.39041        0.45846        0.56393        0.70327        0.76173        0.72673        0.70924        0.70786        0.58774        0.54452        0.40044        0.27332        0.19315        0.14269        0.06565        0.02019        0.02417        0.06183        0.07985        0.27337        0.41768        0.50345        0.58632        0.64033        0.70800        0.66206        0.65104        0.67326        0.61188        0.47919        0.28380        0.23159        0.20531        0.13167        0.04994        0.09431        0.12411        0.24956        0.33902        0.41538        0.50193        0.54170        0.66591        0.61068        0.55599        0.50647        0.36743        0.21122        0.21203        0.15255        0.11171        0.11917        0.21362        0.25569        0.36345        0.44448        0.44071        0.56976        0.51382        0.44433        0.45131        0.38667        0.32427        0.27790        0.22121        0.23855        0.20976        0.21442        0.32751        0.44827        0.48891        0.47946        0.55170        0.49592        0.45729        0.39582        0.29090        0.22374        0.23254        0.24757        0.26796        0.27009        0.32484        0.44187        0.49673        0.48753        0.45854        0.41959        0.38536        0.36267        0.24944        0.23239        0.24861        0.29595        0.35371        0.36492        0.39624        0.40816        0.44639        0.37106        0.34792        0.31252        0.30176        0.26566        0.26143        0.31470        0.34663        0.41677        0.41713        0.39982        0.39515        0.40870        0.35188        0.28926        0.29035        0.27319        0.30954        0.36111        0.36454        0.41545        0.36205        0.36589        0.38981        0.34493        0.31411        0.27915        0.29836        0.34102        0.33531        0.32806        0.37782        0.39701        0.33833        0.35386        0.29373        0.30881        0.29250        0.28174        0.30078        0.33040        0.38267        0.36768        0.34893        0.33081        0.28759        0.27776        0.29731        0.28173        0.31367        0.37038        0.39430        0.33872        0.31833        0.31353        0.29687        0.28171        0.27937        0.29893        0.34251        0.33685        0.34742        0.31860        0.34251        0.32572        0.29034        0.31418        0.32014        0.32799        0.33193        0.31691        0.31770        0.30990        0.32954        0.31577        0.33421        0.39194        0.34164        0.35993        0.32429        0.31706        0.28873        0.31228        0.28920        0.31097        0.31849        0.35360        0.36566        0.32020        0.32083        0.31139        0.29385        0.29405        0.28979        0.33844        0.33952        0.35993        0.33945        0.32945        0.25707        0.27020        0.31289        0.35370        0.31385        0.30241        0.29221        0.29055        0.32332        0.30504        0.30372        0.33206        0.34554        0.31775        0.24637        0.28719        0.28155        0.28876        0.31878        0.31966        0.34867        0.34165        0.27979        0.26298        0.29009        0.26159        0.28648        0.27437        0.24489        0.26765        0.24126        0.27849        0.27322        0.27563        0.27067        0.31273        0.33002        0.31920        0.30085        0.31893        0.25015        0.27400        0.25369        0.33597        0.33675        0.23849        0.26642        0.27753        0.24845        0.24766        0.29666        0.22658        0.14389        0.16949        0.25814        0.28139        0.23827        0.15551        0.02873       -0.39511       -0.75296
3.059809 3.021822 2.984078 2.946579 2.909323 2.872311 2.835543 2.799019 2.762739 2.726702 2.690909 2.655360 2.620055 2.584994 2.550177 2.515603 2.481273 2.447187 2.413345 2.379747 2.346392 2.313282 2.280415 2.247792 2.215413 2.183277 2.151386 2.119738 2.088334 2.057174 2.026258 1.995585 1.965157 1.934972 1.905031 1.875334 1.845880 1.816671 1.787705 1.758983 1.730505 1.702271 1.674281 1.646534 1.619032 1.591773 1.564758 1.537986 1.511459 1.485175 1.459136 1.514482 1.708652 1.617166 0.971408 0.682699 0.478042 0.434489 0.320402 0.265479 0.200891 0.022309 0.196407 0.080963 -0.005335 -0.059876 -0.195944 -0.150729 -0.090492 -0.091089 -0.100468 0.009986 0.031535 0.235727 0.151224 0.366678 0.447113 0.477398 0.718744 0.702964 0.711640 0.841961 0.826336 0.858824 0.926065 0.895896 0.945456 0.756527 0.839404 0.844068 0.621515 0.610560 0.460139 0.440211 0.390730 0.208128 0.120188 0.100971 0.205517 0.148684 0.191279 0.111876 0.318465 0.290733 0.460051 0.418362 0.583687 0.649225 0.771059 0.691859 0.665519 0.675501 0.539035 0.507984 0.373645 0.294390 0.118215 0.146631 0.001702 -0.014794 -0.037737 -0.027453 0.000165 0.037119 0.274727 0.333580 0.386739 0.397955 0.473238 0.525853 0.468479 0.508029 0.404071 0.389765 0.155987 0.064317 0.071644 0.000695 -0.120955 -0.040925 -0.108072 0.018375 0.134640 0.157720 0.253607 0.259200 0.387704 0.462569 0.358710 0.387299 0.284563 0.129088 0.050234 0.052445 0.010418 0.001748 0.004641 0.107816 0.133919 0.264723 0.237956 0.307981 0.375694 0.234157 0.241188 0.219488 0.134533 0.080538 0.056730 0.026663 0.039095 -0.013435 0.030558 0.186608 0.222801 0.251114 0.279889 0.232168 0.238410 0.150401 0.103496 -0.026075 -0.015316 -0.006670 0.018773 0.005968 0.028383 0.105642 0.183657 0.201143 0.221987 0.139234 0.144957 0.079189 0.054362 -0.055865 -0.010720 -0.009158 0.054597 0.065253 0.081367 0.158135 0.086162 0.164953 0.068786 0.053606 0.041888 0.026953 0.000746 0.012520 0.057567 0.082630 0.136198 0.141562 0.070763 0.133237 0.102048 0.021134 0.006814 0.004235 -0.007533 0.058632 0.061489 0.097859 0.099202 0.071770 0.069053 0.083674 0.032963 0.011611 -0.010930 0.015164 0.061470 0.030014 0.042482 0.083687 0.085600 0.058245 0.033235 0.004693 0.015771 -0.004127 -0.014265 0.015121 0.051429 0.102827 0.060261 0.059545 0.041151 -0.014577 -0.000388 0.013335 0.008498 0.026035 0.105202 0.059649 0.023857 0.043984 0.002846 0.024373 -0.012689 -0.005549 0.022468 0.066137 0.030278 0.047207 0.029418 0.051085 0.028880 -0.004151 0.025494 0.041304 0.034463 0.033092 0.021137 0.007849 -0.005001 0.027109 0.010313 0.041638 0.081641 0.046042 0.025545 0.021754 0.002216 -0.003612 0.009041 0.001047 0.014735 -0.003915 0.085289 0.057828 0.034214 0.037510 0.002533 0.010009 0.011749 -0.005678 0.058968 0.060265 0.087725 0.052085 0.052392 -0.026813 0.018884 0.037039 0.077495 0.030435 0.037972 0.015420 0.009026 0.047308 0.042832 0.035947 0.058771 0.080174 0.064996 -0.018265 0.019514 0.043074 0.028521 0.044321 0.075702 0.079358 0.075275 0.018231 0.001555 0.016273 -0.002217 0.017341 -0.012236 -0.032103 -0.002746 -0.049744 0.004080 -0.007886 0.007951 -0.064955 0.000300 0.022501 0.007152 -0.021723 0.041618 -0.085928 -0.015389 -0.037681 0.038665 0.065643 -0.092870 -0.006678 0.045490 0.022043 -0.043320 0.047543 0.031674 0.004607 -0.042672 0.084994 0.242669 0.215037 0.121498 0.027870 -0.662617
0.072396 0.073046 0.074995 0.078242 0.082788 0.088629 0.095764 0.104190 0.113903 0.124898 0.137169 0.150706 0.165501 0.181539 0.198807 0.217284 0.236951 0.257779 0.279740 0.302797 0.326910 0.352031 0.378108 0.405080 0.432879 0.461428 0.490642 0.520428 0.550682 0.581290 0.612127 0.643058 0.673937 0.704606 0.734896 0.764627 0.793607 0.821632 0.848490 0.873957 0.897800 0.919778 0.939642 0.957138 0.972008 0.983989 0.992820 0.998241 0.999997 0.997839 0.991531 0.980847 0.965580 0.945545 0.920579 0.890551 0.855360 0.814945 0.769284 0.718402 0.662373 0.601325 0.535443 0.464973 0.390221 0.311563 0.229438 0.144354 0.056886 0.032324 0.122569 0.213084 0.303044 0.391575 0.477759 0.560646 0.639257 0.712602 0.779691 0.839546 0.891218 0.933805 0.966465 0.988437 0.999057 0.997779 0.984190 0.958029 0.919200 0.867792 0.804085 0.728566 0.641931 0.545093 0.439177 0.325520 0.205660 0.081322 0.045601 0.173073 0.298942 0.420976 0.536903 0.644451 0.741398 0.825620 0.895143 0.948196 0.983260 0.999124 0.994925 0.970196 0.924899 0.859452 0.774752 0.672176 0.553586 0.421302 0.278080 0.127061 0.028283 0.184224 0.336859 0.482213 0.616338 0.735423 0.835915 0.914638 0.968895 0.996586 0.996298 0.967388 0.910039 0.825309 0.715135 0.582322 0.430499 0.264036 0.087947 0.092254 0.270714 0.441426 0.598431 0.736038 0.849037 0.932915 0.984057 0.999927 0.979216 0.921950 0.829554 0.704861 0.552069 0.376631 0.185094 0.015123 0.216003 0.409236 0.586571 0.740169 0.862974 0.949059 0.993940 0.994846 0.950925 0.863359 0.735406 0.572325 0.381214 0.170737 0.049237 0.268075 0.474888 0.659069 0.810863 0.921907 0.985725 0.998153 0.957657 0.865522 0.725890 0.545647 0.334139 0.102738 0.135735 0.367700 0.579581 0.758624 0.893682 0.975958 0.999631 0.962326 0.865392 0.713955 0.516730 0.285589 0.034904 0.219304 0.460373 0.672095 0.839822 0.951532 0.998746 0.977245 0.887515 0.734881 0.529281 0.284717 0.018367 0.250580 0.502277 0.717692 0.880083 0.976353 0.998185 0.942847 0.813594 0.619603 0.375433 0.100020 0.184722 0.455621 0.690120 0.868189 0.974105 0.997925 0.936522 0.794069 0.581910 0.317763 0.024363 0.272458 0.545981 0.771040 0.926383 0.996755 0.974516 0.860592 0.664632 0.404349 0.104044 0.207586 0.500128 0.744437 0.915577 0.995461 0.974895 0.854764 0.646234 0.369878 0.053787 0.269192 0.564828 0.801139 0.951929 0.999795 0.938293 0.772950 0.520973 0.209635 0.126551 0.449574 0.722206 0.912351 0.996920 0.964803 0.818495 0.574155 0.260034 0.086653 0.424025 0.710569 0.910311 0.997428 0.959774 0.800759 0.539313 0.207853 0.151579 0.492545 0.770203 0.947273 0.999177 0.917665 0.712323 0.409713 0.050151 0.317504 0.642433 0.878898 0.992800 0.966797 0.803173 0.523977 0.168319 0.212927 0.564282 0.833749 0.980593 0.981706 0.835488 0.562586 0.203269 0.188290 0.552066 0.831366 0.981774 0.978422 0.820367 0.531285 0.156238 0.245133 0.607968 0.872669 0.994832 0.952928 0.752404 0.425344 0.025681 0.379521 0.721204 0.940164 0.997468 0.881694 0.611511 0.233024 0.187772 0.576369 0.862894 0.994819 0.946864 0.726177 0.371712 0.052328 0.467847 0.797210 0.977817 0.974258 0.785618 0.446338 0.020346 0.410745 0.763169 0.967318 0.981783 0.802093 0.462356 0.029207 0.410983 0.769195 0.971844 0.976162 0.779618 0.421226 0.025764 0.468538 0.813881 0.987930 0.952258 0.712795 0.319396 0.144085 0.577427
1.000000 1.000000 1.000000 1.000000 1.000000 1.000000 1.000000 1.000000 1.000000 1.000000 1.000000 1.000000 1.000000 1.000000 1.000000 1.000000 1.000000 1.000000 1.000000 1.000000 1.000000 1.000000 1.000000 1.000000 1.000000 1.000000 1.000000 1.000000 1.000000 1.000000 1.000000 1.000000 1.000000 1.000000 1.000000 1.000000 1.000000 1.000000 1.000000 1.000000 1.000000 1.000000 1.000000 1.000000 1.000000 1.000000 1.000000 1.000000 1.000000 1.000000 1.000000 1.000000 0.933007 0.933007 0.933007 0.933007 0.933007 0.933007 0.933007 0.933007 0.933007 0.933007 0.933007 0.933007 0.933007 0.933007 0.933007 0.933007 0.933007 0.933007 0.933007 0.933007 0.933007 0.933007 0.933007 0.933007 0.933007 0.933007 0.933007 0.933007 0.933007 0.933007 0.933007 0.933007 0.933007 0.922335 0.923822 0.926800 0.927874 0.927833 0.927375 0.927058 0.927276 0.928992 0.931314 0.947930 0.950111 0.950683 0.951975 0.952216 0.954733 0.952981 0.952793 0.963348 0.962163 0.962875 0.955923 0.957505 0.956590 0.955661 0.956165 0.956411 0.954478 0.952329 0.950639 0.950000 0.949626 0.951394 0.951871 0.951835 0.953308 0.953273 0.952996 0.949637 0.948212 0.949682 0.951724 0.950870 0.956579 0.956407 0.964444 0.965234 0.963825 0.963729 0.963927 0.964124 0.952724 0.945451 0.939612 0.927965 0.918303 0.916505 0.919505 0.921593 0.920664 0.916346 0.915226 0.912500 0.907038 0.906167 0.906157 0.907802 0.904665 0.901057 0.884759 0.884551 0.886901 0.885880 0.883705 0.875738 0.871233 0.871823 0.874961 0.872380 0.868809 0.884753 0.879681 0.884588 0.887525 0.890907 0.894900 0.891056 0.890651 0.887053 0.883234 0.878362 0.879968 0.868681 0.871457 0.866949 0.858238 0.850781 0.853831 0.863267 0.871115 0.879245 0.878273 0.877937 0.877116 0.871030 0.871372 0.865578 0.866772 0.871827 0.878046 0.873776 0.871068 0.874966 0.873113 0.875467 0.877646 0.873373 0.871726 0.862706 0.862718 0.865660 0.882921 0.882176 0.870504 0.864800 0.856106 0.862594 0.865607 0.865080 0.866788 0.856145 0.857086 0.846604 0.836083 0.837525 0.841961 0.836899 0.838691 0.835599 0.838506 0.841012 0.838810 0.833460 0.832308 0.837844 0.814895 0.821934 0.824930 0.821223 0.825383 0.817077 0.811347 0.806105 0.806144 0.800652 0.810934 0.809333 0.777729 0.760279 0.768352 0.753637 0.744910 0.740442 0.740267 0.706359 0.678560 0.652533 0.647627 0.640574 0.642443 0.648171 0.646674 0.631845 0.618475 0.611783 0.628185 0.630231 0.596823 0.596737 0.591314 0.586151 0.580776 0.582831 0.583019 0.590015 0.594582 0.559925 0.556247 0.561509 0.536833 0.536045 0.533506 0.523801 0.493570 0.499652 0.496334 0.513574 0.537625 0.509865 0.506398 0.512670 0.523934 0.535544 0.534697 0.520931 0.505444 0.512221 0.488389 0.474216 0.491953 0.509900 0.501480 0.515324 0.502584 0.530797 0.524899 0.512596 0.543355 0.562410 0.560632 0.534801 0.546658 0.521752 0.524741 0.504106 0.461032 0.464681 0.451003 0.403871 0.398754 0.416660 0.401197 0.398653 0.371633 0.374545 0.349447 0.313033 0.326187 0.319204 0.284683 0.248958 0.250712 0.252638 0.219977 0.193470 0.215386 0.166081 0.159848 0.178085 0.187066 0.185703 0.177656 0.200337 0.200337 0.200337 0.200337 0.200337 0.200337 0.200337 0.200337 0.200337 0.200337 0.200337 0.200337 0.200337 0.200337 0.225547 0.225547 0.225547 0.225547 0.225547 0.225547 0.225547 0.225547 0.225547 0.225547 0.225547 0.225547
0.000000 0.000000 0.000000 0.000000 0.000000 0.000000 0.000000 0.000000 0.000000 0.000000 0.000000 0.000000 0.000000 0.000000 0.000000 0.000000 0.000000 0.000000 0.000000 0.000000 0.000000 0.000000 0.000000 0.000000 0.000000 0.000000 0.000000 0.000000 0.000000 0.000000 0.000000 0.000000 0.000000 0.000000 0.000000 0.000000 0.000000 0.000000 0.000000 0.000000 0.000000 0.000000 0.000000 0.000000 0.000000 0.000000 0.000000 0.000000 0.000000 0.000000 0.000000 0.000000 0.209657 0.209657 0.209657 0.209657 0.209657 0.209657 0.209657 0.209657 0.209657 0.209657 0.209657 0.209657 0.209657 0.209657 0.209657 0.209657 0.209657 0.209657 0.209657 0.209657 0.209657 0.209657 0.209657 0.209657 0.209657 0.209657 0.209657 0.209657 0.209657 0.209657 0.209657 0.209657 0.209657 0.244339 0.244339 0.244339 0.244339 0.244339 0.244339 0.244339 0.244339 0.244339 0.244339 0.244339 0.244339 0.244339 0.244339 0.244339 0.244339 0.244339 0.244339 0.244339 0.244339 0.244339 0.244339 0.244339 0.244339 0.244339 0.260378 0.260378 0.260378 0.260378 0.260378 0.260378 0.260378 0.260378 0.260378 0.260378 0.260378 0.260378 0.260378 0.260378 0.260378 0.260378 0.260378 0.260378 0.260378 0.260378 0.269680 0.269680 0.269680 0.269680 0.269680 0.269680 0.269680 0.269680 0.269680 0.269680 0.269680 0.269680 0.269680 0.269680 0.269680 0.269680 0.269680 0.269680 0.269680 0.269680 0.269680 0.269680 0.269680 0.269680 0.269680 0.269680 0.269680 0.269680 0.269680 0.269680 0.269680 0.269680 0.269680 0.280056 0.280056 0.280056 0.280056 0.280056 0.280056 0.280056 0.280056 0.280056 0.280056 0.280056 0.280056 0.280056 0.280056 0.280056 0.280056 0.280056 0.280056 0.280056 0.280056 0.280056 0.280056 0.280056 0.280056 0.280056 0.280056 0.280056 0.274721 0.274721 0.274721 0.274721 0.274721 0.274721 0.274721 0.274721 0.274721 0.274721 0.274721 0.274721 0.274721 0.285714 0.285714 0.285714 0.285714 0.285714 0.285714 0.285714 0.285714 0.285714 0.285714 0.285714 0.280056 0.280056 0.280056 0.280056 0.280056 0.280056 0.280056 0.280056 0.280056 0.280056 0.280056 0.274721 0.274721 0.274721 0.274721 0.274721 0.274721 0.274721 0.274721 0.274721 0.274721 0.274721 0.280056 0.280056 0.280056 0.280056 0.280056 0.280056 0.280056 0.280056 0.280056 0.280056 0.285714 0.285714 0.285714 0.285714 0.285714 0.285714 0.285714 0.285714 0.285714 0.269680 0.269680 0.269680 0.269680 0.269680 0.269680 0.269680 0.269680 0.269680 0.269680 0.274721 0.274721 0.274721 0.274721 0.274721 0.274721 0.274721 0.274721 0.274721 0.285714 0.285714 0.285714 0.285714 0.285714 0.285714 0.285714 0.285714 0.264906 0.264906 0.264906 0.264906 0.264906 0.264906 0.264906 0.264906 0.264906 0.274721 0.274721 0.274721 0.274721 0.274721 0.274721 0.274721 0.274721 0.269680 0.269680 0.269680 0.269680 0.269680 0.269680 0.269680 0.269680 0.269680 0.269680 0.269680 0.269680 0.269680 0.269680 0.269680 0.269680 0.280056 0.280056 0.280056 0.280056 0.280056 0.280056 0.280056 0.260378 0.260378 0.260378 0.260378 0.260378 0.260378 0.260378 0.260378 0.269680 0.269680 0.269680 0.269680 0.269680 0.269680 0.269680 0.264906 0.264906 0.264906 0.264906 0.264906 0.264906 0.264906 0.264906 0.264906 0.264906 0.264906 0.264906 0.264906 0.264906 0.260378 0.260378 0.260378 0.260378 0.260378 0.260378 0.260378 0.260378 0.260378 0.260378 0.260378 0.260378
