# Output from CTFFind version 4.1.9, run on 2019-11-03 18:53:00
# Input file: stack15_ub_averaged_3000.mrc ; Number of micrographs: 1
# Pixel size: 3.000 Angstroms ; acceleration voltage: 300.0 keV ; spherical aberration: 0.00 mm ; amplitude contrast: 0.07
# Box size: 512 pixels ; min. res.: 30.0 Angstroms ; max. res.: 5.0 Angstroms ; min. def.: 5000.0 um; max. def. 50000.0 um; num. frames averaged: 1
# 6 lines per micrograph: #1 - spatial frequency (1/Angstroms); #2 - 1D rotational average of spectrum (assuming no astigmatism); #3 - 1D rotational average of spectrum; #4 - CTF fit; #5 - cross-correlation between spectrum and CTF fit; #6 - 2sigma of expected cross correlation of noise
0.000000 0.000651 0.001302 0.001953 0.002604 0.003255 0.003906 0.004557 0.005208 0.005859 0.006510 0.007161 0.007812 0.008464 0.009115 0.009766 0.010417 0.011068 0.011719 0.012370 0.013021 0.013672 0.014323 0.014974 0.015625 0.016276 0.016927 0.017578 0.018229 0.018880 0.019531 0.020182 0.020833 0.021484 0.022135 0.022786 0.023438 0.024089 0.024740 0.025391 0.026042 0.026693 0.027344 0.027995 0.028646 0.029297 0.029948 0.030599 0.031250 0.031901 0.032552 0.033203 0.033854 0.034505 0.035156 0.035807 0.036458 0.037109 0.037760 0.038411 0.039062 0.039714 0.040365 0.041016 0.041667 0.042318 0.042969 0.043620 0.044271 0.044922 0.045573 0.046224 0.046875 0.047526 0.048177 0.048828 0.049479 0.050130 0.050781 0.051432 0.052083 0.052734 0.053385 0.054036 0.054688 0.055339 0.055990 0.056641 0.057292 0.057943 0.058594 0.059245 0.059896 0.060547 0.061198 0.061849 0.062500 0.063151 0.063802 0.064453 0.065104 0.065755 0.066406 0.067057 0.067708 0.068359 0.069010 0.069661 0.070312 0.070964 0.071615 0.072266 0.072917 0.073568 0.074219 0.074870 0.075521 0.076172 0.076823 0.077474 0.078125 0.078776 0.079427 0.080078 0.080729 0.081380 0.082031 0.082682 0.083333 0.083984 0.084635 0.085286 0.085938 0.086589 0.087240 0.087891 0.088542 0.089193 0.089844 0.090495 0.091146 0.091797 0.092448 0.093099 0.093750 0.094401 0.095052 0.095703 0.096354 0.097005 0.097656 0.098307 0.098958 0.099609 0.100260 0.100911 0.101562 0.102214 0.102865 0.103516 0.104167 0.104818 0.105469 0.106120 0.106771 0.107422 0.108073 0.108724 0.109375 0.110026 0.110677 0.111328 0.111979 0.112630 0.113281 0.113932 0.114583 0.115234 0.115885 0.116536 0.117188 0.117839 0.118490 0.119141 0.119792 0.120443 0.121094 0.121745 0.122396 0.123047 0.123698 0.124349 0.125000 0.125651 0.126302 0.126953 0.127604 0.128255 0.128906 0.129557 0.130208 0.130859 0.131510 0.132161 0.132812 0.133464 0.134115 0.134766 0.135417 0.136068 0.136719 0.137370 0.138021 0.138672 0.139323 0.139974 0.140625 0.141276 0.141927 0.142578 0.143229 0.143880 0.144531 0.145182 0.145833 0.146484 0.147135 0.147786 0.148438 0.149089 0.149740 0.150391 0.151042 0.151693 0.152344 0.152995 0.153646 0.154297 0.154948 0.155599 0.156250 0.156901 0.157552 0.158203 0.158854 0.159505 0.160156 0.160807 0.161458 0.162109 0.162760 0.163411 0.164062 0.164714 0.165365 0.166016 0.166667 0.167318 0.167969 0.168620 0.169271 0.169922 0.170573 0.171224 0.171875 0.172526 0.173177 0.173828 0.174479 0.175130 0.175781 0.176432 0.177083 0.177734 0.178385 0.179036 0.179688 0.180339 0.180990 0.181641 0.182292 0.182943 0.183594 0.184245 0.184896 0.185547 0.186198 0.186849 0.187500 0.188151 0.188802 0.189453 0.190104 0.190755 0.191406 0.192057 0.192708 0.193359 0.194010 0.194661 0.195312 0.195964 0.196615 0.197266 0.197917 0.198568 0.199219 0.199870 0.200521 0.201172 0.201823 0.202474 0.203125 0.203776 0.204427 0.205078 0.205729 0.206380 0.207031 0.207682 0.208333 0.208984 0.209635 0.210286 0.210938 0.211589 0.212240 0.212891 0.213542 0.214193 0.214844 0.215495 0.216146 0.216797 0.217448 0.218099 0.218750 0.219401 0.220052 0.220703 0.221354 0.222005 0.222656 0.223307 0.223958 0.224609 0.225260 0.225911 0.226562 0.227214 0.227865 0.228516 0.229167 0.229818 0.230469 0.231120 0.231771 0.232422 0.233073 0.233724 0.234375 0.235026 0.235677
       0.40126        0.40126        0.40126        0.40126        0.40126        0.40126        0.40126        0.40126        0.40126        0.40126        0.40126        0.40126        0.40126        0.40126        0.40126        0.40126        0.40126        0.40126        0.40126        0.40126        0.40126        0.40126        0.40126        0.40126        0.40126        0.40126        0.40126        0.40126        0.40126        0.40126        0.40126        0.40126        0.40126        0.40126        0.40126        0.40126        0.40126        0.40126        0.40126        0.40126        0.40126        0.40126        0.40126        0.40126        0.40126        0.40126        0.40126        0.40126        0.40126        0.40126        0.40126        0.11454       -0.28214       -0.24532       -0.23349       -0.20645       -0.15829       -0.17063       -0.11130        0.03215       -0.05443        0.09533        0.17745        0.23589        0.15935        0.21089        0.17995        0.19813        0.28719        0.30186        0.31672        0.26531        0.36599        0.37740        0.42487        0.31539        0.34472        0.26195        0.36672        0.26117        0.30957        0.35458        0.35059        0.49927        0.36453        0.46904        0.42170        0.43875        0.39318        0.35973        0.41105        0.42432        0.31379        0.36184        0.39732        0.46548        0.41347        0.42359        0.30424        0.29018        0.42374        0.37480        0.45651        0.42639        0.43199        0.42924        0.48033        0.38883        0.40952        0.38839        0.37766        0.43921        0.40906        0.38211        0.33576        0.37523        0.37854        0.42102        0.39958        0.38498        0.40857        0.40652        0.39403        0.42926        0.39511        0.36165        0.41669        0.45411        0.38956        0.34176        0.33293        0.32600        0.47335        0.47652        0.42290        0.39424        0.39034        0.39444        0.40564        0.41589        0.45307        0.46275        0.41091        0.44130        0.35823        0.34834        0.35985        0.46019        0.41055        0.36647        0.40989        0.43855        0.50086        0.47430        0.44330        0.42389        0.39312        0.40133        0.43061        0.38840        0.41106        0.41951        0.46212        0.39129        0.40609        0.41205        0.41544        0.41038        0.43610        0.41348        0.38841        0.40915        0.41060        0.38282        0.40131        0.42397        0.42364        0.46196        0.47575        0.51908        0.47214        0.47030        0.43905        0.45138        0.39042        0.44703        0.40892        0.47827        0.45415        0.37109        0.37837        0.40670        0.44420        0.44958        0.44631        0.41346        0.39155        0.36704        0.46576        0.43528        0.40459        0.44185        0.43514        0.40641        0.43595        0.40129        0.38869        0.39891        0.42949        0.41885        0.42674        0.44728        0.41386        0.40207        0.45714        0.42877        0.42928        0.45306        0.45846        0.40491        0.40669        0.44813        0.43286        0.36694        0.35892        0.41531        0.40086        0.41549        0.37231        0.40631        0.39470        0.39216        0.42131        0.41439        0.43537        0.36092        0.35185        0.39415        0.38266        0.37187        0.36812        0.39957        0.37790        0.34571        0.37469        0.42102        0.40003        0.39628        0.40992        0.32593        0.35202        0.39928        0.37191        0.43710        0.44843        0.36219        0.36486        0.34060        0.34204        0.35689        0.37336        0.38828        0.36746        0.35757        0.38796        0.38958        0.33445        0.36640        0.36426        0.44523        0.39730        0.37952        0.37086        0.40501        0.40660        0.35594        0.39435        0.39724        0.35121        0.38607        0.39398        0.34843        0.40801        0.38720        0.39449        0.36089        0.40671        0.40021        0.39718        0.36465        0.33986        0.38778        0.43143        0.35582        0.31971        0.38762        0.41530        0.37126        0.39206        0.36627        0.38685        0.36520        0.33660        0.36660        0.35414        0.36490        0.36841        0.30969        0.33897        0.35189        0.35433        0.36373        0.39421        0.33374        0.32644        0.33021        0.36497        0.36954        0.36682        0.32241        0.33407        0.30482        0.30397        0.35772        0.29427        0.33630        0.32207        0.37166        0.27042        0.31334        0.33655        0.38706        0.40226        0.35211        0.36605        0.39190        0.32080        0.38104        0.33441        0.36389        0.35417        0.32709        0.29733        0.31880        0.27774        0.30724        0.21778        0.30495        0.28637        0.43383        0.35453        0.33441        0.35973        0.35554        0.42622        0.27889        0.19783        0.19754        0.18268        0.09148        0.11948       -0.50173       -0.84766
9.347536 9.185435 9.024668 8.865237 8.707141 8.550379 8.394953 8.240861 8.088105 7.936683 7.786596 7.637844 7.490427 7.344345 7.199598 7.056186 6.914108 6.773366 6.633959 6.495886 6.359148 6.223745 6.089677 5.956945 5.825547 5.695484 5.566755 5.439362 5.313304 5.188580 5.065192 4.943138 4.822420 4.703036 4.584987 4.468273 4.352894 4.238850 4.126141 4.014767 3.904727 3.796023 3.688654 3.582619 3.477919 3.374555 3.272525 3.171830 3.072470 2.974445 2.877755 1.869130 -0.383826 -0.115349 -0.285320 -0.328853 -0.052094 -0.033674 -0.346747 0.576040 0.099947 0.126245 0.894135 1.260123 0.557387 0.717547 0.633724 0.273801 1.291735 0.730370 0.677505 0.550207 1.069368 0.859277 1.202537 0.486196 0.654634 0.144047 0.523851 0.134746 0.138643 0.321375 0.218999 0.802033 0.166578 0.721829 0.411369 0.271894 0.515003 -0.376725 0.268809 0.164299 -0.309534 -0.300550 -0.171324 0.327967 -0.079113 -0.046996 -0.473857 -0.857324 -0.180984 -0.344920 -0.204725 -0.181634 -0.201696 -0.424318 0.080918 -0.461456 -0.318560 -0.661488 -0.527675 -0.295072 -0.509039 -0.296098 -0.803175 -0.726796 -0.424571 -0.664644 -0.275487 -0.547158 -0.487293 -0.353386 -0.739130 -0.176633 -0.697663 -0.148989 -0.259617 0.237787 -0.153843 -0.372820 -0.340897 -0.681589 0.160925 0.340828 -0.011485 -0.196993 0.019831 -0.386314 0.246602 -0.102661 -0.112605 0.248226 0.124928 -0.065263 -0.080791 -0.233063 -0.612973 0.192589 -0.065459 -0.145848 -0.334442 0.092963 0.139085 0.287717 0.187512 -0.021226 0.042130 -0.499593 0.204283 -0.212507 -0.176937 -0.163066 0.274304 -0.225635 -0.342060 -0.167956 -0.133396 -0.024741 -0.127975 -0.144334 -0.106669 -0.116846 -0.319676 -0.238038 -0.479101 0.043964 -0.390908 0.184010 -0.116531 0.093495 0.319113 0.108778 -0.347625 0.259133 -0.120173 -0.164648 0.002459 -0.037330 0.308311 -0.109418 -0.434647 0.041557 -0.108587 0.157326 0.172795 0.155784 -0.147972 -0.378869 0.142023 0.290169 0.071893 0.046049 0.041300 0.127098 0.073305 0.049433 0.034728 -0.145911 0.210114 -0.085619 0.096865 0.017610 0.136478 -0.031079 -0.102660 0.362683 -0.031132 0.226763 0.158997 0.095361 -0.032302 0.151522 0.145441 0.112933 -0.201091 0.028183 0.143939 0.157314 -0.028366 -0.033968 0.114803 0.149995 0.071357 0.186119 0.346180 0.114955 -0.141779 0.032445 0.058514 0.105256 0.045016 0.056921 0.225870 0.001003 0.054800 0.206446 0.367015 0.171624 0.321559 0.102549 -0.076373 0.128707 0.111361 0.185074 0.303427 0.338954 0.040010 -0.008676 -0.119385 -0.123985 0.065847 0.019929 0.042515 0.170747 -0.074233 0.163492 0.150382 -0.128689 -0.150827 0.191686 0.163584 0.182161 0.020415 0.086981 -0.314041 0.142584 -0.091631 -0.156407 0.089723 -0.208245 0.003122 0.054523 -0.212676 0.131684 0.085713 -0.003340 -0.066289 0.172778 0.117641 0.017542 -0.049065 -0.053117 0.114039 0.292292 -0.186686 -0.200224 0.062721 0.369180 -0.051726 -0.003027 0.031688 0.161849 -0.055574 -0.236888 -0.013526 -0.048457 -0.241589 -0.065137 -0.252409 -0.121766 -0.345118 -0.251697 -0.242033 0.029630 -0.349019 -0.267930 -0.169162 -0.063637 0.009661 0.066932 -0.251306 0.153290 -0.323594 -0.216524 0.165820 -0.255399 -0.133985 0.104018 0.220349 -0.381932 0.051609 0.114289 0.368106 0.470066 0.256701 0.262491 0.337077 0.317560 0.339775 0.107671 0.573080 0.164961 -0.477748 -0.262703 -0.177668 -0.588207 -0.185628 -0.766610 -0.435937 -0.293272 0.365391 -0.015109 -0.070042 0.168244 0.094712 0.625035 0.156484 0.975399 0.907143 0.370064 0.156051 0.546451 -3.672940
0.072396 0.073293 0.075982 0.080464 0.086735 0.094793 0.104634 0.116250 0.129633 0.144772 0.161653 0.180255 0.200554 0.222521 0.246119 0.271303 0.298020 0.326205 0.355785 0.386670 0.418762 0.451944 0.486083 0.521032 0.556623 0.592669 0.628965 0.665282 0.701371 0.736962 0.771763 0.805460 0.837719 0.868184 0.896483 0.922227 0.945013 0.964427 0.980047 0.991448 0.998210 0.999916 0.996166 0.986579 0.970804 0.948525 0.919471 0.883424 0.840231 0.789811 0.732165 0.667384 0.595660 0.517295 0.432702 0.342419 0.247109 0.147562 0.044696 0.060441 0.166684 0.272751 0.377260 0.478739 0.575649 0.666404 0.749398 0.823031 0.885746 0.936063 0.972617 0.994196 0.999784 0.988601 0.960139 0.914204 0.850945 0.770883 0.674932 0.564413 0.441053 0.306985 0.164724 0.017133 0.132616 0.281108 0.424751 0.559866 0.682778 0.789928 0.877978 0.943934 0.985258 0.999984 0.986821 0.945245 0.875575 0.779024 0.657723 0.514717 0.353926 0.180067 0.001452 0.184693 0.363352 0.530988 0.681249 0.808127 0.906222 0.970995 0.999008 0.988143 0.937773 0.848886 0.724141 0.567861 0.385936 0.185660 0.024532 0.235382 0.437202 0.620325 0.775577 0.894761 0.971140 0.999856 0.978302 0.906383 0.786661 0.624370 0.427269 0.205345 0.029632 0.264692 0.486373 0.681477 0.837899 0.945415 0.996416 0.986525 0.915042 0.785175 0.604028 0.382328 0.133882 0.125212 0.377567 0.605655 0.793057 0.925681 0.992910 0.988551 0.911500 0.766070 0.561911 0.313509 0.039269 0.239767 0.501496 0.724513 0.889901 0.982923 0.994459 0.922026 0.770287 0.550949 0.282035 0.013472 0.309488 0.579110 0.797063 0.942152 0.999441 0.961949 0.831652 0.619658 0.345468 0.035364 0.280000 0.568561 0.800133 0.949637 0.999971 0.944150 0.786457 0.542407 0.237460 0.095452 0.419362 0.697346 0.896776 0.993299 0.974005 0.839384 0.603763 0.294070 0.053025 0.395285 0.690011 0.899415 0.995619 0.964600 0.808501 0.545918 0.209992 0.155513 0.501782 0.781439 0.955124 0.997250 0.900059 0.675324 0.353309 0.020992 0.393917 0.710766 0.923873 0.999994 0.925795 0.710527 0.385327 0.000922 0.388684 0.716858 0.932459 0.999421 0.904959 0.662394 0.309761 0.095781 0.486950 0.797450 0.973329 0.982643 0.821679 0.516444 0.118956 0.301259 0.669150 0.917567 0.999763 0.898608 0.630611 0.243818 0.190370 0.590097 0.878453 0.998491 0.924876 0.669758 0.281399 0.164423 0.578915 0.877883 0.999052 0.915492 0.642161 0.233910 0.224973 0.637869 0.916138 0.998435 0.864744 0.541850 0.098675 0.367914 0.754021 0.971945 0.970486 0.747605 0.352135 0.126200 0.576729 0.893330 0.999670 0.868180 0.527911 0.058928 0.425946 0.808021 0.991891 0.929798 0.634761 0.178768 0.324073 0.745708 0.976797 0.955537 0.684942 0.233585 0.280949 0.722310 0.971454 0.959257 0.686463 0.225126 0.299596 0.742913 0.980373 0.943325 0.639598 0.153034 0.378793 0.803065 0.995711 0.898317 0.536767 0.015475 0.511940 0.887624 0.996969 0.804368 0.365806 0.186319 0.682457 0.967872 0.951372 0.635427 0.117390 0.439497 0.857058 0.999386 0.817854 0.368855 0.202501 0.708515 0.980439 0.925301 0.558808 0.002272 0.556537 0.926306 0.978081 0.691212 0.162768 0.424107 0.863031 0.997151 0.776079 0.276131 0.324698 0.809295 0.999905 0.824171 0.343916 0.265159 0.776830 0.998310 0.843674 0.368551 0.248364 0.771519 0.998346 0.838482 0.351210 0.274976 0.794263 0.999928 0.807527 0.291050 0.343930 0.841101 0.996918
1.000000 1.000000 1.000000 1.000000 1.000000 1.000000 1.000000 1.000000 1.000000 1.000000 1.000000 1.000000 1.000000 1.000000 1.000000 1.000000 1.000000 1.000000 1.000000 1.000000 1.000000 1.000000 1.000000 1.000000 1.000000 1.000000 1.000000 1.000000 1.000000 1.000000 1.000000 1.000000 1.000000 1.000000 1.000000 1.000000 1.000000 1.000000 1.000000 1.000000 1.000000 1.000000 1.000000 1.000000 1.000000 1.000000 1.000000 1.000000 1.000000 1.000000 1.000000 1.000000 0.102071 0.102071 0.102071 0.102071 0.102071 0.102071 0.102071 0.102071 0.102071 0.102071 0.102071 0.102071 0.102071 0.102071 0.102071 0.102071 0.102071 0.102071 0.102071 0.102071 0.115101 0.115101 0.115101 0.115101 0.115101 0.115101 0.115101 0.115101 0.115101 0.094822 0.116752 0.116860 0.115735 0.081122 0.072203 0.053360 0.043649 -0.025211 -0.069621 -0.104602 -0.105609 -0.105154 -0.107798 -0.128747 -0.151355 -0.128601 -0.135972 -0.173516 -0.178215 -0.170383 -0.158007 -0.139760 -0.138970 -0.136161 -0.085039 -0.116451 -0.141033 -0.105835 -0.129975 -0.099494 -0.090083 -0.114184 -0.074229 -0.090302 -0.098538 -0.066675 -0.034135 -0.020138 -0.039411 -0.022696 -0.004916 -0.000460 -0.012291 -0.006589 0.064906 0.080652 0.036209 0.044643 0.057366 0.061021 0.090841 0.102563 0.070862 0.116834 0.091600 0.106621 0.088621 0.058673 0.064016 0.092211 0.075158 0.093981 0.119246 0.137182 0.133969 0.149111 0.114589 0.092742 0.031721 0.023081 -0.000850 -0.081714 -0.017874 0.061372 0.016201 0.021089 0.000265 0.039609 0.023063 -0.013981 0.017001 0.016914 -0.009805 -0.013982 -0.028723 -0.018727 -0.057033 -0.069831 -0.070795 -0.060885 -0.068199 -0.085657 -0.107563 -0.127914 -0.095340 -0.037263 -0.083909 -0.033244 0.008832 0.034053 -0.026343 -0.026090 -0.035930 -0.009115 -0.081461 -0.063763 -0.051177 -0.056507 -0.020772 0.003494 -0.013254 0.000642 -0.012229 0.051363 0.081351 0.108857 0.135382 0.093611 0.129888 0.115842 0.091518 0.129405 0.052253 0.059254 0.082237 0.089066 0.108246 0.134176 0.145039 0.151113 0.203671 0.239723 0.239535 0.270930 0.227553 0.215899 0.268750 0.259209 0.201838 0.148832 0.129981 0.161912 0.206005 0.250517 0.243857 0.286474 0.311326 0.343045 0.356295 0.397065 0.412527 0.453972 0.475101 0.451374 0.450929 0.482895 0.507052 0.488934 0.412991 0.417021 0.400216 0.339315 0.333383 0.303428 0.231759 0.258067 0.305760 0.306053 0.294218 0.247535 0.254529 0.237938 0.257349 0.236892 0.229757 0.210214 0.153216 0.148703 0.162436 0.094690 0.050139 0.076236 0.080979 0.120251 0.166978 0.154034 0.103301 0.072461 0.066347 0.060410 0.054879 0.060244 0.121823 0.057098 0.060255 0.013998 0.042427 0.054909 0.058182 -0.026623 -0.054477 -0.044452 -0.078994 -0.053008 -0.056728 -0.089594 -0.073636 -0.162029 -0.143938 -0.176513 -0.174968 -0.194209 -0.184131 -0.206987 -0.152674 -0.125489 -0.108792 -0.150121 -0.127695 -0.149087 -0.127815 -0.150973 -0.077526 -0.157991 -0.123116 -0.037101 -0.043207 -0.041059 -0.067841 -0.030691 0.017940 -0.012441 0.002997 -0.037097 -0.051522 -0.064772 -0.101208 -0.085976 -0.149467 -0.074304 -0.124198 -0.118044 -0.170262 -0.173824 -0.168746 -0.159008 -0.160165 -0.134013 -0.202075 -0.235076 -0.202301 -0.155724 -0.154321 -0.124333 -0.114318 -0.183794 -0.183794 -0.183794 -0.183794 -0.183794 -0.183794 -0.205471 -0.205471 -0.205471 -0.205471 -0.205471 -0.205471 -0.205471 -0.205471 -0.205471 -0.205471 -0.178642 -0.178642 -0.178642 -0.178642 -0.178642 -0.176346 -0.176346 -0.176346 -0.176346 -0.176346
0.000000 0.000000 0.000000 0.000000 0.000000 0.000000 0.000000 0.000000 0.000000 0.000000 0.000000 0.000000 0.000000 0.000000 0.000000 0.000000 0.000000 0.000000 0.000000 0.000000 0.000000 0.000000 0.000000 0.000000 0.000000 0.000000 0.000000 0.000000 0.000000 0.000000 0.000000 0.000000 0.000000 0.000000 0.000000 0.000000 0.000000 0.000000 0.000000 0.000000 0.000000 0.000000 0.000000 0.000000 0.000000 0.000000 0.000000 0.000000 0.000000 0.000000 0.000000 0.000000 0.227921 0.227921 0.227921 0.227921 0.227921 0.227921 0.227921 0.227921 0.227921 0.227921 0.227921 0.227921 0.227921 0.227921 0.227921 0.227921 0.227921 0.227921 0.227921 0.227921 0.260378 0.260378 0.260378 0.260378 0.260378 0.260378 0.260378 0.260378 0.260378 0.260378 0.260378 0.260378 0.260378 0.260378 0.260378 0.260378 0.260378 0.260378 0.260378 0.260378 0.260378 0.260378 0.280056 0.280056 0.280056 0.280056 0.280056 0.280056 0.280056 0.280056 0.280056 0.280056 0.280056 0.280056 0.280056 0.280056 0.280056 0.280056 0.280056 0.285714 0.285714 0.285714 0.285714 0.285714 0.285714 0.285714 0.285714 0.285714 0.285714 0.285714 0.285714 0.285714 0.285714 0.285714 0.298142 0.298142 0.298142 0.298142 0.298142 0.298142 0.298142 0.298142 0.298142 0.298142 0.298142 0.298142 0.298142 0.298142 0.298142 0.298142 0.298142 0.298142 0.298142 0.298142 0.298142 0.298142 0.298142 0.298142 0.298142 0.304997 0.304997 0.304997 0.304997 0.304997 0.304997 0.304997 0.304997 0.304997 0.304997 0.304997 0.298142 0.298142 0.298142 0.298142 0.298142 0.298142 0.298142 0.298142 0.298142 0.298142 0.298142 0.312348 0.312348 0.312348 0.312348 0.312348 0.312348 0.312348 0.312348 0.312348 0.291730 0.291730 0.291730 0.291730 0.291730 0.291730 0.291730 0.291730 0.291730 0.291730 0.298142 0.298142 0.298142 0.298142 0.298142 0.298142 0.298142 0.298142 0.298142 0.312348 0.312348 0.312348 0.312348 0.312348 0.312348 0.312348 0.312348 0.285714 0.285714 0.285714 0.285714 0.285714 0.285714 0.285714 0.285714 0.285714 0.312348 0.312348 0.312348 0.312348 0.312348 0.312348 0.312348 0.291730 0.291730 0.291730 0.291730 0.291730 0.291730 0.291730 0.291730 0.304997 0.304997 0.304997 0.304997 0.304997 0.304997 0.304997 0.280056 0.280056 0.280056 0.280056 0.280056 0.280056 0.280056 0.280056 0.291730 0.291730 0.291730 0.291730 0.291730 0.291730 0.291730 0.304997 0.304997 0.304997 0.304997 0.304997 0.304997 0.285714 0.285714 0.285714 0.285714 0.285714 0.285714 0.285714 0.298142 0.298142 0.298142 0.298142 0.298142 0.298142 0.274721 0.274721 0.274721 0.274721 0.274721 0.274721 0.274721 0.291730 0.291730 0.291730 0.291730 0.291730 0.291730 0.285714 0.285714 0.285714 0.285714 0.285714 0.285714 0.280056 0.280056 0.280056 0.280056 0.280056 0.280056 0.280056 0.280056 0.280056 0.280056 0.280056 0.280056 0.298142 0.298142 0.298142 0.298142 0.298142 0.269680 0.269680 0.269680 0.269680 0.269680 0.269680 0.285714 0.285714 0.285714 0.285714 0.285714 0.264906 0.264906 0.264906 0.264906 0.264906 0.264906 0.280056 0.280056 0.280056 0.280056 0.280056 0.280056 0.280056 0.280056 0.280056 0.280056 0.256074 0.256074 0.256074 0.256074 0.256074 0.256074 0.269680 0.269680 0.269680 0.269680 0.269680 0.269680 0.269680 0.269680 0.269680 0.269680 0.264906 0.264906 0.264906 0.264906 0.264906 0.285714 0.285714 0.285714 0.285714 0.285714
