# Output from CTFFind version 4.1.9, run on 2019-11-03 18:51:45
# Input file: stack4_ub_averaged_1000.mrc ; Number of micrographs: 1
# Pixel size: 3.000 Angstroms ; acceleration voltage: 300.0 keV ; spherical aberration: 0.00 mm ; amplitude contrast: 0.07
# Box size: 512 pixels ; min. res.: 30.0 Angstroms ; max. res.: 5.0 Angstroms ; min. def.: 5000.0 um; max. def. 50000.0 um; num. frames averaged: 1
# 6 lines per micrograph: #1 - spatial frequency (1/Angstroms); #2 - 1D rotational average of spectrum (assuming no astigmatism); #3 - 1D rotational average of spectrum; #4 - CTF fit; #5 - cross-correlation between spectrum and CTF fit; #6 - 2sigma of expected cross correlation of noise
0.000000 0.000651 0.001302 0.001953 0.002604 0.003255 0.003906 0.004557 0.005208 0.005859 0.006510 0.007161 0.007812 0.008464 0.009115 0.009766 0.010417 0.011068 0.011719 0.012370 0.013021 0.013672 0.014323 0.014974 0.015625 0.016276 0.016927 0.017578 0.018229 0.018880 0.019531 0.020182 0.020833 0.021484 0.022135 0.022786 0.023438 0.024089 0.024740 0.025391 0.026042 0.026693 0.027344 0.027995 0.028646 0.029297 0.029948 0.030599 0.031250 0.031901 0.032552 0.033203 0.033854 0.034505 0.035156 0.035807 0.036458 0.037109 0.037760 0.038411 0.039062 0.039714 0.040365 0.041016 0.041667 0.042318 0.042969 0.043620 0.044271 0.044922 0.045573 0.046224 0.046875 0.047526 0.048177 0.048828 0.049479 0.050130 0.050781 0.051432 0.052083 0.052734 0.053385 0.054036 0.054688 0.055339 0.055990 0.056641 0.057292 0.057943 0.058594 0.059245 0.059896 0.060547 0.061198 0.061849 0.062500 0.063151 0.063802 0.064453 0.065104 0.065755 0.066406 0.067057 0.067708 0.068359 0.069010 0.069661 0.070312 0.070964 0.071615 0.072266 0.072917 0.073568 0.074219 0.074870 0.075521 0.076172 0.076823 0.077474 0.078125 0.078776 0.079427 0.080078 0.080729 0.081380 0.082031 0.082682 0.083333 0.083984 0.084635 0.085286 0.085938 0.086589 0.087240 0.087891 0.088542 0.089193 0.089844 0.090495 0.091146 0.091797 0.092448 0.093099 0.093750 0.094401 0.095052 0.095703 0.096354 0.097005 0.097656 0.098307 0.098958 0.099609 0.100260 0.100911 0.101562 0.102214 0.102865 0.103516 0.104167 0.104818 0.105469 0.106120 0.106771 0.107422 0.108073 0.108724 0.109375 0.110026 0.110677 0.111328 0.111979 0.112630 0.113281 0.113932 0.114583 0.115234 0.115885 0.116536 0.117188 0.117839 0.118490 0.119141 0.119792 0.120443 0.121094 0.121745 0.122396 0.123047 0.123698 0.124349 0.125000 0.125651 0.126302 0.126953 0.127604 0.128255 0.128906 0.129557 0.130208 0.130859 0.131510 0.132161 0.132812 0.133464 0.134115 0.134766 0.135417 0.136068 0.136719 0.137370 0.138021 0.138672 0.139323 0.139974 0.140625 0.141276 0.141927 0.142578 0.143229 0.143880 0.144531 0.145182 0.145833 0.146484 0.147135 0.147786 0.148438 0.149089 0.149740 0.150391 0.151042 0.151693 0.152344 0.152995 0.153646 0.154297 0.154948 0.155599 0.156250 0.156901 0.157552 0.158203 0.158854 0.159505 0.160156 0.160807 0.161458 0.162109 0.162760 0.163411 0.164062 0.164714 0.165365 0.166016 0.166667 0.167318 0.167969 0.168620 0.169271 0.169922 0.170573 0.171224 0.171875 0.172526 0.173177 0.173828 0.174479 0.175130 0.175781 0.176432 0.177083 0.177734 0.178385 0.179036 0.179688 0.180339 0.180990 0.181641 0.182292 0.182943 0.183594 0.184245 0.184896 0.185547 0.186198 0.186849 0.187500 0.188151 0.188802 0.189453 0.190104 0.190755 0.191406 0.192057 0.192708 0.193359 0.194010 0.194661 0.195312 0.195964 0.196615 0.197266 0.197917 0.198568 0.199219 0.199870 0.200521 0.201172 0.201823 0.202474 0.203125 0.203776 0.204427 0.205078 0.205729 0.206380 0.207031 0.207682 0.208333 0.208984 0.209635 0.210286 0.210938 0.211589 0.212240 0.212891 0.213542 0.214193 0.214844 0.215495 0.216146 0.216797 0.217448 0.218099 0.218750 0.219401 0.220052 0.220703 0.221354 0.222005 0.222656 0.223307 0.223958 0.224609 0.225260 0.225911 0.226562 0.227214 0.227865 0.228516 0.229167 0.229818 0.230469 0.231120 0.231771 0.232422 0.233073 0.233724 0.234375 0.235026 0.235677
       0.36384        0.36384        0.36384        0.36384        0.36384        0.36384        0.36384        0.36384        0.36384        0.36384        0.36384        0.36384        0.36384        0.36384        0.36384        0.36384        0.36384        0.36384        0.36384        0.36384        0.36384        0.36384        0.36384        0.36384        0.36384        0.36384        0.36384        0.36384        0.36384        0.36384        0.36384        0.36384        0.36384        0.36384        0.36384        0.36384        0.36384        0.36384        0.36384        0.36384        0.36384        0.36384        0.36384        0.36384        0.36384        0.36384        0.36384        0.36384        0.36384        0.36384        0.36384        0.70706        0.78201        0.46852        0.03731        0.05679       -0.16090       -0.30845       -0.07485       -0.04350       -0.09460       -0.16894       -0.13463       -0.15952       -0.36359       -0.43641       -0.31333       -0.34894       -0.39469       -0.46625       -0.45239       -0.40791       -0.54423       -0.43608       -0.53480       -0.59047       -0.50073       -0.39551       -0.44470       -0.30976       -0.19610       -0.18220       -0.11958       -0.07838        0.00531        0.05389        0.24726        0.43244        0.37450        0.57707        0.67200        0.65400        0.63720        0.65605        0.70368        0.66360        0.64421        0.71859        0.67578        0.61013        0.53540        0.43865        0.33934        0.26015        0.20030        0.10226        0.07674        0.01624        0.07821        0.03888        0.08047        0.09086        0.11401        0.26349        0.41687        0.44999        0.48590        0.53090        0.53257        0.61228        0.62610        0.68372        0.68218        0.63632        0.63407        0.59827        0.49842        0.38854        0.37663        0.25661        0.22252        0.17912        0.15022        0.09487        0.06229        0.11719        0.21778        0.30049        0.28664        0.47961        0.53524        0.54112        0.60813        0.64364        0.59530        0.61546        0.53090        0.49153        0.51493        0.47085        0.38293        0.24061        0.11445        0.19605        0.20896        0.19374        0.20247        0.29363        0.25308        0.40726        0.45832        0.45704        0.51268        0.53407        0.55715        0.52034        0.37789        0.39669        0.41730        0.30160        0.30647        0.23744        0.19983        0.24842        0.29584        0.28933        0.36872        0.40082        0.42598        0.47184        0.54369        0.54352        0.50880        0.40990        0.41552        0.37690        0.35602        0.32056        0.30205        0.27955        0.30736        0.33852        0.36069        0.41180        0.44736        0.44422        0.45943        0.43445        0.41266        0.38653        0.32878        0.33817        0.35790        0.34008        0.31083        0.30919        0.30585        0.36749        0.39431        0.37374        0.39275        0.44818        0.40064        0.40114        0.39030        0.37516        0.36727        0.33130        0.32125        0.31730        0.34642        0.37345        0.38062        0.38788        0.35044        0.34600        0.34803        0.34576        0.35983        0.34380        0.36950        0.36250        0.35639        0.37624        0.37320        0.34872        0.36706        0.36665        0.39067        0.38241        0.34098        0.36454        0.33745        0.32502        0.34520        0.34243        0.33246        0.36948        0.32580        0.36076        0.36637        0.33842        0.34660        0.31479        0.35999        0.28234        0.30725        0.29849        0.30801        0.34291        0.36938        0.36172        0.34096        0.35681        0.34600        0.33021        0.32689        0.34131        0.38158        0.32608        0.34022        0.33017        0.31137        0.32189        0.33802        0.36791        0.33137        0.34372        0.35745        0.33766        0.34538        0.35195        0.32686        0.34853        0.28691        0.35361        0.34013        0.34746        0.36958        0.36211        0.38117        0.36836        0.32895        0.31509        0.33644        0.34258        0.30114        0.33756        0.35355        0.37474        0.37443        0.37040        0.34729        0.33548        0.32662        0.33200        0.31405        0.35937        0.32396        0.27694        0.31336        0.34201        0.31270        0.32686        0.30984        0.30349        0.32187        0.31832        0.30536        0.31863        0.27465        0.27686        0.26379        0.26269        0.32278        0.35045        0.31392        0.32056        0.37064        0.34769        0.32999        0.33597        0.28385        0.30360        0.29659        0.27173        0.30240        0.29512        0.29642        0.31920        0.34584        0.29355        0.32405        0.25932        0.27141        0.17170        0.30087        0.27065        0.27755        0.27503        0.28241        0.27856        0.34481        0.30356        0.20622        0.16056        0.39100        0.38318        0.31993        0.19550        0.20001       -0.00980       -0.17248
2.580884 2.552500 2.524276 2.496213 2.468310 2.440568 2.412986 2.385565 2.358305 2.331205 2.304265 2.277486 2.250868 2.224410 2.198113 2.171976 2.146000 2.120184 2.094529 2.069034 2.043700 2.018527 1.993514 1.968661 1.943969 1.919438 1.895067 1.870857 1.846807 1.822918 1.799189 1.775621 1.752213 1.728966 1.705879 1.682953 1.660188 1.637583 1.615138 1.592854 1.570731 1.548768 1.526966 1.505324 1.483843 1.462522 1.441362 1.420362 1.399523 1.378844 1.358326 1.606981 1.810847 1.474024 0.931222 1.071088 0.682873 0.463426 0.749171 0.776256 0.657802 0.565041 0.639777 0.595587 0.324259 0.255288 0.300877 0.272666 0.282682 0.134184 0.085370 0.169195 0.000231 0.112906 -0.039615 -0.072243 -0.054538 0.063687 -0.023926 0.087976 0.258159 0.229803 0.231576 0.297020 0.359726 0.410092 0.552908 0.720837 0.717238 0.889445 1.015085 0.940587 0.897674 0.935618 0.976175 0.932244 0.873452 0.933179 0.926310 0.777645 0.767349 0.649083 0.477634 0.401840 0.376256 0.213492 0.166796 0.105450 0.108158 0.131227 0.090365 0.148877 0.126254 0.176803 0.381045 0.508284 0.462917 0.486341 0.544480 0.526772 0.630639 0.596551 0.663382 0.558478 0.609202 0.510005 0.474170 0.299025 0.310384 0.123122 0.158691 0.005582 0.030217 -0.039660 -0.119868 -0.111673 0.018608 0.097318 0.101814 0.220674 0.320175 0.359723 0.366884 0.447066 0.453324 0.391324 0.374729 0.276340 0.273471 0.261859 0.214566 0.045583 -0.065111 -0.154612 -0.004375 -0.117813 -0.064273 0.002474 -0.035027 0.086274 0.174328 0.179134 0.205382 0.319289 0.337319 0.335221 0.182921 0.150786 0.194397 0.133018 0.065204 -0.000003 -0.035735 -0.032181 0.027090 0.019896 0.088414 0.095136 0.187965 0.174149 0.282418 0.289533 0.289315 0.171595 0.138146 0.150852 0.050679 0.064960 0.041845 0.000220 0.007049 0.000942 0.106131 0.072957 0.140347 0.161401 0.169826 0.178422 0.110167 0.108448 0.072260 0.035644 0.047061 0.070492 0.015076 0.014417 -0.007573 0.019233 0.072210 0.097725 0.082064 0.054950 0.123869 0.035047 0.105001 0.029344 0.058285 0.003501 -0.017565 -0.014616 -0.002895 0.017366 0.029065 0.064150 0.044762 0.027322 0.012206 0.056192 0.027870 0.035467 0.019565 0.053823 0.027229 0.047053 0.055300 0.051282 0.011364 0.070617 0.018024 0.069914 0.068223 -0.008826 0.079567 -0.008830 0.004233 0.036709 0.002223 0.008906 0.046480 -0.011487 0.061669 0.031682 0.027466 0.021036 0.006135 0.028017 -0.056412 -0.007048 -0.028126 -0.010989 0.029907 0.040950 0.032391 0.016095 0.030192 -0.001915 0.011969 -0.005551 0.044978 0.043339 -0.016198 -0.008788 0.002625 -0.037175 0.002972 0.008304 0.021092 -0.019577 0.024279 -0.011335 -0.004915 0.000438 0.000736 0.005159 -0.033932 -0.068778 0.002088 0.000398 -0.020829 0.014602 0.022418 0.031229 -0.000263 -0.029577 -0.007720 -0.004939 -0.001596 -0.023391 0.012068 -0.016853 0.101794 0.036353 0.036584 0.028633 0.015238 0.000239 0.020130 -0.025359 0.038598 0.013119 -0.063508 0.013345 0.005297 -0.003524 0.008499 -0.039940 -0.047324 0.014074 -0.028361 -0.028421 0.008903 -0.065710 -0.022052 -0.048559 -0.046550 0.034564 0.093908 0.024616 0.019817 0.098691 0.064667 0.041683 0.057033 0.020739 0.013494 0.008374 -0.006026 0.058979 0.026938 0.055690 0.009536 0.126838 0.031011 0.071948 -0.023377 0.044765 -0.145829 0.076303 -0.054120 0.041042 0.282465 0.321601 0.223250 0.358330 0.325306 0.245378 0.171641 0.517812 0.444784 0.331643 0.130018 0.211737 -0.180907
0.072396 0.072920 0.074492 0.077112 0.080779 0.085492 0.091250 0.098050 0.105892 0.114770 0.124682 0.135624 0.147588 0.160568 0.174555 0.189539 0.205508 0.222447 0.240340 0.259166 0.278904 0.299527 0.321007 0.343311 0.366400 0.390234 0.414766 0.439944 0.465711 0.492004 0.518755 0.545888 0.573321 0.600967 0.628729 0.656505 0.684184 0.711651 0.738779 0.765436 0.791483 0.816773 0.841152 0.864461 0.886531 0.907192 0.926266 0.943570 0.958920 0.972128 0.983004 0.991359 0.997004 0.999752 0.999423 0.995840 0.988834 0.978248 0.963934 0.945761 0.923611 0.897388 0.867014 0.832438 0.793633 0.750600 0.703373 0.652017 0.596635 0.537366 0.474388 0.407921 0.338226 0.265610 0.190421 0.113052 0.033939 0.046436 0.127554 0.208854 0.289740 0.369581 0.447718 0.523468 0.596129 0.664988 0.729326 0.788425 0.841581 0.888109 0.927353 0.958698 0.981578 0.995488 0.999995 0.994746 0.979483 0.954046 0.918390 0.872586 0.816834 0.751464 0.676946 0.593887 0.503035 0.405276 0.301632 0.193253 0.081407 0.032526 0.147077 0.260697 0.371781 0.478689 0.579769 0.673387 0.757952 0.831945 0.893955 0.942700 0.977067 0.996136 0.999210 0.985837 0.955838 0.909323 0.846703 0.768703 0.676363 0.571033 0.454369 0.328309 0.195052 0.057027 0.083149 0.222717 0.358823 0.488581 0.609136 0.717725 0.811748 0.888837 0.946919 0.984284 0.999643 0.992178 0.961587 0.908115 0.832576 0.736359 0.621421 0.490257 0.345867 0.191697 0.031562 0.130434 0.290005 0.442789 0.584476 0.710925 0.818297 0.903180 0.962711 0.994683 0.997643 0.970967 0.914919 0.830676 0.720335 0.586878 0.434118 0.266605 0.089509 0.091535 0.270589 0.441615 0.598672 0.736132 0.848891 0.932575 0.983724 0.999959 0.980110 0.924306 0.834023 0.712081 0.562580 0.390798 0.203022 0.006336 0.191631 0.382991 0.559922 0.714985 0.841451 0.933616 0.987074 0.998962 0.968135 0.895278 0.782946 0.635511 0.459028 0.261022 0.050187 0.163970 0.371558 0.562752 0.728266 0.859818 0.950577 0.995540 0.991844 0.938984 0.838914 0.696030 0.517022 0.310611 0.087140 0.141906 0.364478 0.568605 0.743039 0.877890 0.965232 0.999593 0.978349 0.901959 0.774036 0.601235 0.392960 0.160899 0.081607 0.320300 0.540850 0.729710 0.874983 0.967197 0.999974 0.970520 0.879911 0.733132 0.538882 0.309103 0.058306 0.197318 0.440929 0.656143 0.828155 0.944797 0.997437 0.981689 0.897830 0.750918 0.550554 0.310346 0.047019 0.220705 0.473411 0.692417 0.861166 0.966528 0.999882 0.957887 0.842884 0.662869 0.431008 0.164772 0.115347 0.387381 0.629588 0.822225 0.949188 0.999430 0.967996 0.856592 0.673615 0.433611 0.156213 0.135422 0.416494 0.662673 0.852227 0.967998 0.999020 0.941657 0.800104 0.586205 0.318566 0.021011 0.279472 0.555155 0.780149 0.932874 0.998199 0.969041 0.847232 0.643561 0.376932 0.072705 0.239642 0.529331 0.767336 0.929329 0.998246 0.966188 0.835444 0.618490 0.336925 0.019426 0.301102 0.590899 0.818931 0.960271 0.998912 0.929705 0.759166 0.505016 0.194475 0.138563 0.457156 0.725410 0.912566 0.996612 0.966994 0.826081 0.589167 0.282969 0.057273 0.391762 0.680787 0.889470 0.992045 0.975188 0.839886 0.601618 0.288754 0.060686 0.403580 0.696980 0.903547 0.996393 0.962713 0.805727 0.544585 0.212212 0.148718 0.491168 0.769873 0.947366 0.999142 0.917208 0.711478 0.408793 0.049597 0.317364 0.641589 0.877791 0.992342 0.968183 0.807583 0.532181 0.180256
1.000000 1.000000 1.000000 1.000000 1.000000 1.000000 1.000000 1.000000 1.000000 1.000000 1.000000 1.000000 1.000000 1.000000 1.000000 1.000000 1.000000 1.000000 1.000000 1.000000 1.000000 1.000000 1.000000 1.000000 1.000000 1.000000 1.000000 1.000000 1.000000 1.000000 1.000000 1.000000 1.000000 1.000000 1.000000 1.000000 1.000000 1.000000 1.000000 1.000000 1.000000 1.000000 1.000000 1.000000 1.000000 1.000000 1.000000 1.000000 1.000000 1.000000 1.000000 1.000000 0.946127 0.946127 0.948665 0.948665 0.948665 0.948665 0.948665 0.948665 0.948665 0.948665 0.948665 0.948665 0.948665 0.948665 0.948665 0.948665 0.948665 0.948665 0.948665 0.948665 0.948665 0.948665 0.948665 0.948665 0.948665 0.948665 0.948665 0.948665 0.948665 0.948665 0.948665 0.948665 0.948665 0.948665 0.948665 0.948665 0.948665 0.948665 0.948665 0.948665 0.948665 0.948665 0.937084 0.943720 0.945496 0.946087 0.945878 0.945810 0.945235 0.944705 0.947901 0.954130 0.954670 0.955517 0.958407 0.961797 0.965014 0.966143 0.967819 0.968509 0.968506 0.968013 0.968446 0.966520 0.964258 0.958977 0.961611 0.961558 0.959088 0.959054 0.963283 0.963385 0.960091 0.959052 0.958100 0.957821 0.957368 0.957437 0.958106 0.958247 0.958812 0.957931 0.955204 0.953709 0.953351 0.953272 0.953829 0.955328 0.955095 0.950174 0.948121 0.947168 0.944567 0.946377 0.948403 0.947889 0.947010 0.947381 0.947505 0.947585 0.947703 0.936781 0.924955 0.920841 0.908755 0.908189 0.912642 0.917627 0.921284 0.915761 0.914856 0.903044 0.905614 0.893911 0.889027 0.884220 0.887039 0.889210 0.881045 0.875302 0.865291 0.853411 0.850686 0.843404 0.846194 0.849998 0.846989 0.840791 0.838833 0.836024 0.823041 0.817959 0.818810 0.801304 0.810567 0.806638 0.806535 0.811427 0.818730 0.822546 0.820176 0.813546 0.804136 0.801045 0.790877 0.767280 0.718552 0.722009 0.710427 0.698081 0.701466 0.676304 0.671569 0.660632 0.652094 0.651720 0.616188 0.614899 0.585643 0.584939 0.587362 0.569572 0.538633 0.549469 0.552602 0.526165 0.508969 0.489933 0.484635 0.447431 0.467966 0.475921 0.477496 0.463017 0.441418 0.407900 0.428907 0.423139 0.428310 0.425697 0.439169 0.436859 0.433705 0.419930 0.423325 0.421097 0.416078 0.418486 0.412158 0.347314 0.304675 0.299796 0.285178 0.261717 0.189189 0.166410 0.158663 0.153014 0.158738 0.157820 0.124744 0.158941 0.146000 0.156448 0.162943 0.153739 0.157068 0.101860 0.113372 0.116231 0.032240 0.038964 0.034070 0.008817 0.007025 -0.030212 -0.016532 -0.027951 0.000378 -0.021823 -0.015285 -0.043483 -0.096264 -0.099661 -0.072752 -0.119174 -0.113802 -0.115182 -0.104515 -0.103754 -0.116969 -0.208603 -0.066526 -0.069729 -0.063156 -0.133439 -0.138091 -0.137681 -0.143922 -0.158014 -0.182630 -0.222198 -0.245567 -0.237116 -0.297118 -0.261826 -0.246443 -0.248740 -0.221488 -0.226397 -0.194576 -0.204107 -0.178428 -0.191698 -0.162707 -0.177235 -0.169986 -0.127077 -0.164495 -0.165697 -0.151616 -0.143964 -0.125321 -0.123780 -0.050892 -0.061223 -0.065936 -0.076627 -0.058711 -0.038321 -0.033489 -0.039096 -0.011918 0.015388 0.044588 0.044768 0.055734 0.000946 0.024464 0.011680 0.019819 0.073486 0.073486 0.073486 0.073486 0.073486 0.073486 0.073486 0.073486 0.073486 0.042685 0.042685 0.042685 0.042685 0.042685 0.042685 0.042685 0.042685 0.082360 0.082360 0.082360 0.082360 0.082360 0.082360 0.082360 0.082360 0.082360 0.082360 0.082360 0.082360 0.082360
0.000000 0.000000 0.000000 0.000000 0.000000 0.000000 0.000000 0.000000 0.000000 0.000000 0.000000 0.000000 0.000000 0.000000 0.000000 0.000000 0.000000 0.000000 0.000000 0.000000 0.000000 9401.000000 0.000000 0.000000 0.000000 0.000000 0.000000 0.000000 0.000000 0.000000 0.000000 0.000000 0.000000 0.000000 0.000000 0.000000 0.000000 0.000000 0.000000 0.000000 0.000000 0.000000 0.000000 0.000000 0.000000 0.000000 0.000000 0.000000 0.000000 0.000000 0.000000 0.000000 0.181818 0.181818 0.201008 0.201008 0.201008 0.201008 0.201008 0.201008 0.201008 0.201008 0.201008 0.201008 0.201008 0.201008 0.201008 0.201008 0.201008 0.201008 0.201008 0.201008 0.201008 0.201008 0.201008 0.201008 0.201008 0.201008 0.201008 0.201008 0.201008 0.201008 0.201008 0.201008 0.201008 0.201008 0.201008 0.201008 0.201008 0.201008 0.201008 0.201008 0.201008 0.201008 0.230940 0.230940 0.230940 0.230940 0.230940 0.230940 0.230940 0.230940 0.230940 0.230940 0.230940 0.230940 0.230940 0.230940 0.230940 0.230940 0.230940 0.230940 0.230940 0.230940 0.230940 0.230940 0.230940 0.230940 0.230940 0.230940 0.230940 0.230940 0.244339 0.244339 0.244339 0.244339 0.244339 0.244339 0.244339 0.244339 0.244339 0.244339 0.244339 0.244339 0.244339 0.244339 0.244339 0.244339 0.244339 0.244339 0.244339 0.244339 0.244339 0.244339 0.244339 0.256074 0.256074 0.256074 0.256074 0.256074 0.256074 0.256074 0.256074 0.256074 0.256074 0.256074 0.256074 0.256074 0.256074 0.256074 0.256074 0.256074 0.256074 0.256074 0.264906 0.264906 0.264906 0.264906 0.264906 0.264906 0.264906 0.264906 0.264906 0.264906 0.264906 0.264906 0.264906 0.264906 0.264906 0.264906 0.264906 0.264906 0.264906 0.264906 0.264906 0.264906 0.264906 0.264906 0.264906 0.264906 0.264906 0.264906 0.264906 0.264906 0.264906 0.264906 0.264906 0.264906 0.264906 0.264906 0.264906 0.264906 0.264906 0.264906 0.264906 0.264906 0.264906 0.264906 0.264906 0.264906 0.264906 0.264906 0.264906 0.264906 0.264906 0.264906 0.264906 0.264906 0.264906 0.264906 0.264906 0.264906 0.264906 0.264906 0.264906 0.264906 0.264906 0.264906 0.264906 0.264906 0.264906 0.264906 0.264906 0.264906 0.264906 0.264906 0.264906 0.264906 0.264906 0.269680 0.269680 0.269680 0.269680 0.269680 0.269680 0.269680 0.269680 0.269680 0.269680 0.269680 0.269680 0.274721 0.274721 0.274721 0.274721 0.274721 0.274721 0.274721 0.274721 0.274721 0.274721 0.274721 0.260378 0.260378 0.260378 0.260378 0.260378 0.260378 0.260378 0.260378 0.260378 0.260378 0.260378 0.260378 0.274721 0.274721 0.274721 0.274721 0.274721 0.274721 0.274721 0.274721 0.274721 0.274721 0.256074 0.256074 0.256074 0.256074 0.256074 0.256074 0.256074 0.256074 0.256074 0.256074 0.256074 0.264906 0.264906 0.264906 0.264906 0.264906 0.264906 0.264906 0.264906 0.264906 0.264906 0.269680 0.269680 0.269680 0.269680 0.269680 0.269680 0.269680 0.269680 0.269680 0.256074 0.256074 0.256074 0.256074 0.256074 0.256074 0.256074 0.256074 0.256074 0.256074 0.260378 0.260378 0.260378 0.260378 0.260378 0.260378 0.260378 0.260378 0.260378 0.256074 0.256074 0.256074 0.256074 0.256074 0.256074 0.256074 0.256074 0.256074 0.269680 0.269680 0.269680 0.269680 0.269680 0.269680 0.269680 0.269680 0.248069 0.248069 0.248069 0.248069 0.248069 0.248069 0.248069 0.248069 0.248069 0.248069 0.248069 0.248069 0.248069
