# Output from CTFFind version 4.1.9, run on 2019-11-03 18:52:06
# Input file: stack17_ub_averaged_2000.mrc ; Number of micrographs: 1
# Pixel size: 3.000 Angstroms ; acceleration voltage: 300.0 keV ; spherical aberration: 0.00 mm ; amplitude contrast: 0.07
# Box size: 512 pixels ; min. res.: 30.0 Angstroms ; max. res.: 5.0 Angstroms ; min. def.: 5000.0 um; max. def. 50000.0 um; num. frames averaged: 1
# 6 lines per micrograph: #1 - spatial frequency (1/Angstroms); #2 - 1D rotational average of spectrum (assuming no astigmatism); #3 - 1D rotational average of spectrum; #4 - CTF fit; #5 - cross-correlation between spectrum and CTF fit; #6 - 2sigma of expected cross correlation of noise
0.000000 0.000651 0.001302 0.001953 0.002604 0.003255 0.003906 0.004557 0.005208 0.005859 0.006510 0.007161 0.007812 0.008464 0.009115 0.009766 0.010417 0.011068 0.011719 0.012370 0.013021 0.013672 0.014323 0.014974 0.015625 0.016276 0.016927 0.017578 0.018229 0.018880 0.019531 0.020182 0.020833 0.021484 0.022135 0.022786 0.023438 0.024089 0.024740 0.025391 0.026042 0.026693 0.027344 0.027995 0.028646 0.029297 0.029948 0.030599 0.031250 0.031901 0.032552 0.033203 0.033854 0.034505 0.035156 0.035807 0.036458 0.037109 0.037760 0.038411 0.039062 0.039714 0.040365 0.041016 0.041667 0.042318 0.042969 0.043620 0.044271 0.044922 0.045573 0.046224 0.046875 0.047526 0.048177 0.048828 0.049479 0.050130 0.050781 0.051432 0.052083 0.052734 0.053385 0.054036 0.054688 0.055339 0.055990 0.056641 0.057292 0.057943 0.058594 0.059245 0.059896 0.060547 0.061198 0.061849 0.062500 0.063151 0.063802 0.064453 0.065104 0.065755 0.066406 0.067057 0.067708 0.068359 0.069010 0.069661 0.070312 0.070964 0.071615 0.072266 0.072917 0.073568 0.074219 0.074870 0.075521 0.076172 0.076823 0.077474 0.078125 0.078776 0.079427 0.080078 0.080729 0.081380 0.082031 0.082682 0.083333 0.083984 0.084635 0.085286 0.085938 0.086589 0.087240 0.087891 0.088542 0.089193 0.089844 0.090495 0.091146 0.091797 0.092448 0.093099 0.093750 0.094401 0.095052 0.095703 0.096354 0.097005 0.097656 0.098307 0.098958 0.099609 0.100260 0.100911 0.101562 0.102214 0.102865 0.103516 0.104167 0.104818 0.105469 0.106120 0.106771 0.107422 0.108073 0.108724 0.109375 0.110026 0.110677 0.111328 0.111979 0.112630 0.113281 0.113932 0.114583 0.115234 0.115885 0.116536 0.117188 0.117839 0.118490 0.119141 0.119792 0.120443 0.121094 0.121745 0.122396 0.123047 0.123698 0.124349 0.125000 0.125651 0.126302 0.126953 0.127604 0.128255 0.128906 0.129557 0.130208 0.130859 0.131510 0.132161 0.132812 0.133464 0.134115 0.134766 0.135417 0.136068 0.136719 0.137370 0.138021 0.138672 0.139323 0.139974 0.140625 0.141276 0.141927 0.142578 0.143229 0.143880 0.144531 0.145182 0.145833 0.146484 0.147135 0.147786 0.148438 0.149089 0.149740 0.150391 0.151042 0.151693 0.152344 0.152995 0.153646 0.154297 0.154948 0.155599 0.156250 0.156901 0.157552 0.158203 0.158854 0.159505 0.160156 0.160807 0.161458 0.162109 0.162760 0.163411 0.164062 0.164714 0.165365 0.166016 0.166667 0.167318 0.167969 0.168620 0.169271 0.169922 0.170573 0.171224 0.171875 0.172526 0.173177 0.173828 0.174479 0.175130 0.175781 0.176432 0.177083 0.177734 0.178385 0.179036 0.179688 0.180339 0.180990 0.181641 0.182292 0.182943 0.183594 0.184245 0.184896 0.185547 0.186198 0.186849 0.187500 0.188151 0.188802 0.189453 0.190104 0.190755 0.191406 0.192057 0.192708 0.193359 0.194010 0.194661 0.195312 0.195964 0.196615 0.197266 0.197917 0.198568 0.199219 0.199870 0.200521 0.201172 0.201823 0.202474 0.203125 0.203776 0.204427 0.205078 0.205729 0.206380 0.207031 0.207682 0.208333 0.208984 0.209635 0.210286 0.210938 0.211589 0.212240 0.212891 0.213542 0.214193 0.214844 0.215495 0.216146 0.216797 0.217448 0.218099 0.218750 0.219401 0.220052 0.220703 0.221354 0.222005 0.222656 0.223307 0.223958 0.224609 0.225260 0.225911 0.226562 0.227214 0.227865 0.228516 0.229167 0.229818 0.230469 0.231120 0.231771 0.232422 0.233073 0.233724 0.234375 0.235026 0.235677
       0.33384        0.33542        0.33675        0.33722        0.33742        0.33759        0.33765        0.33773        0.33778        0.33781        0.33785        0.33786        0.33789        0.33791        0.33792        0.33794        0.33794        0.33796        0.33796        0.33797        0.33798        0.33799        0.33799        0.33800        0.33800        0.33801        0.33801        0.33801        0.33802        0.33802        0.33802        0.33803        0.33803        0.33803        0.33804        0.33804        0.33804        0.33804        0.33804        0.33805        0.33805        0.33805        0.33805        0.33805        0.33805        0.33805        0.33806        0.33806        0.33806        0.33806        0.33806        0.57412        1.06051        0.81338        0.25010        0.10379       -0.00945       -0.14489        0.09582        0.15026        0.34036        0.27466        0.28581        0.16305        0.23696        0.12022        0.07444        0.01587        0.03679       -0.01664       -0.02455        0.01836       -0.09043       -0.16404       -0.13236       -0.13090       -0.21655       -0.25125       -0.31584       -0.26712       -0.30353       -0.42895       -0.43874       -0.31089       -0.34374       -0.30398       -0.21015       -0.19331       -0.19615       -0.15808       -0.07753       -0.03458        0.00228        0.16203        0.28653        0.40169        0.46444        0.46566        0.47105        0.58011        0.57672        0.63105        0.67392        0.66113        0.69872        0.66750        0.64971        0.68875        0.66262        0.59706        0.63700        0.47764        0.39120        0.32500        0.30736        0.18695        0.11115        0.04713        0.06024        0.00420       -0.02280       -0.01265        0.05082        0.05575        0.02353        0.14739        0.23966        0.37915        0.46556        0.49493        0.61208        0.65871        0.65418        0.63496        0.72620        0.65558        0.60744        0.64027        0.63675        0.55710        0.52295        0.40058        0.26702        0.20086        0.13854        0.17106        0.13547        0.09221        0.08887        0.11321        0.10802        0.17248        0.22919        0.31589        0.38276        0.41082        0.49336        0.52141        0.49218        0.44066        0.49642        0.51081        0.51210        0.43583        0.39433        0.34221        0.27356        0.24582        0.25776        0.22378        0.17425        0.23341        0.26858        0.26644        0.32009        0.35536        0.40685        0.45841        0.52658        0.47297        0.49210        0.51278        0.46992        0.42690        0.41238        0.37197        0.36427        0.29266        0.20962        0.22769        0.22955        0.20953        0.28038        0.25645        0.30963        0.30287        0.37436        0.40961        0.42230        0.44777        0.42726        0.42096        0.41832        0.41221        0.31437        0.33234        0.31961        0.28964        0.24514        0.25769        0.28442        0.29513        0.35867        0.34087        0.35246        0.40553        0.41344        0.39707        0.40284        0.40756        0.39674        0.37918        0.33629        0.28689        0.29455        0.27613        0.29640        0.29609        0.25650        0.28487        0.32713        0.39761        0.38037        0.39717        0.38911        0.38907        0.35607        0.30897        0.33286        0.31083        0.28646        0.29316        0.29508        0.32339        0.32387        0.33846        0.31245        0.33267        0.36498        0.35241        0.33781        0.33640        0.31929        0.27721        0.27519        0.23820        0.25877        0.26583        0.28136        0.32106        0.34076        0.33011        0.33820        0.31778        0.29268        0.30533        0.31707        0.32210        0.26690        0.28131        0.30457        0.30135        0.31538        0.31546        0.34108        0.31631        0.35447        0.32740        0.30434        0.27921        0.33353        0.29913        0.31096        0.32167        0.27759        0.32390        0.34386        0.33995        0.30214        0.33636        0.36186        0.34233        0.31514        0.30359        0.32430        0.31701        0.29118        0.28701        0.32473        0.31284        0.34195        0.34172        0.32373        0.36747        0.26813        0.27216        0.30512        0.23368        0.27623        0.26263        0.26347        0.27873        0.33180        0.30158        0.26994        0.28910        0.29508        0.27262        0.27338        0.25565        0.29326        0.30630        0.27065        0.25813        0.26914        0.27014        0.33494        0.29897        0.30881        0.29105        0.24538        0.23957        0.24290        0.30958        0.27958        0.37488        0.37889        0.25734        0.24501        0.26734        0.27283        0.29211        0.27322        0.24274        0.20367        0.34276        0.35004        0.31868        0.23213        0.19886        0.26877        0.27339        0.10030        0.13506        0.17878        0.24023        0.24072        0.21804       -0.01662        0.03078       -0.19677       -0.49455       -0.74011
2.279781 2.262752 2.243854 2.224559 2.205601 2.185895 2.166638 2.147222 2.127995 2.108908 2.089694 2.070740 2.051766 2.032981 2.014211 1.995520 1.977004 1.958511 1.940109 1.921807 1.903583 1.885505 1.867468 1.849533 1.831685 1.813953 1.796287 1.778712 1.761253 1.743858 1.726583 1.709376 1.692264 1.675259 1.658342 1.641510 1.624771 1.608122 1.591576 1.575108 1.558747 1.542463 1.526282 1.510191 1.494185 1.478283 1.462462 1.446744 1.431112 1.415570 1.400128 1.662382 2.239991 2.299278 0.989050 1.168625 0.925813 0.532957 0.994122 0.852723 1.193013 1.108581 1.219507 0.943443 0.974498 0.931522 0.875267 0.702192 0.660984 0.660455 0.637393 0.685837 0.575619 0.334619 0.421537 0.349136 0.317018 0.222082 0.132104 0.076803 0.199231 -0.048139 -0.217191 0.089532 0.022295 0.006701 0.133315 0.128549 0.161804 0.133904 0.289251 0.353619 0.323820 0.493627 0.715841 0.868834 0.919992 0.955081 0.984889 1.011361 1.101405 1.106169 1.150429 1.201399 1.123711 1.208394 1.020568 1.217255 1.143402 1.000006 1.045930 0.838619 0.736094 0.671978 0.587233 0.396353 0.254901 0.231971 0.194505 0.162668 -0.014895 0.043138 0.131449 0.140507 0.123886 0.105826 0.363688 0.401975 0.691695 0.694727 0.728958 0.862196 0.926846 0.846429 0.942315 0.873483 0.797206 0.771038 0.837317 0.751443 0.614852 0.588702 0.311341 0.230019 0.058156 0.157855 0.080621 0.033944 0.002222 -0.022005 -0.008585 0.059768 0.145184 0.218893 0.311332 0.357738 0.485630 0.561166 0.504745 0.395004 0.448377 0.498643 0.505852 0.407348 0.349614 0.251380 0.187340 0.142300 0.028282 0.135863 0.007262 0.052321 0.028207 0.132616 0.109665 0.218396 0.254207 0.241149 0.457605 0.358999 0.385928 0.390092 0.389489 0.298556 0.299592 0.254372 0.181017 0.149551 0.023434 -0.028060 0.014970 -0.043901 0.000438 0.045908 0.044444 0.119902 0.095996 0.232798 0.207187 0.263949 0.283974 0.233034 0.225116 0.254362 0.138051 0.086866 0.108294 0.117151 -0.008056 -0.002911 0.007897 0.048241 0.075442 0.129887 0.126555 0.144605 0.243263 0.187261 0.232397 0.189698 0.226000 0.203425 0.187925 0.077710 0.073759 0.048586 0.006772 0.114722 0.026472 0.022459 0.053181 0.172437 0.181612 0.172398 0.216264 0.177156 0.186897 0.098586 0.108123 0.086867 0.041422 0.071691 0.023963 0.057017 0.078733 0.128774 0.068410 0.081555 0.118488 0.131717 0.133165 0.090758 0.099170 0.083404 -0.014252 0.033312 -0.051001 0.001969 0.030162 0.014617 0.090065 0.106071 0.069441 0.109018 0.011576 0.034752 0.028927 0.060347 0.029727 -0.022083 0.006181 0.041875 0.021279 0.077470 0.033061 0.101610 0.024651 0.109960 0.076095 0.020659 -0.030572 0.120345 0.003444 0.056238 0.032132 -0.004467 0.086473 0.077082 0.080622 0.042871 0.080471 0.089214 0.040686 0.059504 -0.014143 0.037627 0.013027 0.020758 -0.022592 0.090665 -0.016293 0.116251 0.105989 0.053098 0.164661 -0.025095 -0.011780 0.059549 -0.049474 0.009213 -0.020256 0.001566 0.013968 0.111578 0.033178 -0.041563 0.043072 0.006648 -0.014892 -0.007232 0.014473 -0.009352 0.084993 -0.025413 0.015835 0.004683 -0.004847 0.153307 0.010573 0.109549 0.048723 -0.022421 0.016272 0.022010 0.098734 0.038685 0.248410 0.188768 0.054149 0.036831 0.131728 0.060768 0.130874 0.118659 0.131977 0.033518 0.241978 0.268685 0.443355 0.314256 0.238540 0.395627 0.379592 0.083311 0.179183 0.230456 0.392202 0.279486 0.042776 -0.088598 0.143685 -0.267090 -1.017451
0.072396 0.072824 0.074107 0.076245 0.079238 0.083084 0.087784 0.093336 0.099738 0.106989 0.115086 0.124027 0.133808 0.144424 0.155871 0.168142 0.181231 0.195130 0.209827 0.225314 0.241575 0.258598 0.276365 0.294858 0.314056 0.333934 0.354467 0.375626 0.397378 0.419687 0.442515 0.465818 0.489551 0.513663 0.538099 0.562800 0.587702 0.612737 0.637833 0.662911 0.687890 0.712681 0.737192 0.761325 0.784979 0.808046 0.830414 0.851967 0.872585 0.892142 0.910511 0.927560 0.943155 0.957159 0.969433 0.979838 0.988235 0.994483 0.998445 0.999984 0.998968 0.995268 0.988762 0.979332 0.966870 0.951277 0.932465 0.910356 0.884887 0.856011 0.823695 0.787925 0.748708 0.706069 0.660057 0.610744 0.558227 0.502629 0.444100 0.382817 0.318987 0.252845 0.184656 0.114713 0.043339 0.029115 0.102269 0.175717 0.249030 0.321753 0.393412 0.463514 0.531552 0.597006 0.659350 0.718054 0.772588 0.822430 0.867070 0.906014 0.938791 0.964962 0.984121 0.995904 0.999998 0.996143 0.984140 0.963858 0.935236 0.898294 0.853131 0.799936 0.738983 0.670643 0.595374 0.513734 0.426367 0.334012 0.237492 0.137713 0.035655 0.067632 0.171042 0.273423 0.373583 0.470314 0.562396 0.648623 0.727810 0.798820 0.860575 0.912076 0.952426 0.980842 0.996676 0.999429 0.988771 0.964548 0.926799 0.875763 0.811884 0.735817 0.648426 0.550782 0.444152 0.329995 0.209937 0.085760 0.040627 0.167210 0.291904 0.412588 0.527136 0.633461 0.729552 0.813516 0.883620 0.938327 0.976341 0.996638 0.998500 0.981543 0.945738 0.891430 0.819344 0.730588 0.626646 0.509363 0.380917 0.243793 0.100732 0.045310 0.191228 0.333823 0.469883 0.596247 0.709885 0.807976 0.887984 0.947726 0.985446 0.999872 0.990264 0.956460 0.898897 0.818623 0.717297 0.597167 0.461029 0.312182 0.154345 0.008418 0.171800 0.331369 0.482677 0.621395 0.743434 0.845082 0.923115 0.974917 0.998577 0.992974 0.957835 0.893776 0.802316 0.685853 0.547630 0.391651 0.222582 0.045629 0.133632 0.309405 0.475876 0.627401 0.758702 0.865067 0.942524 0.988010 0.999503 0.976131 0.918241 0.827424 0.706498 0.559440 0.391283 0.207956 0.016085 0.177231 0.364679 0.539010 0.693323 0.821353 0.917729 0.978224 0.999961 0.981566 0.923271 0.826959 0.696126 0.535785 0.352303 0.153161 0.053330 0.258372 0.453039 0.628690 0.777336 0.892036 0.967233 0.999051 0.985515 0.926705 0.824799 0.684044 0.510595 0.312293 0.098319 0.121211 0.335705 0.534617 0.707967 0.846849 0.943919 0.993806 0.993437 0.942260 0.842340 0.698319 0.517242 0.308245 0.082119 0.149222 0.373364 0.578054 0.751879 0.884924 0.969361 0.999939 0.974356 0.893458 0.761273 0.584857 0.373960 0.140522 0.101975 0.339281 0.557203 0.742456 0.883509 0.971323 0.999966 0.967062 0.874022 0.726048 0.531895 0.303403 0.054797 0.198147 0.439118 0.652307 0.823465 0.940878 0.996218 0.985170 0.907823 0.768766 0.576878 0.344804 0.088190 0.175371 0.427499 0.650331 0.827802 0.946817 0.998276 0.977822 0.886260 0.729617 0.518812 0.268946 0.001719 0.273082 0.524671 0.737203 0.894079 0.982730 0.995675 0.931214 0.793690 0.593268 0.345264 0.069010 0.213586 0.479787 0.707842 0.878791 0.978086 0.996892 0.932933 0.790828 0.581840 0.323062 0.036066 0.254827 0.524621 0.749780 0.910317 0.991617 0.985844 0.892766 0.719929 0.482139 0.200267 0.100522 0.392979 0.650243 0.848316 0.968354 0.998523 0.935252 0.783726 0.557574 0.277722
1.000000 1.000000 1.000000 1.000000 1.000000 1.000000 1.000000 1.000000 1.000000 1.000000 1.000000 1.000000 1.000000 1.000000 1.000000 1.000000 1.000000 1.000000 1.000000 1.000000 1.000000 1.000000 1.000000 1.000000 1.000000 1.000000 1.000000 1.000000 1.000000 1.000000 1.000000 1.000000 1.000000 1.000000 1.000000 1.000000 1.000000 1.000000 1.000000 1.000000 1.000000 1.000000 1.000000 1.000000 1.000000 1.000000 1.000000 1.000000 1.000000 1.000000 1.000000 1.000000 0.805946 0.805946 0.805946 0.805946 0.805946 0.805946 0.805946 0.805946 0.784617 0.784617 0.784617 0.784617 0.784617 0.784617 0.784617 0.784617 0.784617 0.784617 0.784617 0.784617 0.784617 0.784617 0.784617 0.784617 0.784617 0.784617 0.784617 0.784617 0.784617 0.784617 0.784617 0.784617 0.784617 0.784617 0.784617 0.784617 0.784617 0.784617 0.784617 0.784617 0.784617 0.784617 0.784617 0.784617 0.784617 0.784617 0.784617 0.784617 0.784617 0.784617 0.784617 0.784617 0.784617 0.955369 0.954379 0.955352 0.957006 0.958935 0.959157 0.959134 0.959714 0.959683 0.962002 0.962230 0.962670 0.963208 0.964236 0.964690 0.968946 0.970435 0.972373 0.974128 0.976772 0.978216 0.978808 0.976870 0.972420 0.967697 0.968534 0.966092 0.967444 0.966881 0.965547 0.966196 0.966881 0.965759 0.963811 0.963169 0.961843 0.960659 0.959760 0.961304 0.961193 0.961439 0.961839 0.961970 0.962187 0.962391 0.962510 0.962604 0.962776 0.961875 0.960581 0.961839 0.961681 0.960257 0.958797 0.956366 0.963535 0.962250 0.961740 0.961595 0.961682 0.962120 0.962623 0.960569 0.958738 0.958329 0.951126 0.941295 0.939694 0.939048 0.937966 0.940658 0.942535 0.943075 0.942104 0.943516 0.940643 0.936562 0.934224 0.927398 0.928109 0.928959 0.930628 0.930071 0.930381 0.929880 0.927874 0.924080 0.924676 0.925178 0.927632 0.917374 0.914399 0.902753 0.890396 0.891296 0.892464 0.894148 0.898663 0.894967 0.899702 0.898819 0.900135 0.890923 0.888288 0.888270 0.887614 0.884766 0.887642 0.887203 0.885316 0.883952 0.869491 0.854068 0.854838 0.856521 0.857886 0.856982 0.852771 0.851078 0.851032 0.844621 0.840750 0.842083 0.843989 0.843944 0.844534 0.845651 0.814566 0.800113 0.789327 0.793105 0.789197 0.788926 0.791121 0.788188 0.779177 0.755181 0.752377 0.743481 0.740420 0.744059 0.728366 0.729957 0.725428 0.704516 0.672205 0.646832 0.648442 0.628486 0.620181 0.622852 0.607417 0.587561 0.602286 0.579514 0.587838 0.602147 0.595288 0.590193 0.586014 0.584820 0.575630 0.568314 0.555646 0.532878 0.545668 0.551381 0.537301 0.537451 0.495688 0.483438 0.475706 0.502588 0.488433 0.468673 0.488291 0.489957 0.494385 0.488420 0.480503 0.462949 0.467867 0.434226 0.440120 0.441492 0.424632 0.409916 0.399420 0.381036 0.354418 0.360621 0.334764 0.347130 0.352147 0.382714 0.392546 0.395118 0.382916 0.384023 0.366447 0.391296 0.402706 0.381181 0.380034 0.361744 0.359502 0.355807 0.373780 0.388247 0.366108 0.396472 0.396536 0.425588 0.439036 0.435293 0.441820 0.414575 0.367432 0.391242 0.393381 0.392432 0.381452 0.353445 0.317311 0.306799 0.298341 0.337129 0.333224 0.333224 0.333224 0.333224 0.333224 0.338886 0.338886 0.338886 0.338886 0.338886 0.338886 0.338886 0.338886 0.338886 0.338886 0.338886 0.350315 0.350315 0.350315 0.350315 0.350315 0.350315 0.350315 0.350315 0.350315 0.350315 0.350315 0.350315 0.350315 0.350315 0.350315
0.000000 0.000000 0.000000 0.000000 0.000000 0.000000 0.000000 0.000000 0.000000 0.000000 0.000000 0.000000 0.000000 0.000000 0.000000 0.000000 0.000000 0.000000 0.000000 0.000000 0.000000 0.000000 0.000000 0.000000 0.000000 0.000000 0.000000 0.000000 0.000000 0.000000 0.000000 0.000000 0.000000 0.000000 0.000000 0.000000 0.000000 0.000000 0.000000 0.000000 0.000000 0.000000 0.000000 0.000000 0.000000 0.000000 0.000000 0.000000 0.000000 0.000000 0.000000 0.000000 0.172133 0.172133 0.172133 0.172133 0.172133 0.172133 0.172133 0.172133 0.189832 0.189832 0.189832 0.189832 0.189832 0.189832 0.189832 0.189832 0.189832 0.189832 0.189832 0.189832 0.189832 0.189832 0.189832 0.189832 0.189832 0.189832 0.189832 0.189832 0.189832 0.189832 0.189832 0.189832 0.189832 0.189832 0.189832 0.189832 0.189832 0.189832 0.189832 0.189832 0.189832 0.189832 0.189832 0.189832 0.189832 0.189832 0.189832 0.189832 0.189832 0.189832 0.189832 0.189832 0.189832 0.222222 0.222222 0.222222 0.222222 0.222222 0.222222 0.222222 0.222222 0.222222 0.222222 0.222222 0.222222 0.222222 0.222222 0.222222 0.222222 0.222222 0.222222 0.222222 0.222222 0.222222 0.222222 0.222222 0.222222 0.222222 0.222222 0.222222 0.222222 0.222222 0.222222 0.234082 0.234082 0.234082 0.234082 0.234082 0.234082 0.234082 0.234082 0.234082 0.234082 0.234082 0.234082 0.234082 0.234082 0.234082 0.234082 0.234082 0.234082 0.234082 0.234082 0.234082 0.234082 0.234082 0.234082 0.234082 0.240772 0.240772 0.240772 0.240772 0.240772 0.240772 0.240772 0.240772 0.240772 0.240772 0.240772 0.240772 0.240772 0.240772 0.240772 0.240772 0.240772 0.240772 0.240772 0.240772 0.240772 0.240772 0.248069 0.248069 0.248069 0.248069 0.248069 0.248069 0.248069 0.248069 0.248069 0.248069 0.248069 0.248069 0.248069 0.248069 0.248069 0.248069 0.248069 0.248069 0.248069 0.256074 0.256074 0.256074 0.256074 0.256074 0.256074 0.256074 0.256074 0.256074 0.256074 0.256074 0.256074 0.256074 0.256074 0.256074 0.256074 0.256074 0.248069 0.248069 0.248069 0.248069 0.248069 0.248069 0.248069 0.248069 0.248069 0.248069 0.248069 0.248069 0.248069 0.248069 0.248069 0.248069 0.248069 0.256074 0.256074 0.256074 0.256074 0.256074 0.256074 0.256074 0.256074 0.256074 0.256074 0.256074 0.256074 0.256074 0.256074 0.256074 0.256074 0.256074 0.256074 0.256074 0.256074 0.256074 0.256074 0.256074 0.256074 0.256074 0.256074 0.256074 0.256074 0.256074 0.251976 0.251976 0.251976 0.251976 0.251976 0.251976 0.251976 0.251976 0.251976 0.251976 0.251976 0.251976 0.251976 0.251976 0.264906 0.264906 0.264906 0.264906 0.264906 0.264906 0.264906 0.264906 0.264906 0.264906 0.264906 0.264906 0.248069 0.248069 0.248069 0.248069 0.248069 0.248069 0.248069 0.248069 0.248069 0.248069 0.248069 0.248069 0.248069 0.251976 0.251976 0.251976 0.251976 0.251976 0.251976 0.251976 0.251976 0.251976 0.251976 0.251976 0.251976 0.256074 0.256074 0.256074 0.256074 0.256074 0.256074 0.256074 0.256074 0.256074 0.256074 0.256074 0.251976 0.251976 0.251976 0.251976 0.251976 0.251976 0.251976 0.251976 0.251976 0.251976 0.251976 0.248069 0.248069 0.248069 0.248069 0.248069 0.248069 0.248069 0.248069 0.248069 0.248069 0.248069 0.256074 0.256074 0.256074 0.256074 0.256074 0.256074 0.256074 0.256074 0.256074 0.256074 0.256074 0.256074 0.256074 0.256074 0.256074
