# Output from CTFFind version 4.1.9, run on 2019-11-03 18:52:47
# Input file: stack15_ub_averaged_1500.mrc ; Number of micrographs: 1
# Pixel size: 3.000 Angstroms ; acceleration voltage: 300.0 keV ; spherical aberration: 0.00 mm ; amplitude contrast: 0.07
# Box size: 512 pixels ; min. res.: 30.0 Angstroms ; max. res.: 5.0 Angstroms ; min. def.: 5000.0 um; max. def. 50000.0 um; num. frames averaged: 1
# 6 lines per micrograph: #1 - spatial frequency (1/Angstroms); #2 - 1D rotational average of spectrum (assuming no astigmatism); #3 - 1D rotational average of spectrum; #4 - CTF fit; #5 - cross-correlation between spectrum and CTF fit; #6 - 2sigma of expected cross correlation of noise
0.000000 0.000651 0.001302 0.001953 0.002604 0.003255 0.003906 0.004557 0.005208 0.005859 0.006510 0.007161 0.007812 0.008464 0.009115 0.009766 0.010417 0.011068 0.011719 0.012370 0.013021 0.013672 0.014323 0.014974 0.015625 0.016276 0.016927 0.017578 0.018229 0.018880 0.019531 0.020182 0.020833 0.021484 0.022135 0.022786 0.023438 0.024089 0.024740 0.025391 0.026042 0.026693 0.027344 0.027995 0.028646 0.029297 0.029948 0.030599 0.031250 0.031901 0.032552 0.033203 0.033854 0.034505 0.035156 0.035807 0.036458 0.037109 0.037760 0.038411 0.039062 0.039714 0.040365 0.041016 0.041667 0.042318 0.042969 0.043620 0.044271 0.044922 0.045573 0.046224 0.046875 0.047526 0.048177 0.048828 0.049479 0.050130 0.050781 0.051432 0.052083 0.052734 0.053385 0.054036 0.054688 0.055339 0.055990 0.056641 0.057292 0.057943 0.058594 0.059245 0.059896 0.060547 0.061198 0.061849 0.062500 0.063151 0.063802 0.064453 0.065104 0.065755 0.066406 0.067057 0.067708 0.068359 0.069010 0.069661 0.070312 0.070964 0.071615 0.072266 0.072917 0.073568 0.074219 0.074870 0.075521 0.076172 0.076823 0.077474 0.078125 0.078776 0.079427 0.080078 0.080729 0.081380 0.082031 0.082682 0.083333 0.083984 0.084635 0.085286 0.085938 0.086589 0.087240 0.087891 0.088542 0.089193 0.089844 0.090495 0.091146 0.091797 0.092448 0.093099 0.093750 0.094401 0.095052 0.095703 0.096354 0.097005 0.097656 0.098307 0.098958 0.099609 0.100260 0.100911 0.101562 0.102214 0.102865 0.103516 0.104167 0.104818 0.105469 0.106120 0.106771 0.107422 0.108073 0.108724 0.109375 0.110026 0.110677 0.111328 0.111979 0.112630 0.113281 0.113932 0.114583 0.115234 0.115885 0.116536 0.117188 0.117839 0.118490 0.119141 0.119792 0.120443 0.121094 0.121745 0.122396 0.123047 0.123698 0.124349 0.125000 0.125651 0.126302 0.126953 0.127604 0.128255 0.128906 0.129557 0.130208 0.130859 0.131510 0.132161 0.132812 0.133464 0.134115 0.134766 0.135417 0.136068 0.136719 0.137370 0.138021 0.138672 0.139323 0.139974 0.140625 0.141276 0.141927 0.142578 0.143229 0.143880 0.144531 0.145182 0.145833 0.146484 0.147135 0.147786 0.148438 0.149089 0.149740 0.150391 0.151042 0.151693 0.152344 0.152995 0.153646 0.154297 0.154948 0.155599 0.156250 0.156901 0.157552 0.158203 0.158854 0.159505 0.160156 0.160807 0.161458 0.162109 0.162760 0.163411 0.164062 0.164714 0.165365 0.166016 0.166667 0.167318 0.167969 0.168620 0.169271 0.169922 0.170573 0.171224 0.171875 0.172526 0.173177 0.173828 0.174479 0.175130 0.175781 0.176432 0.177083 0.177734 0.178385 0.179036 0.179688 0.180339 0.180990 0.181641 0.182292 0.182943 0.183594 0.184245 0.184896 0.185547 0.186198 0.186849 0.187500 0.188151 0.188802 0.189453 0.190104 0.190755 0.191406 0.192057 0.192708 0.193359 0.194010 0.194661 0.195312 0.195964 0.196615 0.197266 0.197917 0.198568 0.199219 0.199870 0.200521 0.201172 0.201823 0.202474 0.203125 0.203776 0.204427 0.205078 0.205729 0.206380 0.207031 0.207682 0.208333 0.208984 0.209635 0.210286 0.210938 0.211589 0.212240 0.212891 0.213542 0.214193 0.214844 0.215495 0.216146 0.216797 0.217448 0.218099 0.218750 0.219401 0.220052 0.220703 0.221354 0.222005 0.222656 0.223307 0.223958 0.224609 0.225260 0.225911 0.226562 0.227214 0.227865 0.228516 0.229167 0.229818 0.230469 0.231120 0.231771 0.232422 0.233073 0.233724 0.234375 0.235026 0.235677
       0.43094        0.43094        0.43094        0.43094        0.43094        0.43094        0.43094        0.43094        0.43094        0.43094        0.43094        0.43094        0.43094        0.43094        0.43094        0.43094        0.43094        0.43093        0.43094        0.43094        0.43093        0.43093        0.43094        0.43094        0.43093        0.43094        0.43094        0.43094        0.43093        0.43094        0.43093        0.43093        0.43093        0.43094        0.43094        0.43094        0.43094        0.43094        0.43094        0.43093        0.43094        0.43094        0.43094        0.43094        0.43094        0.43093        0.43093        0.43093        0.43093        0.43093        0.43094        0.13798       -0.25325       -0.23840       -0.20331       -0.17208       -0.11806       -0.14627       -0.08292        0.06260       -0.01624        0.12869        0.19593        0.26707        0.18290        0.23744        0.20838        0.23278        0.31768        0.33811        0.34464        0.28457        0.38303        0.39440        0.45289        0.35225        0.36408        0.29962        0.39296        0.27884        0.33356        0.39781        0.40139        0.53410        0.38768        0.49587        0.47216        0.47257        0.42544        0.39450        0.44072        0.45192        0.32861        0.39501        0.42156        0.48120        0.43858        0.45852        0.35615        0.31718        0.44442        0.41699        0.50098        0.46389        0.46942        0.45651        0.49821        0.42642        0.43676        0.40482        0.40565        0.48288        0.43275        0.41808        0.36907        0.41592        0.40891        0.44241        0.43458        0.42994        0.42598        0.42946        0.44435        0.46331        0.40053        0.38930        0.45588        0.48971        0.41141        0.37936        0.36385        0.36423        0.48855        0.48867        0.43639        0.42012        0.43681        0.41591        0.42989        0.43785        0.46472        0.48067        0.44504        0.48167        0.37932        0.37612        0.39277        0.48199        0.44110        0.39045        0.43827        0.46663        0.52457        0.51190        0.45944        0.46227        0.44248        0.44247        0.48236        0.43350        0.45174        0.44857        0.48821        0.43429        0.43303        0.43684        0.45371        0.45760        0.46041        0.45355        0.43059        0.45668        0.44068        0.40481        0.43280        0.46863        0.46009        0.48827        0.50486        0.54045        0.49270        0.49150        0.45455        0.45857        0.42163        0.47136        0.44197        0.49802        0.48388        0.40304        0.41460        0.44508        0.46742        0.47237        0.45464        0.41733        0.40757        0.38139        0.48489        0.46408        0.43520        0.47635        0.45965        0.41936        0.47983        0.45059        0.40308        0.43716        0.46408        0.47574        0.46511        0.47138        0.44141        0.43921        0.49408        0.45559        0.47440        0.49547        0.48925        0.41934        0.42979        0.46753        0.45898        0.39481        0.40493        0.45589        0.43087        0.44892        0.40229        0.42902        0.40621        0.42974        0.45629        0.43964        0.47170        0.36821        0.40655        0.43011        0.39872        0.40781        0.39025        0.42302        0.41836        0.38723        0.40152        0.44443        0.42300        0.43730        0.45118        0.35138        0.38785        0.43153        0.38787        0.44232        0.48503        0.38731        0.40919        0.37838        0.37764        0.38602        0.41537        0.42326        0.39198        0.35477        0.41936        0.40972        0.37098        0.38133        0.39048        0.48375        0.42750        0.42406        0.38368        0.44989        0.43347        0.39680        0.42096        0.41825        0.38967        0.42521        0.42174        0.36772        0.43293        0.41967        0.42065        0.38992        0.41141        0.43729        0.41220        0.40008        0.38533        0.41000        0.46171        0.36705        0.36743        0.41523        0.45603        0.41616        0.42308        0.41845        0.41610        0.39851        0.37598        0.36926        0.36259        0.38780        0.38157        0.32303        0.37077        0.39139        0.36946        0.37523        0.41813        0.37709        0.36155        0.33219        0.37008        0.41037        0.42379        0.36997        0.36468        0.36262        0.33775        0.39815        0.30952        0.41733        0.39661        0.40490        0.27746        0.33781        0.38772        0.40823        0.40391        0.35970        0.44348        0.43138        0.36437        0.39062        0.38048        0.36643        0.36033        0.32901        0.29038        0.32963        0.26950        0.34583        0.24987        0.37032        0.35834        0.39498        0.35927        0.34691        0.34389        0.37147        0.45379        0.39188        0.21274        0.15741        0.14592        0.08444        0.01490       -0.65729       -0.94577
0.430935 0.430935 0.430935 0.430935 0.430935 0.430935 0.430935 0.430935 0.430935 0.430935 0.430935 0.430935 0.430935 0.430935 0.430935 0.430935 0.430935 0.430935 0.430935 0.430935 0.430935 0.430935 0.430935 0.430935 0.430935 0.430935 0.430935 0.430935 0.430935 0.430935 0.430935 0.430935 0.430935 0.430935 0.430935 0.430935 0.430935 0.430935 0.430935 0.430935 0.430935 0.430935 0.430935 0.430935 0.430935 0.430935 0.430935 0.430935 0.430935 0.430935 0.430935 0.213349 -0.265482 -0.236107 -0.193939 -0.212145 -0.110718 -0.143211 -0.077911 0.038113 0.009836 0.061499 0.211719 0.283231 0.200716 0.210866 0.181870 0.206583 0.392551 0.316488 0.324034 0.300849 0.358799 0.377087 0.469891 0.348526 0.404784 0.305354 0.370815 0.262499 0.296670 0.417466 0.393567 0.517933 0.375383 0.520483 0.478266 0.438814 0.498579 0.336933 0.462139 0.448160 0.336935 0.426612 0.365286 0.503364 0.441536 0.475259 0.386322 0.268160 0.423645 0.447063 0.459790 0.467638 0.482020 0.431014 0.499481 0.439651 0.462212 0.430219 0.325815 0.530772 0.388660 0.486094 0.367818 0.406576 0.433956 0.377439 0.470007 0.454042 0.430391 0.439669 0.393717 0.520297 0.391317 0.377988 0.424309 0.514138 0.412556 0.392000 0.372132 0.314134 0.488601 0.481149 0.501635 0.410727 0.458314 0.345604 0.478700 0.454039 0.395854 0.497700 0.475845 0.487384 0.403978 0.378989 0.343394 0.486016 0.451768 0.403177 0.429957 0.452264 0.491291 0.540914 0.486622 0.467603 0.490868 0.360008 0.508083 0.406919 0.445756 0.423867 0.531618 0.438959 0.410378 0.453243 0.481076 0.440579 0.442192 0.435931 0.458568 0.478944 0.401678 0.452015 0.395857 0.500119 0.423936 0.513831 0.470314 0.520706 0.577038 0.487921 0.421035 0.491536 0.438161 0.429801 0.475274 0.464963 0.523802 0.415233 0.407694 0.447744 0.451718 0.457557 0.471002 0.455854 0.390824 0.356404 0.452546 0.493683 0.444665 0.466303 0.471406 0.443931 0.423687 0.484169 0.455931 0.366689 0.484300 0.432604 0.492256 0.460893 0.481727 0.417530 0.431429 0.534651 0.422960 0.505782 0.484745 0.454412 0.428004 0.454036 0.483283 0.398228 0.390492 0.433065 0.462459 0.430926 0.439367 0.382405 0.438445 0.406828 0.446270 0.442366 0.487161 0.417071 0.359095 0.436046 0.404115 0.409923 0.410126 0.375730 0.412944 0.418359 0.385936 0.419760 0.448904 0.420150 0.466365 0.406733 0.349161 0.398919 0.418987 0.398157 0.468467 0.481246 0.370878 0.414944 0.385040 0.350031 0.403971 0.421370 0.408815 0.395944 0.350603 0.434053 0.405294 0.380027 0.360131 0.422689 0.447990 0.450376 0.408977 0.381778 0.457916 0.431259 0.412712 0.378679 0.455794 0.406254 0.387529 0.453445 0.338926 0.469578 0.368592 0.439860 0.366566 0.434344 0.430405 0.389912 0.382372 0.400832 0.426093 0.445406 0.336799 0.358717 0.425217 0.459067 0.377532 0.423069 0.460839 0.394691 0.434370 0.344836 0.380596 0.376798 0.345641 0.419542 0.292390 0.386259 0.388852 0.358981 0.373472 0.399260 0.380105 0.360108 0.314245 0.365059 0.435014 0.431819 0.341813 0.366642 0.337423 0.333726 0.424137 0.278115 0.446122 0.406554 0.422710 0.215711 0.341033 0.416982 0.392681 0.424584 0.311061 0.474687 0.402415 0.378386 0.339949 0.381645 0.431355 0.366067 0.309256 0.256518 0.351842 0.155867 0.440416 0.225060 0.359338 0.368486 0.409354 0.349980 0.370809 0.328917 0.370444 0.497916 0.389154 0.142944 0.186049 0.037768 0.055303 0.022812 -0.945774
0.072396 0.073699 0.077606 0.084115 0.093223 0.104920 0.119197 0.136038 0.155421 0.177316 0.201683 0.228469 0.257609 0.289018 0.322593 0.358206 0.395706 0.434912 0.475609 0.517549 0.560446 0.603973 0.647761 0.691396 0.734418 0.776323 0.816559 0.854533 0.889610 0.921118 0.948354 0.970593 0.987095 0.997119 0.999933 0.994832 0.981154 0.958301 0.925758 0.883115 0.830093 0.766565 0.692583 0.608397 0.514482 0.411551 0.300574 0.182788 0.059701 0.066912 0.195014 0.322334 0.446391 0.564540 0.674018 0.772016 0.855746 0.922530 0.969894 0.995662 0.998063 0.975832 0.928309 0.855528 0.758290 0.638226 0.497821 0.340422 0.170201 0.007911 0.188336 0.365003 0.531540 0.681500 0.808628 0.907139 0.972016 0.999305 0.986391 0.932243 0.837604 0.705118 0.539368 0.346811 0.135621 0.084600 0.303206 0.508998 0.690803 0.838099 0.941681 0.994304 0.991269 0.930918 0.814963 0.648643 0.440651 0.202817 0.050446 0.302945 0.537700 0.738098 0.889110 0.978521 0.998033 0.944171 0.818887 0.629770 0.389816 0.116727 0.168251 0.441901 0.680901 0.863858 0.973341 0.997710 0.932539 0.781488 0.556444 0.276873 0.031630 0.339533 0.616127 0.832622 0.965263 0.998147 0.925390 0.752339 0.495606 0.181831 0.154821 0.476223 0.744560 0.926878 0.999350 0.950699 0.784266 0.518357 0.184669 0.175164 0.514558 0.787981 0.957200 0.996911 0.898922 0.674155 0.352019 0.022976 0.397045 0.714721 0.927163 0.999958 0.919145 0.694355 0.358380 0.037064 0.428912 0.752676 0.953173 0.994301 0.866084 0.587558 0.204690 0.216625 0.601573 0.879684 0.998000 0.931714 0.690036 0.315859 0.121128 0.536957 0.849396 0.994458 0.940088 0.694006 0.303700 0.151911 0.577930 0.883127 0.999812 0.899520 0.600825 0.166997 0.306562 0.712848 0.957481 0.981136 0.774829 0.383907 0.100842 0.563536 0.890718 0.999520 0.859513 0.502266 0.015509 0.477504 0.848818 0.999259 0.885765 0.534884 0.037979 0.471515 0.853474 0.999903 0.866388 0.486850 0.033575 0.546557 0.902496 0.994532 0.791745 0.350909 0.197875 0.688581 0.969330 0.950094 0.632950 0.114314 0.442910 0.859790 0.999089 0.811588 0.355090 0.221606 0.726032 0.986160 0.909908 0.519397 0.053355 0.609574 0.952174 0.956264 0.616250 0.051362 0.534418 0.925226 0.973377 0.656743 0.090718 0.511923 0.920085 0.973440 0.647046 0.064948 0.544953 0.939192 0.956503 0.585590 0.026161 0.629222 0.972923 0.910474 0.463733 0.181623 0.751332 0.998718 0.812704 0.270096 0.393476 0.884266 0.980610 0.634850 0.000533 0.637685 0.982801 0.872526 0.353724 0.333354 0.864360 0.983895 0.630215 0.030019 0.677599 0.994042 0.819373 0.235771 0.467898 0.937175 0.930951 0.447754 0.267813 0.846352 0.984041 0.604144 0.096975 0.748340 0.999667 0.711294 0.035066 0.662242 0.996348 0.778448 0.125136 0.600287 0.988012 0.814136 0.173193 0.569343 0.983358 0.824030 0.179890 0.572339 0.985820 0.809877 0.145361 0.608998 0.993655 0.769210 0.069039 0.675788 0.999887 0.695755 0.049478 0.765023 0.992264 0.580652 0.208340 0.863369 0.953621 0.414864 0.400503 0.950404 0.863398 0.193045 0.609989 0.998089 0.701212 0.080970 0.808632 0.972654 0.453257 0.387738 0.954920 0.840592 0.121640 0.686818 0.997692 0.579863 0.265118 0.915931 0.887396 0.195665 0.644514 0.999564 0.596152 0.263325 0.922404 0.870860 0.143443 0.697340 0.992915 0.506251 0.382619 0.968388 0.779725 0.037070 0.825438 0.943849 0.290701 0.602622 0.999793
1.000000 1.000000 1.000000 1.000000 1.000000 1.000000 1.000000 1.000000 1.000000 1.000000 1.000000 1.000000 1.000000 1.000000 1.000000 1.000000 1.000000 1.000000 1.000000 1.000000 1.000000 1.000000 1.000000 1.000000 1.000000 1.000000 1.000000 1.000000 1.000000 1.000000 1.000000 1.000000 1.000000 1.000000 1.000000 1.000000 1.000000 1.000000 1.000000 1.000000 1.000000 1.000000 1.000000 1.000000 1.000000 1.000000 1.000000 1.000000 1.000000 1.000000 1.000000 1.000000 -0.144721 -0.144721 -0.144721 -0.144721 -0.144721 -0.144721 -0.144721 -0.144721 -0.251685 -0.251685 -0.251685 -0.251685 -0.251685 -0.251685 -0.251685 -0.251685 -0.251685 -0.251685 -0.251685 -0.251685 -0.251685 -0.251685 -0.251685 -0.251685 -0.259379 -0.283264 -0.304866 -0.308104 -0.325117 -0.269661 -0.201929 -0.141692 -0.189276 -0.189158 -0.186547 -0.188936 -0.103625 -0.063148 -0.039931 0.010230 -0.049878 -0.052301 -0.057700 -0.101947 -0.158352 -0.152103 -0.163377 -0.126852 -0.099493 -0.072516 -0.059729 -0.035938 0.003018 0.048537 0.054681 0.051422 0.058666 0.076517 0.085607 0.084749 0.161322 0.166121 0.207757 0.222149 0.320645 0.302201 0.288850 0.302676 0.245303 0.196966 0.175862 0.152457 0.212290 0.235896 0.214858 0.242878 0.170270 0.098454 0.070155 0.082053 0.078565 0.077087 0.130079 0.203358 0.208260 0.198083 0.165828 0.147900 0.121738 0.120412 0.075759 0.065342 0.035649 0.068289 0.052193 0.039346 0.064758 0.028802 0.001290 0.006272 -0.037257 -0.093210 -0.112623 -0.127473 -0.183491 -0.146362 -0.098503 -0.146074 -0.122292 -0.096447 -0.133553 -0.170747 -0.154606 -0.117853 -0.162744 -0.083972 -0.074233 -0.066349 -0.049821 -0.036663 0.017260 0.034446 0.090840 0.135237 0.133317 0.169107 0.162792 0.227149 0.272686 0.289889 0.322280 0.316591 0.283244 0.251051 0.257819 0.251460 0.257564 0.305328 0.233126 0.265952 0.281817 0.272017 0.301231 0.265074 0.328588 0.326241 0.317697 0.383281 0.334021 0.350726 0.363924 0.393588 0.350562 0.384760 0.367357 0.371616 0.325580 0.326763 0.332327 0.336113 0.298602 0.288241 0.279831 0.264288 0.269225 0.215214 0.187485 0.231252 0.224435 0.258658 0.185221 0.187961 0.178966 0.209159 0.225674 0.255201 0.265763 0.291693 0.288269 0.354278 0.353813 0.321044 0.281966 0.195504 0.174820 0.250944 0.279812 0.238399 0.252071 0.251195 0.236853 0.285204 0.255136 0.288231 0.251464 0.271458 0.247022 0.261669 0.246344 0.274651 0.272062 0.341785 0.336124 0.359421 0.335537 0.341605 0.360233 0.335675 0.351715 0.334525 0.317286 0.329193 0.345570 0.350275 0.380832 0.393877 0.411502 0.381898 0.418136 0.452519 0.471726 0.493374 0.480140 0.493907 0.480088 0.562422 0.586589 0.585993 0.544121 0.539337 0.511571 0.526654 0.541428 0.527548 0.477230 0.451497 0.387810 0.343199 0.338589 0.300246 0.278427 0.330820 0.322180 0.259637 0.274099 0.247928 0.225176 0.214267 0.217316 0.246300 0.217058 0.253793 0.253228 0.266057 0.287111 0.301832 0.257719 0.215820 0.258773 0.250162 0.217680 0.173547 0.125801 0.098552 0.148092 0.137910 0.138767 0.092479 0.101287 0.068629 0.022089 -0.016135 -0.020346 -0.007402 -0.032508 -0.049242 -0.084611 -0.132292 -0.098109 0.007744 0.021471 0.024969 -0.040509 0.059995 0.065067 0.081559 -0.036238 -0.036238 -0.036238 -0.036238 0.003070 0.003070 0.003070 -0.052402 -0.052402 -0.052402 -0.052402 0.003070 0.003070 0.003070 -0.031399 -0.031399 -0.031399 -0.031399 -0.019139 -0.019139 -0.019139 -0.048887 -0.048887 -0.048887 -0.048887
0.000000 0.000000 0.000000 0.000000 0.000000 0.000000 0.000000 0.000000 0.000000 0.000000 0.000000 0.000000 0.000000 0.000000 0.000000 0.000000 0.000000 0.000000 0.000000 0.000000 0.000000 0.000000 0.000000 0.000000 0.000000 0.000000 0.000000 0.000000 0.000000 0.000000 0.000000 0.000000 0.000000 0.000000 0.000000 0.000000 0.000000 0.000000 0.000000 0.000000 0.000000 0.000000 0.000000 0.000000 0.000000 0.000000 0.000000 0.000000 0.000000 0.000000 0.000000 0.000000 0.248069 0.248069 0.248069 0.248069 0.248069 0.248069 0.248069 0.248069 0.285714 0.285714 0.285714 0.285714 0.285714 0.285714 0.285714 0.285714 0.285714 0.285714 0.285714 0.285714 0.285714 0.285714 0.285714 0.285714 0.285714 0.285714 0.304997 0.304997 0.304997 0.304997 0.304997 0.304997 0.304997 0.304997 0.304997 0.304997 0.304997 0.304997 0.304997 0.304997 0.320256 0.320256 0.320256 0.320256 0.320256 0.320256 0.320256 0.320256 0.320256 0.320256 0.320256 0.320256 0.320256 0.320256 0.320256 0.320256 0.320256 0.320256 0.320256 0.320256 0.320256 0.320256 0.320256 0.328798 0.328798 0.328798 0.328798 0.328798 0.328798 0.328798 0.328798 0.328798 0.328798 0.320256 0.320256 0.320256 0.320256 0.320256 0.320256 0.320256 0.320256 0.320256 0.320256 0.338062 0.338062 0.338062 0.338062 0.338062 0.338062 0.338062 0.338062 0.328798 0.328798 0.328798 0.328798 0.328798 0.328798 0.328798 0.328798 0.328798 0.328798 0.328798 0.328798 0.328798 0.328798 0.328798 0.328798 0.320256 0.320256 0.320256 0.320256 0.320256 0.320256 0.320256 0.320256 0.328798 0.328798 0.328798 0.328798 0.328798 0.328798 0.328798 0.320256 0.320256 0.320256 0.320256 0.320256 0.320256 0.320256 0.338062 0.338062 0.338062 0.338062 0.338062 0.338062 0.328798 0.328798 0.328798 0.328798 0.328798 0.328798 0.304997 0.304997 0.304997 0.304997 0.304997 0.304997 0.304997 0.320256 0.320256 0.320256 0.320256 0.320256 0.320256 0.338062 0.338062 0.338062 0.338062 0.338062 0.304997 0.304997 0.304997 0.304997 0.304997 0.304997 0.328798 0.328798 0.328798 0.328798 0.328798 0.298142 0.298142 0.298142 0.298142 0.298142 0.298142 0.320256 0.320256 0.320256 0.320256 0.320256 0.312348 0.312348 0.312348 0.312348 0.312348 0.304997 0.304997 0.304997 0.304997 0.304997 0.304997 0.304997 0.304997 0.304997 0.304997 0.298142 0.298142 0.298142 0.298142 0.298142 0.298142 0.298142 0.298142 0.298142 0.298142 0.320256 0.320256 0.320256 0.320256 0.285714 0.285714 0.285714 0.285714 0.285714 0.312348 0.312348 0.312348 0.312348 0.280056 0.280056 0.280056 0.280056 0.280056 0.304997 0.304997 0.304997 0.304997 0.298142 0.298142 0.298142 0.298142 0.298142 0.298142 0.298142 0.298142 0.269680 0.269680 0.269680 0.269680 0.269680 0.291730 0.291730 0.291730 0.291730 0.285714 0.285714 0.285714 0.285714 0.285714 0.285714 0.285714 0.285714 0.280056 0.280056 0.280056 0.280056 0.280056 0.280056 0.280056 0.280056 0.312348 0.312348 0.312348 0.274721 0.274721 0.274721 0.274721 0.269680 0.269680 0.269680 0.269680 0.269680 0.269680 0.269680 0.269680 0.298142 0.298142 0.298142 0.264906 0.264906 0.264906 0.264906 0.291730 0.291730 0.291730 0.260378 0.260378 0.260378 0.260378 0.285714 0.285714 0.285714 0.256074 0.256074 0.256074 0.256074 0.285714 0.285714 0.285714 0.251976 0.251976 0.251976 0.251976 0.280056 0.280056 0.280056 0.274721 0.274721 0.274721 0.274721
