# Output from CTFFind version 4.1.9, run on 2019-11-03 18:51:31
# Input file: stack18_ub_averaged_750.mrc ; Number of micrographs: 1
# Pixel size: 3.000 Angstroms ; acceleration voltage: 300.0 keV ; spherical aberration: 0.00 mm ; amplitude contrast: 0.07
# Box size: 512 pixels ; min. res.: 30.0 Angstroms ; max. res.: 5.0 Angstroms ; min. def.: 5000.0 um; max. def. 50000.0 um; num. frames averaged: 1
# 6 lines per micrograph: #1 - spatial frequency (1/Angstroms); #2 - 1D rotational average of spectrum (assuming no astigmatism); #3 - 1D rotational average of spectrum; #4 - CTF fit; #5 - cross-correlation between spectrum and CTF fit; #6 - 2sigma of expected cross correlation of noise
0.000000 0.000651 0.001302 0.001953 0.002604 0.003255 0.003906 0.004557 0.005208 0.005859 0.006510 0.007161 0.007812 0.008464 0.009115 0.009766 0.010417 0.011068 0.011719 0.012370 0.013021 0.013672 0.014323 0.014974 0.015625 0.016276 0.016927 0.017578 0.018229 0.018880 0.019531 0.020182 0.020833 0.021484 0.022135 0.022786 0.023438 0.024089 0.024740 0.025391 0.026042 0.026693 0.027344 0.027995 0.028646 0.029297 0.029948 0.030599 0.031250 0.031901 0.032552 0.033203 0.033854 0.034505 0.035156 0.035807 0.036458 0.037109 0.037760 0.038411 0.039062 0.039714 0.040365 0.041016 0.041667 0.042318 0.042969 0.043620 0.044271 0.044922 0.045573 0.046224 0.046875 0.047526 0.048177 0.048828 0.049479 0.050130 0.050781 0.051432 0.052083 0.052734 0.053385 0.054036 0.054688 0.055339 0.055990 0.056641 0.057292 0.057943 0.058594 0.059245 0.059896 0.060547 0.061198 0.061849 0.062500 0.063151 0.063802 0.064453 0.065104 0.065755 0.066406 0.067057 0.067708 0.068359 0.069010 0.069661 0.070312 0.070964 0.071615 0.072266 0.072917 0.073568 0.074219 0.074870 0.075521 0.076172 0.076823 0.077474 0.078125 0.078776 0.079427 0.080078 0.080729 0.081380 0.082031 0.082682 0.083333 0.083984 0.084635 0.085286 0.085938 0.086589 0.087240 0.087891 0.088542 0.089193 0.089844 0.090495 0.091146 0.091797 0.092448 0.093099 0.093750 0.094401 0.095052 0.095703 0.096354 0.097005 0.097656 0.098307 0.098958 0.099609 0.100260 0.100911 0.101562 0.102214 0.102865 0.103516 0.104167 0.104818 0.105469 0.106120 0.106771 0.107422 0.108073 0.108724 0.109375 0.110026 0.110677 0.111328 0.111979 0.112630 0.113281 0.113932 0.114583 0.115234 0.115885 0.116536 0.117188 0.117839 0.118490 0.119141 0.119792 0.120443 0.121094 0.121745 0.122396 0.123047 0.123698 0.124349 0.125000 0.125651 0.126302 0.126953 0.127604 0.128255 0.128906 0.129557 0.130208 0.130859 0.131510 0.132161 0.132812 0.133464 0.134115 0.134766 0.135417 0.136068 0.136719 0.137370 0.138021 0.138672 0.139323 0.139974 0.140625 0.141276 0.141927 0.142578 0.143229 0.143880 0.144531 0.145182 0.145833 0.146484 0.147135 0.147786 0.148438 0.149089 0.149740 0.150391 0.151042 0.151693 0.152344 0.152995 0.153646 0.154297 0.154948 0.155599 0.156250 0.156901 0.157552 0.158203 0.158854 0.159505 0.160156 0.160807 0.161458 0.162109 0.162760 0.163411 0.164062 0.164714 0.165365 0.166016 0.166667 0.167318 0.167969 0.168620 0.169271 0.169922 0.170573 0.171224 0.171875 0.172526 0.173177 0.173828 0.174479 0.175130 0.175781 0.176432 0.177083 0.177734 0.178385 0.179036 0.179688 0.180339 0.180990 0.181641 0.182292 0.182943 0.183594 0.184245 0.184896 0.185547 0.186198 0.186849 0.187500 0.188151 0.188802 0.189453 0.190104 0.190755 0.191406 0.192057 0.192708 0.193359 0.194010 0.194661 0.195312 0.195964 0.196615 0.197266 0.197917 0.198568 0.199219 0.199870 0.200521 0.201172 0.201823 0.202474 0.203125 0.203776 0.204427 0.205078 0.205729 0.206380 0.207031 0.207682 0.208333 0.208984 0.209635 0.210286 0.210938 0.211589 0.212240 0.212891 0.213542 0.214193 0.214844 0.215495 0.216146 0.216797 0.217448 0.218099 0.218750 0.219401 0.220052 0.220703 0.221354 0.222005 0.222656 0.223307 0.223958 0.224609 0.225260 0.225911 0.226562 0.227214 0.227865 0.228516 0.229167 0.229818 0.230469 0.231120 0.231771 0.232422 0.233073 0.233724 0.234375 0.235026 0.235677
       0.32945        0.32945        0.32945        0.32945        0.32945        0.32945        0.32945        0.32945        0.32945        0.32945        0.32945        0.32945        0.32945        0.32945        0.32945        0.32945        0.32945        0.32945        0.32945        0.32945        0.32945        0.32945        0.32945        0.32945        0.32945        0.32945        0.32945        0.32945        0.32945        0.32945        0.32945        0.32945        0.32945        0.32945        0.32945        0.32945        0.32945        0.32945        0.32945        0.32945        0.32945        0.32945        0.32945        0.32945        0.32945        0.32945        0.32945        0.32945        0.32945        0.32945        0.32945        0.68201        1.09108        0.55585        0.11352       -0.01277       -0.20361       -0.13955       -0.17435       -0.22026       -0.14235       -0.05180       -0.00260        0.10659        0.00908       -0.08428       -0.10599       -0.29272       -0.26685       -0.37193       -0.18835       -0.34436       -0.44171       -0.36425       -0.33905       -0.44608       -0.46645       -0.46955       -0.46228       -0.56814       -0.53860       -0.41726       -0.31306       -0.32215       -0.32670       -0.23249       -0.13180        0.07113        0.13002        0.22060        0.25998        0.33668        0.35899        0.40019        0.52044        0.58949        0.68086        0.76230        0.65938        0.72176        0.71911        0.64457        0.70157        0.61271        0.56352        0.49441        0.41412        0.33332        0.30634        0.23098        0.09845        0.02336       -0.00693       -0.04718       -0.07190       -0.06520       -0.08263       -0.01903        0.08324        0.13753        0.30092        0.40724        0.42913        0.43833        0.51117        0.68503        0.63372        0.67844        0.76709        0.74735        0.75121        0.55478        0.51045        0.43523        0.42886        0.35732        0.23376        0.18362        0.06404       -0.00477        0.06973        0.02309        0.09216        0.14940        0.20908        0.30748        0.38290        0.45868        0.54087        0.56804        0.57051        0.56144        0.60000        0.56023        0.40427        0.38522        0.38680        0.37310        0.25102        0.22704        0.18786        0.12616        0.09668        0.10674        0.17405        0.25153        0.30343        0.35864        0.39852        0.51091        0.44906        0.52698        0.56147        0.52866        0.49841        0.43806        0.35280        0.31028        0.34522        0.27947        0.28572        0.17225        0.19849        0.21202        0.22755        0.30892        0.39664        0.40449        0.45264        0.47159        0.43586        0.45385        0.44677        0.41265        0.36454        0.30709        0.24153        0.25289        0.29043        0.22043        0.28360        0.28904        0.28259        0.33344        0.36950        0.43688        0.42927        0.37362        0.39816        0.36674        0.35645        0.31843        0.28993        0.24323        0.26093        0.25617        0.27725        0.28792        0.31771        0.36386        0.39173        0.42912        0.40018        0.37161        0.34499        0.29629        0.31391        0.28395        0.25153        0.21869        0.29016        0.29546        0.34459        0.34631        0.34828        0.36959        0.33872        0.40336        0.34054        0.33977        0.34673        0.26388        0.27004        0.28393        0.29558        0.29734        0.32982        0.30934        0.36686        0.36084        0.34388        0.32990        0.33799        0.31658        0.30122        0.23788        0.21806        0.22639        0.26233        0.29457        0.32502        0.31759        0.36113        0.34782        0.29678        0.30270        0.28937        0.27965        0.26524        0.23718        0.26202        0.26286        0.28296        0.32096        0.35870        0.37227        0.31391        0.28672        0.32008        0.30378        0.25751        0.32366        0.29784        0.29721        0.32129        0.31736        0.32251        0.36967        0.35292        0.35109        0.30591        0.30211        0.29134        0.29237        0.33066        0.29286        0.29563        0.35411        0.35399        0.31747        0.33012        0.32085        0.31534        0.25496        0.25316        0.32095        0.29897        0.32368        0.32503        0.27650        0.27386        0.28658        0.26785        0.28903        0.29136        0.29401        0.25979        0.24523        0.30360        0.32477        0.28048        0.27821        0.27067        0.23507        0.27711        0.24607        0.25853        0.30483        0.25585        0.26280        0.21444        0.24878        0.26946        0.25290        0.27511        0.25629        0.21416        0.23678        0.28110        0.25978        0.32498        0.26695        0.22146        0.21130        0.26373        0.20799        0.24040        0.30687        0.20386        0.19476        0.17608        0.27583        0.28579        0.37926        0.27524        0.18556        0.35868        0.33770        0.12884        0.04872       -0.13976       -0.42568       -0.53420
2.696289 2.669218 2.642290 2.615503 2.588859 2.562356 2.535996 2.509778 2.483702 2.457768 2.431976 2.406326 2.380818 2.355453 2.330229 2.305147 2.280208 2.255410 2.230755 2.206242 2.181871 2.157641 2.133555 2.109609 2.085807 2.062146 2.038627 2.015250 1.992016 1.968923 1.945973 1.923164 1.900498 1.877974 1.855592 1.833351 1.811254 1.789298 1.767484 1.745812 1.724282 1.702895 1.681649 1.660545 1.639584 1.618765 1.598087 1.577552 1.557159 1.536908 1.516799 1.670788 2.375592 1.916389 1.122385 1.161597 0.871632 0.827602 0.774079 0.749663 0.786136 0.854188 0.956783 0.985559 0.891597 0.807815 0.806024 0.489511 0.538585 0.362179 0.571597 0.426399 0.257893 0.342818 0.324802 0.246034 0.150636 0.121509 0.184755 0.027551 -0.051919 0.131279 0.265179 0.204217 0.178233 0.241504 0.368256 0.560577 0.595757 0.683922 0.797985 0.757992 0.881055 0.776314 0.962748 1.030651 1.090941 1.258625 1.079258 1.151191 1.099480 1.128268 1.036196 0.972451 0.902449 0.858579 0.732203 0.630640 0.587468 0.467209 0.378933 0.241470 0.156592 0.141344 0.104134 0.083772 0.048833 0.077322 0.192902 0.154060 0.414023 0.533908 0.531208 0.515470 0.619271 0.767192 0.775130 0.677450 0.838999 0.807144 0.993773 0.577797 0.588460 0.468286 0.482534 0.359381 0.282791 0.158781 0.084640 -0.092624 0.006155 -0.072321 -0.013316 0.034111 0.089467 0.205009 0.243945 0.401061 0.397227 0.489011 0.504408 0.490235 0.546331 0.556266 0.315659 0.312846 0.225613 0.302283 0.208638 0.051330 0.060589 0.047943 -0.071242 -0.090195 -0.027254 0.080297 0.092520 0.197407 0.201402 0.299794 0.343133 0.318299 0.418805 0.494039 0.325423 0.339536 0.285056 0.191614 0.180212 0.165069 0.107722 0.100278 -0.019858 0.050185 0.044788 0.073674 0.204593 0.213990 0.296104 0.295835 0.334751 0.252159 0.275229 0.273224 0.199335 0.172766 0.087083 0.002268 0.131747 0.011908 0.073029 0.094623 0.062333 0.065510 0.177583 0.175355 0.241694 0.247648 0.139821 0.169477 0.118875 0.097808 0.054517 0.036237 -0.033450 0.027699 0.012178 0.034581 0.029938 0.099322 0.104713 0.180202 0.180384 0.147047 0.072988 0.062489 0.055095 0.028040 0.046155 -0.067009 -0.029672 0.050451 0.007939 0.124165 0.054889 0.102780 0.079111 0.191130 0.147633 0.086492 0.092111 0.121183 -0.025203 0.037503 0.037428 0.054551 0.059261 0.076060 0.057772 0.136793 0.099383 0.106390 0.073121 0.125369 0.060936 0.023953 -0.029084 -0.030156 -0.019363 0.012074 0.042804 0.097274 0.059441 0.114582 0.071083 0.003004 0.027462 0.015946 -0.011014 -0.030009 -0.043008 -0.002604 -0.023188 0.009559 0.042669 0.105406 0.035884 0.048585 -0.023820 0.048494 0.001490 -0.039149 0.063606 -0.011415 -0.004656 0.059288 -0.014429 0.063153 0.052409 0.070727 0.044119 -0.014832 -0.020019 0.008230 -0.038534 0.028171 -0.018444 -0.009821 0.062185 -0.012069 0.055040 0.011654 0.024313 -0.009956 -0.037001 -0.074668 0.062086 -0.007579 0.034986 0.009784 -0.024858 0.030785 0.021074 0.013541 0.022813 0.013158 0.031920 0.001025 -0.029476 0.046667 0.096356 0.014671 0.015183 0.002573 -0.024211 0.005867 -0.024365 0.007207 0.091488 -0.050307 0.009404 -0.063209 0.024415 -0.014076 -0.007598 -0.010489 -0.010531 -0.043635 -0.058046 0.074416 -0.027263 0.046919 -0.013184 -0.059141 -0.083166 0.001312 -0.085034 -0.030565 0.019444 -0.100173 0.248583 0.215288 0.296709 0.273569 0.417374 0.336207 0.216881 0.386215 0.487984 0.132784 0.109024 -0.150177 -0.588809
0.072396 0.072869 0.074288 0.076653 0.079962 0.084217 0.089414 0.095553 0.102632 0.110649 0.119600 0.129482 0.140291 0.152020 0.164664 0.178214 0.192662 0.207995 0.224203 0.241269 0.259177 0.277907 0.297439 0.317746 0.338801 0.360573 0.383026 0.406122 0.429818 0.454067 0.478818 0.504012 0.529590 0.555484 0.581623 0.607927 0.634314 0.660694 0.686971 0.713045 0.738808 0.764146 0.788940 0.813063 0.836386 0.858772 0.880078 0.900159 0.918863 0.936037 0.951522 0.965159 0.976785 0.986238 0.993355 0.997975 0.999939 0.999093 0.995287 0.988377 0.978228 0.964714 0.947722 0.927150 0.902914 0.874944 0.843190 0.807623 0.768238 0.725051 0.678107 0.627479 0.573269 0.515610 0.454670 0.390647 0.323777 0.254330 0.182611 0.108964 0.033764 0.042575 0.119608 0.196856 0.273812 0.349940 0.424679 0.497450 0.567656 0.634686 0.697926 0.756759 0.810575 0.858775 0.900781 0.936040 0.964035 0.984293 0.996391 0.999964 0.994718 0.980432 0.956967 0.924277 0.882411 0.831521 0.771864 0.703810 0.627842 0.544556 0.454663 0.358984 0.258448 0.154087 0.047025 0.061527 0.170290 0.277922 0.383040 0.484235 0.580091 0.669206 0.750216 0.821813 0.882773 0.931976 0.968434 0.991309 0.999940 0.993858 0.972809 0.936768 0.885953 0.820829 0.742121 0.650809 0.548125 0.435545 0.314774 0.187723 0.056491 0.076675 0.209408 0.339268 0.463779 0.580483 0.686988 0.781021 0.860479 0.923486 0.968436 0.994048 0.999403 0.983987 0.947715 0.890955 0.814545 0.719788 0.608445 0.482718 0.345209 0.198884 0.047011 0.106907 0.259206 0.406149 0.544021 0.669217 0.778353 0.868351 0.936547 0.980771 0.999431 0.991577 0.956961 0.896063 0.810116 0.701094 0.571689 0.425258 0.265749 0.097612 0.074325 0.244986 0.409187 0.561810 0.697947 0.813086 0.903251 0.965168 0.996393 0.995420 0.961774 0.896060 0.799984 0.676335 0.528925 0.362494 0.182575 0.004683 0.192705 0.374728 0.544032 0.694208 0.819391 0.914523 0.975560 0.999671 0.985388 0.932714 0.843165 0.719773 0.566998 0.390606 0.197467 0.004690 0.207583 0.402700 0.581665 0.736602 0.860494 0.947523 0.993361 0.995419 0.953016 0.867468 0.742096 0.582129 0.394524 0.187686 0.028882 0.245007 0.450313 0.634727 0.788976 0.905084 0.976798 0.999964 0.972798 0.896050 0.773035 0.609544 0.413605 0.195128 0.034577 0.263363 0.478876 0.669245 0.823730 0.933364 0.991502 0.994265 0.940834 0.833589 0.678057 0.482678 0.258390 0.018051 0.224276 0.454135 0.657541 0.821848 0.936563 0.994053 0.990099 0.924252 0.799962 0.624463 0.408404 0.165255 0.089498 0.339324 0.567719 0.759284 0.900813 0.982234 0.997370 0.944470 0.826440 0.650759 0.429069 0.176466 0.089503 0.350018 0.586316 0.781063 0.919645 0.991319 0.990097 0.915316 0.771812 0.569692 0.323693 0.052152 0.224296 0.484307 0.707438 0.875811 0.975571 0.998100 0.940824 0.807567 0.608387 0.358900 0.079123 0.208100 0.478909 0.710455 0.882816 0.980786 0.995277 0.924241 0.773007 0.553988 0.285737 0.008545 0.302974 0.571250 0.789009 0.936077 0.998408 0.969508 0.851194 0.653612 0.394469 0.097530 0.209505 0.497547 0.738888 0.909890 0.993369 0.980409 0.871419 0.676274 0.413551 0.108843 0.207656 0.504122 0.750291 0.920589 0.996867 0.970427 0.843122 0.627380 0.345110 0.025578 0.297567 0.589805 0.819443 0.961114 0.998662 0.927099 0.753377 0.495856 0.182480 0.152160 0.470595 0.736663 0.919666 0.997984 0.961746 0.814201 0.571596
1.000000 1.000000 1.000000 1.000000 1.000000 1.000000 1.000000 1.000000 1.000000 1.000000 1.000000 1.000000 1.000000 1.000000 1.000000 1.000000 1.000000 1.000000 1.000000 1.000000 1.000000 1.000000 1.000000 1.000000 1.000000 1.000000 1.000000 1.000000 1.000000 1.000000 1.000000 1.000000 1.000000 1.000000 1.000000 1.000000 1.000000 1.000000 1.000000 1.000000 1.000000 1.000000 1.000000 1.000000 1.000000 1.000000 1.000000 1.000000 1.000000 1.000000 1.000000 1.000000 0.884168 0.884168 0.884168 0.884168 0.884168 0.871340 0.871340 0.871340 0.871340 0.871340 0.871340 0.871340 0.871340 0.871340 0.871340 0.871340 0.871340 0.871340 0.871340 0.871340 0.871340 0.871340 0.871340 0.871340 0.871340 0.871340 0.871340 0.871340 0.871340 0.871340 0.871340 0.871340 0.871340 0.871340 0.871340 0.871340 0.871340 0.871340 0.871340 0.871340 0.871340 0.871340 0.871340 0.871340 0.871340 0.871340 0.871340 0.952973 0.957344 0.958247 0.957929 0.957148 0.956321 0.955679 0.955323 0.955946 0.958839 0.959611 0.965545 0.967247 0.967893 0.974427 0.972277 0.972571 0.970843 0.970674 0.970720 0.964362 0.963040 0.961550 0.961772 0.965339 0.965244 0.965077 0.965029 0.965177 0.965560 0.965801 0.966309 0.966014 0.965694 0.964731 0.963827 0.963115 0.962770 0.962916 0.963435 0.964312 0.965339 0.965823 0.966460 0.966941 0.967119 0.966992 0.966601 0.966043 0.965493 0.967445 0.965610 0.962015 0.963620 0.963621 0.963913 0.964386 0.965524 0.966173 0.961002 0.959468 0.958767 0.955210 0.952642 0.946961 0.938848 0.934186 0.936668 0.938159 0.938643 0.932586 0.919675 0.916833 0.910188 0.910147 0.907299 0.901737 0.902698 0.905651 0.897374 0.895747 0.890017 0.885427 0.880788 0.879451 0.880987 0.878103 0.879582 0.880340 0.877578 0.876073 0.876440 0.879357 0.881701 0.877291 0.866714 0.860670 0.859810 0.861394 0.861177 0.867883 0.869181 0.859795 0.857609 0.847984 0.842358 0.840370 0.835556 0.839107 0.839546 0.842512 0.841422 0.826560 0.829450 0.822498 0.821376 0.822780 0.816987 0.813391 0.811096 0.807344 0.797385 0.796617 0.799456 0.804330 0.805542 0.799812 0.801223 0.809324 0.803272 0.813141 0.818152 0.821684 0.831133 0.829197 0.829875 0.829523 0.829669 0.810563 0.809088 0.817997 0.824292 0.826455 0.821308 0.818625 0.818369 0.815476 0.811155 0.806090 0.775765 0.775577 0.777936 0.775531 0.780392 0.720296 0.725932 0.725139 0.727207 0.699426 0.708372 0.703722 0.699490 0.710170 0.706779 0.720962 0.718571 0.702815 0.704187 0.690656 0.682300 0.665134 0.678384 0.667461 0.673679 0.680167 0.678830 0.674720 0.686875 0.660263 0.663861 0.662012 0.662599 0.623466 0.628162 0.628362 0.624107 0.596337 0.551634 0.496744 0.476140 0.476851 0.444891 0.455647 0.455906 0.436771 0.447571 0.447488 0.455179 0.449033 0.443663 0.426774 0.403751 0.333558 0.329101 0.325949 0.330948 0.329335 0.312294 0.317221 0.298610 0.334715 0.342643 0.342604 0.335673 0.325469 0.327002 0.335273 0.334912 0.338125 0.321614 0.283692 0.241581 0.247015 0.206104 0.205635 0.183044 0.161468 0.164628 0.184156 0.161029 0.185531 0.140572 0.097649 0.096673 0.101591 0.101591 0.101591 0.101591 0.101591 0.101591 0.101591 0.101591 0.098827 0.098827 0.098827 0.098827 0.098827 0.098827 0.098827 0.098827 0.098827 0.128876 0.128876 0.128876 0.128876 0.128876 0.128876 0.128876 0.128876 0.128876 0.128876 0.128876 0.128876 0.128876
0.000000 0.000000 0.000000 0.000000 0.000000 0.000000 0.000000 0.000000 0.000000 0.000000 0.000000 0.000000 0.000000 0.000000 0.000000 0.000000 0.000000 0.000000 0.000000 0.000000 0.000000 9401.000000 0.000000 0.000000 0.000000 0.000000 0.000000 0.000000 0.000000 0.000000 0.000000 0.000000 0.000000 0.000000 0.000000 0.000000 0.000000 0.000000 0.000000 0.000000 0.000000 0.000000 0.000000 0.000000 0.000000 0.000000 0.000000 0.000000 0.000000 0.000000 0.000000 0.000000 0.177471 0.177471 0.177471 0.177471 0.177471 0.197066 0.197066 0.197066 0.197066 0.197066 0.197066 0.197066 0.197066 0.197066 0.197066 0.197066 0.197066 0.197066 0.197066 0.197066 0.197066 0.197066 0.197066 0.197066 0.197066 0.197066 0.197066 0.197066 0.197066 0.197066 0.197066 0.197066 0.197066 0.197066 0.197066 0.197066 0.197066 0.197066 0.197066 0.197066 0.197066 0.197066 0.197066 0.197066 0.197066 0.197066 0.197066 0.222222 0.222222 0.222222 0.222222 0.222222 0.222222 0.222222 0.222222 0.222222 0.222222 0.222222 0.222222 0.222222 0.222222 0.222222 0.222222 0.222222 0.222222 0.222222 0.222222 0.222222 0.222222 0.222222 0.222222 0.222222 0.222222 0.222222 0.222222 0.222222 0.222222 0.244339 0.244339 0.244339 0.244339 0.244339 0.244339 0.244339 0.244339 0.244339 0.244339 0.244339 0.244339 0.244339 0.244339 0.244339 0.244339 0.244339 0.244339 0.244339 0.244339 0.244339 0.244339 0.244339 0.244339 0.244339 0.244339 0.244339 0.244339 0.244339 0.244339 0.244339 0.244339 0.244339 0.244339 0.244339 0.244339 0.244339 0.244339 0.244339 0.244339 0.244339 0.244339 0.244339 0.244339 0.256074 0.256074 0.256074 0.256074 0.256074 0.256074 0.256074 0.256074 0.256074 0.256074 0.256074 0.256074 0.256074 0.256074 0.256074 0.256074 0.256074 0.256074 0.256074 0.256074 0.256074 0.256074 0.256074 0.256074 0.256074 0.256074 0.256074 0.256074 0.256074 0.256074 0.256074 0.256074 0.256074 0.256074 0.256074 0.264906 0.264906 0.264906 0.264906 0.264906 0.264906 0.264906 0.264906 0.264906 0.264906 0.264906 0.264906 0.264906 0.264906 0.264906 0.264906 0.264906 0.264906 0.264906 0.264906 0.264906 0.264906 0.264906 0.264906 0.264906 0.264906 0.264906 0.264906 0.264906 0.256074 0.256074 0.256074 0.256074 0.256074 0.256074 0.256074 0.256074 0.256074 0.256074 0.256074 0.256074 0.256074 0.256074 0.260378 0.260378 0.260378 0.260378 0.260378 0.260378 0.260378 0.260378 0.260378 0.260378 0.260378 0.260378 0.260378 0.264906 0.264906 0.264906 0.264906 0.264906 0.264906 0.264906 0.264906 0.264906 0.264906 0.264906 0.264906 0.260378 0.260378 0.260378 0.260378 0.260378 0.260378 0.260378 0.260378 0.260378 0.260378 0.260378 0.260378 0.264906 0.264906 0.264906 0.264906 0.264906 0.264906 0.264906 0.264906 0.264906 0.264906 0.264906 0.256074 0.256074 0.256074 0.256074 0.256074 0.256074 0.256074 0.256074 0.256074 0.256074 0.256074 0.251976 0.251976 0.251976 0.251976 0.251976 0.251976 0.251976 0.251976 0.251976 0.251976 0.251976 0.260378 0.260378 0.260378 0.260378 0.260378 0.260378 0.260378 0.260378 0.260378 0.260378 0.256074 0.256074 0.256074 0.256074 0.256074 0.256074 0.256074 0.256074 0.256074 0.256074 0.260378 0.260378 0.260378 0.260378 0.260378 0.260378 0.260378 0.260378 0.260378 0.244339 0.244339 0.244339 0.244339 0.244339 0.244339 0.244339 0.244339 0.244339 0.244339 0.244339 0.244339 0.244339
