# Output from CTFFind version 4.1.9, run on 2019-11-02 17:50:06
# Input file: stack6_bm3d_averaged_1_0.5_0_3000_half.mrc ; Number of micrographs: 1
# Pixel size: 3.000 Angstroms ; acceleration voltage: 300.0 keV ; spherical aberration: 0.00 mm ; amplitude contrast: 0.07
# Box size: 512 pixels ; min. res.: 30.0 Angstroms ; max. res.: 5.0 Angstroms ; min. def.: 5000.0 um; max. def. 50000.0 um; num. frames averaged: 1
# 6 lines per micrograph: #1 - spatial frequency (1/Angstroms); #2 - 1D rotational average of spectrum (assuming no astigmatism); #3 - 1D rotational average of spectrum; #4 - CTF fit; #5 - cross-correlation between spectrum and CTF fit; #6 - 2sigma of expected cross correlation of noise
0.000000 0.000651 0.001302 0.001953 0.002604 0.003255 0.003906 0.004557 0.005208 0.005859 0.006510 0.007161 0.007812 0.008464 0.009115 0.009766 0.010417 0.011068 0.011719 0.012370 0.013021 0.013672 0.014323 0.014974 0.015625 0.016276 0.016927 0.017578 0.018229 0.018880 0.019531 0.020182 0.020833 0.021484 0.022135 0.022786 0.023438 0.024089 0.024740 0.025391 0.026042 0.026693 0.027344 0.027995 0.028646 0.029297 0.029948 0.030599 0.031250 0.031901 0.032552 0.033203 0.033854 0.034505 0.035156 0.035807 0.036458 0.037109 0.037760 0.038411 0.039062 0.039714 0.040365 0.041016 0.041667 0.042318 0.042969 0.043620 0.044271 0.044922 0.045573 0.046224 0.046875 0.047526 0.048177 0.048828 0.049479 0.050130 0.050781 0.051432 0.052083 0.052734 0.053385 0.054036 0.054688 0.055339 0.055990 0.056641 0.057292 0.057943 0.058594 0.059245 0.059896 0.060547 0.061198 0.061849 0.062500 0.063151 0.063802 0.064453 0.065104 0.065755 0.066406 0.067057 0.067708 0.068359 0.069010 0.069661 0.070312 0.070964 0.071615 0.072266 0.072917 0.073568 0.074219 0.074870 0.075521 0.076172 0.076823 0.077474 0.078125 0.078776 0.079427 0.080078 0.080729 0.081380 0.082031 0.082682 0.083333 0.083984 0.084635 0.085286 0.085938 0.086589 0.087240 0.087891 0.088542 0.089193 0.089844 0.090495 0.091146 0.091797 0.092448 0.093099 0.093750 0.094401 0.095052 0.095703 0.096354 0.097005 0.097656 0.098307 0.098958 0.099609 0.100260 0.100911 0.101562 0.102214 0.102865 0.103516 0.104167 0.104818 0.105469 0.106120 0.106771 0.107422 0.108073 0.108724 0.109375 0.110026 0.110677 0.111328 0.111979 0.112630 0.113281 0.113932 0.114583 0.115234 0.115885 0.116536 0.117188 0.117839 0.118490 0.119141 0.119792 0.120443 0.121094 0.121745 0.122396 0.123047 0.123698 0.124349 0.125000 0.125651 0.126302 0.126953 0.127604 0.128255 0.128906 0.129557 0.130208 0.130859 0.131510 0.132161 0.132812 0.133464 0.134115 0.134766 0.135417 0.136068 0.136719 0.137370 0.138021 0.138672 0.139323 0.139974 0.140625 0.141276 0.141927 0.142578 0.143229 0.143880 0.144531 0.145182 0.145833 0.146484 0.147135 0.147786 0.148438 0.149089 0.149740 0.150391 0.151042 0.151693 0.152344 0.152995 0.153646 0.154297 0.154948 0.155599 0.156250 0.156901 0.157552 0.158203 0.158854 0.159505 0.160156 0.160807 0.161458 0.162109 0.162760 0.163411 0.164062 0.164714 0.165365 0.166016 0.166667 0.167318 0.167969 0.168620 0.169271 0.169922 0.170573 0.171224 0.171875 0.172526 0.173177 0.173828 0.174479 0.175130 0.175781 0.176432 0.177083 0.177734 0.178385 0.179036 0.179688 0.180339 0.180990 0.181641 0.182292 0.182943 0.183594 0.184245 0.184896 0.185547 0.186198 0.186849 0.187500 0.188151 0.188802 0.189453 0.190104 0.190755 0.191406 0.192057 0.192708 0.193359 0.194010 0.194661 0.195312 0.195964 0.196615 0.197266 0.197917 0.198568 0.199219 0.199870 0.200521 0.201172 0.201823 0.202474 0.203125 0.203776 0.204427 0.205078 0.205729 0.206380 0.207031 0.207682 0.208333 0.208984 0.209635 0.210286 0.210938 0.211589 0.212240 0.212891 0.213542 0.214193 0.214844 0.215495 0.216146 0.216797 0.217448 0.218099 0.218750 0.219401 0.220052 0.220703 0.221354 0.222005 0.222656 0.223307 0.223958 0.224609 0.225260 0.225911 0.226562 0.227214 0.227865 0.228516 0.229167 0.229818 0.230469 0.231120 0.231771 0.232422 0.233073 0.233724 0.234375 0.235026 0.235677
       0.31462        0.31462        0.31462        0.31462        0.31462        0.31462        0.31462        0.31462        0.31462        0.31462        0.31462        0.31462        0.31462        0.31462        0.31462        0.31462        0.31462        0.31462        0.31462        0.31462        0.31462        0.31462        0.31462        0.31462        0.31462        0.31462        0.31462        0.31462        0.31462        0.31462        0.31462        0.31462        0.31462        0.31462        0.31462        0.31462        0.31462        0.31462        0.31462        0.31462        0.31462        0.31462        0.31462        0.31462        0.31462        0.31462        0.31462        0.31462        0.31462        0.31462        0.31462        0.63892        0.82472        0.41897        0.31512        0.19361       -0.10211        0.11414       -0.00074        0.03646        0.12091        0.33998        0.42964        0.41336        0.22865       -0.00697        0.05032        0.07495       -0.16130       -0.17423       -0.08792       -0.10404       -0.29001       -0.18474       -0.30020       -0.25232       -0.28092       -0.39690       -0.47436       -0.47697       -0.42111       -0.33625       -0.43757       -0.36619       -0.40525       -0.34672       -0.27089       -0.19585       -0.19021       -0.13285       -0.09449        0.03703        0.08710        0.25007        0.28265        0.37378        0.40356        0.51952        0.58961        0.60758        0.74530        0.70270        0.74268        0.65037        0.66883        0.70127        0.63702        0.61698        0.61090        0.43919        0.40381        0.36349        0.32529        0.22521        0.13959        0.06256        0.06306       -0.00139       -0.07688       -0.03234       -0.02910       -0.06607        0.06367        0.16850        0.25771        0.32435        0.34139        0.43663        0.54865        0.59245        0.54747        0.66828        0.56793        0.54754        0.60108        0.64734        0.53448        0.45994        0.41250        0.37726        0.25504        0.22073        0.13240        0.11800        0.05879        0.06553        0.11508        0.17228        0.14865        0.18099        0.21967        0.24354        0.33821        0.46193        0.50104        0.50110        0.52455        0.57850        0.57139        0.52830        0.42989        0.38864        0.36943        0.27208        0.25209        0.22094        0.20882        0.21030        0.18747        0.16013        0.12668        0.19275        0.25267        0.35200        0.38510        0.40734        0.46335        0.53994        0.48163        0.48543        0.42139        0.40157        0.38592        0.36641        0.29282        0.26295        0.20585        0.23720        0.22152        0.19418        0.21927        0.22713        0.24558        0.29942        0.40348        0.40443        0.37249        0.39351        0.45841        0.48734        0.42818        0.35755        0.33038        0.28804        0.26398        0.24574        0.21346        0.28728        0.29506        0.29584        0.32035        0.31460        0.35364        0.37203        0.37677        0.37907        0.35784        0.32177        0.33983        0.32199        0.30381        0.28265        0.27439        0.22155        0.27456        0.27583        0.30584        0.32512        0.34710        0.37739        0.34369        0.32259        0.35953        0.37381        0.27334        0.30008        0.30652        0.24497        0.21563        0.25996        0.27075        0.27902        0.30127        0.30774        0.33827        0.33798        0.36704        0.33280        0.32783        0.31255        0.29520        0.27574        0.25174        0.25685        0.26026        0.27425        0.30091        0.29560        0.30272        0.31550        0.33079        0.26773        0.30879        0.27132        0.26745        0.28212        0.26736        0.26277        0.26913        0.31476        0.29147        0.32427        0.28906        0.27811        0.30756        0.31264        0.33318        0.31947        0.29755        0.25986        0.27666        0.28104        0.27071        0.31264        0.31673        0.34248        0.32544        0.30430        0.26466        0.28379        0.21437        0.21015        0.23782        0.26498        0.25386        0.29432        0.30924        0.29353        0.34937        0.31485        0.27070        0.23953        0.23736        0.28355        0.30889        0.30746        0.26673        0.27643        0.25487        0.32843        0.29125        0.25255        0.26973        0.25692        0.29170        0.25205        0.29401        0.32767        0.28714        0.21999        0.22683        0.28280        0.32765        0.28684        0.27281        0.24917        0.27511        0.28822        0.36978        0.30363        0.29284        0.25967        0.27132        0.23065        0.18142        0.25825        0.24056        0.21426        0.19713        0.19740        0.23551        0.23542        0.24488        0.19367        0.24651        0.22911        0.20462        0.17722        0.17627        0.20408        0.23855        0.15623        0.07593        0.18530        0.19817        0.15594        0.25711        0.14714        0.22662        0.22693       -0.07699       -0.46654       -0.90154
2.856985 2.828899 2.800957 2.773159 2.745506 2.717997 2.690633 2.663413 2.636337 2.609405 2.582618 2.555976 2.529477 2.503123 2.476914 2.450849 2.424928 2.399151 2.373519 2.348031 2.322688 2.297489 2.272434 2.247524 2.222758 2.198136 2.173659 2.149326 2.125138 2.101094 2.077194 2.053438 2.029827 2.006361 1.983038 1.959861 1.936827 1.913938 1.891193 1.868592 1.846136 1.823824 1.801657 1.779634 1.757755 1.736021 1.714431 1.692985 1.671684 1.650527 1.629515 1.927133 2.288104 1.702443 1.747164 1.386845 0.948433 1.203288 1.033895 1.066941 1.035265 1.496943 1.526503 1.555207 1.284470 0.948429 0.826653 1.013217 0.722720 0.498474 0.583064 0.681788 0.421806 0.491270 0.324408 0.373001 0.248216 0.165682 -0.038300 -0.001746 0.023343 0.077862 0.038842 0.070336 -0.038560 0.025978 0.113995 0.227100 0.289582 0.208011 0.316973 0.547833 0.453958 0.728108 0.789873 0.883819 0.912979 1.118312 1.142994 1.174917 1.336028 1.240773 1.378372 1.183134 1.119830 1.303041 1.149433 1.057492 1.127638 0.892790 0.749196 0.685348 0.674088 0.459798 0.402204 0.259566 0.235957 0.086709 -0.010089 0.084020 0.025588 -0.062993 0.114872 0.252695 0.307879 0.469239 0.489850 0.564887 0.724363 0.820453 0.667801 0.956185 0.797070 0.674090 0.769956 0.811324 0.714450 0.639455 0.453568 0.501778 0.282439 0.200793 0.141060 0.004618 -0.021786 -0.097458 -0.012596 0.026815 0.098024 -0.054429 0.249150 0.098187 0.213220 0.381070 0.446166 0.534788 0.441619 0.586545 0.612899 0.521216 0.396529 0.336971 0.325458 0.153228 0.128748 0.025355 0.086844 0.040814 -0.001319 -0.022603 -0.125548 -0.012669 0.021335 0.111998 0.295883 0.200474 0.353505 0.371189 0.428336 0.436887 0.368988 0.321551 0.227979 0.304649 0.166728 0.152732 0.016551 0.044639 0.067281 -0.028538 -0.011880 0.015098 0.057216 0.073737 0.206326 0.309535 0.238402 0.219280 0.362256 0.408593 0.349915 0.241211 0.178119 0.156543 0.082352 0.076040 0.015349 0.019731 0.136534 0.048006 0.189711 0.095822 0.139224 0.234583 0.203294 0.222048 0.212267 0.192660 0.125859 0.163483 0.123480 0.098091 0.106076 0.001252 0.029662 0.087412 0.047922 0.148214 0.122372 0.207842 0.204895 0.138466 0.124307 0.228071 0.120781 0.077139 0.087180 0.050370 -0.000556 -0.028446 0.036364 0.068183 0.025361 0.111749 0.106113 0.124580 0.122034 0.182672 0.114165 0.078353 0.095459 0.078438 0.010686 0.012071 0.027194 -0.008065 0.060816 0.098642 0.054443 0.062672 0.137349 0.088830 0.014472 0.111996 0.020050 0.034240 0.063797 0.019624 0.012305 0.057708 0.087046 0.040549 0.113237 0.060163 0.014747 0.122526 0.075173 0.093358 0.096968 0.031335 0.000124 0.015229 0.058655 0.025826 0.059345 0.100192 0.110877 0.054607 0.127615 0.005575 0.030468 -0.083280 -0.009515 -0.050651 0.022286 0.016721 0.051070 0.063590 0.075713 0.134442 0.027143 0.006495 -0.056144 -0.075135 0.069394 0.049328 0.063844 -0.016988 0.000071 -0.034516 0.084343 0.034127 -0.044574 -0.003803 -0.055199 0.041331 -0.032493 0.044167 0.068516 -0.004450 -0.066224 -0.056520 0.111421 0.042830 0.018549 -0.003790 -0.052356 0.056721 0.053042 0.152064 0.050415 0.017551 0.021160 0.062176 -0.069527 -0.062644 0.039436 0.017674 -0.033155 -0.052245 -0.065335 0.068256 -0.068311 0.053811 -0.021624 0.083729 -0.036664 0.023699 -0.120306 -0.035260 -0.059295 0.073902 -0.055897 -0.146129 0.248722 0.291059 0.220898 0.441983 0.161892 0.298761 0.397316 -0.106448 -1.265262
0.072396 0.072834 0.074148 0.076337 0.079401 0.083340 0.088152 0.093837 0.100392 0.107816 0.116107 0.125260 0.135273 0.146141 0.157859 0.170420 0.183817 0.198040 0.213080 0.228925 0.245560 0.262971 0.281140 0.300046 0.319667 0.339979 0.360951 0.382555 0.404754 0.427512 0.450786 0.474530 0.498696 0.523228 0.548069 0.573155 0.598420 0.623789 0.649186 0.674527 0.699725 0.724686 0.749313 0.773501 0.797143 0.820124 0.842326 0.863627 0.883899 0.903011 0.920828 0.937211 0.952021 0.965114 0.976346 0.985572 0.992648 0.997429 0.999775 0.999545 0.996607 0.990829 0.982090 0.970275 0.955278 0.937005 0.915373 0.890314 0.861774 0.829717 0.794125 0.755000 0.712366 0.666269 0.616782 0.564000 0.508049 0.449081 0.387278 0.322850 0.256040 0.187119 0.116392 0.044191 0.029119 0.103147 0.177471 0.251645 0.325198 0.397638 0.468453 0.537117 0.603090 0.665827 0.724779 0.779397 0.829141 0.873485 0.911920 0.943964 0.969165 0.987113 0.997439 0.999830 0.994030 0.979848 0.957166 0.925942 0.886219 0.838124 0.781878 0.717797 0.646291 0.567871 0.483145 0.392815 0.297678 0.198620 0.096612 0.007303 0.112011 0.216345 0.319090 0.419003 0.514826 0.605297 0.689176 0.765258 0.832393 0.889504 0.935611 0.969844 0.991468 0.999897 0.994713 0.975681 0.942760 0.896115 0.836128 0.763398 0.678743 0.583202 0.478021 0.364652 0.244727 0.120049 0.007438 0.135673 0.262512 0.385765 0.503225 0.612717 0.712138 0.799501 0.872974 0.930929 0.971978 0.995019 0.999260 0.984261 0.949948 0.896640 0.825052 0.736301 0.631901 0.513742 0.384070 0.245448 0.100714 0.047073 0.194692 0.338832 0.476162 0.603412 0.717453 0.815379 0.894587 0.952854 0.988408 0.999991 0.986910 0.949080 0.887048 0.802003 0.695771 0.570789 0.430063 0.277104 0.115858 0.049400 0.214165 0.373829 0.523801 0.659654 0.777253 0.872890 0.943415 0.986344 0.999968 0.983427 0.936770 0.860987 0.758006 0.630670 0.482675 0.318471 0.143155 0.037690 0.218155 0.392204 0.553872 0.697474 0.817815 0.910387 0.971555 0.998714 0.990419 0.946473 0.867982 0.757345 0.618220 0.455411 0.274736 0.082824 0.113114 0.305546 0.486906 0.649901 0.787808 0.894767 0.966044 0.998265 0.989595 0.939865 0.850628 0.725143 0.568292 0.386411 0.187058 0.021281 0.229543 0.428484 0.609077 0.762946 0.882757 0.962593 0.998273 0.987593 0.930492 0.829117 0.687773 0.512788 0.312255 0.095675 0.126459 0.343178 0.543563 0.717309 0.855267 0.949951 0.995968 0.990363 0.932837 0.825835 0.674494 0.486429 0.271391 0.040789 0.192899 0.416789 0.618303 0.785890 0.909700 0.982206 0.998687 0.957578 0.860645 0.712962 0.522701 0.300713 0.059951 0.185270 0.420102 0.630073 0.801986 0.924780 0.990270 0.993736 0.934314 0.815141 0.643249 0.429214 0.186531 0.069185 0.321196 0.552714 0.748053 0.893692 0.979258 0.998312 0.948879 0.833697 0.660133 0.439771 0.187691 0.078515 0.339968 0.577814 0.774608 0.915607 0.989938 0.991471 0.919396 0.778396 0.578424 0.334056 0.063492 0.212772 0.473481 0.698243 0.869171 0.972325 0.998918 0.946126 0.817443 0.622541 0.376611 0.099243 0.187093 0.458836 0.693293 0.870538 0.975153 0.997647 0.935370 0.792897 0.581781 0.319695 0.029013 0.265045 0.536595 0.761367 0.918916 0.994525 0.980665 0.877821 0.694612 0.447159 0.157752 0.147100 0.439069 0.690635 0.877705 0.981970 0.992778 0.908308 0.735919 0.491621 0.198666 0.114582 0.417367 0.679537 0.874594
1.000000 1.000000 1.000000 1.000000 1.000000 1.000000 1.000000 1.000000 1.000000 1.000000 1.000000 1.000000 1.000000 1.000000 1.000000 1.000000 1.000000 1.000000 1.000000 1.000000 1.000000 1.000000 1.000000 1.000000 1.000000 1.000000 1.000000 1.000000 1.000000 1.000000 1.000000 1.000000 1.000000 1.000000 1.000000 1.000000 1.000000 1.000000 1.000000 1.000000 1.000000 1.000000 1.000000 1.000000 1.000000 1.000000 1.000000 1.000000 1.000000 1.000000 1.000000 1.000000 0.834568 0.834568 0.834568 0.834568 0.834568 0.834568 0.834568 0.811942 0.811942 0.811942 0.811942 0.811942 0.811942 0.811942 0.811942 0.811942 0.811942 0.811942 0.811942 0.811942 0.811942 0.811942 0.811942 0.811942 0.811942 0.811942 0.811942 0.811942 0.811942 0.811942 0.811942 0.811942 0.811942 0.811942 0.811942 0.811942 0.811942 0.811942 0.811942 0.811942 0.811942 0.811942 0.811942 0.811942 0.811942 0.811942 0.811942 0.811942 0.811942 0.811942 0.811942 0.950879 0.951546 0.943802 0.942656 0.940853 0.937722 0.933171 0.932714 0.934079 0.934285 0.934926 0.937140 0.938229 0.939997 0.941286 0.942205 0.943075 0.951149 0.954767 0.955176 0.954677 0.949953 0.956527 0.955712 0.955546 0.956376 0.956698 0.957426 0.957289 0.957109 0.956529 0.955368 0.956122 0.955976 0.955231 0.954167 0.952225 0.952227 0.951762 0.951754 0.952727 0.953609 0.954257 0.954775 0.954724 0.954922 0.954898 0.954792 0.949632 0.949668 0.943362 0.944120 0.945337 0.945038 0.943939 0.942536 0.942578 0.942425 0.942316 0.942090 0.942326 0.926120 0.924774 0.924804 0.924891 0.917343 0.907078 0.900794 0.894533 0.895405 0.899157 0.903849 0.903868 0.900796 0.900078 0.885460 0.889406 0.876384 0.873742 0.861293 0.871683 0.873929 0.875219 0.870858 0.870314 0.869152 0.867196 0.859206 0.863170 0.864091 0.860114 0.856542 0.854277 0.853085 0.854285 0.859092 0.856046 0.850670 0.847979 0.836802 0.827822 0.826589 0.829429 0.837002 0.849002 0.849907 0.849314 0.841803 0.838073 0.831124 0.825318 0.821407 0.823195 0.820524 0.824569 0.822445 0.828833 0.819010 0.814610 0.819599 0.828249 0.833627 0.836599 0.839256 0.837353 0.832360 0.813975 0.814598 0.810200 0.761083 0.764013 0.750167 0.750264 0.738808 0.736729 0.734028 0.734961 0.728298 0.719945 0.730319 0.726381 0.683935 0.692949 0.686248 0.675635 0.653231 0.656695 0.671244 0.679198 0.676426 0.681921 0.668329 0.666732 0.679507 0.679329 0.687268 0.683290 0.681215 0.672956 0.675387 0.663508 0.667043 0.658539 0.657720 0.657667 0.653636 0.638439 0.645594 0.641356 0.637844 0.628558 0.597853 0.567400 0.548138 0.542565 0.523112 0.496872 0.515054 0.523684 0.505942 0.495844 0.478802 0.440438 0.432767 0.430975 0.404359 0.392903 0.371671 0.337356 0.333847 0.342680 0.349467 0.339931 0.340214 0.326392 0.284886 0.279567 0.243744 0.258724 0.281355 0.264216 0.241209 0.241848 0.261612 0.253381 0.264871 0.263400 0.276872 0.233764 0.181889 0.202533 0.202011 0.215537 0.202100 0.170956 0.196451 0.178235 0.185862 0.188245 0.150952 0.118960 0.100016 0.068687 0.076359 0.100984 0.115752 0.110361 0.094555 0.006415 0.038076 0.058827 0.058827 0.058827 0.058827 0.058827 0.058827 0.058827 0.058827 0.058827 0.058827 0.058827 0.002795 0.002795 0.002795 0.002795 0.002795 0.002795 0.002795 0.002795 0.002795 0.002795 0.002795 0.002795 0.002795 0.002795 0.002795 0.002795 0.002795 0.002795 0.002795
0.000000 0.000000 0.000000 0.000000 0.000000 0.000000 0.000000 0.000000 0.000000 0.000000 0.000000 0.000000 0.000000 0.000000 0.000000 0.000000 0.000000 0.000000 0.000000 0.000000 0.000000 0.000000 0.000000 0.000000 0.000000 0.000000 0.000000 0.000000 0.000000 0.000000 0.000000 0.000000 0.000000 0.000000 0.000000 0.000000 0.000000 0.000000 0.000000 0.000000 0.000000 0.000000 0.000000 0.000000 0.000000 0.000000 0.000000 0.000000 0.000000 0.000000 0.000000 0.000000 0.173422 0.173422 0.173422 0.173422 0.173422 0.173422 0.173422 0.191565 0.191565 0.191565 0.191565 0.191565 0.191565 0.191565 0.191565 0.191565 0.191565 0.191565 0.191565 0.191565 0.191565 0.191565 0.191565 0.191565 0.191565 0.191565 0.191565 0.191565 0.191565 0.191565 0.191565 0.191565 0.191565 0.191565 0.191565 0.191565 0.191565 0.191565 0.191565 0.191565 0.191565 0.191565 0.191565 0.191565 0.191565 0.191565 0.191565 0.191565 0.191565 0.191565 0.191565 0.219529 0.219529 0.219529 0.219529 0.219529 0.219529 0.219529 0.219529 0.219529 0.219529 0.219529 0.219529 0.219529 0.219529 0.219529 0.219529 0.219529 0.219529 0.219529 0.219529 0.219529 0.219529 0.219529 0.219529 0.219529 0.219529 0.219529 0.219529 0.219529 0.219529 0.219529 0.237356 0.237356 0.237356 0.237356 0.237356 0.237356 0.237356 0.237356 0.237356 0.237356 0.237356 0.237356 0.237356 0.237356 0.237356 0.237356 0.237356 0.237356 0.237356 0.237356 0.237356 0.237356 0.237356 0.237356 0.244339 0.244339 0.244339 0.244339 0.244339 0.244339 0.244339 0.244339 0.244339 0.244339 0.244339 0.244339 0.244339 0.244339 0.244339 0.244339 0.244339 0.244339 0.244339 0.244339 0.244339 0.248069 0.248069 0.248069 0.248069 0.248069 0.248069 0.248069 0.248069 0.248069 0.248069 0.248069 0.248069 0.248069 0.248069 0.248069 0.248069 0.248069 0.248069 0.248069 0.248069 0.248069 0.248069 0.248069 0.248069 0.248069 0.248069 0.248069 0.248069 0.248069 0.248069 0.248069 0.248069 0.248069 0.248069 0.248069 0.248069 0.248069 0.256074 0.256074 0.256074 0.256074 0.256074 0.256074 0.256074 0.256074 0.256074 0.256074 0.256074 0.256074 0.256074 0.256074 0.256074 0.256074 0.256074 0.256074 0.256074 0.256074 0.256074 0.256074 0.256074 0.256074 0.256074 0.256074 0.256074 0.256074 0.256074 0.256074 0.256074 0.256074 0.256074 0.256074 0.256074 0.256074 0.256074 0.256074 0.256074 0.256074 0.256074 0.256074 0.256074 0.256074 0.256074 0.260378 0.260378 0.260378 0.260378 0.260378 0.260378 0.260378 0.260378 0.260378 0.260378 0.260378 0.260378 0.260378 0.256074 0.256074 0.256074 0.256074 0.256074 0.256074 0.256074 0.256074 0.256074 0.256074 0.256074 0.256074 0.256074 0.260378 0.260378 0.260378 0.260378 0.260378 0.260378 0.260378 0.260378 0.260378 0.260378 0.260378 0.260378 0.251976 0.251976 0.251976 0.251976 0.251976 0.251976 0.251976 0.251976 0.251976 0.251976 0.251976 0.251976 0.256074 0.256074 0.256074 0.256074 0.256074 0.256074 0.256074 0.256074 0.256074 0.256074 0.256074 0.251976 0.251976 0.251976 0.251976 0.251976 0.251976 0.251976 0.251976 0.251976 0.251976 0.251976 0.248069 0.248069 0.248069 0.248069 0.248069 0.248069 0.248069 0.248069 0.248069 0.248069 0.248069 0.256074 0.256074 0.256074 0.256074 0.256074 0.256074 0.256074 0.256074 0.256074 0.256074 0.256074 0.256074 0.256074 0.256074 0.256074 0.256074 0.256074 0.256074 0.256074
