# Output from CTFFind version 4.1.9, run on 2019-11-03 19:00:07
# Input file: stack1_bm3d_averaged_1_2.75_0_750_half.mrc ; Number of micrographs: 1
# Pixel size: 3.000 Angstroms ; acceleration voltage: 300.0 keV ; spherical aberration: 0.00 mm ; amplitude contrast: 0.07
# Box size: 512 pixels ; min. res.: 30.0 Angstroms ; max. res.: 5.0 Angstroms ; min. def.: 5000.0 um; max. def. 50000.0 um; num. frames averaged: 1
# 6 lines per micrograph: #1 - spatial frequency (1/Angstroms); #2 - 1D rotational average of spectrum (assuming no astigmatism); #3 - 1D rotational average of spectrum; #4 - CTF fit; #5 - cross-correlation between spectrum and CTF fit; #6 - 2sigma of expected cross correlation of noise
0.000000 0.000651 0.001302 0.001953 0.002604 0.003255 0.003906 0.004557 0.005208 0.005859 0.006510 0.007161 0.007812 0.008464 0.009115 0.009766 0.010417 0.011068 0.011719 0.012370 0.013021 0.013672 0.014323 0.014974 0.015625 0.016276 0.016927 0.017578 0.018229 0.018880 0.019531 0.020182 0.020833 0.021484 0.022135 0.022786 0.023438 0.024089 0.024740 0.025391 0.026042 0.026693 0.027344 0.027995 0.028646 0.029297 0.029948 0.030599 0.031250 0.031901 0.032552 0.033203 0.033854 0.034505 0.035156 0.035807 0.036458 0.037109 0.037760 0.038411 0.039062 0.039714 0.040365 0.041016 0.041667 0.042318 0.042969 0.043620 0.044271 0.044922 0.045573 0.046224 0.046875 0.047526 0.048177 0.048828 0.049479 0.050130 0.050781 0.051432 0.052083 0.052734 0.053385 0.054036 0.054688 0.055339 0.055990 0.056641 0.057292 0.057943 0.058594 0.059245 0.059896 0.060547 0.061198 0.061849 0.062500 0.063151 0.063802 0.064453 0.065104 0.065755 0.066406 0.067057 0.067708 0.068359 0.069010 0.069661 0.070312 0.070964 0.071615 0.072266 0.072917 0.073568 0.074219 0.074870 0.075521 0.076172 0.076823 0.077474 0.078125 0.078776 0.079427 0.080078 0.080729 0.081380 0.082031 0.082682 0.083333 0.083984 0.084635 0.085286 0.085938 0.086589 0.087240 0.087891 0.088542 0.089193 0.089844 0.090495 0.091146 0.091797 0.092448 0.093099 0.093750 0.094401 0.095052 0.095703 0.096354 0.097005 0.097656 0.098307 0.098958 0.099609 0.100260 0.100911 0.101562 0.102214 0.102865 0.103516 0.104167 0.104818 0.105469 0.106120 0.106771 0.107422 0.108073 0.108724 0.109375 0.110026 0.110677 0.111328 0.111979 0.112630 0.113281 0.113932 0.114583 0.115234 0.115885 0.116536 0.117188 0.117839 0.118490 0.119141 0.119792 0.120443 0.121094 0.121745 0.122396 0.123047 0.123698 0.124349 0.125000 0.125651 0.126302 0.126953 0.127604 0.128255 0.128906 0.129557 0.130208 0.130859 0.131510 0.132161 0.132812 0.133464 0.134115 0.134766 0.135417 0.136068 0.136719 0.137370 0.138021 0.138672 0.139323 0.139974 0.140625 0.141276 0.141927 0.142578 0.143229 0.143880 0.144531 0.145182 0.145833 0.146484 0.147135 0.147786 0.148438 0.149089 0.149740 0.150391 0.151042 0.151693 0.152344 0.152995 0.153646 0.154297 0.154948 0.155599 0.156250 0.156901 0.157552 0.158203 0.158854 0.159505 0.160156 0.160807 0.161458 0.162109 0.162760 0.163411 0.164062 0.164714 0.165365 0.166016 0.166667 0.167318 0.167969 0.168620 0.169271 0.169922 0.170573 0.171224 0.171875 0.172526 0.173177 0.173828 0.174479 0.175130 0.175781 0.176432 0.177083 0.177734 0.178385 0.179036 0.179688 0.180339 0.180990 0.181641 0.182292 0.182943 0.183594 0.184245 0.184896 0.185547 0.186198 0.186849 0.187500 0.188151 0.188802 0.189453 0.190104 0.190755 0.191406 0.192057 0.192708 0.193359 0.194010 0.194661 0.195312 0.195964 0.196615 0.197266 0.197917 0.198568 0.199219 0.199870 0.200521 0.201172 0.201823 0.202474 0.203125 0.203776 0.204427 0.205078 0.205729 0.206380 0.207031 0.207682 0.208333 0.208984 0.209635 0.210286 0.210938 0.211589 0.212240 0.212891 0.213542 0.214193 0.214844 0.215495 0.216146 0.216797 0.217448 0.218099 0.218750 0.219401 0.220052 0.220703 0.221354 0.222005 0.222656 0.223307 0.223958 0.224609 0.225260 0.225911 0.226562 0.227214 0.227865 0.228516 0.229167 0.229818 0.230469 0.231120 0.231771 0.232422 0.233073 0.233724 0.234375 0.235026 0.235677
       0.34568        0.34568        0.34568        0.34568        0.34568        0.34568        0.34568        0.34568        0.34568        0.34568        0.34568        0.34568        0.34568        0.34568        0.34568        0.34568        0.34568        0.34568        0.34568        0.34568        0.34568        0.34568        0.34568        0.34568        0.34568        0.34568        0.34568        0.34568        0.34568        0.34568        0.34568        0.34568        0.34568        0.34568        0.34568        0.34568        0.34568        0.34568        0.34568        0.34568        0.34568        0.34568        0.34568        0.34568        0.34568        0.34568        0.34568        0.34568        0.34568        0.34568        0.34568        0.50011        0.71435        0.42324        0.21330       -0.04611       -0.22943       -0.04575       -0.10470       -0.06110        0.01730       -0.12071       -0.09237       -0.03746       -0.01832       -0.12810       -0.16191       -0.29450       -0.46171       -0.56688       -0.50300       -0.44697       -0.35617       -0.55701       -0.41752       -0.55747       -0.46029       -0.46929       -0.36854       -0.34344       -0.30155       -0.21399       -0.12551       -0.12427        0.02186        0.00287        0.15550        0.18679        0.33451        0.43212        0.50647        0.55757        0.56733        0.58525        0.70221        0.65043        0.68077        0.59235        0.55111        0.63590        0.51123        0.45892        0.41301        0.31216        0.27519        0.29789        0.26184        0.10917        0.08980       -0.00975        0.01921        0.04614        0.00776        0.09482        0.14079        0.22211        0.29301        0.29530        0.42305        0.57386        0.56993        0.57298        0.66966        0.65426        0.62927        0.68128        0.64990        0.54999        0.55112        0.42268        0.35796        0.27009        0.18513        0.11420        0.15142        0.12466        0.13640        0.12937        0.22649        0.23611        0.32319        0.36241        0.41417        0.50972        0.53708        0.56365        0.56831        0.60122        0.55400        0.48825        0.48955        0.35454        0.27871        0.27404        0.25286        0.17660        0.16987        0.18692        0.23148        0.26993        0.36162        0.39870        0.41921        0.45390        0.45930        0.48385        0.44601        0.49429        0.44698        0.38454        0.35781        0.36170        0.32464        0.29442        0.22132        0.23347        0.23016        0.27706        0.28392        0.37080        0.40701        0.38041        0.42518        0.45177        0.44931        0.44573        0.45611        0.37412        0.36009        0.29436        0.25579        0.30293        0.29034        0.31939        0.33277        0.36252        0.34900        0.42328        0.41382        0.45057        0.41124        0.43884        0.39321        0.36210        0.31116        0.29644        0.30066        0.28507        0.28963        0.34744        0.36234        0.35672        0.36827        0.36460        0.36737        0.43429        0.40979        0.37913        0.35210        0.31337        0.30365        0.34645        0.32224        0.34326        0.30535        0.32795        0.36036        0.38632        0.36679        0.34123        0.34370        0.35358        0.33129        0.30982        0.33580        0.32403        0.34822        0.33815        0.34648        0.37395        0.32956        0.32883        0.34499        0.31252        0.28888        0.28365        0.28854        0.32067        0.34029        0.36767        0.30799        0.31389        0.34037        0.30941        0.33139        0.30246        0.31193        0.30591        0.30126        0.30545        0.33981        0.33593        0.34221        0.33705        0.36767        0.36220        0.32577        0.33756        0.34164        0.25928        0.27590        0.33646        0.28071        0.30471        0.36290        0.33756        0.34098        0.37102        0.33567        0.27690        0.26819        0.30837        0.34752        0.36496        0.35939        0.32331        0.30445        0.30305        0.30864        0.27279        0.31117        0.30400        0.33958        0.32893        0.30668        0.28544        0.34502        0.34407        0.34286        0.29468        0.28700        0.34776        0.40222        0.36128        0.35225        0.33561        0.30289        0.31372        0.30921        0.31171        0.31423        0.21548        0.26439        0.33247        0.31176        0.30742        0.28924        0.25881        0.22788        0.23839        0.30620        0.31358        0.30277        0.27937        0.30842        0.39387        0.32329        0.24365        0.31880        0.29220        0.26010        0.29482        0.36576        0.31288        0.31720        0.30370        0.25775        0.29937        0.31713        0.25540        0.20796        0.25440        0.24384        0.21565        0.30963        0.26070        0.35766        0.31563        0.25573        0.23664        0.19479        0.28311        0.31621        0.24532        0.15659        0.19485        0.28685        0.24444        0.27402        0.11251        0.10698       -0.49339       -1.09955
2.732469 2.703555 2.674799 2.646198 2.617755 2.589468 2.561338 2.533364 2.505547 2.477887 2.450383 2.423036 2.395845 2.368811 2.341934 2.315214 2.288650 2.262242 2.235991 2.209897 2.183960 2.158179 2.132555 2.107087 2.081776 2.056622 2.031624 2.006783 1.982098 1.957570 1.933199 1.908985 1.884927 1.861025 1.837281 1.813692 1.790261 1.766986 1.743868 1.720906 1.698101 1.675453 1.652961 1.630626 1.608447 1.586426 1.564560 1.542852 1.521300 1.499904 1.478666 1.526780 1.852719 1.514838 1.251418 0.970844 0.569059 0.935742 0.674915 0.860225 0.922924 0.643414 0.688662 0.803408 0.794714 0.632728 0.604094 0.412552 0.106171 0.051029 0.051760 0.053815 0.319896 -0.045303 0.067369 -0.059389 0.019715 -0.019289 0.095534 0.088939 0.147986 0.194179 0.323513 0.272857 0.461531 0.379905 0.592327 0.558552 0.787107 0.816900 0.917879 1.010968 0.965118 0.987508 1.138459 0.954425 1.146680 0.932093 0.880883 0.977143 0.832666 0.779430 0.670947 0.554796 0.504184 0.478744 0.501908 0.263206 0.206685 0.144699 0.028458 0.195710 0.011575 0.121810 0.223712 0.258583 0.321580 0.346241 0.461971 0.571740 0.702561 0.534956 0.731237 0.808973 0.614835 0.751361 0.700882 0.614869 0.493732 0.488715 0.308718 0.227159 0.099440 0.006428 -0.001183 0.026586 -0.053541 -0.033552 0.082066 0.061042 0.120559 0.216343 0.244016 0.358732 0.417274 0.420903 0.468211 0.432533 0.471094 0.337087 0.337869 0.255557 0.078051 0.066616 0.034022 -0.044595 -0.066093 -0.079860 -0.010549 -0.036477 0.102397 0.145720 0.170414 0.238924 0.235874 0.269934 0.272659 0.226819 0.254101 0.200373 0.125533 0.103503 0.093329 0.032162 0.008388 -0.098841 -0.023054 0.000631 0.026849 0.017001 0.139077 0.120237 0.127574 0.206609 0.275271 0.167810 0.240127 0.115923 0.167100 0.037946 -0.032636 0.021866 0.007944 0.021272 0.028227 0.087746 0.069824 0.090780 0.176167 0.158502 0.163572 0.117207 0.176858 0.064010 0.062174 -0.008034 -0.016299 -0.008122 -0.037604 -0.003664 0.067326 0.090104 0.024534 0.087937 0.095145 0.083370 0.179076 0.088369 0.102508 0.057271 -0.019271 0.036178 0.053697 0.010946 0.067900 0.007302 0.039576 0.064160 0.071120 0.070077 0.046153 0.005543 0.074533 0.000197 0.020845 0.037625 0.009450 0.074056 0.046008 0.058353 0.066205 0.024627 0.025225 0.030928 -0.002018 -0.037937 -0.015171 -0.010964 0.006469 0.046554 0.085360 -0.010124 0.028413 0.078629 -0.020746 0.061404 0.023092 0.021308 0.016469 0.034711 0.028908 0.061681 0.039705 0.089033 0.059820 0.133952 0.102809 0.070087 0.109948 0.055837 -0.020853 0.029904 0.086511 0.010875 0.064639 0.106829 0.025541 0.083506 0.086768 0.025564 -0.001796 -0.059884 0.044811 0.086965 0.089830 0.073685 0.030945 0.015170 0.024243 0.031063 -0.043665 0.047063 0.035383 0.066410 0.086863 -0.011428 0.052073 0.000405 0.063857 0.035823 -0.015989 -0.030540 0.098593 0.116305 0.064692 0.034742 0.056047 -0.002867 -0.000524 0.017255 -0.010176 0.027244 -0.141431 -0.007514 0.033333 0.037540 -0.012914 -0.026186 -0.014404 -0.069807 -0.015201 0.000194 0.062665 0.021820 0.028506 0.029675 0.167987 0.067325 -0.018932 0.092076 0.027665 0.021432 0.041154 0.156638 0.069392 0.053847 0.062503 0.009065 0.044572 0.082544 -0.012209 -0.098659 0.004068 -0.015512 -0.059342 0.049525 -0.047655 0.156240 0.028076 -0.011162 -0.049097 -0.092592 -0.019722 0.382019 0.294558 0.175529 0.245397 0.357241 0.283493 0.330189 0.030061 0.131312 -1.307983
0.072396 0.072910 0.074453 0.077024 0.080623 0.085248 0.090899 0.097573 0.105269 0.113983 0.123712 0.134451 0.146194 0.158936 0.172667 0.187378 0.203057 0.219690 0.237262 0.255753 0.275144 0.295408 0.316519 0.338446 0.361151 0.384597 0.408739 0.433528 0.458910 0.484825 0.511207 0.537986 0.565085 0.592417 0.619894 0.647418 0.674883 0.702178 0.729184 0.755776 0.781819 0.807175 0.831695 0.855226 0.877610 0.898680 0.918266 0.936193 0.952283 0.966353 0.978221 0.987700 0.994609 0.998763 0.999985 0.998100 0.992940 0.984346 0.972170 0.956274 0.936536 0.912852 0.885135 0.853321 0.817369 0.777263 0.733017 0.684676 0.632316 0.576050 0.516027 0.452434 0.385498 0.315488 0.242715 0.167531 0.090330 0.011552 0.068328 0.148792 0.229285 0.309218 0.387971 0.464898 0.539330 0.610582 0.677957 0.740756 0.798285 0.849861 0.894822 0.932536 0.962412 0.983907 0.996540 0.999898 0.993650 0.977552 0.951461 0.915342 0.869274 0.813460 0.748230 0.674045 0.591503 0.501335 0.404405 0.301708 0.194363 0.083604 0.029232 0.142717 0.255347 0.365564 0.471775 0.572374 0.665770 0.750410 0.824813 0.887593 0.937489 0.973399 0.994403 0.999790 0.989087 0.962077 0.918818 0.859660 0.785250 0.696541 0.594786 0.481532 0.358605 0.228088 0.092289 0.046285 0.184986 0.321054 0.451692 0.574103 0.685572 0.783513 0.865548 0.929560 0.973764 0.996759 0.997584 0.975759 0.931325 0.864859 0.777497 0.670921 0.547349 0.409499 0.260544 0.104046 0.056118 0.215850 0.370927 0.517121 0.650310 0.766602 0.862456 0.934803 0.981153 0.999693 0.989375 0.949978 0.882149 0.787421 0.668204 0.527741 0.370042 0.199784 0.022189 0.157135 0.332355 0.497609 0.647206 0.775823 0.878711 0.951883 0.992288 0.997956 0.968111 0.903251 0.805170 0.676947 0.522874 0.348341 0.159664 0.036123 0.231525 0.418859 0.590569 0.739529 0.859357 0.944700 0.991508 0.997240 0.961033 0.883799 0.768244 0.618816 0.441567 0.243938 0.034465 0.177565 0.382525 0.570877 0.733632 0.862789 0.951754 0.995704 0.991885 0.939812 0.841370 0.700798 0.524550 0.321038 0.100264 0.126649 0.348007 0.552142 0.728034 0.865925 0.957895 0.998341 0.984370 0.916037 0.796436 0.631620 0.430342 0.203638 0.035751 0.274070 0.497327 0.692135 0.846512 0.950670 0.997662 0.983904 0.909488 0.778289 0.597830 0.378905 0.134992 0.118555 0.365439 0.589473 0.775649 0.911167 0.986370 0.995478 0.937091 0.814410 0.635139 0.411077 0.157391 0.108356 0.367403 0.601116 0.792323 0.926630 0.993546 0.987366 0.907725 0.759771 0.553918 0.305183 0.032164 0.244324 0.502811 0.722840 0.886624 0.980524 0.996264 0.931730 0.791302 0.585659 0.331050 0.048091 0.239869 0.508637 0.735227 0.899854 0.987717 0.990411 0.906817 0.743382 0.513725 0.237605 0.060714 0.354554 0.617179 0.824262 0.956184 0.999962 0.950631 0.811895 0.595982 0.322673 0.017585 0.290176 0.570768 0.796510 0.944673 0.999837 0.955609 0.815465 0.592625 0.308929 0.007215 0.323595 0.607470 0.828958 0.964264 0.998302 0.926512 0.755577 0.502944 0.195178 0.134742 0.450906 0.718359 0.907009 0.995108 0.971858 0.838873 0.610265 0.311291 0.024324 0.358105 0.651208 0.868985 0.985134 0.985006 0.867593 0.645934 0.345825 0.002955 0.341238 0.644566 0.869264 0.986778 0.981525 0.853117 0.616706 0.301379 0.053276 0.402069 0.699918 0.907721 0.997592 0.956747 0.789490 0.516977 0.174716 0.191906 0.533609 0.803797 0.965007 0.994225
1.000000 1.000000 1.000000 1.000000 1.000000 1.000000 1.000000 1.000000 1.000000 1.000000 1.000000 1.000000 1.000000 1.000000 1.000000 1.000000 1.000000 1.000000 1.000000 1.000000 1.000000 1.000000 1.000000 1.000000 1.000000 1.000000 1.000000 1.000000 1.000000 1.000000 1.000000 1.000000 1.000000 1.000000 1.000000 1.000000 1.000000 1.000000 1.000000 1.000000 1.000000 1.000000 1.000000 1.000000 1.000000 1.000000 1.000000 1.000000 1.000000 1.000000 1.000000 1.000000 0.917658 0.917658 0.902803 0.902803 0.902803 0.902803 0.902803 0.902803 0.902803 0.902803 0.902803 0.902803 0.902803 0.902803 0.902803 0.902803 0.902803 0.902803 0.902803 0.902803 0.902803 0.902803 0.902803 0.902803 0.902803 0.902803 0.902803 0.902803 0.902803 0.902803 0.902803 0.902803 0.902803 0.902803 0.902803 0.902803 0.902803 0.902803 0.902803 0.902803 0.902803 0.902803 0.902803 0.896458 0.901610 0.904207 0.902867 0.906429 0.906798 0.904756 0.903911 0.903765 0.904136 0.905208 0.915687 0.930116 0.937514 0.939790 0.943361 0.950095 0.952496 0.951903 0.958306 0.966342 0.964938 0.964474 0.965175 0.966616 0.968702 0.967565 0.966957 0.970003 0.970648 0.969266 0.966820 0.966165 0.965531 0.965624 0.965397 0.965485 0.966110 0.966615 0.966355 0.966472 0.966621 0.966684 0.967687 0.968843 0.971384 0.972468 0.972380 0.971330 0.969460 0.971046 0.974250 0.971557 0.971335 0.970976 0.971240 0.955859 0.951845 0.951919 0.946511 0.944818 0.943359 0.940383 0.940009 0.940803 0.941525 0.942906 0.940543 0.932054 0.925642 0.909918 0.927467 0.923173 0.905936 0.888679 0.890806 0.891710 0.892155 0.889391 0.881680 0.878061 0.875364 0.877461 0.881607 0.885415 0.879902 0.872076 0.870379 0.867751 0.838954 0.818563 0.805244 0.800823 0.797512 0.798148 0.794868 0.793154 0.801117 0.795863 0.790270 0.778961 0.771565 0.737972 0.715233 0.724120 0.732697 0.735649 0.730502 0.704193 0.656281 0.671295 0.673300 0.672017 0.670465 0.658122 0.650614 0.659027 0.661436 0.649199 0.645840 0.646102 0.645509 0.657396 0.659194 0.649803 0.645464 0.632091 0.623931 0.600265 0.602160 0.620156 0.584353 0.576115 0.564762 0.554130 0.548031 0.531864 0.529493 0.525962 0.515454 0.508041 0.499126 0.503320 0.510220 0.511087 0.496675 0.521601 0.521332 0.555079 0.552957 0.545768 0.537699 0.536566 0.524972 0.515019 0.521792 0.521527 0.522713 0.554436 0.561011 0.564583 0.554176 0.549490 0.537755 0.522249 0.527611 0.556340 0.531886 0.500405 0.481057 0.483682 0.462108 0.447432 0.417641 0.408135 0.373305 0.373473 0.368357 0.349347 0.346104 0.268584 0.231639 0.217444 0.217549 0.222554 0.258092 0.266615 0.246483 0.264526 0.311202 0.301420 0.291072 0.270331 0.273199 0.273067 0.254239 0.227752 0.204064 0.186399 0.179203 0.136180 0.137032 0.132365 0.124510 0.141755 0.177431 0.185124 0.138779 0.117386 0.131195 0.151131 0.151051 0.134538 0.083154 0.040884 0.050333 0.062292 0.029996 0.027223 0.053371 0.062838 0.061514 -0.001289 0.010297 0.034524 0.047030 0.030238 0.028703 0.061767 0.086773 0.087890 0.095154 0.127716 0.091565 0.082364 0.077885 0.030898 0.037897 -0.028508 -0.050903 -0.050903 -0.054276 -0.054276 -0.054276 -0.054276 -0.054276 -0.054276 -0.054276 -0.054276 -0.054276 -0.053677 -0.053677 -0.053677 -0.053677 -0.053677 -0.053677 -0.053677 -0.053677 -0.053677 -0.026146 -0.026146 -0.026146 -0.026146 -0.026146 -0.026146 -0.026146 -0.026146 -0.026146
0.000000 0.000000 0.000000 0.000000 0.000000 0.000000 0.000000 0.000000 0.000000 0.000000 0.000000 0.000000 0.000000 0.000000 0.000000 0.000000 0.000000 0.000000 0.000000 0.000000 0.000000 0.000000 0.000000 0.000000 0.000000 0.000000 0.000000 0.000000 0.000000 0.000000 0.000000 0.000000 0.000000 0.000000 0.000000 0.000000 0.000000 0.000000 0.000000 0.000000 0.000000 0.000000 0.000000 0.000000 0.000000 0.000000 0.000000 0.000000 0.000000 0.000000 0.000000 0.000000 0.181818 0.181818 0.199007 0.199007 0.199007 0.199007 0.199007 0.199007 0.199007 0.199007 0.199007 0.199007 0.199007 0.199007 0.199007 0.199007 0.199007 0.199007 0.199007 0.199007 0.199007 0.199007 0.199007 0.199007 0.199007 0.199007 0.199007 0.199007 0.199007 0.199007 0.199007 0.199007 0.199007 0.199007 0.199007 0.199007 0.199007 0.199007 0.199007 0.199007 0.199007 0.199007 0.199007 0.230940 0.230940 0.230940 0.230940 0.230940 0.230940 0.230940 0.230940 0.230940 0.230940 0.230940 0.230940 0.230940 0.230940 0.230940 0.230940 0.230940 0.230940 0.230940 0.230940 0.230940 0.230940 0.230940 0.230940 0.230940 0.230940 0.230940 0.230940 0.244339 0.244339 0.244339 0.244339 0.244339 0.244339 0.244339 0.244339 0.244339 0.244339 0.244339 0.244339 0.244339 0.244339 0.244339 0.244339 0.244339 0.244339 0.244339 0.244339 0.244339 0.244339 0.244339 0.251976 0.251976 0.251976 0.251976 0.251976 0.251976 0.251976 0.251976 0.251976 0.251976 0.251976 0.251976 0.251976 0.251976 0.251976 0.251976 0.251976 0.251976 0.251976 0.251976 0.264906 0.264906 0.264906 0.264906 0.264906 0.264906 0.264906 0.264906 0.264906 0.264906 0.264906 0.264906 0.264906 0.264906 0.264906 0.264906 0.264906 0.264906 0.264906 0.264906 0.264906 0.264906 0.264906 0.264906 0.264906 0.264906 0.264906 0.264906 0.264906 0.264906 0.264906 0.264906 0.264906 0.264906 0.264906 0.264906 0.264906 0.264906 0.264906 0.264906 0.264906 0.264906 0.264906 0.264906 0.264906 0.264906 0.264906 0.264906 0.264906 0.264906 0.264906 0.264906 0.264906 0.264906 0.264906 0.264906 0.264906 0.264906 0.264906 0.264906 0.264906 0.264906 0.264906 0.264906 0.264906 0.264906 0.264906 0.264906 0.264906 0.264906 0.264906 0.264906 0.264906 0.264906 0.264906 0.269680 0.269680 0.269680 0.269680 0.269680 0.269680 0.269680 0.269680 0.269680 0.269680 0.269680 0.269680 0.264906 0.264906 0.264906 0.264906 0.264906 0.264906 0.264906 0.264906 0.264906 0.264906 0.264906 0.264906 0.269680 0.269680 0.269680 0.269680 0.269680 0.269680 0.269680 0.269680 0.269680 0.269680 0.269680 0.264906 0.264906 0.264906 0.264906 0.264906 0.264906 0.264906 0.264906 0.264906 0.264906 0.264906 0.269680 0.269680 0.269680 0.269680 0.269680 0.269680 0.269680 0.269680 0.269680 0.269680 0.251976 0.251976 0.251976 0.251976 0.251976 0.251976 0.251976 0.251976 0.251976 0.251976 0.251976 0.269680 0.269680 0.269680 0.269680 0.269680 0.269680 0.269680 0.269680 0.269680 0.256074 0.256074 0.256074 0.256074 0.256074 0.256074 0.256074 0.256074 0.256074 0.256074 0.260378 0.260378 0.260378 0.260378 0.260378 0.260378 0.260378 0.260378 0.260378 0.256074 0.256074 0.256074 0.256074 0.256074 0.256074 0.256074 0.256074 0.256074 0.251976 0.251976 0.251976 0.251976 0.251976 0.251976 0.251976 0.251976 0.251976 0.264906 0.264906 0.264906 0.264906 0.264906 0.264906 0.264906 0.264906 0.264906
