# Output from CTFFind version 4.1.9, run on 2019-11-03 19:45:01
# Input file: stack6_bm3d_averaged_1_5.25_0_250_half.mrc ; Number of micrographs: 1
# Pixel size: 3.000 Angstroms ; acceleration voltage: 300.0 keV ; spherical aberration: 0.00 mm ; amplitude contrast: 0.07
# Box size: 512 pixels ; min. res.: 30.0 Angstroms ; max. res.: 5.0 Angstroms ; min. def.: 5000.0 um; max. def. 50000.0 um; num. frames averaged: 1
# 6 lines per micrograph: #1 - spatial frequency (1/Angstroms); #2 - 1D rotational average of spectrum (assuming no astigmatism); #3 - 1D rotational average of spectrum; #4 - CTF fit; #5 - cross-correlation between spectrum and CTF fit; #6 - 2sigma of expected cross correlation of noise
0.000000 0.000651 0.001302 0.001953 0.002604 0.003255 0.003906 0.004557 0.005208 0.005859 0.006510 0.007161 0.007812 0.008464 0.009115 0.009766 0.010417 0.011068 0.011719 0.012370 0.013021 0.013672 0.014323 0.014974 0.015625 0.016276 0.016927 0.017578 0.018229 0.018880 0.019531 0.020182 0.020833 0.021484 0.022135 0.022786 0.023438 0.024089 0.024740 0.025391 0.026042 0.026693 0.027344 0.027995 0.028646 0.029297 0.029948 0.030599 0.031250 0.031901 0.032552 0.033203 0.033854 0.034505 0.035156 0.035807 0.036458 0.037109 0.037760 0.038411 0.039062 0.039714 0.040365 0.041016 0.041667 0.042318 0.042969 0.043620 0.044271 0.044922 0.045573 0.046224 0.046875 0.047526 0.048177 0.048828 0.049479 0.050130 0.050781 0.051432 0.052083 0.052734 0.053385 0.054036 0.054688 0.055339 0.055990 0.056641 0.057292 0.057943 0.058594 0.059245 0.059896 0.060547 0.061198 0.061849 0.062500 0.063151 0.063802 0.064453 0.065104 0.065755 0.066406 0.067057 0.067708 0.068359 0.069010 0.069661 0.070312 0.070964 0.071615 0.072266 0.072917 0.073568 0.074219 0.074870 0.075521 0.076172 0.076823 0.077474 0.078125 0.078776 0.079427 0.080078 0.080729 0.081380 0.082031 0.082682 0.083333 0.083984 0.084635 0.085286 0.085938 0.086589 0.087240 0.087891 0.088542 0.089193 0.089844 0.090495 0.091146 0.091797 0.092448 0.093099 0.093750 0.094401 0.095052 0.095703 0.096354 0.097005 0.097656 0.098307 0.098958 0.099609 0.100260 0.100911 0.101562 0.102214 0.102865 0.103516 0.104167 0.104818 0.105469 0.106120 0.106771 0.107422 0.108073 0.108724 0.109375 0.110026 0.110677 0.111328 0.111979 0.112630 0.113281 0.113932 0.114583 0.115234 0.115885 0.116536 0.117188 0.117839 0.118490 0.119141 0.119792 0.120443 0.121094 0.121745 0.122396 0.123047 0.123698 0.124349 0.125000 0.125651 0.126302 0.126953 0.127604 0.128255 0.128906 0.129557 0.130208 0.130859 0.131510 0.132161 0.132812 0.133464 0.134115 0.134766 0.135417 0.136068 0.136719 0.137370 0.138021 0.138672 0.139323 0.139974 0.140625 0.141276 0.141927 0.142578 0.143229 0.143880 0.144531 0.145182 0.145833 0.146484 0.147135 0.147786 0.148438 0.149089 0.149740 0.150391 0.151042 0.151693 0.152344 0.152995 0.153646 0.154297 0.154948 0.155599 0.156250 0.156901 0.157552 0.158203 0.158854 0.159505 0.160156 0.160807 0.161458 0.162109 0.162760 0.163411 0.164062 0.164714 0.165365 0.166016 0.166667 0.167318 0.167969 0.168620 0.169271 0.169922 0.170573 0.171224 0.171875 0.172526 0.173177 0.173828 0.174479 0.175130 0.175781 0.176432 0.177083 0.177734 0.178385 0.179036 0.179688 0.180339 0.180990 0.181641 0.182292 0.182943 0.183594 0.184245 0.184896 0.185547 0.186198 0.186849 0.187500 0.188151 0.188802 0.189453 0.190104 0.190755 0.191406 0.192057 0.192708 0.193359 0.194010 0.194661 0.195312 0.195964 0.196615 0.197266 0.197917 0.198568 0.199219 0.199870 0.200521 0.201172 0.201823 0.202474 0.203125 0.203776 0.204427 0.205078 0.205729 0.206380 0.207031 0.207682 0.208333 0.208984 0.209635 0.210286 0.210938 0.211589 0.212240 0.212891 0.213542 0.214193 0.214844 0.215495 0.216146 0.216797 0.217448 0.218099 0.218750 0.219401 0.220052 0.220703 0.221354 0.222005 0.222656 0.223307 0.223958 0.224609 0.225260 0.225911 0.226562 0.227214 0.227865 0.228516 0.229167 0.229818 0.230469 0.231120 0.231771 0.232422 0.233073 0.233724 0.234375 0.235026 0.235677
       0.30811        0.30811        0.30811        0.30811        0.30811        0.30811        0.30811        0.30811        0.30811        0.30811        0.30811        0.30811        0.30811        0.30811        0.30811        0.30811        0.30811        0.30811        0.30811        0.30811        0.30811        0.30811        0.30811        0.30811        0.30811        0.30811        0.30811        0.30811        0.30811        0.30811        0.30811        0.30811        0.30811        0.30811        0.30811        0.30811        0.30811        0.30811        0.30811        0.30811        0.30811        0.30811        0.30811        0.30811        0.30811        0.30811        0.30811        0.30811        0.30811        0.30811        0.30811        0.59652        0.72130        0.35451        0.18141        0.12481       -0.15021        0.10477        0.02595        0.03034        0.08688        0.30460        0.32444        0.25199        0.14689       -0.04214       -0.01510        0.03908       -0.13290       -0.14154       -0.08713       -0.10625       -0.22650       -0.14788       -0.26510       -0.27863       -0.28062       -0.34554       -0.42204       -0.36471       -0.27197       -0.24094       -0.34084       -0.25381       -0.31060       -0.24815       -0.17292       -0.12252       -0.08602       -0.01678        0.01652        0.11849        0.16155        0.21059        0.33216        0.39712        0.35239        0.46122        0.54747        0.55587        0.63563        0.57562        0.61051        0.59743        0.60958        0.61048        0.55274        0.57003        0.54953        0.39085        0.32846        0.35993        0.34057        0.19079        0.15732        0.12707        0.08220        0.08570       -0.00273        0.05566        0.03335       -0.00827        0.09461        0.15859        0.25675        0.34812        0.33910        0.36829        0.45554        0.48876        0.41997        0.64559        0.53365        0.47834        0.56600        0.49811        0.53052        0.49039        0.36598        0.30357        0.26764        0.22041        0.20659        0.18979        0.16840        0.11860        0.19658        0.18590        0.22593        0.19604        0.25906        0.30209        0.32498        0.44288        0.42567        0.40722        0.42917        0.47132        0.44510        0.43560        0.38818        0.39681        0.33311        0.27985        0.23409        0.24320        0.23656        0.18562        0.15678        0.21124        0.21704        0.26368        0.33558        0.35283        0.40885        0.38965        0.43609        0.45322        0.44979        0.41991        0.38761        0.40669        0.36674        0.32717        0.32740        0.30774        0.25286        0.26964        0.26850        0.22431        0.28826        0.26900        0.27883        0.31559        0.36667        0.40420        0.39783        0.41649        0.37290        0.40628        0.38865        0.30173        0.28176        0.23776        0.25397        0.21692        0.19894        0.28154        0.33311        0.30856        0.27812        0.33449        0.26047        0.32386        0.37002        0.36421        0.35795        0.37701        0.32123        0.33256        0.31395        0.28013        0.27641        0.24082        0.28287        0.29612        0.30699        0.32840        0.37122        0.37287        0.36600        0.32955        0.34960        0.33108        0.31555        0.31320        0.28016        0.28118        0.25146        0.31079        0.32089        0.31128        0.28796        0.32248        0.32527        0.32766        0.33871        0.30852        0.27701        0.28766        0.28329        0.26356        0.24181        0.22981        0.24307        0.25777        0.24276        0.27812        0.27748        0.31901        0.31393        0.26822        0.29911        0.25899        0.20405        0.26167        0.24108        0.22784        0.27151        0.29818        0.29169        0.29235        0.29599        0.29446        0.30746        0.31839        0.26528        0.30687        0.30224        0.34726        0.27591        0.26464        0.25383        0.30499        0.31083        0.31995        0.33445        0.30942        0.22112        0.27849        0.25326        0.24373        0.23932        0.24650        0.28098        0.23685        0.29606        0.30570        0.34187        0.30497        0.28638        0.24339        0.25834        0.25768        0.23517        0.26116        0.27819        0.31148        0.32927        0.29131        0.28630        0.26312        0.29743        0.26577        0.22910        0.19363        0.27184        0.32808        0.31508        0.30700        0.28444        0.23030        0.22417        0.24174        0.22022        0.22415        0.26811        0.27358        0.25662        0.22694        0.21671        0.25825        0.23673        0.25010        0.26766        0.25551        0.18073        0.22307        0.25325        0.23941        0.28090        0.24335        0.22942        0.18502        0.25856        0.28247        0.19717        0.20706        0.12576        0.14334        0.30143        0.16955        0.18834        0.31356        0.19589        0.17539        0.12008        0.20535        0.13076        0.14595       -0.05632       -0.61697       -0.98552
2.318083 2.298013 2.278036 2.258152 2.238360 2.218661 2.199054 2.179540 2.160118 2.140789 2.121552 2.102408 2.083356 2.064397 2.045530 2.026756 2.008074 1.989485 1.970989 1.952585 1.934273 1.916054 1.897928 1.879894 1.861952 1.844103 1.826347 1.808683 1.791111 1.773632 1.756246 1.738952 1.721751 1.704642 1.687626 1.670702 1.653870 1.637132 1.620485 1.603932 1.587470 1.571102 1.554826 1.538642 1.522551 1.506552 1.490646 1.474832 1.459111 1.443483 1.427947 1.787308 2.116024 1.468160 1.336732 1.080028 0.535743 0.914028 0.807283 0.849341 0.709154 1.363575 1.214599 1.226472 0.986336 0.643032 0.497883 0.757371 0.564358 0.244009 0.314154 0.476753 0.226451 0.256692 0.113791 0.018729 -0.018059 -0.016955 -0.291287 -0.179854 -0.021226 -0.049929 -0.107294 -0.015100 -0.144558 -0.115589 0.063110 0.150354 0.217175 0.264198 0.335154 0.584113 0.534857 0.611019 0.821727 0.989077 0.799347 1.180234 1.153922 1.218204 1.312990 1.227434 1.184181 1.327997 1.196914 1.325985 1.155636 1.093566 1.182036 0.944755 0.658864 0.715017 0.770540 0.474523 0.396564 0.337056 0.195625 0.188733 0.037495 0.167065 0.132674 0.000190 0.109228 0.227084 0.340121 0.597049 0.587588 0.557921 0.711018 0.868598 0.589056 1.019594 0.958388 0.777338 0.889753 0.748966 0.829878 0.848359 0.576245 0.410952 0.376351 0.314836 0.210022 0.164693 0.173852 -0.015763 0.162693 0.140867 0.222723 0.108613 0.269756 0.309517 0.273080 0.490394 0.584921 0.501349 0.403791 0.588671 0.587376 0.484752 0.491177 0.436654 0.310203 0.324297 0.114996 0.169055 0.054939 0.175036 -0.064944 0.038189 0.017059 0.226438 0.102171 0.359155 0.316224 0.372075 0.418101 0.409043 0.578745 0.373738 0.388482 0.442824 0.243477 0.334368 0.182101 0.270645 0.103537 0.142678 0.106642 0.097381 0.044714 0.163496 0.067769 0.154280 0.249314 0.280270 0.340280 0.292398 0.368378 0.272559 0.308126 0.210021 0.121527 0.067817 0.013110 0.031568 -0.056124 -0.025253 0.111454 0.211677 0.089188 0.117892 0.118400 0.062300 0.206937 0.254581 0.221376 0.272342 0.170835 0.161897 0.144855 0.128648 0.086748 -0.018979 0.021198 0.169473 0.026187 0.163080 0.142043 0.269384 0.187172 0.249925 0.209475 0.228494 0.124686 0.161643 0.152788 0.083899 0.036475 0.071012 0.149895 0.166885 0.136773 0.092347 0.176118 0.154879 0.123269 0.150788 0.052269 0.014345 0.069295 0.015458 0.012629 -0.051228 -0.065651 0.007935 -0.023368 -0.047362 0.029228 0.042243 0.107674 0.068483 -0.018361 0.063632 -0.064439 -0.097095 0.026663 -0.069788 -0.084857 0.050366 0.052827 0.024747 0.066867 -0.038794 0.069150 0.135240 -0.021409 -0.006236 0.106382 0.035071 0.135413 -0.032315 -0.005381 -0.046862 0.127605 0.042875 0.073943 0.120043 0.033643 -0.094355 -0.001742 -0.027880 -0.047115 -0.062033 -0.038916 0.002041 -0.087163 0.090922 0.094562 0.155617 0.056864 0.004564 -0.016989 0.003677 0.019538 -0.047258 0.046514 0.030622 0.141704 0.113845 0.087029 0.067808 0.043767 0.147339 -0.007450 0.003114 -0.105414 0.113679 0.178135 0.071679 0.176261 0.019290 -0.023343 -0.033113 -0.014063 -0.031870 -0.017929 0.056988 0.094959 0.029658 -0.005939 -0.023313 0.084907 0.057012 0.072550 0.105514 0.047511 -0.005949 0.024701 0.130294 0.062013 0.197350 0.092531 0.060025 0.075853 0.165845 0.223145 0.086297 0.115000 -0.058656 -0.104560 0.467273 0.304827 0.327169 0.604824 0.280104 0.307362 0.137981 0.461841 0.232158 0.287597 -0.090443 -1.740635
0.072396 0.072837 0.074161 0.076366 0.079452 0.083420 0.088267 0.093993 0.100596 0.108074 0.116425 0.125645 0.135730 0.146677 0.158479 0.171130 0.184623 0.198948 0.214094 0.230051 0.246802 0.264334 0.282628 0.301662 0.321416 0.341861 0.362971 0.384712 0.407050 0.429946 0.453358 0.477238 0.501537 0.526198 0.551163 0.576367 0.601741 0.627211 0.652698 0.678116 0.703378 0.728387 0.753043 0.777242 0.800873 0.823819 0.845961 0.867174 0.887328 0.906289 0.923922 0.940085 0.954637 0.967431 0.978323 0.987166 0.993814 0.998121 0.999945 0.999147 0.995591 0.989148 0.979695 0.967119 0.951315 0.932191 0.909665 0.883673 0.854164 0.821106 0.784486 0.744311 0.700611 0.653440 0.602877 0.549027 0.492023 0.432028 0.369234 0.303862 0.236165 0.166430 0.094969 0.022132 0.051707 0.126142 0.200739 0.275039 0.348558 0.420793 0.491221 0.559305 0.624497 0.686244 0.743991 0.797185 0.845284 0.887762 0.924113 0.953861 0.976561 0.991815 0.999269 0.998626 0.989653 0.972183 0.946125 0.911469 0.868291 0.816757 0.757127 0.689759 0.615108 0.533731 0.446280 0.353507 0.256256 0.155458 0.052127 0.052650 0.157722 0.261888 0.363905 0.462506 0.556418 0.644371 0.725126 0.797487 0.860324 0.912591 0.953346 0.981772 0.997196 0.999105 0.987163 0.961226 0.921355 0.867823 0.801124 0.721976 0.631319 0.530310 0.420318 0.302906 0.179817 0.052952 0.075661 0.203886 0.329529 0.450359 0.564159 0.668765 0.762109 0.842262 0.907482 0.956255 0.987335 0.999782 0.992994 0.966735 0.921160 0.856821 0.774680 0.676104 0.562850 0.437047 0.301164 0.157963 0.010456 0.138155 0.284550 0.425362 0.557250 0.676989 0.781547 0.868171 0.934464 0.978464 0.998705 0.994281 0.964886 0.910849 0.833152 0.733423 0.613922 0.477504 0.327559 0.167941 0.002878 0.163136 0.325462 0.479440 0.620529 0.744444 0.847295 0.925717 0.976991 0.999155 0.991089 0.952579 0.884362 0.788130 0.666510 0.523017 0.361961 0.188339 0.007685 0.174094 0.350907 0.516688 0.665603 0.792263 0.891933 0.960718 0.995738 0.995261 0.958808 0.887209 0.782616 0.648471 0.489403 0.311099 0.120121 0.076337 0.270700 0.455302 0.622700 0.765971 0.879017 0.956840 0.995784 0.993729 0.950228 0.866575 0.745805 0.592618 0.413214 0.215080 0.006683 0.202877 0.404247 0.588258 0.746331 0.870908 0.955823 0.996635 0.990887 0.938285 0.840767 0.702481 0.529635 0.330259 0.113854 0.109041 0.327358 0.530030 0.706578 0.847656 0.945568 0.994721 0.991977 0.936880 0.831763 0.681689 0.494255 0.279239 0.048122 0.186508 0.411624 0.614500 0.783421 0.908396 0.981778 0.998757 0.957729 0.860462 0.712090 0.520878 0.297816 0.056014 0.190040 0.425337 0.635260 0.806523 0.928007 0.991549 0.992512 0.930180 0.807901 0.632963 0.416219 0.171455 0.085448 0.337537 0.567880 0.760733 0.902629 0.983361 0.996762 0.941228 0.819942 0.640762 0.415763 0.160495 0.107080 0.367803 0.602708 0.794400 0.928382 0.994188 0.986267 0.904501 0.754346 0.546535 0.296381 0.022689 0.253600 0.511021 0.729255 0.890744 0.982157 0.995555 0.929138 0.787531 0.581540 0.327417 0.045615 0.240797 0.508028 0.733520 0.897893 0.986667 0.991592 0.911493 0.752523 0.527782 0.256311 0.038452 0.330671 0.594347 0.805651 0.945125 0.999528 0.963169 0.838589 0.636496 0.374926 0.077723 0.227582 0.512315 0.749327 0.915639 0.994724 0.978227 0.866942 0.670916 0.408643 0.105414 0.209082 0.503602 0.748486 0.918661 0.996275
1.000000 1.000000 1.000000 1.000000 1.000000 1.000000 1.000000 1.000000 1.000000 1.000000 1.000000 1.000000 1.000000 1.000000 1.000000 1.000000 1.000000 1.000000 1.000000 1.000000 1.000000 1.000000 1.000000 1.000000 1.000000 1.000000 1.000000 1.000000 1.000000 1.000000 1.000000 1.000000 1.000000 1.000000 1.000000 1.000000 1.000000 1.000000 1.000000 1.000000 1.000000 1.000000 1.000000 1.000000 1.000000 1.000000 1.000000 1.000000 1.000000 1.000000 1.000000 1.000000 0.777847 0.777847 0.777847 0.777847 0.777847 0.777847 0.777847 0.762801 0.762801 0.762801 0.762801 0.762801 0.762801 0.762801 0.762801 0.762801 0.762801 0.762801 0.762801 0.762801 0.762801 0.762801 0.762801 0.762801 0.762801 0.762801 0.762801 0.762801 0.762801 0.762801 0.762801 0.762801 0.762801 0.762801 0.762801 0.762801 0.762801 0.762801 0.762801 0.762801 0.762801 0.762801 0.762801 0.762801 0.762801 0.762801 0.762801 0.762801 0.762801 0.762801 0.762801 0.909796 0.910089 0.912775 0.906999 0.908825 0.906481 0.900570 0.903499 0.902633 0.902500 0.903419 0.904658 0.906578 0.909962 0.916468 0.919408 0.927239 0.930707 0.931886 0.931639 0.928723 0.935370 0.932731 0.930572 0.919443 0.922919 0.922328 0.922974 0.921523 0.921943 0.922812 0.923220 0.920755 0.919114 0.916605 0.914838 0.915318 0.914830 0.914782 0.914944 0.914281 0.915331 0.915979 0.911775 0.914351 0.912933 0.909864 0.905868 0.905880 0.907002 0.900384 0.897911 0.887882 0.889949 0.889107 0.892765 0.890205 0.889565 0.890682 0.891479 0.892178 0.889563 0.889663 0.886100 0.886237 0.882394 0.878168 0.873788 0.873207 0.876024 0.882635 0.886144 0.886304 0.883859 0.877982 0.868060 0.866234 0.850431 0.824956 0.825601 0.828210 0.830138 0.831055 0.829824 0.828650 0.825617 0.820948 0.815712 0.820943 0.821129 0.813872 0.800022 0.799744 0.796638 0.804022 0.808419 0.800462 0.802605 0.801795 0.807332 0.808031 0.805262 0.804493 0.800227 0.802927 0.811126 0.811660 0.803548 0.797326 0.792412 0.774378 0.776652 0.781936 0.794460 0.796864 0.791855 0.779404 0.788433 0.784576 0.793640 0.806169 0.806953 0.806141 0.791209 0.753895 0.740670 0.734855 0.737432 0.738739 0.729808 0.727110 0.725898 0.728590 0.689313 0.680694 0.671211 0.667027 0.674597 0.676916 0.678102 0.634505 0.653837 0.651047 0.630591 0.625965 0.586504 0.573468 0.516279 0.521278 0.520445 0.493200 0.480384 0.468885 0.484158 0.496481 0.496183 0.488482 0.465945 0.450307 0.445538 0.447809 0.458836 0.459185 0.462234 0.420704 0.403152 0.398887 0.419174 0.423071 0.422308 0.436916 0.447455 0.450020 0.436640 0.417206 0.413448 0.427941 0.439330 0.448847 0.449750 0.436724 0.417273 0.396063 0.399866 0.438412 0.432653 0.426896 0.411095 0.418829 0.409195 0.382465 0.360701 0.342068 0.385364 0.394858 0.395740 0.356687 0.323138 0.334898 0.331304 0.327793 0.316587 0.350152 0.370861 0.368573 0.373109 0.364437 0.406652 0.482892 0.472816 0.467343 0.484957 0.473889 0.455216 0.436370 0.416607 0.414460 0.405051 0.396453 0.378280 0.371222 0.358699 0.355352 0.373222 0.378335 0.408230 0.387494 0.342735 0.198475 0.249462 0.249462 0.249462 0.249462 0.249462 0.249462 0.249462 0.249462 0.249462 0.249462 0.249462 0.194927 0.194927 0.194927 0.194927 0.194927 0.194927 0.194927 0.194927 0.194927 0.194927 0.194927 0.194927 0.194927 0.194927 0.194927 0.194927 0.194927 0.194927 0.194927 0.194927
0.000000 0.000000 0.000000 0.000000 0.000000 0.000000 0.000000 0.000000 0.000000 0.000000 0.000000 0.000000 0.000000 0.000000 0.000000 0.000000 0.000000 0.000000 0.000000 0.000000 0.000000 0.000000 0.000000 0.000000 0.000000 0.000000 0.000000 0.000000 0.000000 0.000000 0.000000 0.000000 0.000000 0.000000 0.000000 0.000000 0.000000 0.000000 0.000000 0.000000 0.000000 0.000000 0.000000 0.000000 0.000000 0.000000 0.000000 0.000000 0.000000 0.000000 0.000000 0.000000 0.173422 0.173422 0.173422 0.173422 0.173422 0.173422 0.173422 0.191565 0.191565 0.191565 0.191565 0.191565 0.191565 0.191565 0.191565 0.191565 0.191565 0.191565 0.191565 0.191565 0.191565 0.191565 0.191565 0.191565 0.191565 0.191565 0.191565 0.191565 0.191565 0.191565 0.191565 0.191565 0.191565 0.191565 0.191565 0.191565 0.191565 0.191565 0.191565 0.191565 0.191565 0.191565 0.191565 0.191565 0.191565 0.191565 0.191565 0.191565 0.191565 0.191565 0.191565 0.222222 0.222222 0.222222 0.222222 0.222222 0.222222 0.222222 0.222222 0.222222 0.222222 0.222222 0.222222 0.222222 0.222222 0.222222 0.222222 0.222222 0.222222 0.222222 0.222222 0.222222 0.222222 0.222222 0.222222 0.222222 0.222222 0.222222 0.222222 0.222222 0.222222 0.234082 0.234082 0.234082 0.234082 0.234082 0.234082 0.234082 0.234082 0.234082 0.234082 0.234082 0.234082 0.234082 0.234082 0.234082 0.234082 0.234082 0.234082 0.234082 0.234082 0.234082 0.234082 0.234082 0.234082 0.234082 0.244339 0.244339 0.244339 0.244339 0.244339 0.244339 0.244339 0.244339 0.244339 0.244339 0.244339 0.244339 0.244339 0.244339 0.244339 0.244339 0.244339 0.244339 0.244339 0.244339 0.244339 0.248069 0.248069 0.248069 0.248069 0.248069 0.248069 0.248069 0.248069 0.248069 0.248069 0.248069 0.248069 0.248069 0.248069 0.248069 0.248069 0.248069 0.248069 0.248069 0.256074 0.256074 0.256074 0.256074 0.256074 0.256074 0.256074 0.256074 0.256074 0.256074 0.256074 0.256074 0.256074 0.256074 0.256074 0.256074 0.256074 0.256074 0.256074 0.256074 0.256074 0.256074 0.256074 0.256074 0.256074 0.256074 0.256074 0.256074 0.256074 0.256074 0.256074 0.256074 0.256074 0.256074 0.256074 0.256074 0.256074 0.256074 0.256074 0.256074 0.256074 0.256074 0.256074 0.256074 0.256074 0.256074 0.256074 0.256074 0.256074 0.256074 0.256074 0.256074 0.256074 0.256074 0.256074 0.256074 0.256074 0.256074 0.256074 0.256074 0.256074 0.256074 0.260378 0.260378 0.260378 0.260378 0.260378 0.260378 0.260378 0.260378 0.260378 0.260378 0.260378 0.260378 0.260378 0.256074 0.256074 0.256074 0.256074 0.256074 0.256074 0.256074 0.256074 0.256074 0.256074 0.256074 0.256074 0.256074 0.260378 0.260378 0.260378 0.260378 0.260378 0.260378 0.260378 0.260378 0.260378 0.260378 0.260378 0.260378 0.251976 0.251976 0.251976 0.251976 0.251976 0.251976 0.251976 0.251976 0.251976 0.251976 0.251976 0.251976 0.256074 0.256074 0.256074 0.256074 0.256074 0.256074 0.256074 0.256074 0.256074 0.256074 0.256074 0.251976 0.251976 0.251976 0.251976 0.251976 0.251976 0.251976 0.251976 0.251976 0.251976 0.251976 0.248069 0.248069 0.248069 0.248069 0.248069 0.248069 0.248069 0.248069 0.248069 0.248069 0.248069 0.256074 0.256074 0.256074 0.256074 0.256074 0.256074 0.256074 0.256074 0.256074 0.256074 0.256074 0.256074 0.256074 0.256074 0.256074 0.256074 0.256074 0.256074 0.256074 0.256074
