# Output from CTFFind version 4.1.9, run on 2019-11-02 17:58:27
# Input file: stack1_bm3d_averaged_1_1.75_0_3000_half.mrc ; Number of micrographs: 1
# Pixel size: 3.000 Angstroms ; acceleration voltage: 300.0 keV ; spherical aberration: 0.00 mm ; amplitude contrast: 0.07
# Box size: 512 pixels ; min. res.: 30.0 Angstroms ; max. res.: 5.0 Angstroms ; min. def.: 5000.0 um; max. def. 50000.0 um; num. frames averaged: 1
# 6 lines per micrograph: #1 - spatial frequency (1/Angstroms); #2 - 1D rotational average of spectrum (assuming no astigmatism); #3 - 1D rotational average of spectrum; #4 - CTF fit; #5 - cross-correlation between spectrum and CTF fit; #6 - 2sigma of expected cross correlation of noise
0.000000 0.000651 0.001302 0.001953 0.002604 0.003255 0.003906 0.004557 0.005208 0.005859 0.006510 0.007161 0.007812 0.008464 0.009115 0.009766 0.010417 0.011068 0.011719 0.012370 0.013021 0.013672 0.014323 0.014974 0.015625 0.016276 0.016927 0.017578 0.018229 0.018880 0.019531 0.020182 0.020833 0.021484 0.022135 0.022786 0.023438 0.024089 0.024740 0.025391 0.026042 0.026693 0.027344 0.027995 0.028646 0.029297 0.029948 0.030599 0.031250 0.031901 0.032552 0.033203 0.033854 0.034505 0.035156 0.035807 0.036458 0.037109 0.037760 0.038411 0.039062 0.039714 0.040365 0.041016 0.041667 0.042318 0.042969 0.043620 0.044271 0.044922 0.045573 0.046224 0.046875 0.047526 0.048177 0.048828 0.049479 0.050130 0.050781 0.051432 0.052083 0.052734 0.053385 0.054036 0.054688 0.055339 0.055990 0.056641 0.057292 0.057943 0.058594 0.059245 0.059896 0.060547 0.061198 0.061849 0.062500 0.063151 0.063802 0.064453 0.065104 0.065755 0.066406 0.067057 0.067708 0.068359 0.069010 0.069661 0.070312 0.070964 0.071615 0.072266 0.072917 0.073568 0.074219 0.074870 0.075521 0.076172 0.076823 0.077474 0.078125 0.078776 0.079427 0.080078 0.080729 0.081380 0.082031 0.082682 0.083333 0.083984 0.084635 0.085286 0.085938 0.086589 0.087240 0.087891 0.088542 0.089193 0.089844 0.090495 0.091146 0.091797 0.092448 0.093099 0.093750 0.094401 0.095052 0.095703 0.096354 0.097005 0.097656 0.098307 0.098958 0.099609 0.100260 0.100911 0.101562 0.102214 0.102865 0.103516 0.104167 0.104818 0.105469 0.106120 0.106771 0.107422 0.108073 0.108724 0.109375 0.110026 0.110677 0.111328 0.111979 0.112630 0.113281 0.113932 0.114583 0.115234 0.115885 0.116536 0.117188 0.117839 0.118490 0.119141 0.119792 0.120443 0.121094 0.121745 0.122396 0.123047 0.123698 0.124349 0.125000 0.125651 0.126302 0.126953 0.127604 0.128255 0.128906 0.129557 0.130208 0.130859 0.131510 0.132161 0.132812 0.133464 0.134115 0.134766 0.135417 0.136068 0.136719 0.137370 0.138021 0.138672 0.139323 0.139974 0.140625 0.141276 0.141927 0.142578 0.143229 0.143880 0.144531 0.145182 0.145833 0.146484 0.147135 0.147786 0.148438 0.149089 0.149740 0.150391 0.151042 0.151693 0.152344 0.152995 0.153646 0.154297 0.154948 0.155599 0.156250 0.156901 0.157552 0.158203 0.158854 0.159505 0.160156 0.160807 0.161458 0.162109 0.162760 0.163411 0.164062 0.164714 0.165365 0.166016 0.166667 0.167318 0.167969 0.168620 0.169271 0.169922 0.170573 0.171224 0.171875 0.172526 0.173177 0.173828 0.174479 0.175130 0.175781 0.176432 0.177083 0.177734 0.178385 0.179036 0.179688 0.180339 0.180990 0.181641 0.182292 0.182943 0.183594 0.184245 0.184896 0.185547 0.186198 0.186849 0.187500 0.188151 0.188802 0.189453 0.190104 0.190755 0.191406 0.192057 0.192708 0.193359 0.194010 0.194661 0.195312 0.195964 0.196615 0.197266 0.197917 0.198568 0.199219 0.199870 0.200521 0.201172 0.201823 0.202474 0.203125 0.203776 0.204427 0.205078 0.205729 0.206380 0.207031 0.207682 0.208333 0.208984 0.209635 0.210286 0.210938 0.211589 0.212240 0.212891 0.213542 0.214193 0.214844 0.215495 0.216146 0.216797 0.217448 0.218099 0.218750 0.219401 0.220052 0.220703 0.221354 0.222005 0.222656 0.223307 0.223958 0.224609 0.225260 0.225911 0.226562 0.227214 0.227865 0.228516 0.229167 0.229818 0.230469 0.231120 0.231771 0.232422 0.233073 0.233724 0.234375 0.235026 0.235677
       0.33459        0.33459        0.33459        0.33459        0.33459        0.33459        0.33459        0.33459        0.33459        0.33459        0.33459        0.33459        0.33459        0.33459        0.33459        0.33459        0.33459        0.33459        0.33459        0.33459        0.33459        0.33459        0.33459        0.33459        0.33459        0.33459        0.33459        0.33459        0.33459        0.33459        0.33459        0.33459        0.33459        0.33459        0.33459        0.33459        0.33459        0.33459        0.33459        0.33459        0.33459        0.33459        0.33459        0.33459        0.33459        0.33459        0.33459        0.33459        0.33459        0.33459        0.33459        0.50019        0.71592        0.42549        0.19236       -0.07744       -0.26016       -0.06756       -0.12721       -0.06031       -0.00017       -0.14447       -0.09816       -0.04276        0.00342       -0.15025       -0.22030       -0.33821       -0.46452       -0.56778       -0.52092       -0.45540       -0.37114       -0.55205       -0.44938       -0.62048       -0.50335       -0.47251       -0.39354       -0.37792       -0.33745       -0.24140       -0.16225       -0.14156        0.03018       -0.01396        0.11946        0.17225        0.30856        0.41455        0.46735        0.49689        0.54231        0.55022        0.69790        0.64822        0.68287        0.58792        0.55690        0.65252        0.52747        0.43435        0.39511        0.31653        0.23622        0.26755        0.25638        0.10245        0.08725        0.00087       -0.00728        0.03564       -0.00655        0.07381        0.09045        0.23076        0.28468        0.30789        0.39360        0.56437        0.54276        0.57845        0.66933        0.68865        0.62983        0.64108        0.63845        0.54254        0.57042        0.39217        0.35421        0.26738        0.18775        0.07657        0.14468        0.11754        0.10175        0.11431        0.20595        0.19938        0.31406        0.35359        0.41359        0.49508        0.57291        0.54740        0.56063        0.60822        0.54365        0.46995        0.48215        0.32541        0.25108        0.25567        0.24618        0.14589        0.14853        0.15493        0.22766        0.25799        0.33440        0.37432        0.39840        0.46228        0.44997        0.47813        0.44406        0.47519        0.44626        0.40043        0.37197        0.36553        0.32623        0.29125        0.21013        0.21221        0.22903        0.27300        0.26319        0.34528        0.37632        0.35517        0.41217        0.46015        0.45064        0.42596        0.43761        0.35756        0.33690        0.28408        0.26009        0.29036        0.26493        0.29558        0.30274        0.34698        0.33403        0.40679        0.39932        0.42720        0.40745        0.43916        0.40792        0.37233        0.28612        0.29269        0.30101        0.28148        0.26222        0.33864        0.37148        0.33627        0.36056        0.37057        0.35003        0.40639        0.40209        0.36313        0.34588        0.31150        0.31385        0.31949        0.30807        0.30217        0.28830        0.34114        0.35865        0.37587        0.33891        0.33148        0.33475        0.35182        0.30992        0.28224        0.30932        0.32403        0.32883        0.32588        0.33682        0.35797        0.33508        0.32316        0.33978        0.30437        0.26149        0.25205        0.26725        0.30346        0.32289        0.35551        0.29917        0.30825        0.33235        0.29696        0.32645        0.30054        0.28316        0.28631        0.29526        0.30623        0.34728        0.31703        0.32799        0.32583        0.33551        0.33933        0.31780        0.32515        0.32277        0.27456        0.29753        0.31193        0.28863        0.32705        0.32839        0.33758        0.31668        0.34988        0.33619        0.27860        0.24167        0.27304        0.33662        0.36537        0.35601        0.31969        0.29610        0.29828        0.31823        0.25785        0.29035        0.30142        0.32080        0.29639        0.30214        0.26812        0.33289        0.33932        0.33966        0.32274        0.30223        0.30928        0.39249        0.34157        0.32707        0.31530        0.30916        0.28811        0.29892        0.29183        0.29776        0.23354        0.27463        0.30026        0.31191        0.29966        0.28249        0.28587        0.24116        0.23611        0.27831        0.31839        0.30366        0.32305        0.29312        0.33520        0.25084        0.22223        0.29821        0.25433        0.27372        0.27728        0.35237        0.27275        0.29303        0.27324        0.22726        0.25860        0.25250        0.23009        0.16992        0.22507        0.23627        0.24891        0.30358        0.27907        0.33491        0.31324        0.28632        0.27961        0.22966        0.25159        0.26247        0.21576        0.14079        0.19886        0.24299        0.20969        0.32021        0.26981        0.08125       -0.41878       -0.95575
2.691677 2.663298 2.635071 2.606997 2.579075 2.551306 2.523689 2.496225 2.468913 2.441754 2.414748 2.387894 2.361193 2.334644 2.308248 2.282004 2.255913 2.229974 2.204188 2.178555 2.153074 2.127746 2.102570 2.077547 2.052676 2.027958 2.003392 1.978979 1.954719 1.930611 1.906656 1.882853 1.859203 1.835705 1.812360 1.789167 1.766127 1.743240 1.720505 1.697923 1.675493 1.653216 1.631091 1.609119 1.587299 1.565632 1.544118 1.522756 1.501547 1.480490 1.459586 1.525801 1.829657 1.511732 1.196494 0.940925 0.540211 0.911716 0.640133 0.862631 0.923656 0.594414 0.697516 0.787363 0.829485 0.622714 0.536769 0.353992 0.096905 0.065370 0.037882 0.062374 0.298036 -0.040957 0.073245 -0.136464 -0.024428 -0.014895 0.067787 0.070543 0.098550 0.181939 0.281660 0.245046 0.476810 0.397161 0.547971 0.531800 0.776275 0.792967 0.883542 0.931743 0.938452 0.954928 1.126866 0.946959 1.153492 0.948008 0.855047 1.020376 0.850859 0.767821 0.637144 0.592390 0.462909 0.426798 0.514622 0.264642 0.206371 0.162259 0.009563 0.206792 -0.006487 0.123439 0.173885 0.254668 0.340692 0.354223 0.445536 0.548594 0.678160 0.542138 0.746313 0.853775 0.637218 0.713433 0.681183 0.584616 0.542781 0.459122 0.313403 0.220211 0.124335 -0.034647 -0.010741 0.050850 -0.078937 -0.054191 0.060675 0.044595 0.108247 0.216205 0.244135 0.318094 0.444347 0.451621 0.453337 0.466444 0.466143 0.342785 0.337653 0.250536 0.052735 0.063671 0.020482 -0.037051 -0.094735 -0.085935 -0.014895 -0.031447 0.088353 0.133627 0.135244 0.264130 0.231074 0.245170 0.278261 0.243122 0.240363 0.217297 0.149187 0.118668 0.119648 0.029416 0.014246 -0.109196 -0.038465 0.008826 -0.003453 0.019695 0.100530 0.077562 0.124152 0.212841 0.274166 0.172628 0.194525 0.108825 0.137883 0.028307 -0.036399 0.022195 -0.018679 0.012985 -0.003283 0.042417 0.075808 0.063351 0.167991 0.105962 0.181788 0.087057 0.168948 0.109038 0.016777 -0.042384 -0.007298 -0.018197 -0.050245 -0.049002 0.089293 0.068696 -0.001670 0.105144 0.086424 0.074977 0.156191 0.086828 0.087889 0.071764 -0.005171 0.045793 0.010341 0.019282 0.020721 0.014074 0.065348 0.074187 0.083216 0.047679 0.054867 0.031995 0.082591 -0.001817 -0.005261 0.033985 0.035551 0.059469 0.051921 0.069718 0.064199 0.060581 0.033054 0.048239 0.001035 -0.046450 -0.032164 -0.014983 0.021853 0.037815 0.112225 -0.009641 0.058939 0.048038 0.006993 0.074532 0.028344 0.003610 0.030816 0.045333 0.037834 0.093772 0.036484 0.074845 0.075717 0.098154 0.069808 0.081060 0.097676 0.052298 -0.007107 0.067200 0.048667 0.040164 0.092640 0.083060 0.039461 0.063221 0.102999 0.037097 0.011008 -0.068168 0.002173 0.119289 0.102177 0.083704 0.043559 0.003620 0.060719 0.039939 -0.048558 0.048128 0.035680 0.062817 0.050225 -0.006088 -0.010859 0.080167 0.037695 0.029651 0.045622 -0.037536 0.066594 0.114984 0.026057 0.011574 0.009278 0.017494 -0.041611 -0.017089 -0.026425 -0.040362 -0.101520 -0.035199 -0.029351 0.001817 -0.032204 -0.064485 0.018169 -0.073667 -0.034680 -0.068237 0.060953 0.012583 0.047455 -0.002191 0.057577 -0.052230 -0.059868 0.026984 -0.044434 0.011286 -0.013432 0.132695 -0.066768 0.025127 0.009366 -0.065528 -0.010750 -0.021660 -0.039444 -0.165493 -0.027276 -0.034511 -0.024204 0.018272 0.000777 0.115850 0.050695 0.035247 0.019425 -0.028409 -0.020516 -0.018779 0.262282 0.172615 0.248936 0.249277 0.291085 0.343203 0.280807 0.098501 -1.127535
0.072396 0.072910 0.074453 0.077023 0.080621 0.085246 0.090895 0.097568 0.105262 0.113974 0.123701 0.134437 0.146178 0.158917 0.172645 0.187353 0.203028 0.219658 0.237226 0.255714 0.275100 0.295361 0.316468 0.338389 0.361091 0.384532 0.408670 0.433454 0.458831 0.484742 0.511120 0.537895 0.564989 0.592318 0.619792 0.647312 0.674775 0.702068 0.729073 0.755664 0.781707 0.807063 0.831584 0.855118 0.877505 0.898580 0.918172 0.936106 0.952204 0.966284 0.978162 0.987654 0.994577 0.998748 0.999987 0.998121 0.992982 0.984411 0.972258 0.956388 0.936678 0.913023 0.885337 0.853554 0.817635 0.777562 0.733351 0.685045 0.632720 0.576489 0.516500 0.452941 0.386037 0.316059 0.243314 0.168156 0.090979 0.012220 0.067644 0.148096 0.228582 0.308514 0.387272 0.464210 0.538660 0.609936 0.677343 0.740183 0.797759 0.849390 0.894414 0.932198 0.962152 0.983732 0.996457 0.999912 0.993766 0.977775 0.951794 0.915786 0.869831 0.814129 0.749007 0.674928 0.592486 0.502410 0.405563 0.302939 0.195653 0.084939 0.027869 0.141342 0.253980 0.364224 0.470483 0.571151 0.664637 0.749389 0.823925 0.886856 0.936923 0.973020 0.994224 0.999824 0.989341 0.962556 0.919523 0.860587 0.786393 0.697886 0.596316 0.483227 0.360438 0.230029 0.094305 0.044233 0.182935 0.319049 0.449774 0.572318 0.683961 0.782119 0.864407 0.928708 0.973229 0.996565 0.997748 0.976290 0.932221 0.866113 0.779090 0.672826 0.549527 0.411905 0.263124 0.106739 0.053379 0.213135 0.368312 0.514679 0.648115 0.764721 0.860955 0.933735 0.980562 0.999612 0.989822 0.950955 0.883643 0.789403 0.670625 0.530539 0.373138 0.203090 0.025601 0.153724 0.329059 0.494542 0.644480 0.773539 0.876962 0.950745 0.991818 0.998190 0.969061 0.904900 0.807477 0.679843 0.526266 0.352112 0.163681 0.032013 0.227479 0.415041 0.587140 0.736638 0.857133 0.943256 0.990923 0.997561 0.962270 0.885921 0.771181 0.622459 0.445772 0.248530 0.039246 0.172809 0.378013 0.566827 0.730244 0.860241 0.950187 0.995218 0.992528 0.941580 0.844201 0.704575 0.529104 0.326154 0.105692 0.121185 0.342793 0.547458 0.724144 0.863056 0.956226 0.997990 0.985385 0.918392 0.800029 0.636273 0.435813 0.209627 0.029581 0.268075 0.491870 0.687550 0.843095 0.948652 0.997198 0.985053 0.912213 0.782452 0.603197 0.385159 0.141749 0.111721 0.358977 0.583814 0.771183 0.908218 0.985167 0.996138 0.939605 0.818642 0.640828 0.417853 0.164796 0.100833 0.360304 0.594958 0.787577 0.923670 0.992624 0.988589 0.911042 0.764972 0.560642 0.312943 0.040379 0.236289 0.495582 0.717007 0.882677 0.978814 0.996969 0.934837 0.796599 0.592748 0.339377 0.056982 0.231153 0.500842 0.729032 0.895822 0.986234 0.991651 0.910720 0.749646 0.521838 0.246869 0.051116 0.345485 0.609481 0.818667 0.953245 0.999999 0.953691 0.817740 0.604100 0.332325 0.027866 0.280257 0.562180 0.790126 0.941157 0.999588 0.958706 0.821651 0.601320 0.319283 0.003760 0.313122 0.598600 0.822651 0.961220 0.998898 0.930741 0.763043 0.512891 0.206561 0.123152 0.440378 0.710074 0.901931 0.993853 0.974627 0.845414 0.619886 0.322933 0.011974 0.346474 0.641671 0.862692 0.982881 0.987122 0.873890 0.655712 0.357951 0.015989 0.328885 0.634428 0.862631 0.984527 0.984005 0.860081 0.627337 0.314372 0.039558 0.389387 0.689928 0.901770 0.996519 0.960762 0.798129 0.529156 0.188850 0.177705 0.521262 0.795016 0.961050 0.995702
1.000000 1.000000 1.000000 1.000000 1.000000 1.000000 1.000000 1.000000 1.000000 1.000000 1.000000 1.000000 1.000000 1.000000 1.000000 1.000000 1.000000 1.000000 1.000000 1.000000 1.000000 1.000000 1.000000 1.000000 1.000000 1.000000 1.000000 1.000000 1.000000 1.000000 1.000000 1.000000 1.000000 1.000000 1.000000 1.000000 1.000000 1.000000 1.000000 1.000000 1.000000 1.000000 1.000000 1.000000 1.000000 1.000000 1.000000 1.000000 1.000000 1.000000 1.000000 1.000000 0.915269 0.915269 0.903703 0.903703 0.903703 0.903703 0.903703 0.903703 0.903703 0.903703 0.903703 0.903703 0.903703 0.903703 0.903703 0.903703 0.903703 0.903703 0.903703 0.903703 0.903703 0.903703 0.903703 0.903703 0.903703 0.903703 0.903703 0.903703 0.903703 0.903703 0.903703 0.903703 0.903703 0.903703 0.903703 0.903703 0.903703 0.903703 0.903703 0.903703 0.903703 0.903703 0.903703 0.901928 0.906901 0.909073 0.907602 0.911119 0.911179 0.909275 0.908758 0.908427 0.908778 0.910185 0.920661 0.931641 0.942619 0.943157 0.948361 0.952560 0.955042 0.955796 0.957374 0.967506 0.964837 0.964374 0.965085 0.966567 0.968688 0.967503 0.966968 0.970002 0.970670 0.969139 0.966765 0.966110 0.965472 0.965560 0.965200 0.965079 0.964947 0.965475 0.965711 0.965359 0.965510 0.965570 0.964220 0.963909 0.966528 0.967784 0.967691 0.966471 0.961035 0.964479 0.965098 0.964576 0.964593 0.964284 0.964609 0.948142 0.945039 0.944959 0.940034 0.938797 0.935240 0.933791 0.932884 0.933901 0.933336 0.933881 0.931376 0.918269 0.905050 0.890837 0.911808 0.900236 0.885804 0.862626 0.863833 0.857343 0.857826 0.850914 0.843698 0.838795 0.836191 0.838371 0.838945 0.843496 0.840265 0.825302 0.829391 0.824497 0.789765 0.777672 0.765250 0.762018 0.759193 0.760362 0.757989 0.751226 0.760054 0.751220 0.749282 0.738142 0.717499 0.685864 0.675818 0.686561 0.694965 0.701917 0.698009 0.682474 0.637347 0.651935 0.679715 0.674185 0.673824 0.669752 0.663842 0.673169 0.670710 0.667774 0.663526 0.662938 0.662484 0.670982 0.676556 0.667887 0.662598 0.651217 0.641153 0.622277 0.634649 0.636087 0.610062 0.603233 0.598065 0.592149 0.589056 0.573471 0.576067 0.554570 0.537135 0.537225 0.538746 0.542640 0.551403 0.550866 0.529381 0.550792 0.544366 0.574849 0.543072 0.540424 0.541477 0.553286 0.535745 0.528745 0.520619 0.521713 0.533683 0.563614 0.595585 0.584956 0.574212 0.567226 0.578721 0.561598 0.570768 0.598690 0.576553 0.511832 0.470202 0.467773 0.433885 0.421836 0.410352 0.388515 0.398153 0.385968 0.379290 0.365891 0.354481 0.303981 0.269510 0.253279 0.234219 0.249190 0.266305 0.262186 0.270582 0.317395 0.359900 0.364086 0.356502 0.313621 0.305670 0.263703 0.262120 0.286330 0.246634 0.252815 0.247976 0.226160 0.210631 0.172154 0.210529 0.122395 0.114956 0.115310 0.139361 0.134594 0.137312 0.136110 0.100983 0.117365 0.112615 0.082314 0.068340 0.082366 0.066840 0.042027 0.049001 0.056357 0.040104 0.001842 0.005887 -0.005801 -0.004186 -0.018658 -0.018880 0.015461 0.043494 0.034134 0.036697 0.027258 0.030106 0.015284 0.006956 -0.012935 -0.017467 -0.063059 -0.089522 -0.089522 -0.083483 -0.083483 -0.083483 -0.083483 -0.083483 -0.083483 -0.083483 -0.083483 -0.083483 -0.084639 -0.084639 -0.084639 -0.084639 -0.084639 -0.084639 -0.084639 -0.084639 -0.084639 -0.062579 -0.062579 -0.062579 -0.062579 -0.062579 -0.062579 -0.062579 -0.062579 -0.062579
0.000000 0.000000 0.000000 0.000000 0.000000 0.000000 0.000000 0.000000 0.000000 0.000000 0.000000 0.000000 0.000000 0.000000 0.000000 0.000000 0.000000 0.000000 0.000000 0.000000 0.000000 0.000000 0.000000 0.000000 0.000000 0.000000 0.000000 0.000000 0.000000 0.000000 0.000000 0.000000 0.000000 0.000000 0.000000 0.000000 0.000000 0.000000 0.000000 0.000000 0.000000 0.000000 0.000000 0.000000 0.000000 0.000000 0.000000 0.000000 0.000000 0.000000 0.000000 0.000000 0.181818 0.181818 0.199007 0.199007 0.199007 0.199007 0.199007 0.199007 0.199007 0.199007 0.199007 0.199007 0.199007 0.199007 0.199007 0.199007 0.199007 0.199007 0.199007 0.199007 0.199007 0.199007 0.199007 0.199007 0.199007 0.199007 0.199007 0.199007 0.199007 0.199007 0.199007 0.199007 0.199007 0.199007 0.199007 0.199007 0.199007 0.199007 0.199007 0.199007 0.199007 0.199007 0.199007 0.230940 0.230940 0.230940 0.230940 0.230940 0.230940 0.230940 0.230940 0.230940 0.230940 0.230940 0.230940 0.230940 0.230940 0.230940 0.230940 0.230940 0.230940 0.230940 0.230940 0.230940 0.230940 0.230940 0.230940 0.230940 0.230940 0.230940 0.230940 0.244339 0.244339 0.244339 0.244339 0.244339 0.244339 0.244339 0.244339 0.244339 0.244339 0.244339 0.244339 0.244339 0.244339 0.244339 0.244339 0.244339 0.244339 0.244339 0.244339 0.244339 0.244339 0.244339 0.251976 0.251976 0.251976 0.251976 0.251976 0.251976 0.251976 0.251976 0.251976 0.251976 0.251976 0.251976 0.251976 0.251976 0.251976 0.251976 0.251976 0.251976 0.251976 0.251976 0.264906 0.264906 0.264906 0.264906 0.264906 0.264906 0.264906 0.264906 0.264906 0.264906 0.264906 0.264906 0.264906 0.264906 0.264906 0.264906 0.264906 0.264906 0.264906 0.264906 0.264906 0.264906 0.264906 0.264906 0.264906 0.264906 0.264906 0.264906 0.264906 0.264906 0.264906 0.264906 0.264906 0.264906 0.264906 0.264906 0.264906 0.264906 0.264906 0.264906 0.264906 0.264906 0.264906 0.264906 0.264906 0.264906 0.264906 0.264906 0.264906 0.264906 0.264906 0.264906 0.264906 0.264906 0.264906 0.264906 0.264906 0.264906 0.264906 0.264906 0.264906 0.264906 0.264906 0.264906 0.264906 0.264906 0.264906 0.264906 0.264906 0.264906 0.264906 0.264906 0.264906 0.264906 0.264906 0.269680 0.269680 0.269680 0.269680 0.269680 0.269680 0.269680 0.269680 0.269680 0.269680 0.269680 0.269680 0.264906 0.264906 0.264906 0.264906 0.264906 0.264906 0.264906 0.264906 0.264906 0.264906 0.264906 0.264906 0.269680 0.269680 0.269680 0.269680 0.269680 0.269680 0.269680 0.269680 0.269680 0.269680 0.269680 0.264906 0.264906 0.264906 0.264906 0.264906 0.264906 0.264906 0.264906 0.264906 0.264906 0.264906 0.256074 0.256074 0.256074 0.256074 0.256074 0.256074 0.256074 0.256074 0.256074 0.256074 0.256074 0.264906 0.264906 0.264906 0.264906 0.264906 0.264906 0.264906 0.264906 0.264906 0.264906 0.269680 0.269680 0.269680 0.269680 0.269680 0.269680 0.269680 0.269680 0.269680 0.256074 0.256074 0.256074 0.256074 0.256074 0.256074 0.256074 0.256074 0.256074 0.256074 0.260378 0.260378 0.260378 0.260378 0.260378 0.260378 0.260378 0.260378 0.260378 0.256074 0.256074 0.256074 0.256074 0.256074 0.256074 0.256074 0.256074 0.256074 0.251976 0.251976 0.251976 0.251976 0.251976 0.251976 0.251976 0.251976 0.251976 0.264906 0.264906 0.264906 0.264906 0.264906 0.264906 0.264906 0.264906 0.264906
