# Output from CTFFind version 4.1.9, run on 2019-11-03 19:33:13
# Input file: stack11_bm3d_averaged_1_4.25_0_750_half.mrc ; Number of micrographs: 1
# Pixel size: 3.000 Angstroms ; acceleration voltage: 300.0 keV ; spherical aberration: 0.00 mm ; amplitude contrast: 0.07
# Box size: 512 pixels ; min. res.: 30.0 Angstroms ; max. res.: 5.0 Angstroms ; min. def.: 5000.0 um; max. def. 50000.0 um; num. frames averaged: 1
# 6 lines per micrograph: #1 - spatial frequency (1/Angstroms); #2 - 1D rotational average of spectrum (assuming no astigmatism); #3 - 1D rotational average of spectrum; #4 - CTF fit; #5 - cross-correlation between spectrum and CTF fit; #6 - 2sigma of expected cross correlation of noise
0.000000 0.000651 0.001302 0.001953 0.002604 0.003255 0.003906 0.004557 0.005208 0.005859 0.006510 0.007161 0.007812 0.008464 0.009115 0.009766 0.010417 0.011068 0.011719 0.012370 0.013021 0.013672 0.014323 0.014974 0.015625 0.016276 0.016927 0.017578 0.018229 0.018880 0.019531 0.020182 0.020833 0.021484 0.022135 0.022786 0.023438 0.024089 0.024740 0.025391 0.026042 0.026693 0.027344 0.027995 0.028646 0.029297 0.029948 0.030599 0.031250 0.031901 0.032552 0.033203 0.033854 0.034505 0.035156 0.035807 0.036458 0.037109 0.037760 0.038411 0.039062 0.039714 0.040365 0.041016 0.041667 0.042318 0.042969 0.043620 0.044271 0.044922 0.045573 0.046224 0.046875 0.047526 0.048177 0.048828 0.049479 0.050130 0.050781 0.051432 0.052083 0.052734 0.053385 0.054036 0.054688 0.055339 0.055990 0.056641 0.057292 0.057943 0.058594 0.059245 0.059896 0.060547 0.061198 0.061849 0.062500 0.063151 0.063802 0.064453 0.065104 0.065755 0.066406 0.067057 0.067708 0.068359 0.069010 0.069661 0.070312 0.070964 0.071615 0.072266 0.072917 0.073568 0.074219 0.074870 0.075521 0.076172 0.076823 0.077474 0.078125 0.078776 0.079427 0.080078 0.080729 0.081380 0.082031 0.082682 0.083333 0.083984 0.084635 0.085286 0.085938 0.086589 0.087240 0.087891 0.088542 0.089193 0.089844 0.090495 0.091146 0.091797 0.092448 0.093099 0.093750 0.094401 0.095052 0.095703 0.096354 0.097005 0.097656 0.098307 0.098958 0.099609 0.100260 0.100911 0.101562 0.102214 0.102865 0.103516 0.104167 0.104818 0.105469 0.106120 0.106771 0.107422 0.108073 0.108724 0.109375 0.110026 0.110677 0.111328 0.111979 0.112630 0.113281 0.113932 0.114583 0.115234 0.115885 0.116536 0.117188 0.117839 0.118490 0.119141 0.119792 0.120443 0.121094 0.121745 0.122396 0.123047 0.123698 0.124349 0.125000 0.125651 0.126302 0.126953 0.127604 0.128255 0.128906 0.129557 0.130208 0.130859 0.131510 0.132161 0.132812 0.133464 0.134115 0.134766 0.135417 0.136068 0.136719 0.137370 0.138021 0.138672 0.139323 0.139974 0.140625 0.141276 0.141927 0.142578 0.143229 0.143880 0.144531 0.145182 0.145833 0.146484 0.147135 0.147786 0.148438 0.149089 0.149740 0.150391 0.151042 0.151693 0.152344 0.152995 0.153646 0.154297 0.154948 0.155599 0.156250 0.156901 0.157552 0.158203 0.158854 0.159505 0.160156 0.160807 0.161458 0.162109 0.162760 0.163411 0.164062 0.164714 0.165365 0.166016 0.166667 0.167318 0.167969 0.168620 0.169271 0.169922 0.170573 0.171224 0.171875 0.172526 0.173177 0.173828 0.174479 0.175130 0.175781 0.176432 0.177083 0.177734 0.178385 0.179036 0.179688 0.180339 0.180990 0.181641 0.182292 0.182943 0.183594 0.184245 0.184896 0.185547 0.186198 0.186849 0.187500 0.188151 0.188802 0.189453 0.190104 0.190755 0.191406 0.192057 0.192708 0.193359 0.194010 0.194661 0.195312 0.195964 0.196615 0.197266 0.197917 0.198568 0.199219 0.199870 0.200521 0.201172 0.201823 0.202474 0.203125 0.203776 0.204427 0.205078 0.205729 0.206380 0.207031 0.207682 0.208333 0.208984 0.209635 0.210286 0.210938 0.211589 0.212240 0.212891 0.213542 0.214193 0.214844 0.215495 0.216146 0.216797 0.217448 0.218099 0.218750 0.219401 0.220052 0.220703 0.221354 0.222005 0.222656 0.223307 0.223958 0.224609 0.225260 0.225911 0.226562 0.227214 0.227865 0.228516 0.229167 0.229818 0.230469 0.231120 0.231771 0.232422 0.233073 0.233724 0.234375 0.235026 0.235677
       0.33441        0.33441        0.33441        0.33441        0.33441        0.33441        0.33441        0.33441        0.33441        0.33441        0.33441        0.33441        0.33441        0.33441        0.33441        0.33441        0.33441        0.33441        0.33441        0.33441        0.33441        0.33441        0.33441        0.33441        0.33441        0.33441        0.33441        0.33441        0.33441        0.33441        0.33441        0.33441        0.33441        0.33441        0.33441        0.33441        0.33441        0.33441        0.33441        0.33441        0.33441        0.33441        0.33441        0.33441        0.33441        0.33441        0.33441        0.33441        0.33441        0.33441        0.33441        0.69159        0.86034        0.53244        0.10256       -0.03698       -0.40080       -0.18570       -0.28981       -0.11256       -0.05855       -0.11072       -0.05516       -0.17857       -0.21294       -0.22737       -0.31432       -0.32591       -0.45590       -0.36762       -0.43627       -0.42968       -0.40454       -0.42995       -0.47527       -0.52447       -0.56603       -0.57382       -0.54525       -0.37417       -0.34771       -0.30733       -0.28528       -0.19239       -0.18438        0.04727        0.12442        0.15453        0.25129        0.37678        0.45351        0.51776        0.58511        0.58273        0.57334        0.69416        0.80502        0.71174        0.73799        0.63118        0.56702        0.48325        0.42530        0.50826        0.39123        0.24854        0.10347        0.08971        0.06830       -0.03138        0.01589        0.03131       -0.01565        0.01596        0.00916        0.23446        0.26430        0.29234        0.42843        0.45063        0.40944        0.57878        0.62518        0.65509        0.73371        0.68049        0.64958        0.67085        0.56464        0.46962        0.41761        0.29921        0.24391        0.17035        0.12678        0.05237        0.04423        0.04673        0.08638        0.14295        0.22988        0.28096        0.40572        0.45559        0.48525        0.58361        0.61376        0.63787        0.61974        0.56068        0.45488        0.46600        0.37330        0.25707        0.19958        0.15595        0.15651        0.14291        0.13428        0.16051        0.29523        0.30555        0.38476        0.42268        0.43010        0.49593        0.55384        0.55298        0.49112        0.45215        0.40308        0.35299        0.32447        0.28944        0.23615        0.23238        0.22142        0.23685        0.21405        0.30007        0.35887        0.38574        0.43918        0.45344        0.47134        0.42178        0.39942        0.40387        0.36061        0.30699        0.26884        0.25397        0.25318        0.22124        0.27043        0.27061        0.34023        0.37352        0.40835        0.47540        0.41696        0.42843        0.43185        0.40500        0.34337        0.31959        0.28990        0.30521        0.26575        0.30472        0.29922        0.31796        0.32725        0.34904        0.31871        0.39920        0.41653        0.37950        0.34457        0.37087        0.30620        0.28833        0.28776        0.31397        0.29555        0.30689        0.32440        0.33762        0.34036        0.36686        0.36878        0.39276        0.37388        0.32555        0.33180        0.29115        0.27545        0.32041        0.31261        0.32184        0.32929        0.32670        0.36682        0.32763        0.32755        0.32100        0.32959        0.29492        0.30478        0.27092        0.29748        0.31562        0.29743        0.31858        0.34101        0.34618        0.28064        0.31707        0.28593        0.30189        0.27761        0.23822        0.29181        0.29353        0.33993        0.33079        0.32880        0.32140        0.33985        0.30141        0.33856        0.32090        0.29882        0.27491        0.32145        0.30798        0.35291        0.32483        0.32983        0.33682        0.29151        0.27437        0.30673        0.24538        0.22179        0.32485        0.31750        0.33726        0.32932        0.34323        0.31472        0.34161        0.33954        0.26360        0.24460        0.30610        0.29742        0.30541        0.32020        0.33751        0.33651        0.30223        0.28789        0.33428        0.31438        0.29275        0.27553        0.31935        0.34903        0.39257        0.32825        0.29659        0.27630        0.30734        0.27134        0.29020        0.26707        0.24395        0.30747        0.32915        0.33875        0.34097        0.30684        0.27740        0.28726        0.25815        0.25771        0.24651        0.31876        0.28335        0.22621        0.32342        0.31654        0.26014        0.28069        0.20599        0.21370        0.25526        0.18182        0.24973        0.30466        0.23106        0.21523        0.30789        0.32624        0.32688        0.32576        0.25255        0.21897        0.17656        0.21441        0.18892        0.19350        0.20288        0.24594        0.28303        0.25777        0.20408        0.11831        0.09119       -0.01151       -0.11082       -0.62284
2.709574 2.680914 2.652410 2.624063 2.595872 2.567838 2.539961 2.512239 2.484675 2.457266 2.430014 2.402919 2.375980 2.349198 2.322572 2.296102 2.269789 2.243632 2.217632 2.191788 2.166101 2.140570 2.115196 2.089978 2.064917 2.040012 2.015263 1.990671 1.966235 1.941956 1.917834 1.893867 1.870058 1.846404 1.822907 1.799567 1.776383 1.753355 1.730484 1.707770 1.685212 1.662810 1.640565 1.618476 1.596544 1.574768 1.553149 1.531686 1.510379 1.489229 1.468236 1.683059 2.100625 1.665073 1.166531 1.030872 0.439777 0.838356 0.561356 0.843309 0.800305 0.811443 0.755980 0.737487 0.588139 0.546557 0.495912 0.430417 0.239997 0.372282 0.204639 0.325875 0.225764 0.199244 0.169915 0.035381 0.021743 0.013234 -0.066149 0.126721 0.223783 0.187444 0.170061 0.332967 0.184953 0.507409 0.612743 0.608695 0.626031 0.869773 0.825265 0.935484 0.911802 1.009628 0.972860 1.069629 1.155239 1.042572 1.141898 0.912902 0.923244 0.787204 0.650652 0.791987 0.699324 0.477885 0.325589 0.249228 0.254814 0.148022 0.118945 0.154836 0.100200 0.131978 0.069521 0.256601 0.361528 0.343695 0.472822 0.548022 0.423994 0.579420 0.717559 0.681445 0.741848 0.703963 0.720404 0.663205 0.600309 0.514679 0.383107 0.278699 0.221690 0.081879 0.119390 -0.081593 -0.044036 -0.062623 -0.070858 -0.022928 0.140730 0.066696 0.245447 0.303928 0.341067 0.404828 0.505234 0.485084 0.484721 0.494877 0.310058 0.293481 0.282587 0.087401 0.044006 -0.059414 -0.011903 -0.056562 -0.087815 -0.088327 0.034028 0.076904 0.118527 0.204294 0.228951 0.251945 0.298635 0.430159 0.391708 0.268758 0.241296 0.215787 0.155038 0.138415 0.109254 0.001726 0.018248 0.057892 -0.003570 0.064908 0.146529 0.146244 0.237064 0.247295 0.287677 0.182638 0.216050 0.144317 0.177628 0.113557 0.049794 -0.006460 0.009536 -0.004704 -0.045513 0.055754 0.020900 0.128455 0.148641 0.185701 0.199876 0.163111 0.163776 0.178937 0.131318 0.061135 0.005980 0.054823 0.019282 -0.013517 0.032627 0.041480 0.058224 0.052725 0.062146 0.083342 0.130531 0.156000 0.058226 0.060257 0.057048 0.014280 -0.023212 0.013959 0.018281 0.005811 0.012367 0.039908 0.056810 0.057101 0.094475 0.058561 0.133824 0.060176 0.023895 0.037721 -0.033710 0.000971 0.045104 0.000682 0.039513 0.049653 0.020027 0.114056 0.035324 0.010119 0.050335 0.006246 0.013382 0.006833 -0.020585 0.033539 0.006195 0.006473 0.057200 0.059001 0.047712 0.029035 0.034509 0.036320 0.026738 -0.012721 -0.023290 0.033238 0.052617 0.084195 0.085902 0.064832 0.079114 0.108277 0.058265 0.113882 0.093708 0.033287 0.040242 0.097663 0.077295 0.116049 0.102949 0.056729 0.136232 0.062272 0.023264 0.096546 -0.023361 0.001017 0.109141 0.066994 0.135801 0.091962 0.098560 0.047485 0.106379 0.090072 -0.005409 -0.028486 0.062133 0.066761 0.042198 0.050644 0.099983 0.086449 0.008027 0.046680 0.069536 0.057480 0.043694 -0.016533 0.077527 0.090967 0.136048 0.022531 0.013135 -0.017278 0.029786 -0.025947 0.007788 -0.033947 -0.041628 0.011291 0.056803 0.007514 0.033947 -0.017241 -0.034095 -0.046994 -0.027249 -0.070334 -0.066010 0.015712 0.026765 -0.092582 0.033108 -0.015159 -0.067045 0.010044 -0.124774 -0.071299 -0.066699 -0.169213 -0.026162 0.036077 -0.033527 -0.138042 0.050239 0.103681 -0.020491 0.098613 -0.029792 0.237706 0.141469 0.225865 0.237961 0.217791 0.214041 0.277707 0.270526 0.293177 0.185990 0.211357 0.130944 -0.016433 -0.670266
0.072396 0.072899 0.074406 0.076919 0.080436 0.084955 0.090477 0.097000 0.104520 0.113036 0.122544 0.133040 0.144519 0.156973 0.170396 0.184777 0.200107 0.216373 0.233558 0.251646 0.270618 0.290449 0.311114 0.332584 0.354826 0.377801 0.401470 0.425786 0.450697 0.476150 0.502081 0.528424 0.555107 0.582050 0.609168 0.636370 0.663556 0.690623 0.717457 0.743941 0.769948 0.795346 0.819997 0.843754 0.866467 0.887979 0.908128 0.926746 0.943663 0.958705 0.971695 0.982455 0.990808 0.996576 0.999584 0.999660 0.996639 0.990361 0.980676 0.967444 0.950537 0.929842 0.905263 0.876723 0.844165 0.807557 0.766891 0.722187 0.673495 0.620898 0.564510 0.504485 0.441008 0.374308 0.304651 0.232343 0.157729 0.081199 0.003178 0.075867 0.155433 0.234982 0.313942 0.391712 0.467666 0.541159 0.611526 0.678096 0.740193 0.797147 0.848296 0.893002 0.930653 0.960674 0.982541 0.995781 0.999991 0.994841 0.980089 0.955584 0.921277 0.877230 0.823618 0.760741 0.689022 0.609014 0.521396 0.426977 0.326691 0.221591 0.112843 0.001714 0.110439 0.222180 0.332020 0.438425 0.539847 0.634741 0.721591 0.798940 0.865412 0.919741 0.960801 0.987630 0.999456 0.995725 0.976118 0.940573 0.889298 0.822787 0.741818 0.647462 0.541075 0.424283 0.298976 0.167270 0.031488 0.105883 0.242231 0.374869 0.501086 0.618207 0.723649 0.814981 0.889991 0.946743 0.983631 0.999438 0.993380 0.965145 0.914925 0.843429 0.751902 0.642105 0.516307 0.377241 0.228067 0.072297 0.086274 0.243652 0.395751 0.538494 0.667928 0.780334 0.872350 0.941071 0.984163 0.999946 0.987478 0.946609 0.878022 0.783247 0.664647 0.525381 0.369338 0.201043 0.025538 0.151761 0.325223 0.489183 0.638130 0.766894 0.870845 0.946061 0.989506 0.999161 0.974139 0.914759 0.822581 0.700394 0.552164 0.382922 0.198620 0.005934 0.187966 0.375673 0.549830 0.703428 0.830087 0.924349 0.981929 0.999932 0.977026 0.913552 0.811568 0.674820 0.508640 0.319762 0.116081 0.093662 0.300244 0.494367 0.667072 0.810171 0.916653 0.981051 0.999753 0.971238 0.896215 0.777665 0.620761 0.432692 0.222359 0.000020 0.223379 0.436357 0.627877 0.787725 0.907123 0.979244 0.999630 0.966513 0.880989 0.747055 0.571457 0.363419 0.134173 0.103597 0.336458 0.550974 0.734491 0.875906 0.966368 0.999877 0.973725 0.888758 0.749425 0.563613 0.342245 0.098686 0.152026 0.394101 0.611987 0.791378 0.920185 0.989399 0.993760 0.932221 0.808131 0.629132 0.406749 0.155707 0.107009 0.363277 0.595075 0.785771 0.921347 0.991475 0.990363 0.917297 0.776831 0.578582 0.336643 0.068652 0.205473 0.464977 0.689849 0.862382 0.968626 0.999564 0.951955 0.828737 0.638947 0.397149 0.122368 0.163333 0.436598 0.674710 0.857472 0.968989 0.999114 0.944450 0.808809 0.603051 0.344316 0.054661 0.240748 0.515826 0.745853 0.909743 0.992038 0.984448 0.886779 0.707141 0.461386 0.171800 0.134834 0.429700 0.684620 0.874796 0.981270 0.992916 0.907689 0.733042 0.485395 0.188703 0.127794 0.432386 0.694077 0.885769 0.987126 0.986844 0.884011 0.688440 0.419859 0.106033 0.220016 0.523456 0.771363 0.936345 0.999645 0.953405 0.801750 0.560592 0.256087 0.078080 0.404381 0.685617 0.889208 0.991033 0.978414 0.851826 0.625110 0.324116 0.016129 0.355402 0.653019 0.872743 0.987264 0.981724 0.855785 0.623965 0.314129 0.035727 0.382056 0.681135 0.894634 0.994610 0.967299 0.815178 0.556944 0.225413 0.136554
1.000000 1.000000 1.000000 1.000000 1.000000 1.000000 1.000000 1.000000 1.000000 1.000000 1.000000 1.000000 1.000000 1.000000 1.000000 1.000000 1.000000 1.000000 1.000000 1.000000 1.000000 1.000000 1.000000 1.000000 1.000000 1.000000 1.000000 1.000000 1.000000 1.000000 1.000000 1.000000 1.000000 1.000000 1.000000 1.000000 1.000000 1.000000 1.000000 1.000000 1.000000 1.000000 1.000000 1.000000 1.000000 1.000000 1.000000 1.000000 1.000000 1.000000 1.000000 1.000000 0.918237 0.918237 0.918237 0.910014 0.910014 0.910014 0.910014 0.910014 0.910014 0.910014 0.910014 0.910014 0.910014 0.910014 0.910014 0.910014 0.910014 0.910014 0.910014 0.910014 0.910014 0.910014 0.910014 0.910014 0.910014 0.910014 0.910014 0.910014 0.910014 0.910014 0.910014 0.910014 0.910014 0.910014 0.910014 0.910014 0.910014 0.910014 0.910014 0.910014 0.910014 0.910014 0.910014 0.910014 0.938684 0.940215 0.948404 0.948086 0.947454 0.945299 0.944102 0.943707 0.943592 0.943932 0.944670 0.945678 0.954512 0.955733 0.958587 0.960255 0.961001 0.961631 0.962257 0.962793 0.953652 0.953440 0.952067 0.951466 0.953990 0.953223 0.953135 0.954101 0.953972 0.954782 0.954677 0.953955 0.952840 0.951852 0.950892 0.950319 0.950100 0.950836 0.951256 0.952749 0.956078 0.956652 0.956778 0.956933 0.957032 0.958330 0.957200 0.956747 0.952755 0.952972 0.952539 0.952789 0.956323 0.956264 0.956820 0.957382 0.958962 0.959252 0.951453 0.949220 0.939759 0.937831 0.933596 0.927901 0.923579 0.925447 0.926970 0.927807 0.928341 0.923443 0.923387 0.920654 0.918621 0.921387 0.920520 0.920992 0.922386 0.920827 0.919655 0.919022 0.916857 0.907952 0.895680 0.895037 0.897004 0.901675 0.903187 0.901967 0.903406 0.891069 0.873173 0.859352 0.861252 0.864950 0.856254 0.854213 0.854831 0.855629 0.859229 0.852550 0.850517 0.846567 0.836184 0.826925 0.819496 0.815442 0.820466 0.816764 0.807196 0.806278 0.816578 0.809242 0.823533 0.828000 0.824583 0.823849 0.821922 0.817297 0.795006 0.793690 0.784059 0.765134 0.765507 0.763927 0.762731 0.759318 0.765863 0.754561 0.750795 0.734930 0.735213 0.738180 0.740124 0.737776 0.730746 0.734148 0.738676 0.720022 0.707737 0.694984 0.699585 0.705543 0.707141 0.704031 0.683660 0.649597 0.618982 0.638937 0.654411 0.614921 0.639518 0.651432 0.633413 0.631141 0.621718 0.624944 0.611174 0.614940 0.617349 0.621079 0.621888 0.638676 0.622873 0.616926 0.625818 0.626069 0.636672 0.633013 0.633454 0.605029 0.602969 0.627595 0.630821 0.614528 0.631502 0.619226 0.633606 0.669043 0.677255 0.649209 0.642474 0.620985 0.578701 0.571756 0.566168 0.578867 0.611804 0.592849 0.558863 0.535959 0.543608 0.562557 0.569866 0.572237 0.548919 0.550793 0.541423 0.516259 0.522765 0.537538 0.538342 0.526830 0.505953 0.513596 0.517478 0.540313 0.529642 0.489012 0.503094 0.499281 0.496012 0.443606 0.460308 0.442300 0.430315 0.384045 0.391706 0.404101 0.391466 0.328869 0.312369 0.312076 0.312102 0.313570 0.303214 0.277580 0.264978 0.243876 0.245256 0.234356 0.210371 0.205915 0.189931 0.179542 0.179875 0.138277 0.182275 0.242960 0.244129 0.244129 0.244129 0.244129 0.244129 0.244129 0.246113 0.246113 0.246113 0.246113 0.246113 0.246113 0.246113 0.246113 0.246113 0.269366 0.269366 0.269366 0.269366 0.269366 0.269366 0.269366 0.269366 0.269366 0.269366 0.269366 0.269366 0.269366 0.269366
0.000000 0.000000 0.000000 0.000000 0.000000 0.000000 0.000000 0.000000 0.000000 0.000000 0.000000 0.000000 0.000000 0.000000 0.000000 0.000000 0.000000 0.000000 0.000000 0.000000 0.000000 0.000000 0.000000 0.000000 0.000000 0.000000 0.000000 0.000000 0.000000 0.000000 0.000000 0.000000 0.000000 0.000000 0.000000 0.000000 0.000000 0.000000 0.000000 0.000000 0.000000 0.000000 0.000000 0.000000 0.000000 0.000000 0.000000 0.000000 0.000000 0.000000 0.000000 0.000000 0.180334 0.180334 0.180334 0.199007 0.199007 0.199007 0.199007 0.199007 0.199007 0.199007 0.199007 0.199007 0.199007 0.199007 0.199007 0.199007 0.199007 0.199007 0.199007 0.199007 0.199007 0.199007 0.199007 0.199007 0.199007 0.199007 0.199007 0.199007 0.199007 0.199007 0.199007 0.199007 0.199007 0.199007 0.199007 0.199007 0.199007 0.199007 0.199007 0.199007 0.199007 0.199007 0.199007 0.199007 0.225018 0.225018 0.225018 0.225018 0.225018 0.225018 0.225018 0.225018 0.225018 0.225018 0.225018 0.225018 0.225018 0.225018 0.225018 0.225018 0.225018 0.225018 0.225018 0.225018 0.225018 0.225018 0.225018 0.225018 0.225018 0.225018 0.225018 0.225018 0.225018 0.244339 0.244339 0.244339 0.244339 0.244339 0.244339 0.244339 0.244339 0.244339 0.244339 0.244339 0.244339 0.244339 0.244339 0.244339 0.244339 0.244339 0.244339 0.244339 0.244339 0.244339 0.244339 0.244339 0.251976 0.251976 0.251976 0.251976 0.251976 0.251976 0.251976 0.251976 0.251976 0.251976 0.251976 0.251976 0.251976 0.251976 0.251976 0.251976 0.251976 0.251976 0.251976 0.251976 0.264906 0.264906 0.264906 0.264906 0.264906 0.264906 0.264906 0.264906 0.264906 0.264906 0.264906 0.264906 0.264906 0.264906 0.264906 0.264906 0.264906 0.264906 0.264906 0.264906 0.264906 0.264906 0.264906 0.264906 0.264906 0.264906 0.264906 0.264906 0.264906 0.264906 0.264906 0.264906 0.264906 0.264906 0.264906 0.264906 0.264906 0.264906 0.264906 0.264906 0.264906 0.264906 0.264906 0.264906 0.264906 0.264906 0.264906 0.264906 0.264906 0.264906 0.264906 0.264906 0.264906 0.264906 0.264906 0.264906 0.264906 0.264906 0.264906 0.264906 0.264906 0.264906 0.256074 0.256074 0.256074 0.256074 0.256074 0.256074 0.256074 0.256074 0.256074 0.256074 0.256074 0.256074 0.256074 0.256074 0.269680 0.269680 0.269680 0.269680 0.269680 0.269680 0.269680 0.269680 0.269680 0.269680 0.269680 0.269680 0.264906 0.264906 0.264906 0.264906 0.264906 0.264906 0.264906 0.264906 0.264906 0.264906 0.264906 0.264906 0.269680 0.269680 0.269680 0.269680 0.269680 0.269680 0.269680 0.269680 0.269680 0.269680 0.269680 0.264906 0.264906 0.264906 0.264906 0.264906 0.264906 0.264906 0.264906 0.264906 0.264906 0.264906 0.256074 0.256074 0.256074 0.256074 0.256074 0.256074 0.256074 0.256074 0.256074 0.256074 0.256074 0.264906 0.264906 0.264906 0.264906 0.264906 0.264906 0.264906 0.264906 0.264906 0.264906 0.260378 0.260378 0.260378 0.260378 0.260378 0.260378 0.260378 0.260378 0.260378 0.260378 0.256074 0.256074 0.256074 0.256074 0.256074 0.256074 0.256074 0.256074 0.256074 0.256074 0.260378 0.260378 0.260378 0.260378 0.260378 0.260378 0.260378 0.260378 0.260378 0.256074 0.256074 0.256074 0.256074 0.256074 0.256074 0.256074 0.256074 0.256074 0.251976 0.251976 0.251976 0.251976 0.251976 0.251976 0.251976 0.251976 0.251976 0.251976 0.251976 0.251976 0.251976 0.251976
