# Output from CTFFind version 4.1.9, run on 2019-11-02 17:45:22
# Input file: stack16_bm3d_averaged_1_1.25_0_750_half.mrc ; Number of micrographs: 1
# Pixel size: 3.000 Angstroms ; acceleration voltage: 300.0 keV ; spherical aberration: 0.00 mm ; amplitude contrast: 0.07
# Box size: 512 pixels ; min. res.: 30.0 Angstroms ; max. res.: 5.0 Angstroms ; min. def.: 5000.0 um; max. def. 50000.0 um; num. frames averaged: 1
# 6 lines per micrograph: #1 - spatial frequency (1/Angstroms); #2 - 1D rotational average of spectrum (assuming no astigmatism); #3 - 1D rotational average of spectrum; #4 - CTF fit; #5 - cross-correlation between spectrum and CTF fit; #6 - 2sigma of expected cross correlation of noise
0.000000 0.000651 0.001302 0.001953 0.002604 0.003255 0.003906 0.004557 0.005208 0.005859 0.006510 0.007161 0.007812 0.008464 0.009115 0.009766 0.010417 0.011068 0.011719 0.012370 0.013021 0.013672 0.014323 0.014974 0.015625 0.016276 0.016927 0.017578 0.018229 0.018880 0.019531 0.020182 0.020833 0.021484 0.022135 0.022786 0.023438 0.024089 0.024740 0.025391 0.026042 0.026693 0.027344 0.027995 0.028646 0.029297 0.029948 0.030599 0.031250 0.031901 0.032552 0.033203 0.033854 0.034505 0.035156 0.035807 0.036458 0.037109 0.037760 0.038411 0.039062 0.039714 0.040365 0.041016 0.041667 0.042318 0.042969 0.043620 0.044271 0.044922 0.045573 0.046224 0.046875 0.047526 0.048177 0.048828 0.049479 0.050130 0.050781 0.051432 0.052083 0.052734 0.053385 0.054036 0.054688 0.055339 0.055990 0.056641 0.057292 0.057943 0.058594 0.059245 0.059896 0.060547 0.061198 0.061849 0.062500 0.063151 0.063802 0.064453 0.065104 0.065755 0.066406 0.067057 0.067708 0.068359 0.069010 0.069661 0.070312 0.070964 0.071615 0.072266 0.072917 0.073568 0.074219 0.074870 0.075521 0.076172 0.076823 0.077474 0.078125 0.078776 0.079427 0.080078 0.080729 0.081380 0.082031 0.082682 0.083333 0.083984 0.084635 0.085286 0.085938 0.086589 0.087240 0.087891 0.088542 0.089193 0.089844 0.090495 0.091146 0.091797 0.092448 0.093099 0.093750 0.094401 0.095052 0.095703 0.096354 0.097005 0.097656 0.098307 0.098958 0.099609 0.100260 0.100911 0.101562 0.102214 0.102865 0.103516 0.104167 0.104818 0.105469 0.106120 0.106771 0.107422 0.108073 0.108724 0.109375 0.110026 0.110677 0.111328 0.111979 0.112630 0.113281 0.113932 0.114583 0.115234 0.115885 0.116536 0.117188 0.117839 0.118490 0.119141 0.119792 0.120443 0.121094 0.121745 0.122396 0.123047 0.123698 0.124349 0.125000 0.125651 0.126302 0.126953 0.127604 0.128255 0.128906 0.129557 0.130208 0.130859 0.131510 0.132161 0.132812 0.133464 0.134115 0.134766 0.135417 0.136068 0.136719 0.137370 0.138021 0.138672 0.139323 0.139974 0.140625 0.141276 0.141927 0.142578 0.143229 0.143880 0.144531 0.145182 0.145833 0.146484 0.147135 0.147786 0.148438 0.149089 0.149740 0.150391 0.151042 0.151693 0.152344 0.152995 0.153646 0.154297 0.154948 0.155599 0.156250 0.156901 0.157552 0.158203 0.158854 0.159505 0.160156 0.160807 0.161458 0.162109 0.162760 0.163411 0.164062 0.164714 0.165365 0.166016 0.166667 0.167318 0.167969 0.168620 0.169271 0.169922 0.170573 0.171224 0.171875 0.172526 0.173177 0.173828 0.174479 0.175130 0.175781 0.176432 0.177083 0.177734 0.178385 0.179036 0.179688 0.180339 0.180990 0.181641 0.182292 0.182943 0.183594 0.184245 0.184896 0.185547 0.186198 0.186849 0.187500 0.188151 0.188802 0.189453 0.190104 0.190755 0.191406 0.192057 0.192708 0.193359 0.194010 0.194661 0.195312 0.195964 0.196615 0.197266 0.197917 0.198568 0.199219 0.199870 0.200521 0.201172 0.201823 0.202474 0.203125 0.203776 0.204427 0.205078 0.205729 0.206380 0.207031 0.207682 0.208333 0.208984 0.209635 0.210286 0.210938 0.211589 0.212240 0.212891 0.213542 0.214193 0.214844 0.215495 0.216146 0.216797 0.217448 0.218099 0.218750 0.219401 0.220052 0.220703 0.221354 0.222005 0.222656 0.223307 0.223958 0.224609 0.225260 0.225911 0.226562 0.227214 0.227865 0.228516 0.229167 0.229818 0.230469 0.231120 0.231771 0.232422 0.233073 0.233724 0.234375 0.235026 0.235677
       0.34223        0.34223        0.34223        0.34223        0.34223        0.34223        0.34223        0.34223        0.34223        0.34223        0.34223        0.34223        0.34223        0.34223        0.34223        0.34223        0.34223        0.34223        0.34223        0.34223        0.34223        0.34223        0.34223        0.34223        0.34223        0.34223        0.34223        0.34223        0.34223        0.34223        0.34223        0.34223        0.34223        0.34223        0.34223        0.34223        0.34223        0.34223        0.34223        0.34223        0.34223        0.34223        0.34223        0.34223        0.34223        0.34223        0.34223        0.34223        0.34223        0.34223        0.34223        0.48810        0.70009        0.45595       -0.11288       -0.41294       -0.57239       -0.66276       -0.74534       -0.76225       -0.87052       -0.91594       -0.75967       -0.92625       -0.87319       -1.02600       -1.09910       -0.98971       -0.96297       -0.88497       -0.85822       -0.74997       -0.64136       -0.50046       -0.42411       -0.21974       -0.11706       -0.02335        0.20189        0.24289        0.30772        0.38235        0.43587        0.51380        0.57891        0.59686        0.58966        0.50016        0.54544        0.48512        0.39274        0.32465        0.20433        0.17015        0.09894       -0.05901       -0.11252       -0.09126        0.01131       -0.01755        0.01468        0.02651        0.20558        0.21717        0.39070        0.45587        0.56065        0.69860        0.76043        0.73222        0.70426        0.69878        0.58212        0.53928        0.39848        0.27401        0.19474        0.14733        0.06749        0.02713        0.02263        0.06244        0.07878        0.27305        0.41727        0.50564        0.58915        0.63824        0.70182        0.65812        0.65154        0.67037        0.60730        0.48148        0.28525        0.23614        0.20483        0.12817        0.04270        0.09170        0.11626        0.25009        0.34367        0.41481        0.50127        0.53910        0.65851        0.60640        0.55270        0.51043        0.36229        0.20706        0.21103        0.15338        0.11816        0.12189        0.21496        0.25299        0.35720        0.44072        0.43719        0.55859        0.50894        0.45198        0.45579        0.38056        0.32304        0.27416        0.21368        0.23333        0.21256        0.20708        0.31868        0.45045        0.48541        0.48184        0.55191        0.49649        0.45429        0.39621        0.29573        0.22564        0.23217        0.24145        0.26472        0.27382        0.32698        0.44227        0.50141        0.48913        0.46049        0.41493        0.38810        0.36152        0.24931        0.22354        0.24749        0.29360        0.35588        0.36171        0.38998        0.41125        0.44134        0.37248        0.34772        0.31454        0.30829        0.26800        0.25726        0.30571        0.34591        0.41410        0.41620        0.39398        0.39143        0.40395        0.34642        0.28569        0.29413        0.28217        0.30870        0.35772        0.37036        0.41594        0.35742        0.36448        0.38767        0.34425        0.31367        0.28235        0.29194        0.33839        0.32677        0.32295        0.37219        0.39367        0.33326        0.35184        0.29927        0.30773        0.28496        0.28167        0.30075        0.32985        0.38343        0.36525        0.34619        0.32555        0.28354        0.27497        0.29673        0.28342        0.31482        0.36722        0.39404        0.33488        0.31734        0.30864        0.29914        0.28849        0.27847        0.30095        0.33948        0.33411        0.34201        0.31917        0.35010        0.32163        0.28727        0.31347        0.32177        0.33826        0.34175        0.31952        0.31269        0.30138        0.32782        0.31281        0.33743        0.38887        0.33170        0.36153        0.31626        0.30796        0.28947        0.30791        0.29071        0.30897        0.31773        0.35080        0.35933        0.30942        0.32175        0.31756        0.29593        0.29084        0.29136        0.32676        0.34335        0.35403        0.33365        0.31892        0.26365        0.26038        0.31313        0.34757        0.31968        0.29421        0.27894        0.28808        0.32732        0.31251        0.30806        0.33536        0.33777        0.30871        0.24194        0.28562        0.28640        0.28590        0.32430        0.32349        0.34500        0.34189        0.28481        0.27106        0.29682        0.27171        0.29499        0.27388        0.24841        0.25983        0.25778        0.28253        0.28852        0.28119        0.26468        0.31949        0.32408        0.31099        0.27848        0.28938        0.23941        0.26485        0.25075        0.32416        0.35277        0.22910        0.24903        0.27811        0.24374        0.24250        0.30441        0.23393        0.13720        0.17791        0.22837        0.26820        0.22749        0.12844        0.05250       -0.41649       -0.78133
3.053621 3.015627 2.977877 2.940372 2.903110 2.866094 2.829321 2.792793 2.756509 2.720469 2.684674 2.649123 2.613817 2.578754 2.543936 2.509363 2.475033 2.440948 2.407108 2.373511 2.340159 2.307052 2.274188 2.241569 2.209195 2.177064 2.145178 2.113536 2.082139 2.050986 2.020077 1.989413 1.958993 1.928817 1.898885 1.869198 1.839756 1.810557 1.781603 1.752893 1.724428 1.696207 1.668230 1.640497 1.613009 1.585765 1.558766 1.532010 1.505500 1.479233 1.453211 1.511558 1.695045 1.611700 0.963636 0.683149 0.476931 0.429984 0.323065 0.265447 0.200605 0.020734 0.198377 0.081821 -0.007806 -0.057918 -0.198899 -0.151575 -0.089497 -0.091984 -0.093864 0.011494 0.033149 0.232956 0.150416 0.363921 0.445266 0.477337 0.713170 0.698142 0.707029 0.834781 0.817844 0.848590 0.919358 0.892176 0.935685 0.749000 0.833986 0.837138 0.622643 0.606021 0.455239 0.434632 0.379818 0.211783 0.119685 0.099690 0.207484 0.143655 0.198283 0.111477 0.306381 0.285018 0.457200 0.412106 0.579325 0.640569 0.759780 0.706367 0.653184 0.662877 0.527066 0.502671 0.363250 0.293412 0.118732 0.147507 0.002876 -0.009483 -0.037890 -0.028609 -0.001775 0.032993 0.276069 0.328980 0.388041 0.394650 0.464513 0.515902 0.469930 0.503889 0.397286 0.389886 0.154318 0.070516 0.073861 -0.003890 -0.125916 -0.043359 -0.113033 0.015064 0.138234 0.157056 0.254090 0.257050 0.382307 0.455638 0.350552 0.391055 0.282595 0.124859 0.049450 0.051942 0.018870 0.004700 0.009255 0.109360 0.126041 0.264216 0.236221 0.302295 0.364182 0.243688 0.246592 0.219457 0.129813 0.084388 0.048349 0.025715 0.040517 -0.013118 0.026494 0.184273 0.219760 0.251623 0.283478 0.231329 0.240767 0.146290 0.110057 -0.020056 -0.015698 -0.006375 0.015741 0.009908 0.028829 0.104973 0.191707 0.203400 0.222794 0.135793 0.144995 0.079604 0.059904 -0.061123 -0.016262 -0.002216 0.055513 0.067196 0.074360 0.153063 0.091972 0.161969 0.068094 0.052773 0.047183 0.030006 0.003369 0.005934 0.050019 0.086252 0.128034 0.138627 0.068143 0.126457 0.097043 0.012063 0.009429 0.007996 -0.001618 0.052880 0.060002 0.101138 0.097595 0.063338 0.070871 0.078538 0.033374 0.014111 -0.012202 0.007643 0.060047 0.021610 0.036242 0.072656 0.088195 0.055876 0.032880 0.012573 0.013841 -0.007800 -0.010990 0.013173 0.053033 0.103474 0.062194 0.057475 0.037004 -0.013621 -0.002615 0.017469 0.012992 0.029362 0.104095 0.063615 0.019314 0.044643 0.002349 0.028534 -0.007549 -0.002437 0.025573 0.061640 0.032443 0.044961 0.031576 0.056268 0.023772 -0.005736 0.028503 0.041369 0.043588 0.040453 0.027722 -0.001850 -0.010117 0.028998 0.008603 0.048746 0.074713 0.041929 0.025583 0.010273 -0.000784 -0.007507 0.009105 0.002785 0.013073 -0.002642 0.079604 0.050439 0.029858 0.044593 0.002874 0.011903 0.006306 -0.002899 0.044156 0.068421 0.081435 0.048587 0.046679 -0.021843 0.007754 0.034104 0.069855 0.041708 0.032790 -0.000659 0.003978 0.056354 0.052748 0.034705 0.062060 0.065850 0.049220 -0.025423 0.014881 0.045015 0.017441 0.042143 0.074842 0.075908 0.064563 0.018173 0.007221 0.015515 -0.001206 0.026901 -0.023277 -0.024579 -0.022952 -0.040895 -0.000713 -0.004367 0.010608 -0.078409 0.006840 0.006534 -0.007758 -0.047962 0.008307 -0.098569 -0.028298 -0.054364 0.020217 0.068634 -0.112772 -0.031904 0.033443 0.000960 -0.048008 0.044252 0.024387 -0.026729 -0.041524 0.048310 0.235215 0.197641 0.078531 0.049122 -0.684143
0.072396 0.073046 0.074995 0.078243 0.082788 0.088630 0.095766 0.104193 0.113907 0.124903 0.137174 0.150713 0.165509 0.181549 0.198817 0.217297 0.236965 0.257795 0.279757 0.302816 0.326931 0.352055 0.378134 0.405107 0.432908 0.461459 0.490676 0.520464 0.550719 0.581328 0.612167 0.643099 0.673980 0.704650 0.734940 0.764672 0.793651 0.821676 0.848533 0.873999 0.897840 0.919815 0.939676 0.957169 0.972033 0.984009 0.992834 0.998248 0.999996 0.997830 0.991512 0.980818 0.965540 0.945493 0.920515 0.890473 0.855269 0.814839 0.769163 0.718265 0.662221 0.601158 0.535260 0.464775 0.390009 0.311337 0.229199 0.144103 0.056626 0.032592 0.122843 0.213361 0.303322 0.391851 0.478031 0.560909 0.639507 0.712837 0.779906 0.839737 0.891382 0.933937 0.966562 0.988495 0.999074 0.997752 0.984116 0.957906 0.919028 0.867570 0.803814 0.728246 0.641565 0.544684 0.438729 0.325039 0.205152 0.080794 0.046142 0.173617 0.299479 0.421497 0.537397 0.644908 0.741807 0.825970 0.895425 0.948400 0.983380 0.999151 0.994856 0.970028 0.924630 0.859084 0.774288 0.671625 0.552954 0.420602 0.277326 0.126269 0.029094 0.185034 0.337649 0.482960 0.617019 0.736019 0.836406 0.915005 0.969123 0.996663 0.996216 0.967142 0.909632 0.824746 0.714428 0.581487 0.429558 0.263015 0.086877 0.093339 0.271777 0.442431 0.599342 0.736818 0.849654 0.933341 0.984270 0.999912 0.978965 0.921465 0.828845 0.703949 0.550983 0.375409 0.183781 0.016478 0.217342 0.410504 0.587709 0.741126 0.863703 0.949519 0.994101 0.994694 0.950454 0.862584 0.734353 0.571036 0.379743 0.169150 0.050864 0.269663 0.476354 0.660336 0.811861 0.922575 0.986018 0.998044 0.957142 0.864615 0.724633 0.544098 0.332378 0.100859 0.137627 0.369493 0.581169 0.759907 0.894574 0.976395 0.999574 0.961765 0.864349 0.712485 0.514913 0.283535 0.032741 0.221437 0.462334 0.673746 0.841043 0.952229 0.998858 0.976749 0.886433 0.733272 0.527250 0.282402 0.015928 0.252963 0.504424 0.719436 0.881283 0.976903 0.998026 0.941976 0.812062 0.617518 0.372949 0.097331 0.187403 0.458071 0.692127 0.869577 0.974741 0.997737 0.935508 0.792301 0.579525 0.314962 0.021381 0.275349 0.548519 0.772985 0.927541 0.997001 0.973807 0.858975 0.662243 0.401403 0.100815 0.210787 0.502986 0.746656 0.916920 0.995778 0.974130 0.852975 0.643584 0.366630 0.050270 0.272611 0.567777 0.803294 0.953036 0.999714 0.937009 0.770582 0.517768 0.205937 0.130330 0.452999 0.724876 0.913938 0.997220 0.963755 0.816196 0.570862 0.256124 0.090715 0.427743 0.713475 0.912029 0.997721 0.958578 0.798199 0.535694 0.203624 0.155880 0.496359 0.773015 0.948689 0.998985 0.915863 0.709127 0.405533 0.045548 0.321903 0.646010 0.881133 0.993356 0.965567 0.800302 0.519851 0.163516 0.217713 0.568351 0.836483 0.981562 0.980734 0.832689 0.558355 0.198235 0.193367 0.556400 0.834267 0.982764 0.977311 0.817297 0.526721 0.150889 0.250414 0.612314 0.875353 0.995381 0.951218 0.748683 0.420214 0.019984 0.384816 0.725192 0.942126 0.997035 0.878907 0.606816 0.227233 0.193652 0.581284 0.865939 0.995421 0.944873 0.721920 0.365933 0.058567 0.473394 0.801012 0.979130 0.972795 0.781617 0.440533 0.013831 0.416712 0.767412 0.968978 0.980494 0.798070 0.456365 0.022427 0.417198 0.773564 0.973447 0.974631 0.775222 0.414843 0.032826 0.474795 0.818009 0.989017 0.950029 0.707682 0.312469 0.151344 0.583441
1.000000 1.000000 1.000000 1.000000 1.000000 1.000000 1.000000 1.000000 1.000000 1.000000 1.000000 1.000000 1.000000 1.000000 1.000000 1.000000 1.000000 1.000000 1.000000 1.000000 1.000000 1.000000 1.000000 1.000000 1.000000 1.000000 1.000000 1.000000 1.000000 1.000000 1.000000 1.000000 1.000000 1.000000 1.000000 1.000000 1.000000 1.000000 1.000000 1.000000 1.000000 1.000000 1.000000 1.000000 1.000000 1.000000 1.000000 1.000000 1.000000 1.000000 1.000000 1.000000 0.933827 0.933827 0.933827 0.933827 0.933827 0.933827 0.933827 0.933827 0.933827 0.933827 0.933827 0.933827 0.933827 0.933827 0.933827 0.933827 0.933827 0.933827 0.933827 0.933827 0.933827 0.933827 0.933827 0.933827 0.933827 0.933827 0.933827 0.933827 0.933827 0.933827 0.933827 0.933827 0.933827 0.923428 0.924897 0.927828 0.928884 0.928846 0.928398 0.928091 0.928311 0.930018 0.932321 0.948916 0.951012 0.951576 0.952847 0.953093 0.955637 0.953927 0.953817 0.964385 0.963235 0.963932 0.957019 0.958559 0.957667 0.956754 0.957293 0.957508 0.955611 0.953505 0.951852 0.951234 0.950870 0.952624 0.953089 0.953065 0.953637 0.953498 0.953229 0.949909 0.948457 0.949921 0.951937 0.951074 0.956777 0.956612 0.964654 0.965461 0.964073 0.963970 0.964168 0.964364 0.955942 0.950485 0.945569 0.933828 0.925195 0.922758 0.925550 0.927182 0.925968 0.921030 0.920015 0.917580 0.912843 0.912016 0.911519 0.913002 0.908494 0.905056 0.888698 0.887959 0.890647 0.890491 0.888301 0.879838 0.874852 0.875567 0.878640 0.876248 0.872913 0.888931 0.883595 0.888473 0.891531 0.894517 0.898394 0.894371 0.892754 0.888979 0.885466 0.879690 0.881002 0.872196 0.874948 0.869883 0.860818 0.854045 0.856853 0.865883 0.873823 0.881823 0.880895 0.881199 0.880427 0.871104 0.872381 0.861243 0.862084 0.867171 0.872806 0.869952 0.867312 0.871985 0.870192 0.870761 0.873596 0.870466 0.868599 0.859523 0.860018 0.861524 0.877731 0.878444 0.866213 0.856175 0.845047 0.852132 0.855361 0.854476 0.856105 0.848502 0.850377 0.840122 0.827010 0.828216 0.833402 0.829109 0.831306 0.830395 0.834889 0.836500 0.835172 0.831391 0.829905 0.834192 0.807039 0.813575 0.815633 0.809649 0.814120 0.806377 0.799522 0.794811 0.793954 0.788715 0.799489 0.797844 0.763526 0.758546 0.766098 0.749563 0.739678 0.736767 0.738157 0.720562 0.707662 0.677112 0.672342 0.655585 0.655386 0.653660 0.643418 0.629490 0.616533 0.602165 0.616840 0.621274 0.594471 0.596568 0.589510 0.585096 0.579559 0.573464 0.571654 0.578800 0.584092 0.549511 0.543020 0.550660 0.522756 0.521789 0.520608 0.511144 0.483685 0.489594 0.484909 0.507385 0.540967 0.492110 0.483570 0.500437 0.516971 0.528731 0.528054 0.514107 0.494441 0.510290 0.486470 0.466330 0.480896 0.484879 0.474864 0.488194 0.480245 0.509305 0.501062 0.477657 0.500755 0.502671 0.498987 0.509114 0.523896 0.518380 0.520865 0.514404 0.468298 0.479788 0.462951 0.409025 0.410029 0.424283 0.412409 0.413716 0.388136 0.389444 0.362387 0.332760 0.334498 0.328842 0.291293 0.256367 0.261382 0.263137 0.233609 0.202537 0.223146 0.175622 0.168428 0.188919 0.195177 0.177292 0.183771 0.205621 0.205621 0.205621 0.205621 0.205621 0.205621 0.205621 0.205621 0.205621 0.205621 0.205621 0.205621 0.205621 0.205621 0.230360 0.230360 0.230360 0.230360 0.230360 0.230360 0.230360 0.230360 0.230360 0.230360 0.230360 0.230360
0.000000 0.000000 0.000000 0.000000 0.000000 0.000000 0.000000 0.000000 0.000000 0.000000 0.000000 0.000000 0.000000 0.000000 0.000000 0.000000 0.000000 0.000000 0.000000 0.000000 0.000000 0.000000 0.000000 0.000000 0.000000 0.000000 0.000000 0.000000 0.000000 0.000000 0.000000 0.000000 0.000000 0.000000 0.000000 0.000000 0.000000 0.000000 0.000000 0.000000 0.000000 0.000000 0.000000 0.000000 0.000000 0.000000 0.000000 0.000000 0.000000 0.000000 0.000000 0.000000 0.209657 0.209657 0.209657 0.209657 0.209657 0.209657 0.209657 0.209657 0.209657 0.209657 0.209657 0.209657 0.209657 0.209657 0.209657 0.209657 0.209657 0.209657 0.209657 0.209657 0.209657 0.209657 0.209657 0.209657 0.209657 0.209657 0.209657 0.209657 0.209657 0.209657 0.209657 0.209657 0.209657 0.244339 0.244339 0.244339 0.244339 0.244339 0.244339 0.244339 0.244339 0.244339 0.244339 0.244339 0.244339 0.244339 0.244339 0.244339 0.244339 0.244339 0.244339 0.244339 0.244339 0.244339 0.244339 0.244339 0.244339 0.244339 0.260378 0.260378 0.260378 0.260378 0.260378 0.260378 0.260378 0.260378 0.260378 0.260378 0.260378 0.260378 0.260378 0.260378 0.260378 0.260378 0.260378 0.260378 0.260378 0.260378 0.269680 0.269680 0.269680 0.269680 0.269680 0.269680 0.269680 0.269680 0.269680 0.269680 0.269680 0.269680 0.269680 0.269680 0.269680 0.269680 0.269680 0.269680 0.269680 0.269680 0.269680 0.269680 0.269680 0.269680 0.269680 0.269680 0.269680 0.269680 0.269680 0.269680 0.269680 0.269680 0.269680 0.280056 0.280056 0.280056 0.280056 0.280056 0.280056 0.280056 0.280056 0.280056 0.280056 0.280056 0.280056 0.280056 0.280056 0.280056 0.280056 0.280056 0.280056 0.280056 0.280056 0.280056 0.280056 0.280056 0.280056 0.280056 0.280056 0.280056 0.274721 0.274721 0.274721 0.274721 0.274721 0.274721 0.274721 0.274721 0.274721 0.274721 0.274721 0.274721 0.274721 0.285714 0.285714 0.285714 0.285714 0.285714 0.285714 0.285714 0.285714 0.285714 0.285714 0.285714 0.280056 0.280056 0.280056 0.280056 0.280056 0.280056 0.280056 0.280056 0.280056 0.280056 0.280056 0.274721 0.274721 0.274721 0.274721 0.274721 0.274721 0.274721 0.274721 0.274721 0.274721 0.274721 0.280056 0.280056 0.280056 0.280056 0.280056 0.280056 0.280056 0.280056 0.280056 0.280056 0.285714 0.285714 0.285714 0.285714 0.285714 0.285714 0.285714 0.285714 0.285714 0.269680 0.269680 0.269680 0.269680 0.269680 0.269680 0.269680 0.269680 0.269680 0.269680 0.274721 0.274721 0.274721 0.274721 0.274721 0.274721 0.274721 0.274721 0.274721 0.285714 0.285714 0.285714 0.285714 0.285714 0.285714 0.285714 0.285714 0.264906 0.264906 0.264906 0.264906 0.264906 0.264906 0.264906 0.264906 0.264906 0.274721 0.274721 0.274721 0.274721 0.274721 0.274721 0.274721 0.274721 0.269680 0.269680 0.269680 0.269680 0.269680 0.269680 0.269680 0.269680 0.269680 0.269680 0.269680 0.269680 0.269680 0.269680 0.269680 0.269680 0.280056 0.280056 0.280056 0.280056 0.280056 0.280056 0.280056 0.260378 0.260378 0.260378 0.260378 0.260378 0.260378 0.260378 0.260378 0.269680 0.269680 0.269680 0.269680 0.269680 0.269680 0.269680 0.264906 0.264906 0.264906 0.264906 0.264906 0.264906 0.264906 0.264906 0.264906 0.264906 0.264906 0.264906 0.264906 0.264906 0.260378 0.260378 0.260378 0.260378 0.260378 0.260378 0.260378 0.260378 0.260378 0.260378 0.260378 0.260378
