# Output from CTFFind version 4.1.9, run on 2019-11-03 20:06:15
# Input file: stack11_bm3d_averaged_1_7.5_0_1000_half.mrc ; Number of micrographs: 1
# Pixel size: 3.000 Angstroms ; acceleration voltage: 300.0 keV ; spherical aberration: 0.00 mm ; amplitude contrast: 0.07
# Box size: 512 pixels ; min. res.: 30.0 Angstroms ; max. res.: 5.0 Angstroms ; min. def.: 5000.0 um; max. def. 50000.0 um; num. frames averaged: 1
# 6 lines per micrograph: #1 - spatial frequency (1/Angstroms); #2 - 1D rotational average of spectrum (assuming no astigmatism); #3 - 1D rotational average of spectrum; #4 - CTF fit; #5 - cross-correlation between spectrum and CTF fit; #6 - 2sigma of expected cross correlation of noise
0.000000 0.000651 0.001302 0.001953 0.002604 0.003255 0.003906 0.004557 0.005208 0.005859 0.006510 0.007161 0.007812 0.008464 0.009115 0.009766 0.010417 0.011068 0.011719 0.012370 0.013021 0.013672 0.014323 0.014974 0.015625 0.016276 0.016927 0.017578 0.018229 0.018880 0.019531 0.020182 0.020833 0.021484 0.022135 0.022786 0.023438 0.024089 0.024740 0.025391 0.026042 0.026693 0.027344 0.027995 0.028646 0.029297 0.029948 0.030599 0.031250 0.031901 0.032552 0.033203 0.033854 0.034505 0.035156 0.035807 0.036458 0.037109 0.037760 0.038411 0.039062 0.039714 0.040365 0.041016 0.041667 0.042318 0.042969 0.043620 0.044271 0.044922 0.045573 0.046224 0.046875 0.047526 0.048177 0.048828 0.049479 0.050130 0.050781 0.051432 0.052083 0.052734 0.053385 0.054036 0.054688 0.055339 0.055990 0.056641 0.057292 0.057943 0.058594 0.059245 0.059896 0.060547 0.061198 0.061849 0.062500 0.063151 0.063802 0.064453 0.065104 0.065755 0.066406 0.067057 0.067708 0.068359 0.069010 0.069661 0.070312 0.070964 0.071615 0.072266 0.072917 0.073568 0.074219 0.074870 0.075521 0.076172 0.076823 0.077474 0.078125 0.078776 0.079427 0.080078 0.080729 0.081380 0.082031 0.082682 0.083333 0.083984 0.084635 0.085286 0.085938 0.086589 0.087240 0.087891 0.088542 0.089193 0.089844 0.090495 0.091146 0.091797 0.092448 0.093099 0.093750 0.094401 0.095052 0.095703 0.096354 0.097005 0.097656 0.098307 0.098958 0.099609 0.100260 0.100911 0.101562 0.102214 0.102865 0.103516 0.104167 0.104818 0.105469 0.106120 0.106771 0.107422 0.108073 0.108724 0.109375 0.110026 0.110677 0.111328 0.111979 0.112630 0.113281 0.113932 0.114583 0.115234 0.115885 0.116536 0.117188 0.117839 0.118490 0.119141 0.119792 0.120443 0.121094 0.121745 0.122396 0.123047 0.123698 0.124349 0.125000 0.125651 0.126302 0.126953 0.127604 0.128255 0.128906 0.129557 0.130208 0.130859 0.131510 0.132161 0.132812 0.133464 0.134115 0.134766 0.135417 0.136068 0.136719 0.137370 0.138021 0.138672 0.139323 0.139974 0.140625 0.141276 0.141927 0.142578 0.143229 0.143880 0.144531 0.145182 0.145833 0.146484 0.147135 0.147786 0.148438 0.149089 0.149740 0.150391 0.151042 0.151693 0.152344 0.152995 0.153646 0.154297 0.154948 0.155599 0.156250 0.156901 0.157552 0.158203 0.158854 0.159505 0.160156 0.160807 0.161458 0.162109 0.162760 0.163411 0.164062 0.164714 0.165365 0.166016 0.166667 0.167318 0.167969 0.168620 0.169271 0.169922 0.170573 0.171224 0.171875 0.172526 0.173177 0.173828 0.174479 0.175130 0.175781 0.176432 0.177083 0.177734 0.178385 0.179036 0.179688 0.180339 0.180990 0.181641 0.182292 0.182943 0.183594 0.184245 0.184896 0.185547 0.186198 0.186849 0.187500 0.188151 0.188802 0.189453 0.190104 0.190755 0.191406 0.192057 0.192708 0.193359 0.194010 0.194661 0.195312 0.195964 0.196615 0.197266 0.197917 0.198568 0.199219 0.199870 0.200521 0.201172 0.201823 0.202474 0.203125 0.203776 0.204427 0.205078 0.205729 0.206380 0.207031 0.207682 0.208333 0.208984 0.209635 0.210286 0.210938 0.211589 0.212240 0.212891 0.213542 0.214193 0.214844 0.215495 0.216146 0.216797 0.217448 0.218099 0.218750 0.219401 0.220052 0.220703 0.221354 0.222005 0.222656 0.223307 0.223958 0.224609 0.225260 0.225911 0.226562 0.227214 0.227865 0.228516 0.229167 0.229818 0.230469 0.231120 0.231771 0.232422 0.233073 0.233724 0.234375 0.235026 0.235677
       0.34626        0.34626        0.34626        0.34626        0.34626        0.34626        0.34626        0.34626        0.34626        0.34626        0.34626        0.34626        0.34626        0.34626        0.34626        0.34626        0.34626        0.34626        0.34626        0.34626        0.34626        0.34626        0.34626        0.34626        0.34626        0.34626        0.34626        0.34626        0.34626        0.34626        0.34626        0.34626        0.34626        0.34626        0.34626        0.34626        0.34626        0.34626        0.34626        0.34626        0.34626        0.34626        0.34626        0.34626        0.34626        0.34626        0.34626        0.34626        0.34626        0.34626        0.34626        0.69967        0.85729        0.53871        0.10550       -0.02875       -0.38339       -0.17933       -0.28825       -0.11680       -0.05463       -0.11310       -0.05325       -0.16454       -0.20460       -0.21231       -0.30585       -0.31718       -0.44213       -0.36136       -0.42407       -0.41938       -0.39181       -0.40338       -0.44318       -0.50464       -0.55714       -0.54652       -0.52042       -0.35426       -0.32293       -0.28855       -0.26862       -0.18457       -0.16799        0.06292        0.14456        0.17827        0.26822        0.38157        0.45823        0.52365        0.60271        0.59987        0.58577        0.70125        0.80240        0.70200        0.74500        0.61822        0.56863        0.48403        0.43408        0.51288        0.39908        0.27526        0.11879        0.11657        0.09743       -0.01026        0.04920        0.05554        0.01528        0.02902        0.03422        0.23672        0.27226        0.29693        0.43634        0.45430        0.41553        0.60261        0.61707        0.63257        0.72274        0.67512        0.64745        0.65467        0.55991        0.45967        0.41928        0.30529        0.27379        0.18740        0.13808        0.05278        0.06918        0.08018        0.10184        0.16309        0.24828        0.30172        0.42619        0.46654        0.48164        0.56247        0.60118        0.63658        0.61378        0.55715        0.46348        0.47373        0.37899        0.28025        0.21419        0.15647        0.17516        0.15503        0.16538        0.19540        0.32640        0.34122        0.41095        0.44918        0.42505        0.47883        0.56415        0.55659        0.50510        0.45791        0.41542        0.37604        0.34483        0.31258        0.26853        0.24851        0.25933        0.25912        0.22799        0.31227        0.36651        0.38499        0.43955        0.45622        0.46719        0.42931        0.41459        0.40271        0.36454        0.34194        0.27590        0.28487        0.27111        0.25086        0.29882        0.29635        0.35449        0.38552        0.43835        0.47688        0.40661        0.42256        0.43295        0.41321        0.35195        0.33139        0.29324        0.32926        0.27839        0.32647        0.31809        0.33619        0.34425        0.36688        0.31241        0.38738        0.41185        0.38179        0.35366        0.36997        0.32089        0.29735        0.31061        0.32023        0.30919        0.32149        0.34801        0.36045        0.34215        0.36406        0.36264        0.42700        0.39301        0.34199        0.35116        0.30125        0.29685        0.32835        0.32157        0.33212        0.34539        0.34607        0.39003        0.33200        0.33102        0.33987        0.35194        0.30564        0.31372        0.28414        0.30388        0.33396        0.30467        0.33429        0.36123        0.37445        0.30150        0.34693        0.30160        0.29192        0.28027        0.24864        0.31054        0.30981        0.34372        0.34100        0.34754        0.32953        0.35068        0.31707        0.34686        0.30533        0.32829        0.29615        0.33916        0.33550        0.37715        0.33471        0.33789        0.33701        0.29407        0.27796        0.31505        0.25290        0.23185        0.34125        0.32524        0.36999        0.34855        0.36561        0.33868        0.33453        0.35434        0.26804        0.27329        0.32144        0.30215        0.31189        0.31320        0.33986        0.32928        0.28895        0.29290        0.34660        0.32366        0.32551        0.30335        0.32146        0.33737        0.39164        0.36660        0.32304        0.28479        0.30388        0.29120        0.31143        0.28200        0.27478        0.31313        0.32905        0.34700        0.35729        0.33452        0.29861        0.30260        0.27325        0.28146        0.25837        0.30623        0.25913        0.25183        0.28600        0.28102        0.26244        0.29332        0.22243        0.21899        0.23685        0.19544        0.27689        0.35149        0.25516        0.24920        0.32035        0.29986        0.30696        0.31475        0.27716        0.25484        0.19696        0.21154        0.21378        0.29234        0.23762        0.28584        0.36842        0.37856        0.26126        0.18944        0.14209       -0.01810       -0.14397       -0.62791
2.731529 2.702529 2.673688 2.645004 2.616478 2.588110 2.559900 2.531848 2.503954 2.476218 2.448640 2.421220 2.393958 2.366853 2.339907 2.313118 2.286488 2.260015 2.233701 2.207544 2.181545 2.155704 2.130021 2.104496 2.079129 2.053920 2.028869 2.003976 1.979240 1.954663 1.930243 1.905982 1.881878 1.857933 1.834145 1.810515 1.787043 1.763729 1.740573 1.717575 1.694735 1.672053 1.649529 1.627162 1.604954 1.582904 1.561011 1.539276 1.517700 1.496281 1.475020 1.687050 2.102022 1.669479 1.160025 1.026226 0.443532 0.827641 0.545164 0.821675 0.794906 0.796381 0.736503 0.737405 0.581503 0.546414 0.488223 0.414961 0.243121 0.352818 0.192873 0.321310 0.211482 0.205982 0.181164 0.040756 -0.000559 0.018264 -0.068551 0.129620 0.227302 0.183752 0.175442 0.314447 0.178512 0.509105 0.609734 0.621001 0.637324 0.854671 0.815074 0.920256 0.919303 1.012577 0.984360 1.063329 1.142963 1.017820 1.139906 0.887074 0.906481 0.777304 0.638292 0.790468 0.677074 0.487195 0.325786 0.245381 0.264629 0.145835 0.136528 0.163064 0.107231 0.114183 0.082134 0.240915 0.339747 0.332010 0.465280 0.530780 0.405605 0.580604 0.714450 0.624494 0.700606 0.691330 0.700926 0.627840 0.580357 0.474910 0.356184 0.270335 0.213986 0.091624 0.113112 -0.116998 -0.048127 -0.061578 -0.083159 -0.016572 0.124886 0.070594 0.237688 0.299810 0.327798 0.360728 0.481090 0.451235 0.465678 0.475820 0.296385 0.285129 0.278765 0.083638 0.044822 -0.081519 -0.016520 -0.061697 -0.095111 -0.065490 0.039959 0.093048 0.124200 0.221743 0.215817 0.211887 0.306036 0.332261 0.435419 0.248634 0.225726 0.222040 0.139683 0.142377 0.117348 -0.004456 0.014139 0.077308 -0.011098 0.042788 0.130177 0.131493 0.206098 0.226752 0.247837 0.158437 0.205979 0.125718 0.119311 0.113730 0.024775 -0.025755 -0.001635 -0.019925 -0.049916 0.054590 0.003220 0.104096 0.134524 0.190088 0.154320 0.117359 0.135621 0.153819 0.106193 0.033520 -0.025920 0.025287 0.029633 -0.044490 0.038629 0.018425 0.046755 0.038443 0.053150 0.018157 0.127808 0.112257 0.044265 0.034843 0.039815 0.003998 -0.029809 0.007435 0.001995 -0.005649 0.001238 0.058007 0.052113 0.036744 0.069353 0.060490 0.162755 0.062961 0.041938 0.043188 -0.033982 0.013004 0.047347 0.008234 0.031917 0.055571 0.076763 0.057842 0.041331 0.008211 0.078681 0.029362 0.019858 0.025423 -0.004594 0.031174 0.027572 0.020737 0.069321 0.074609 0.079885 0.042242 0.054155 0.021126 0.017685 -0.026607 -0.023097 0.038037 0.051810 0.078517 0.078794 0.065423 0.069059 0.094324 0.041484 0.085618 0.053129 0.045247 0.017939 0.102471 0.063255 0.124889 0.061036 0.068911 0.089708 0.027025 0.002446 0.082989 -0.038686 -0.030105 0.087036 0.041469 0.154070 0.087320 0.085439 0.063216 0.025474 0.086444 -0.028151 -0.023703 0.043177 0.028450 0.028229 0.011603 0.097527 0.025528 -0.015106 0.046939 0.036518 0.051285 0.053671 -0.007309 0.050899 0.044615 0.110022 0.059874 0.028053 -0.029558 -0.031475 -0.004193 0.011100 -0.055765 -0.019177 -0.000847 0.006158 0.041900 0.060386 0.005626 -0.029845 -0.027183 -0.017598 -0.062275 -0.043121 -0.037345 -0.127627 -0.092057 -0.064482 -0.098630 -0.106103 -0.030463 -0.150029 -0.100090 -0.116104 -0.194288 -0.069582 0.059061 -0.076068 -0.128943 0.049360 0.020016 -0.031770 0.067355 -0.023527 -0.004599 -0.078677 -0.042240 0.050817 0.134912 0.050329 0.135553 0.162340 0.473929 0.208757 0.327134 0.178548 -0.023194 -0.684464
0.072396 0.072899 0.074408 0.076923 0.080443 0.084967 0.090494 0.097023 0.104550 0.113074 0.122591 0.133097 0.144586 0.157052 0.170487 0.184882 0.200226 0.216506 0.233707 0.251812 0.270800 0.290649 0.311332 0.332820 0.355081 0.378075 0.401763 0.426098 0.451029 0.476500 0.502449 0.528810 0.555510 0.582469 0.609602 0.636817 0.664015 0.691091 0.717933 0.744422 0.770431 0.795828 0.820474 0.844224 0.866925 0.888420 0.908547 0.927139 0.944024 0.959028 0.971974 0.982684 0.990981 0.996685 0.999623 0.999622 0.996516 0.990147 0.980363 0.967025 0.950006 0.929192 0.904488 0.875817 0.843124 0.806375 0.765565 0.720715 0.671875 0.619129 0.562594 0.502422 0.438804 0.371968 0.302181 0.229751 0.155028 0.078401 0.000297 0.078813 0.158426 0.238000 0.316963 0.394711 0.470617 0.544032 0.614293 0.680725 0.742654 0.799406 0.850321 0.894760 0.932112 0.961803 0.983310 0.996164 0.999962 0.994380 0.979176 0.954206 0.919426 0.874901 0.820815 0.757471 0.685302 0.604865 0.516849 0.422069 0.321467 0.216102 0.107148 0.004120 0.116340 0.228071 0.337818 0.444044 0.545199 0.639736 0.726140 0.802955 0.868808 0.922440 0.962731 0.988728 0.999670 0.995014 0.974457 0.937952 0.885724 0.818283 0.736428 0.641248 0.534118 0.416685 0.290852 0.158756 0.022734 0.114715 0.250969 0.383334 0.509096 0.625579 0.730205 0.820553 0.894425 0.949901 0.985399 0.999729 0.992135 0.962341 0.910573 0.837581 0.744645 0.633569 0.506658 0.366682 0.216832 0.060651 0.098043 0.255243 0.406853 0.548795 0.677124 0.788139 0.878505 0.945352 0.986392 0.999996 0.985281 0.942163 0.871391 0.774565 0.654116 0.513270 0.355979 0.186818 0.010873 0.166406 0.339372 0.502358 0.649866 0.776757 0.878446 0.951079 0.991695 0.998367 0.970308 0.907945 0.812950 0.688223 0.537834 0.366910 0.181484 0.011703 0.205436 0.392296 0.564931 0.716369 0.840294 0.931341 0.985337 0.999525 0.972726 0.905443 0.799900 0.660004 0.491238 0.300474 0.095711 0.114230 0.320095 0.512580 0.682774 0.822576 0.925104 0.985057 0.999019 0.965688 0.886007 0.763189 0.602633 0.411730 0.199550 0.023562 0.246471 0.457799 0.646514 0.802518 0.917207 0.983974 0.998635 0.959721 0.868647 0.729722 0.549991 0.338935 0.107997 0.130010 0.361590 0.573340 0.752724 0.888842 0.973127 0.999925 0.966919 0.875373 0.730150 0.539520 0.314741 0.069435 0.181204 0.421338 0.635486 0.809538 0.931713 0.993401 0.989821 0.920449 0.789169 0.604131 0.377308 0.123771 0.139266 0.393589 0.621268 0.805898 0.933852 0.995308 0.985082 0.903119 0.754638 0.549875 0.303457 0.033410 0.240127 0.496374 0.715506 0.880201 0.977070 0.997797 0.939933 0.807239 0.609538 0.362068 0.084382 0.201142 0.471106 0.702976 0.877012 0.978001 0.996647 0.930518 0.784416 0.570136 0.305613 0.013486 0.280794 0.551148 0.773195 0.926498 0.996503 0.976008 0.865999 0.675744 0.422134 0.128258 0.178621 0.469557 0.716659 0.895797 0.989017 0.986436 0.887391 0.700713 0.444066 0.142374 0.174526 0.474784 0.727739 0.907094 0.993718 0.977784 0.860007 0.651785 0.374247 0.056193 0.268804 0.565905 0.802767 0.953100 0.999689 0.936479 0.769481 0.516360 0.204697 0.130921 0.452670 0.723754 0.912643 0.996833 0.965644 0.821709 0.580946 0.270941 0.072098 0.407485 0.694876 0.899141 0.994759 0.969123 0.824356 0.577344 0.257924 0.094595 0.436184 0.723585 0.919818 0.999053 0.950137 0.778335 0.504963 0.164904 0.197713
1.000000 1.000000 1.000000 1.000000 1.000000 1.000000 1.000000 1.000000 1.000000 1.000000 1.000000 1.000000 1.000000 1.000000 1.000000 1.000000 1.000000 1.000000 1.000000 1.000000 1.000000 1.000000 1.000000 1.000000 1.000000 1.000000 1.000000 1.000000 1.000000 1.000000 1.000000 1.000000 1.000000 1.000000 1.000000 1.000000 1.000000 1.000000 1.000000 1.000000 1.000000 1.000000 1.000000 1.000000 1.000000 1.000000 1.000000 1.000000 1.000000 1.000000 1.000000 1.000000 0.914208 0.914208 0.914208 0.911305 0.911305 0.911305 0.911305 0.911305 0.911305 0.911305 0.911305 0.911305 0.911305 0.911305 0.911305 0.911305 0.911305 0.911305 0.911305 0.911305 0.911305 0.911305 0.911305 0.911305 0.911305 0.911305 0.911305 0.911305 0.911305 0.911305 0.911305 0.911305 0.911305 0.911305 0.911305 0.911305 0.911305 0.911305 0.911305 0.911305 0.911305 0.911305 0.911305 0.911305 0.939733 0.941161 0.949518 0.949040 0.948498 0.946521 0.945255 0.945045 0.944959 0.945313 0.946049 0.947044 0.953260 0.954196 0.958601 0.961323 0.961296 0.963040 0.965014 0.964658 0.956378 0.956130 0.954690 0.953969 0.956083 0.954730 0.953506 0.953983 0.951635 0.955976 0.955545 0.954340 0.952704 0.951114 0.947527 0.947024 0.946060 0.946883 0.946978 0.948589 0.951641 0.951817 0.951564 0.948832 0.948431 0.949641 0.949198 0.950995 0.938828 0.938073 0.936504 0.936449 0.938951 0.938826 0.938711 0.939626 0.939325 0.939245 0.939396 0.933642 0.933339 0.926312 0.922442 0.921202 0.915628 0.911614 0.914332 0.917071 0.918271 0.918667 0.909178 0.906269 0.907256 0.906006 0.907424 0.908079 0.909240 0.909634 0.909553 0.904475 0.895068 0.893522 0.884569 0.887303 0.883515 0.880833 0.877990 0.869476 0.861066 0.872943 0.859965 0.818588 0.822167 0.826749 0.819490 0.815863 0.820236 0.821768 0.826569 0.820510 0.819369 0.813249 0.799732 0.795981 0.789315 0.774752 0.770879 0.761494 0.751217 0.745149 0.768447 0.762170 0.773910 0.778153 0.777743 0.773923 0.764239 0.752886 0.753080 0.751999 0.747882 0.724013 0.715531 0.715565 0.713349 0.700263 0.703158 0.691780 0.692025 0.679129 0.684180 0.690072 0.693514 0.688798 0.682110 0.673881 0.669051 0.682977 0.696278 0.688351 0.684913 0.693950 0.684829 0.679310 0.670649 0.674284 0.665808 0.661330 0.662762 0.696129 0.669661 0.659436 0.665693 0.666116 0.663693 0.663618 0.642511 0.636903 0.613463 0.630919 0.635650 0.651304 0.653547 0.656995 0.667710 0.673631 0.684292 0.689026 0.686927 0.646292 0.650810 0.668168 0.676125 0.665904 0.656152 0.650430 0.640573 0.677478 0.661943 0.620404 0.616152 0.616834 0.571019 0.549971 0.548247 0.549537 0.576916 0.574908 0.558419 0.532435 0.534322 0.534475 0.530390 0.529517 0.508890 0.519075 0.502666 0.479824 0.492806 0.501295 0.500019 0.484094 0.477862 0.491658 0.472271 0.496088 0.474486 0.457611 0.473737 0.472960 0.460892 0.389520 0.396144 0.387173 0.371949 0.329240 0.338501 0.348574 0.328103 0.251899 0.246380 0.247181 0.243462 0.221552 0.195698 0.182389 0.172708 0.150088 0.091420 0.042007 0.044979 0.048949 0.075317 0.037356 0.091193 0.161059 0.157565 0.157565 0.157565 0.157565 0.157565 0.157565 0.157565 0.157565 0.134183 0.134183 0.134183 0.134183 0.134183 0.134183 0.134183 0.134183 0.134183 0.157565 0.157565 0.157565 0.157565 0.157565 0.157565 0.157565 0.157565 0.157565 0.157565 0.157565 0.157565 0.157565 0.157565
0.000000 0.000000 0.000000 0.000000 0.000000 0.000000 0.000000 0.000000 0.000000 0.000000 0.000000 0.000000 0.000000 0.000000 0.000000 0.000000 0.000000 0.000000 0.000000 0.000000 0.000000 0.000000 0.000000 0.000000 0.000000 0.000000 0.000000 0.000000 0.000000 0.000000 0.000000 0.000000 0.000000 0.000000 0.000000 0.000000 0.000000 0.000000 0.000000 0.000000 0.000000 0.000000 0.000000 0.000000 0.000000 0.000000 0.000000 0.000000 0.000000 0.000000 0.000000 0.000000 0.180334 0.180334 0.180334 0.199007 0.199007 0.199007 0.199007 0.199007 0.199007 0.199007 0.199007 0.199007 0.199007 0.199007 0.199007 0.199007 0.199007 0.199007 0.199007 0.199007 0.199007 0.199007 0.199007 0.199007 0.199007 0.199007 0.199007 0.199007 0.199007 0.199007 0.199007 0.199007 0.199007 0.199007 0.199007 0.199007 0.199007 0.199007 0.199007 0.199007 0.199007 0.199007 0.199007 0.199007 0.225018 0.225018 0.225018 0.225018 0.225018 0.225018 0.225018 0.225018 0.225018 0.225018 0.225018 0.225018 0.225018 0.225018 0.225018 0.225018 0.225018 0.225018 0.225018 0.225018 0.225018 0.225018 0.225018 0.225018 0.225018 0.225018 0.225018 0.225018 0.225018 0.244339 0.244339 0.244339 0.244339 0.244339 0.244339 0.244339 0.244339 0.244339 0.244339 0.244339 0.244339 0.244339 0.244339 0.244339 0.244339 0.244339 0.244339 0.244339 0.244339 0.244339 0.244339 0.244339 0.256074 0.256074 0.256074 0.256074 0.256074 0.256074 0.256074 0.256074 0.256074 0.256074 0.256074 0.256074 0.256074 0.256074 0.256074 0.256074 0.256074 0.256074 0.256074 0.256074 0.256074 0.256074 0.256074 0.256074 0.256074 0.256074 0.256074 0.256074 0.256074 0.256074 0.256074 0.256074 0.256074 0.256074 0.256074 0.256074 0.256074 0.264906 0.264906 0.264906 0.264906 0.264906 0.264906 0.264906 0.264906 0.264906 0.264906 0.264906 0.264906 0.264906 0.264906 0.264906 0.264906 0.264906 0.264906 0.264906 0.264906 0.264906 0.264906 0.264906 0.264906 0.264906 0.264906 0.264906 0.264906 0.264906 0.264906 0.264906 0.264906 0.264906 0.264906 0.264906 0.264906 0.264906 0.264906 0.264906 0.264906 0.264906 0.264906 0.264906 0.264906 0.264906 0.264906 0.264906 0.264906 0.264906 0.264906 0.264906 0.264906 0.264906 0.264906 0.264906 0.264906 0.264906 0.264906 0.260378 0.260378 0.260378 0.260378 0.260378 0.260378 0.260378 0.260378 0.260378 0.260378 0.260378 0.260378 0.260378 0.264906 0.264906 0.264906 0.264906 0.264906 0.264906 0.264906 0.264906 0.264906 0.264906 0.264906 0.264906 0.269680 0.269680 0.269680 0.269680 0.269680 0.269680 0.269680 0.269680 0.269680 0.269680 0.269680 0.264906 0.264906 0.264906 0.264906 0.264906 0.264906 0.264906 0.264906 0.264906 0.264906 0.264906 0.256074 0.256074 0.256074 0.256074 0.256074 0.256074 0.256074 0.256074 0.256074 0.256074 0.256074 0.264906 0.264906 0.264906 0.264906 0.264906 0.264906 0.264906 0.264906 0.264906 0.264906 0.260378 0.260378 0.260378 0.260378 0.260378 0.260378 0.260378 0.260378 0.260378 0.260378 0.264906 0.264906 0.264906 0.264906 0.264906 0.264906 0.264906 0.264906 0.264906 0.251976 0.251976 0.251976 0.251976 0.251976 0.251976 0.251976 0.251976 0.251976 0.251976 0.256074 0.256074 0.256074 0.256074 0.256074 0.256074 0.256074 0.256074 0.256074 0.251976 0.251976 0.251976 0.251976 0.251976 0.251976 0.251976 0.251976 0.251976 0.251976 0.251976 0.251976 0.251976 0.251976
