# Output from CTFFind version 4.1.9, run on 2019-11-02 17:44:19
# Input file: stack11_bm3d_averaged_1_1.25_0_250_half.mrc ; Number of micrographs: 1
# Pixel size: 3.000 Angstroms ; acceleration voltage: 300.0 keV ; spherical aberration: 0.00 mm ; amplitude contrast: 0.07
# Box size: 512 pixels ; min. res.: 30.0 Angstroms ; max. res.: 5.0 Angstroms ; min. def.: 5000.0 um; max. def. 50000.0 um; num. frames averaged: 1
# 6 lines per micrograph: #1 - spatial frequency (1/Angstroms); #2 - 1D rotational average of spectrum (assuming no astigmatism); #3 - 1D rotational average of spectrum; #4 - CTF fit; #5 - cross-correlation between spectrum and CTF fit; #6 - 2sigma of expected cross correlation of noise
0.000000 0.000651 0.001302 0.001953 0.002604 0.003255 0.003906 0.004557 0.005208 0.005859 0.006510 0.007161 0.007812 0.008464 0.009115 0.009766 0.010417 0.011068 0.011719 0.012370 0.013021 0.013672 0.014323 0.014974 0.015625 0.016276 0.016927 0.017578 0.018229 0.018880 0.019531 0.020182 0.020833 0.021484 0.022135 0.022786 0.023438 0.024089 0.024740 0.025391 0.026042 0.026693 0.027344 0.027995 0.028646 0.029297 0.029948 0.030599 0.031250 0.031901 0.032552 0.033203 0.033854 0.034505 0.035156 0.035807 0.036458 0.037109 0.037760 0.038411 0.039062 0.039714 0.040365 0.041016 0.041667 0.042318 0.042969 0.043620 0.044271 0.044922 0.045573 0.046224 0.046875 0.047526 0.048177 0.048828 0.049479 0.050130 0.050781 0.051432 0.052083 0.052734 0.053385 0.054036 0.054688 0.055339 0.055990 0.056641 0.057292 0.057943 0.058594 0.059245 0.059896 0.060547 0.061198 0.061849 0.062500 0.063151 0.063802 0.064453 0.065104 0.065755 0.066406 0.067057 0.067708 0.068359 0.069010 0.069661 0.070312 0.070964 0.071615 0.072266 0.072917 0.073568 0.074219 0.074870 0.075521 0.076172 0.076823 0.077474 0.078125 0.078776 0.079427 0.080078 0.080729 0.081380 0.082031 0.082682 0.083333 0.083984 0.084635 0.085286 0.085938 0.086589 0.087240 0.087891 0.088542 0.089193 0.089844 0.090495 0.091146 0.091797 0.092448 0.093099 0.093750 0.094401 0.095052 0.095703 0.096354 0.097005 0.097656 0.098307 0.098958 0.099609 0.100260 0.100911 0.101562 0.102214 0.102865 0.103516 0.104167 0.104818 0.105469 0.106120 0.106771 0.107422 0.108073 0.108724 0.109375 0.110026 0.110677 0.111328 0.111979 0.112630 0.113281 0.113932 0.114583 0.115234 0.115885 0.116536 0.117188 0.117839 0.118490 0.119141 0.119792 0.120443 0.121094 0.121745 0.122396 0.123047 0.123698 0.124349 0.125000 0.125651 0.126302 0.126953 0.127604 0.128255 0.128906 0.129557 0.130208 0.130859 0.131510 0.132161 0.132812 0.133464 0.134115 0.134766 0.135417 0.136068 0.136719 0.137370 0.138021 0.138672 0.139323 0.139974 0.140625 0.141276 0.141927 0.142578 0.143229 0.143880 0.144531 0.145182 0.145833 0.146484 0.147135 0.147786 0.148438 0.149089 0.149740 0.150391 0.151042 0.151693 0.152344 0.152995 0.153646 0.154297 0.154948 0.155599 0.156250 0.156901 0.157552 0.158203 0.158854 0.159505 0.160156 0.160807 0.161458 0.162109 0.162760 0.163411 0.164062 0.164714 0.165365 0.166016 0.166667 0.167318 0.167969 0.168620 0.169271 0.169922 0.170573 0.171224 0.171875 0.172526 0.173177 0.173828 0.174479 0.175130 0.175781 0.176432 0.177083 0.177734 0.178385 0.179036 0.179688 0.180339 0.180990 0.181641 0.182292 0.182943 0.183594 0.184245 0.184896 0.185547 0.186198 0.186849 0.187500 0.188151 0.188802 0.189453 0.190104 0.190755 0.191406 0.192057 0.192708 0.193359 0.194010 0.194661 0.195312 0.195964 0.196615 0.197266 0.197917 0.198568 0.199219 0.199870 0.200521 0.201172 0.201823 0.202474 0.203125 0.203776 0.204427 0.205078 0.205729 0.206380 0.207031 0.207682 0.208333 0.208984 0.209635 0.210286 0.210938 0.211589 0.212240 0.212891 0.213542 0.214193 0.214844 0.215495 0.216146 0.216797 0.217448 0.218099 0.218750 0.219401 0.220052 0.220703 0.221354 0.222005 0.222656 0.223307 0.223958 0.224609 0.225260 0.225911 0.226562 0.227214 0.227865 0.228516 0.229167 0.229818 0.230469 0.231120 0.231771 0.232422 0.233073 0.233724 0.234375 0.235026 0.235677
       0.31802        0.31802        0.31802        0.31802        0.31802        0.31802        0.31802        0.31802        0.31802        0.31802        0.31802        0.31802        0.31802        0.31802        0.31802        0.31802        0.31802        0.31802        0.31802        0.31802        0.31802        0.31802        0.31802        0.31802        0.31802        0.31802        0.31802        0.31802        0.31802        0.31802        0.31802        0.31802        0.31802        0.31802        0.31802        0.31802        0.31802        0.31802        0.31802        0.31802        0.31802        0.31802        0.31802        0.31802        0.31802        0.31802        0.31802        0.31802        0.31802        0.31802        0.31802        0.68365        0.86790        0.52330        0.08981       -0.06032       -0.42064       -0.20449       -0.29512       -0.11607       -0.07293       -0.11775       -0.06533       -0.20388       -0.23118       -0.25436       -0.32707       -0.33705       -0.48394       -0.37979       -0.46289       -0.44593       -0.41834       -0.46522       -0.53545       -0.55718       -0.58464       -0.62001       -0.57475       -0.41230       -0.37716       -0.32686       -0.31018       -0.21264       -0.20106        0.01849        0.07944        0.11295        0.22866        0.37164        0.44330        0.51198        0.55949        0.55657        0.56692        0.69671        0.81083        0.73455        0.73210        0.66313        0.57799        0.48246        0.40989        0.49532        0.37910        0.21096        0.07785        0.05313        0.01969       -0.05975       -0.03327       -0.01695       -0.06771       -0.00854       -0.01549        0.21408        0.25067        0.28775        0.42889        0.45702        0.40541        0.54348        0.62558        0.69592        0.75815        0.68721        0.65168        0.69608        0.58393        0.49947        0.41934        0.28894        0.19144        0.15569        0.10481        0.04106        0.01452        0.00228        0.07601        0.13053        0.20755        0.28240        0.39617        0.42281        0.50832        0.60282        0.63003        0.62429        0.62935        0.55667        0.44842        0.45115        0.35350        0.23003        0.17783        0.14776        0.11687        0.12266        0.07528        0.10531        0.23660        0.26502        0.34844        0.36003        0.44791        0.51327        0.53882        0.54985        0.47244        0.43526        0.39117        0.36065        0.30315        0.25226        0.20217        0.19077        0.16521        0.19398        0.18133        0.27460        0.33506        0.37122        0.42892        0.45852        0.47861        0.43933        0.39315        0.41643        0.37029        0.28661        0.26774        0.22217        0.21613        0.19458        0.21970        0.23207        0.32853        0.37357        0.36998        0.46210        0.43745        0.43612        0.42975        0.39623        0.34463        0.32354        0.27498        0.24707        0.23891        0.27491        0.27414        0.30309        0.30873        0.33733        0.32631        0.40711        0.42010        0.37748        0.34736        0.36986        0.28392        0.28436        0.26037        0.28320        0.26304        0.27849        0.28818        0.30932        0.34988        0.36448        0.36304        0.33986        0.35510        0.28650        0.31930        0.26877        0.24289        0.29089        0.28595        0.31134        0.31050        0.32756        0.33279        0.31633        0.31579        0.28617        0.29283        0.26647        0.28106        0.25929        0.30454        0.28553        0.27129        0.30708        0.31448        0.32273        0.28219        0.30307        0.28247        0.25417        0.24653        0.21971        0.28240        0.27746        0.32615        0.31209        0.31849        0.32002        0.31215        0.27674        0.29189        0.32753        0.26878        0.25926        0.29627        0.29109        0.33689        0.33138        0.34604        0.33131        0.30668        0.28128        0.27186        0.25505        0.22866        0.28024        0.30789        0.29621        0.28202        0.29525        0.27404        0.32801        0.32093        0.24972        0.21846        0.28163        0.32639        0.27374        0.31040        0.32523        0.32698        0.30878        0.31939        0.33953        0.30536        0.29112        0.25806        0.28986        0.35954        0.35881        0.26600        0.26377        0.25908        0.29655        0.22144        0.29097        0.22807        0.24761        0.33458        0.32205        0.34346        0.29506        0.24889        0.23883        0.24104        0.23002        0.20052        0.23496        0.27087        0.31081        0.25909        0.31128        0.31375        0.27303        0.26652        0.20914        0.16591        0.20010        0.22621        0.20695        0.21249        0.22865        0.19603        0.24836        0.34622        0.31160        0.32344        0.23449        0.22235        0.21884        0.28518        0.29116        0.13224        0.21693        0.23012        0.11216        0.19395        0.11181        0.14212        0.18801        0.09392       -0.12401       -0.57673
2.601387 2.574173 2.547107 2.520188 2.493418 2.466795 2.440319 2.413992 2.387812 2.361781 2.335897 2.310160 2.284572 2.259131 2.233838 2.208693 2.183696 2.158846 2.134145 2.109590 2.085184 2.060926 2.036815 2.012852 1.989037 1.965370 1.941850 1.918478 1.895254 1.872178 1.849250 1.826469 1.803836 1.781351 1.759014 1.736824 1.714782 1.692888 1.671142 1.649544 1.628093 1.606790 1.585635 1.564628 1.543768 1.523056 1.502492 1.482076 1.461808 1.441687 1.421714 1.641324 2.050268 1.622840 1.135615 0.993351 0.427706 0.814912 0.564070 0.836114 0.779618 0.791451 0.754352 0.713953 0.568334 0.519413 0.488480 0.442069 0.212385 0.382095 0.203234 0.310054 0.239637 0.183324 0.135827 0.011127 0.041384 -0.012552 -0.056650 0.106523 0.208694 0.194524 0.159027 0.328694 0.195275 0.492324 0.584153 0.558645 0.599210 0.875006 0.812233 0.941319 0.887873 0.976646 0.944580 1.077011 1.139384 1.066442 1.127209 0.943739 0.941740 0.781214 0.653218 0.772604 0.708118 0.467816 0.308887 0.251453 0.224091 0.147327 0.092157 0.129829 0.073896 0.143243 0.057527 0.261721 0.377626 0.351988 0.479945 0.572722 0.460193 0.556107 0.698544 0.739361 0.777996 0.725778 0.724383 0.708821 0.626844 0.564924 0.423218 0.286992 0.205239 0.077960 0.125957 -0.048797 -0.030943 -0.078040 -0.042875 -0.001884 0.146674 0.088216 0.290486 0.281558 0.361703 0.455999 0.519375 0.512905 0.515288 0.509406 0.331951 0.310036 0.278421 0.100193 0.044573 -0.017417 -0.025836 -0.042685 -0.089553 -0.105329 -0.002156 0.061469 0.129654 0.151896 0.226921 0.323860 0.315288 0.416769 0.395270 0.281350 0.233981 0.238543 0.190883 0.106538 0.075591 0.013931 0.003213 0.008522 -0.017767 0.063276 0.148394 0.144362 0.236449 0.252454 0.304937 0.249397 0.222205 0.181797 0.213485 0.136707 0.045786 0.031027 -0.009791 -0.010234 -0.034365 0.021528 0.016816 0.167459 0.132721 0.178622 0.239414 0.197164 0.183443 0.197292 0.142639 0.095667 0.056240 0.049316 -0.029003 0.006703 0.026914 0.055301 0.056592 0.081090 0.090069 0.118009 0.141420 0.194405 0.082958 0.100401 0.076888 0.008607 0.008997 0.008467 0.000580 0.020671 0.003393 0.026317 0.066562 0.084497 0.129991 0.053779 0.112204 0.057823 0.014793 0.062095 -0.033981 -0.011436 0.035692 0.003665 0.063375 0.050211 0.052806 0.071402 0.057390 0.042534 0.026372 0.009165 0.019359 0.009212 -0.012352 0.072292 -0.009139 0.019024 0.060487 0.055570 0.044622 0.047477 0.041353 0.019546 -0.007460 -0.034294 -0.011767 0.027758 0.035332 0.082984 0.058904 0.068395 0.086095 0.069175 0.035476 0.075039 0.089309 0.017645 0.021729 0.068099 0.054234 0.101579 0.107924 0.096186 0.123194 0.071428 0.040178 0.041690 -0.001296 0.009071 0.063128 0.082445 0.048766 0.040373 0.032966 0.023938 0.100396 0.053173 -0.043445 -0.046859 0.036837 0.089103 0.006087 0.027662 0.073071 0.082916 0.038666 0.056087 0.080173 0.041523 0.039255 -0.039731 0.033844 0.119270 0.080563 -0.048611 -0.024001 -0.040139 0.048830 -0.107378 0.036220 -0.089354 -0.034912 0.058569 0.046711 0.022992 -0.035736 -0.054022 -0.072940 -0.083513 -0.065528 -0.092959 -0.086230 -0.021629 0.059382 -0.039479 0.057989 0.005279 -0.041238 0.044659 -0.099942 -0.098796 -0.072146 -0.010418 -0.030346 -0.042677 0.016903 -0.009434 0.025305 0.210012 0.004385 0.176370 0.045170 0.227382 0.244002 0.322909 0.278122 0.096188 0.219649 0.273557 0.047105 0.213697 0.116972 0.124043 0.261414 0.096130 -0.599103
0.072396 0.072899 0.074406 0.076918 0.080433 0.084952 0.090472 0.096993 0.104511 0.113025 0.122531 0.133024 0.144499 0.156950 0.170369 0.184747 0.200072 0.216333 0.233514 0.251597 0.270564 0.290390 0.311050 0.332514 0.354750 0.377720 0.401383 0.425693 0.450599 0.476046 0.501972 0.528310 0.554988 0.581926 0.609040 0.636237 0.663420 0.690484 0.717316 0.743798 0.769805 0.795203 0.819855 0.843615 0.866332 0.887849 0.908004 0.926630 0.943556 0.958609 0.971612 0.982387 0.990757 0.996543 0.999572 0.999671 0.996675 0.990424 0.980768 0.967567 0.950693 0.930033 0.905491 0.876990 0.844472 0.807906 0.767282 0.722621 0.673974 0.621420 0.565077 0.505094 0.441660 0.375001 0.305382 0.233109 0.158528 0.082027 0.004030 0.074995 0.154547 0.234088 0.313047 0.390824 0.466792 0.540307 0.610706 0.677316 0.739464 0.796476 0.847695 0.892479 0.930218 0.960337 0.982309 0.995664 0.999995 0.994974 0.980356 0.955988 0.921821 0.877915 0.824444 0.761705 0.690120 0.610238 0.522738 0.428427 0.328235 0.223214 0.114527 0.003440 0.108692 0.220436 0.330302 0.436759 0.538259 0.633258 0.720239 0.797746 0.864400 0.918934 0.960221 0.987295 0.999383 0.995925 0.976599 0.941338 0.890346 0.824109 0.743403 0.649292 0.543125 0.426526 0.301375 0.169787 0.034078 0.103268 0.239642 0.372358 0.498708 0.616016 0.721696 0.813318 0.888663 0.945790 0.983088 0.999332 0.993728 0.965954 0.916192 0.845142 0.754032 0.644616 0.519149 0.380356 0.231384 0.075739 0.082789 0.240215 0.392455 0.535431 0.665187 0.778002 0.870502 0.939775 0.983471 0.999898 0.988094 0.947891 0.879952 0.785787 0.667737 0.528944 0.373275 0.205243 0.029874 0.147422 0.321023 0.485264 0.634628 0.763941 0.868554 0.944531 0.988810 0.999346 0.975223 0.916727 0.825386 0.703958 0.556374 0.387638 0.203679 0.011152 0.182784 0.370730 0.545328 0.699554 0.827012 0.922218 0.980853 0.999982 0.978228 0.915885 0.814961 0.679154 0.513748 0.325442 0.122099 0.087568 0.294345 0.488936 0.662368 0.806429 0.914071 0.979776 0.999877 0.972788 0.899149 0.781871 0.626063 0.438850 0.229085 0.006948 0.216522 0.429966 0.622292 0.783257 0.904035 0.977729 0.999804 0.968404 0.884532 0.752088 0.577735 0.370613 0.141901 0.095768 0.328976 0.544279 0.728992 0.871952 0.964226 0.999713 0.975590 0.892580 0.755011 0.570651 0.350327 0.107326 0.143367 0.385975 0.604927 0.785864 0.916610 0.988036 0.994742 0.935529 0.813590 0.636411 0.415384 0.165127 0.097447 0.354233 0.587201 0.779648 0.917449 0.990125 0.991707 0.921288 0.783221 0.586943 0.346384 0.079061 0.195170 0.455572 0.682085 0.856892 0.965879 0.999826 0.955260 0.834877 0.647479 0.407420 0.133570 0.152096 0.426264 0.666148 0.851435 0.966032 0.999541 0.948283 0.815775 0.612599 0.355658 0.066831 0.228819 0.505202 0.737509 0.904472 0.990372 0.986598 0.892611 0.716174 0.472830 0.184623 0.121828 0.417741 0.674875 0.868236 0.978588 0.994435 0.913327 0.742308 0.497425 0.202331 0.113908 0.419651 0.683811 0.879063 0.984730 0.989075 0.890707 0.698965 0.433156 0.120735 0.205468 0.510634 0.761687 0.930913 0.999123 0.957922 0.810881 0.573387 0.271163 0.062399 0.389870 0.673951 0.881773 0.988753 0.981632 0.860245 0.637814 0.339661 0.000445 0.339767 0.640228 0.864384 0.984423 0.984828 0.864537 0.637357 0.330559 0.018282 0.365774 0.668104 0.886561 0.992600 0.971697 0.825500 0.571933 0.243162 0.118348
1.000000 1.000000 1.000000 1.000000 1.000000 1.000000 1.000000 1.000000 1.000000 1.000000 1.000000 1.000000 1.000000 1.000000 1.000000 1.000000 1.000000 1.000000 1.000000 1.000000 1.000000 1.000000 1.000000 1.000000 1.000000 1.000000 1.000000 1.000000 1.000000 1.000000 1.000000 1.000000 1.000000 1.000000 1.000000 1.000000 1.000000 1.000000 1.000000 1.000000 1.000000 1.000000 1.000000 1.000000 1.000000 1.000000 1.000000 1.000000 1.000000 1.000000 1.000000 1.000000 0.929366 0.929366 0.929366 0.919218 0.919218 0.919218 0.919218 0.919218 0.919218 0.919218 0.919218 0.919218 0.919218 0.919218 0.919218 0.919218 0.919218 0.919218 0.919218 0.919218 0.919218 0.919218 0.919218 0.919218 0.919218 0.919218 0.919218 0.919218 0.919218 0.919218 0.919218 0.919218 0.919218 0.919218 0.919218 0.919218 0.919218 0.919218 0.919218 0.919218 0.919218 0.919218 0.919218 0.919218 0.949451 0.950706 0.958618 0.958465 0.957968 0.955888 0.954955 0.953841 0.953382 0.953659 0.954271 0.955112 0.963829 0.964912 0.966492 0.967328 0.968051 0.968702 0.968530 0.969234 0.968441 0.967881 0.967372 0.963417 0.964025 0.964583 0.964694 0.965722 0.965603 0.967544 0.967715 0.967110 0.966215 0.965457 0.964725 0.964292 0.964013 0.964521 0.964822 0.966138 0.969320 0.968761 0.968460 0.968618 0.968720 0.968907 0.969358 0.971069 0.967347 0.967954 0.966279 0.964114 0.968246 0.965436 0.965952 0.966472 0.967920 0.968149 0.966321 0.962788 0.956643 0.956143 0.952735 0.944267 0.942147 0.943061 0.945173 0.945592 0.944681 0.937756 0.938332 0.932804 0.933096 0.936366 0.932019 0.931726 0.932858 0.931726 0.929537 0.928878 0.926160 0.922352 0.919932 0.919759 0.922885 0.924076 0.925299 0.924975 0.919505 0.910698 0.895454 0.891181 0.885411 0.888718 0.877303 0.876654 0.876567 0.872759 0.876548 0.878430 0.879476 0.875411 0.856004 0.833696 0.823453 0.827374 0.833223 0.829436 0.828066 0.820996 0.833506 0.816551 0.829754 0.841289 0.835549 0.836105 0.835238 0.831580 0.824314 0.823475 0.825902 0.827326 0.826750 0.826910 0.821633 0.811295 0.814827 0.753643 0.739619 0.735497 0.741170 0.746676 0.747233 0.746025 0.754455 0.759462 0.754350 0.738868 0.731394 0.722477 0.727479 0.732160 0.737292 0.727058 0.709707 0.699980 0.662834 0.679653 0.704615 0.659629 0.683302 0.693658 0.687459 0.686778 0.679272 0.672721 0.664398 0.667583 0.679937 0.698664 0.717226 0.742316 0.736644 0.727164 0.727520 0.710430 0.702480 0.694661 0.701848 0.683719 0.678310 0.698385 0.698431 0.686154 0.670804 0.654527 0.642339 0.642254 0.648316 0.641892 0.640290 0.623079 0.592576 0.586329 0.623948 0.640583 0.658987 0.629251 0.614670 0.606458 0.580245 0.595591 0.545083 0.544995 0.567663 0.574587 0.550710 0.532393 0.541317 0.559991 0.569498 0.561658 0.533978 0.521104 0.534647 0.561792 0.553305 0.527189 0.534614 0.532435 0.528928 0.468012 0.468091 0.437685 0.409988 0.352670 0.327844 0.323756 0.309843 0.304671 0.273173 0.269107 0.278789 0.289245 0.295775 0.295623 0.277372 0.286592 0.279941 0.267215 0.208789 0.198546 0.190200 0.180136 0.180842 0.159231 0.178782 0.236553 0.238543 0.238543 0.238543 0.238543 0.238543 0.238543 0.248997 0.248997 0.248997 0.248997 0.248997 0.248997 0.248997 0.248997 0.248997 0.259138 0.259138 0.259138 0.259138 0.259138 0.259138 0.259138 0.259138 0.259138 0.259138 0.259138 0.259138 0.259138 0.259138
0.000000 0.000000 0.000000 0.000000 0.000000 0.000000 0.000000 0.000000 0.000000 0.000000 0.000000 0.000000 0.000000 0.000000 0.000000 0.000000 0.000000 0.000000 0.000000 0.000000 0.000000 0.000000 0.000000 0.000000 0.000000 0.000000 0.000000 0.000000 0.000000 0.000000 0.000000 0.000000 0.000000 0.000000 0.000000 0.000000 0.000000 0.000000 0.000000 0.000000 0.000000 0.000000 0.000000 0.000000 0.000000 0.000000 0.000000 0.000000 0.000000 0.000000 0.000000 0.000000 0.180334 0.180334 0.180334 0.199007 0.199007 0.199007 0.199007 0.199007 0.199007 0.199007 0.199007 0.199007 0.199007 0.199007 0.199007 0.199007 0.199007 0.199007 0.199007 0.199007 0.199007 0.199007 0.199007 0.199007 0.199007 0.199007 0.199007 0.199007 0.199007 0.199007 0.199007 0.199007 0.199007 0.199007 0.199007 0.199007 0.199007 0.199007 0.199007 0.199007 0.199007 0.199007 0.199007 0.199007 0.225018 0.225018 0.225018 0.225018 0.225018 0.225018 0.225018 0.225018 0.225018 0.225018 0.225018 0.225018 0.225018 0.225018 0.225018 0.225018 0.225018 0.225018 0.225018 0.225018 0.225018 0.225018 0.225018 0.225018 0.225018 0.225018 0.225018 0.225018 0.225018 0.244339 0.244339 0.244339 0.244339 0.244339 0.244339 0.244339 0.244339 0.244339 0.244339 0.244339 0.244339 0.244339 0.244339 0.244339 0.244339 0.244339 0.244339 0.244339 0.244339 0.244339 0.244339 0.244339 0.251976 0.251976 0.251976 0.251976 0.251976 0.251976 0.251976 0.251976 0.251976 0.251976 0.251976 0.251976 0.251976 0.251976 0.251976 0.251976 0.251976 0.251976 0.251976 0.251976 0.264906 0.264906 0.264906 0.264906 0.264906 0.264906 0.264906 0.264906 0.264906 0.264906 0.264906 0.264906 0.264906 0.264906 0.264906 0.264906 0.264906 0.264906 0.264906 0.264906 0.264906 0.264906 0.264906 0.264906 0.264906 0.264906 0.264906 0.264906 0.264906 0.264906 0.264906 0.264906 0.264906 0.264906 0.264906 0.264906 0.264906 0.264906 0.264906 0.264906 0.264906 0.264906 0.264906 0.264906 0.264906 0.264906 0.264906 0.264906 0.264906 0.264906 0.264906 0.264906 0.264906 0.264906 0.264906 0.264906 0.264906 0.264906 0.264906 0.264906 0.264906 0.264906 0.256074 0.256074 0.256074 0.256074 0.256074 0.256074 0.256074 0.256074 0.256074 0.256074 0.256074 0.256074 0.256074 0.256074 0.269680 0.269680 0.269680 0.269680 0.269680 0.269680 0.269680 0.269680 0.269680 0.269680 0.269680 0.269680 0.264906 0.264906 0.264906 0.264906 0.264906 0.264906 0.264906 0.264906 0.264906 0.264906 0.264906 0.264906 0.269680 0.269680 0.269680 0.269680 0.269680 0.269680 0.269680 0.269680 0.269680 0.269680 0.269680 0.264906 0.264906 0.264906 0.264906 0.264906 0.264906 0.264906 0.264906 0.264906 0.264906 0.264906 0.256074 0.256074 0.256074 0.256074 0.256074 0.256074 0.256074 0.256074 0.256074 0.256074 0.256074 0.264906 0.264906 0.264906 0.264906 0.264906 0.264906 0.264906 0.264906 0.264906 0.264906 0.260378 0.260378 0.260378 0.260378 0.260378 0.260378 0.260378 0.260378 0.260378 0.260378 0.256074 0.256074 0.256074 0.256074 0.256074 0.256074 0.256074 0.256074 0.256074 0.256074 0.260378 0.260378 0.260378 0.260378 0.260378 0.260378 0.260378 0.260378 0.260378 0.256074 0.256074 0.256074 0.256074 0.256074 0.256074 0.256074 0.256074 0.256074 0.251976 0.251976 0.251976 0.251976 0.251976 0.251976 0.251976 0.251976 0.251976 0.251976 0.251976 0.251976 0.251976 0.251976
