# Output from CTFFind version 4.1.9, run on 2019-11-02 17:46:39
# Input file: stack6_bm3d_averaged_1_0.75_0_1250_half.mrc ; Number of micrographs: 1
# Pixel size: 3.000 Angstroms ; acceleration voltage: 300.0 keV ; spherical aberration: 0.00 mm ; amplitude contrast: 0.07
# Box size: 512 pixels ; min. res.: 30.0 Angstroms ; max. res.: 5.0 Angstroms ; min. def.: 5000.0 um; max. def. 50000.0 um; num. frames averaged: 1
# 6 lines per micrograph: #1 - spatial frequency (1/Angstroms); #2 - 1D rotational average of spectrum (assuming no astigmatism); #3 - 1D rotational average of spectrum; #4 - CTF fit; #5 - cross-correlation between spectrum and CTF fit; #6 - 2sigma of expected cross correlation of noise
0.000000 0.000651 0.001302 0.001953 0.002604 0.003255 0.003906 0.004557 0.005208 0.005859 0.006510 0.007161 0.007812 0.008464 0.009115 0.009766 0.010417 0.011068 0.011719 0.012370 0.013021 0.013672 0.014323 0.014974 0.015625 0.016276 0.016927 0.017578 0.018229 0.018880 0.019531 0.020182 0.020833 0.021484 0.022135 0.022786 0.023438 0.024089 0.024740 0.025391 0.026042 0.026693 0.027344 0.027995 0.028646 0.029297 0.029948 0.030599 0.031250 0.031901 0.032552 0.033203 0.033854 0.034505 0.035156 0.035807 0.036458 0.037109 0.037760 0.038411 0.039062 0.039714 0.040365 0.041016 0.041667 0.042318 0.042969 0.043620 0.044271 0.044922 0.045573 0.046224 0.046875 0.047526 0.048177 0.048828 0.049479 0.050130 0.050781 0.051432 0.052083 0.052734 0.053385 0.054036 0.054688 0.055339 0.055990 0.056641 0.057292 0.057943 0.058594 0.059245 0.059896 0.060547 0.061198 0.061849 0.062500 0.063151 0.063802 0.064453 0.065104 0.065755 0.066406 0.067057 0.067708 0.068359 0.069010 0.069661 0.070312 0.070964 0.071615 0.072266 0.072917 0.073568 0.074219 0.074870 0.075521 0.076172 0.076823 0.077474 0.078125 0.078776 0.079427 0.080078 0.080729 0.081380 0.082031 0.082682 0.083333 0.083984 0.084635 0.085286 0.085938 0.086589 0.087240 0.087891 0.088542 0.089193 0.089844 0.090495 0.091146 0.091797 0.092448 0.093099 0.093750 0.094401 0.095052 0.095703 0.096354 0.097005 0.097656 0.098307 0.098958 0.099609 0.100260 0.100911 0.101562 0.102214 0.102865 0.103516 0.104167 0.104818 0.105469 0.106120 0.106771 0.107422 0.108073 0.108724 0.109375 0.110026 0.110677 0.111328 0.111979 0.112630 0.113281 0.113932 0.114583 0.115234 0.115885 0.116536 0.117188 0.117839 0.118490 0.119141 0.119792 0.120443 0.121094 0.121745 0.122396 0.123047 0.123698 0.124349 0.125000 0.125651 0.126302 0.126953 0.127604 0.128255 0.128906 0.129557 0.130208 0.130859 0.131510 0.132161 0.132812 0.133464 0.134115 0.134766 0.135417 0.136068 0.136719 0.137370 0.138021 0.138672 0.139323 0.139974 0.140625 0.141276 0.141927 0.142578 0.143229 0.143880 0.144531 0.145182 0.145833 0.146484 0.147135 0.147786 0.148438 0.149089 0.149740 0.150391 0.151042 0.151693 0.152344 0.152995 0.153646 0.154297 0.154948 0.155599 0.156250 0.156901 0.157552 0.158203 0.158854 0.159505 0.160156 0.160807 0.161458 0.162109 0.162760 0.163411 0.164062 0.164714 0.165365 0.166016 0.166667 0.167318 0.167969 0.168620 0.169271 0.169922 0.170573 0.171224 0.171875 0.172526 0.173177 0.173828 0.174479 0.175130 0.175781 0.176432 0.177083 0.177734 0.178385 0.179036 0.179688 0.180339 0.180990 0.181641 0.182292 0.182943 0.183594 0.184245 0.184896 0.185547 0.186198 0.186849 0.187500 0.188151 0.188802 0.189453 0.190104 0.190755 0.191406 0.192057 0.192708 0.193359 0.194010 0.194661 0.195312 0.195964 0.196615 0.197266 0.197917 0.198568 0.199219 0.199870 0.200521 0.201172 0.201823 0.202474 0.203125 0.203776 0.204427 0.205078 0.205729 0.206380 0.207031 0.207682 0.208333 0.208984 0.209635 0.210286 0.210938 0.211589 0.212240 0.212891 0.213542 0.214193 0.214844 0.215495 0.216146 0.216797 0.217448 0.218099 0.218750 0.219401 0.220052 0.220703 0.221354 0.222005 0.222656 0.223307 0.223958 0.224609 0.225260 0.225911 0.226562 0.227214 0.227865 0.228516 0.229167 0.229818 0.230469 0.231120 0.231771 0.232422 0.233073 0.233724 0.234375 0.235026 0.235677
       0.31225        0.31225        0.31225        0.31225        0.31225        0.31225        0.31225        0.31225        0.31225        0.31225        0.31225        0.31225        0.31225        0.31225        0.31225        0.31225        0.31225        0.31225        0.31225        0.31225        0.31225        0.31225        0.31225        0.31225        0.31225        0.31225        0.31225        0.31225        0.31225        0.31225        0.31225        0.31225        0.31225        0.31225        0.31225        0.31225        0.31225        0.31225        0.31225        0.31225        0.31225        0.31225        0.31225        0.31225        0.31225        0.31225        0.31225        0.31225        0.31225        0.31225        0.31225        0.63535        0.81951        0.41763        0.31245        0.18988       -0.10481        0.11291       -0.00178        0.03472        0.11796        0.33627        0.42481        0.40622        0.22566       -0.01089        0.04866        0.07175       -0.16740       -0.17855       -0.08603       -0.10722       -0.29188       -0.18723       -0.30175       -0.25640       -0.28472       -0.40135       -0.47512       -0.47682       -0.42027       -0.33721       -0.43783       -0.36718       -0.40831       -0.34820       -0.27369       -0.19903       -0.19267       -0.13416       -0.09192        0.03889        0.08491        0.25129        0.28195        0.37131        0.40337        0.51945        0.59036        0.60846        0.74147        0.70114        0.74184        0.65097        0.66593        0.69756        0.63463        0.61580        0.60913        0.43633        0.39887        0.35858        0.32490        0.22309        0.13220        0.06090        0.05810        0.00050       -0.07844       -0.02984       -0.03083       -0.06940        0.06384        0.16472        0.25573        0.32234        0.33681        0.43231        0.54835        0.59463        0.54470        0.67264        0.56631        0.54276        0.59963        0.64115        0.53280        0.46090        0.40772        0.37632        0.25029        0.21455        0.13254        0.11622        0.05541        0.05844        0.10946        0.16847        0.14635        0.18097        0.21963        0.24008        0.33257        0.45760        0.49351        0.49807        0.52139        0.57906        0.57206        0.52311        0.42511        0.38520        0.36803        0.27112        0.24729        0.21505        0.20665        0.20344        0.18172        0.15989        0.12694        0.19132        0.24949        0.34856        0.38404        0.40738        0.46404        0.53664        0.47697        0.48478        0.42393        0.40262        0.38400        0.36389        0.29006        0.25810        0.20005        0.23393        0.21732        0.19287        0.21951        0.22515        0.24178        0.30047        0.40180        0.40211        0.37309        0.39006        0.45541        0.48514        0.42890        0.35469        0.32568        0.27878        0.26296        0.24864        0.21419        0.28474        0.29364        0.29560        0.31637        0.31136        0.34978        0.37514        0.37343        0.37452        0.35716        0.31856        0.33458        0.31872        0.29733        0.28280        0.27192        0.21739        0.27279        0.27419        0.30280        0.32150        0.34517        0.37782        0.34037        0.32038        0.36175        0.36911        0.26689        0.29507        0.30705        0.24508        0.21089        0.26037        0.27304        0.27691        0.30059        0.30703        0.33555        0.33622        0.36248        0.32736        0.32261        0.30971        0.29473        0.27531        0.25026        0.25486        0.25924        0.27755        0.30020        0.29627        0.30076        0.31488        0.32820        0.26434        0.30417        0.26947        0.26200        0.27810        0.26423        0.26238        0.26663        0.31257        0.28653        0.31603        0.28710        0.27514        0.30966        0.31069        0.33052        0.31519        0.29288        0.25248        0.26435        0.27020        0.26395        0.31231        0.31676        0.33805        0.32288        0.31077        0.25837        0.28175        0.21114        0.20581        0.24798        0.25940        0.25677        0.28743        0.31378        0.29823        0.35093        0.30959        0.26328        0.23515        0.23651        0.29166        0.31217        0.30547        0.26805        0.27998        0.25934        0.32129        0.28365        0.25304        0.26534        0.25364        0.28904        0.25123        0.29036        0.33008        0.29076        0.21771        0.23605        0.28551        0.32264        0.26943        0.26349        0.24116        0.28014        0.29198        0.37844        0.29254        0.27485        0.25594        0.25658        0.22020        0.18136        0.25045        0.22452        0.20592        0.18753        0.19513        0.23965        0.22448        0.23791        0.19345        0.25687        0.22876        0.20801        0.17835        0.16310        0.19557        0.23716        0.14263        0.06603        0.20463        0.19824        0.15164        0.24541        0.15205        0.22359        0.21194       -0.05862       -0.48882       -0.98015
2.847918 2.819891 2.792007 2.764268 2.736673 2.709223 2.681916 2.654754 2.627736 2.600863 2.574133 2.547548 2.521107 2.494810 2.468658 2.442649 2.416785 2.391066 2.365490 2.340059 2.314771 2.289628 2.264630 2.239775 2.215065 2.190499 2.166077 2.141800 2.117666 2.093677 2.069833 2.046132 2.022576 1.999163 1.975895 1.952772 1.929792 1.906957 1.884266 1.861719 1.839316 1.817058 1.794944 1.772974 1.751148 1.729467 1.707930 1.686537 1.665288 1.644184 1.623223 1.918247 2.273115 1.698656 1.739272 1.381106 0.941816 1.199077 1.021971 1.073423 1.029469 1.489509 1.516979 1.541214 1.279201 0.942332 0.824321 1.009275 0.715819 0.490405 0.587767 0.678345 0.421487 0.489738 0.325280 0.368617 0.247360 0.160948 -0.035956 0.003025 0.026269 0.082465 0.039897 0.074899 -0.040216 0.028933 0.113245 0.224824 0.285842 0.210028 0.321887 0.551570 0.451616 0.727169 0.791948 0.878580 0.907659 1.119567 1.141795 1.174223 1.325384 1.235178 1.369130 1.195480 1.111697 1.295820 1.144012 1.051678 1.125460 0.886938 0.739651 0.678680 0.672762 0.458889 0.393671 0.259156 0.227556 0.091608 -0.006654 0.088656 0.026773 -0.064273 0.113873 0.253624 0.306080 0.465889 0.485405 0.555997 0.723135 0.822870 0.662313 0.960691 0.802795 0.663121 0.766047 0.800159 0.711899 0.638167 0.448566 0.500050 0.281523 0.191005 0.141022 0.006188 -0.019310 -0.108115 -0.015421 0.026396 0.089460 -0.049199 0.251927 0.096707 0.207535 0.375696 0.438509 0.528883 0.434845 0.568034 0.648983 0.507384 0.389178 0.334407 0.322661 0.148021 0.138595 0.012065 0.092019 0.028690 -0.000431 -0.027121 -0.119820 -0.010581 0.020896 0.109564 0.296154 0.201667 0.355849 0.372422 0.423579 0.418749 0.389941 0.329058 0.229123 0.303949 0.166292 0.156319 0.007047 0.046816 0.063820 -0.024069 -0.007827 0.017367 0.059765 0.072676 0.215361 0.306776 0.242445 0.207976 0.375814 0.406029 0.351837 0.243979 0.174715 0.147286 0.082328 0.074889 0.025012 0.021236 0.134752 0.053984 0.185257 0.090141 0.141402 0.233197 0.214928 0.235296 0.198461 0.197416 0.117628 0.163864 0.121853 0.095424 0.109377 -0.001844 0.031235 0.087982 0.049273 0.147537 0.120908 0.210252 0.205564 0.136395 0.130592 0.231780 0.118311 0.072388 0.085598 0.061988 -0.001525 -0.027817 0.047469 0.070531 0.032608 0.116331 0.112002 0.123925 0.132851 0.177988 0.118806 0.082079 0.101880 0.083212 0.024573 0.014013 0.033110 0.001513 0.071207 0.103236 0.063763 0.069192 0.131237 0.093890 0.015275 0.113031 0.024501 0.028505 0.060976 0.018840 0.015048 0.061923 0.085889 0.026914 0.109367 0.052271 0.031463 0.111952 0.071913 0.090325 0.089625 0.019478 -0.009776 -0.001468 0.039566 0.005589 0.068973 0.095284 0.093146 0.059192 0.137019 -0.013910 0.031698 -0.094377 -0.019512 -0.035101 0.006255 0.018634 0.030098 0.075899 0.081336 0.104701 0.011583 -0.021184 -0.064630 -0.079809 0.071495 0.044298 0.049077 -0.020167 -0.001477 -0.035421 0.060985 0.015545 -0.065217 -0.019633 -0.079546 0.024617 -0.045396 0.027561 0.065771 -0.013351 -0.076722 -0.045508 0.095098 0.044134 0.002140 0.001571 -0.054285 0.082327 0.075676 0.175863 0.047587 0.016508 0.031215 0.047254 -0.050077 -0.041541 0.059292 0.012334 -0.026461 -0.036916 -0.036455 0.094399 -0.050809 0.070508 0.000934 0.127240 -0.005712 0.061425 -0.085816 -0.026636 -0.041760 0.103831 -0.029790 -0.196017 0.294909 0.282784 0.214611 0.409755 0.185743 0.291329 0.351989 -0.080284 -1.368761
0.072396 0.072834 0.074148 0.076338 0.079404 0.083344 0.088157 0.093844 0.100401 0.107827 0.116120 0.125277 0.135293 0.146165 0.157886 0.170451 0.183852 0.198079 0.213124 0.228973 0.245614 0.263030 0.281204 0.300116 0.319743 0.340060 0.361039 0.382648 0.404854 0.427617 0.450897 0.474647 0.498819 0.523357 0.548203 0.573295 0.598564 0.623937 0.649338 0.674683 0.699883 0.724847 0.749475 0.773664 0.797305 0.820285 0.842485 0.863782 0.884049 0.903154 0.920963 0.937337 0.952136 0.965216 0.976433 0.985643 0.992701 0.997462 0.999785 0.999531 0.996565 0.990759 0.981989 0.970141 0.955110 0.936800 0.915130 0.890030 0.861448 0.829348 0.793711 0.754541 0.711860 0.665717 0.616183 0.563356 0.507359 0.448346 0.386499 0.322030 0.255181 0.186225 0.115465 0.043236 0.030098 0.104144 0.178481 0.252661 0.326214 0.398646 0.469446 0.538086 0.604027 0.666722 0.725623 0.780180 0.829855 0.874119 0.912466 0.944412 0.969506 0.987338 0.997541 0.999802 0.993865 0.979541 0.956714 0.925341 0.885468 0.837223 0.780830 0.716605 0.644962 0.566412 0.481565 0.391127 0.295895 0.196759 0.094689 0.009267 0.113996 0.218327 0.321046 0.420908 0.516653 0.607021 0.690771 0.766697 0.833651 0.890557 0.936436 0.970421 0.991780 0.999929 0.994454 0.975124 0.941901 0.894957 0.834676 0.761664 0.676744 0.580959 0.475562 0.362008 0.241936 0.117152 0.010395 0.138643 0.265444 0.388604 0.505920 0.615214 0.714385 0.801447 0.874574 0.932141 0.972766 0.995354 0.999121 0.983635 0.948833 0.895042 0.822989 0.733802 0.629004 0.510498 0.380538 0.241695 0.096817 0.051030 0.198624 0.342646 0.479767 0.606718 0.720372 0.817831 0.896499 0.954164 0.989066 0.999961 0.986175 0.947638 0.884916 0.799219 0.692390 0.566883 0.425724 0.272440 0.110986 0.054350 0.219055 0.378517 0.528150 0.663529 0.780527 0.875452 0.945169 0.987217 0.999910 0.982416 0.934814 0.858122 0.754301 0.626224 0.477610 0.312938 0.137325 0.043630 0.224008 0.397771 0.558956 0.701887 0.821387 0.912973 0.973040 0.999019 0.989504 0.944345 0.864688 0.752983 0.612927 0.449369 0.268155 0.075945 0.120029 0.312226 0.493083 0.655317 0.792230 0.897992 0.967914 0.998673 0.988493 0.937266 0.846609 0.719846 0.561917 0.379211 0.179333 0.029202 0.237314 0.435750 0.615501 0.768216 0.886607 0.964816 0.998731 0.986228 0.927333 0.824277 0.681453 0.505266 0.303872 0.086831 0.135333 0.351638 0.551173 0.723663 0.860016 0.952817 0.996766 0.989010 0.929363 0.820386 0.667324 0.477894 0.261931 0.030906 0.202666 0.425893 0.626219 0.792150 0.913915 0.984096 0.998099 0.954502 0.855216 0.705459 0.513532 0.290396 0.049088 0.196025 0.430088 0.638660 0.808619 0.929009 0.991785 0.992394 0.930151 0.808373 0.634274 0.418573 0.174896 0.081065 0.332527 0.562735 0.756063 0.899116 0.981680 0.997515 0.944865 0.826691 0.650576 0.428296 0.175083 0.091377 0.352158 0.588438 0.782864 0.920853 0.991736 0.989633 0.914001 0.769792 0.567212 0.321049 0.049660 0.226375 0.485789 0.708280 0.876108 0.975565 0.998146 0.941341 0.808968 0.611008 0.362912 0.084471 0.201731 0.472128 0.704103 0.877916 0.978427 0.996474 0.929785 0.783315 0.568971 0.304724 0.013167 0.280382 0.550058 0.771726 0.925196 0.996098 0.977321 0.869792 0.682568 0.432155 0.141141 0.163789 0.454273 0.702895 0.885812 0.985091 0.990542 0.900855 0.723901 0.476145 0.181206 0.132328 0.433637 0.692691 0.883264
1.000000 1.000000 1.000000 1.000000 1.000000 1.000000 1.000000 1.000000 1.000000 1.000000 1.000000 1.000000 1.000000 1.000000 1.000000 1.000000 1.000000 1.000000 1.000000 1.000000 1.000000 1.000000 1.000000 1.000000 1.000000 1.000000 1.000000 1.000000 1.000000 1.000000 1.000000 1.000000 1.000000 1.000000 1.000000 1.000000 1.000000 1.000000 1.000000 1.000000 1.000000 1.000000 1.000000 1.000000 1.000000 1.000000 1.000000 1.000000 1.000000 1.000000 1.000000 1.000000 0.831905 0.831905 0.831905 0.831905 0.831905 0.831905 0.831905 0.813703 0.813703 0.813703 0.813703 0.813703 0.813703 0.813703 0.813703 0.813703 0.813703 0.813703 0.813703 0.813703 0.813703 0.813703 0.813703 0.813703 0.813703 0.813703 0.813703 0.813703 0.813703 0.813703 0.813703 0.813703 0.813703 0.813703 0.813703 0.813703 0.813703 0.813703 0.813703 0.813703 0.813703 0.813703 0.813703 0.813703 0.813703 0.813703 0.813703 0.813703 0.813703 0.813703 0.813703 0.954430 0.955049 0.947397 0.946283 0.944546 0.941308 0.936890 0.936437 0.937793 0.938000 0.938632 0.940048 0.941100 0.942801 0.943879 0.944755 0.945598 0.953672 0.957312 0.956945 0.956534 0.947154 0.953858 0.951777 0.949493 0.950418 0.950767 0.951493 0.951329 0.951140 0.950621 0.948889 0.949721 0.949535 0.948697 0.947516 0.945099 0.944986 0.944480 0.944624 0.945659 0.946406 0.947142 0.947738 0.947744 0.947966 0.947946 0.947827 0.942915 0.942950 0.936334 0.937011 0.938052 0.937564 0.936262 0.934636 0.934703 0.934571 0.934499 0.934344 0.934579 0.915369 0.914736 0.914770 0.914954 0.907502 0.896395 0.888870 0.882450 0.883495 0.887908 0.893200 0.893761 0.890763 0.889697 0.873160 0.876270 0.862884 0.859881 0.848799 0.859345 0.860422 0.861675 0.855344 0.854692 0.853289 0.851308 0.842627 0.846972 0.847586 0.843658 0.840027 0.838178 0.836393 0.838586 0.847303 0.844139 0.840244 0.842358 0.830844 0.821506 0.820439 0.822733 0.830713 0.842965 0.842708 0.842020 0.835175 0.831483 0.825038 0.818865 0.817356 0.819004 0.817026 0.820655 0.819656 0.827313 0.817432 0.812714 0.817943 0.828025 0.833731 0.836492 0.839321 0.837530 0.836738 0.820237 0.820981 0.819941 0.770423 0.771835 0.761174 0.761028 0.748577 0.746507 0.742442 0.739903 0.732465 0.717404 0.729304 0.725372 0.704766 0.712014 0.706875 0.694973 0.670713 0.677207 0.691329 0.700167 0.699541 0.701083 0.690241 0.689195 0.699502 0.699294 0.705242 0.698699 0.695687 0.688919 0.691569 0.681890 0.679237 0.676529 0.675635 0.676149 0.672240 0.661409 0.669454 0.664593 0.657563 0.648206 0.603186 0.567236 0.549322 0.542169 0.524710 0.500638 0.516751 0.524521 0.505418 0.495607 0.475210 0.437425 0.429771 0.428207 0.406090 0.392928 0.372245 0.333794 0.342074 0.343272 0.346692 0.332288 0.332805 0.318933 0.272691 0.264552 0.227194 0.245269 0.261524 0.251170 0.228998 0.228259 0.239653 0.236973 0.246121 0.244471 0.260802 0.214511 0.158143 0.171199 0.167790 0.177678 0.160691 0.133534 0.161003 0.152464 0.164096 0.167382 0.123284 0.092935 0.072331 0.051541 0.056665 0.081368 0.097130 0.089743 0.066112 -0.025588 0.007695 0.037325 0.037325 0.037325 0.037325 0.037325 0.037325 0.037325 0.037325 0.037325 0.037325 0.037325 -0.030304 -0.030304 -0.030304 -0.030304 -0.030304 -0.030304 -0.030304 -0.030304 -0.030304 -0.030304 -0.030304 -0.030304 -0.030304 -0.030304 -0.030304 -0.030304 -0.030304 -0.030304 -0.030304
0.000000 0.000000 0.000000 0.000000 0.000000 0.000000 0.000000 0.000000 0.000000 0.000000 0.000000 0.000000 0.000000 0.000000 0.000000 0.000000 0.000000 0.000000 0.000000 0.000000 0.000000 0.000000 0.000000 0.000000 0.000000 0.000000 0.000000 0.000000 0.000000 0.000000 0.000000 0.000000 0.000000 0.000000 0.000000 0.000000 0.000000 0.000000 0.000000 0.000000 0.000000 0.000000 0.000000 0.000000 0.000000 0.000000 0.000000 0.000000 0.000000 0.000000 0.000000 0.000000 0.173422 0.173422 0.173422 0.173422 0.173422 0.173422 0.173422 0.191565 0.191565 0.191565 0.191565 0.191565 0.191565 0.191565 0.191565 0.191565 0.191565 0.191565 0.191565 0.191565 0.191565 0.191565 0.191565 0.191565 0.191565 0.191565 0.191565 0.191565 0.191565 0.191565 0.191565 0.191565 0.191565 0.191565 0.191565 0.191565 0.191565 0.191565 0.191565 0.191565 0.191565 0.191565 0.191565 0.191565 0.191565 0.191565 0.191565 0.191565 0.191565 0.191565 0.191565 0.219529 0.219529 0.219529 0.219529 0.219529 0.219529 0.219529 0.219529 0.219529 0.219529 0.219529 0.219529 0.219529 0.219529 0.219529 0.219529 0.219529 0.219529 0.219529 0.219529 0.219529 0.219529 0.219529 0.219529 0.219529 0.219529 0.219529 0.219529 0.219529 0.219529 0.219529 0.237356 0.237356 0.237356 0.237356 0.237356 0.237356 0.237356 0.237356 0.237356 0.237356 0.237356 0.237356 0.237356 0.237356 0.237356 0.237356 0.237356 0.237356 0.237356 0.237356 0.237356 0.237356 0.237356 0.237356 0.244339 0.244339 0.244339 0.244339 0.244339 0.244339 0.244339 0.244339 0.244339 0.244339 0.244339 0.244339 0.244339 0.244339 0.244339 0.244339 0.244339 0.244339 0.244339 0.244339 0.244339 0.248069 0.248069 0.248069 0.248069 0.248069 0.248069 0.248069 0.248069 0.248069 0.248069 0.248069 0.248069 0.248069 0.248069 0.248069 0.248069 0.248069 0.248069 0.248069 0.248069 0.248069 0.248069 0.248069 0.248069 0.248069 0.248069 0.248069 0.248069 0.248069 0.248069 0.248069 0.248069 0.248069 0.248069 0.248069 0.248069 0.248069 0.256074 0.256074 0.256074 0.256074 0.256074 0.256074 0.256074 0.256074 0.256074 0.256074 0.256074 0.256074 0.256074 0.256074 0.256074 0.256074 0.256074 0.256074 0.256074 0.256074 0.256074 0.256074 0.256074 0.256074 0.256074 0.256074 0.256074 0.256074 0.256074 0.256074 0.256074 0.256074 0.256074 0.256074 0.256074 0.256074 0.256074 0.256074 0.256074 0.256074 0.256074 0.256074 0.256074 0.256074 0.256074 0.260378 0.260378 0.260378 0.260378 0.260378 0.260378 0.260378 0.260378 0.260378 0.260378 0.260378 0.260378 0.260378 0.256074 0.256074 0.256074 0.256074 0.256074 0.256074 0.256074 0.256074 0.256074 0.256074 0.256074 0.256074 0.256074 0.260378 0.260378 0.260378 0.260378 0.260378 0.260378 0.260378 0.260378 0.260378 0.260378 0.260378 0.260378 0.251976 0.251976 0.251976 0.251976 0.251976 0.251976 0.251976 0.251976 0.251976 0.251976 0.251976 0.251976 0.256074 0.256074 0.256074 0.256074 0.256074 0.256074 0.256074 0.256074 0.256074 0.256074 0.256074 0.251976 0.251976 0.251976 0.251976 0.251976 0.251976 0.251976 0.251976 0.251976 0.251976 0.251976 0.248069 0.248069 0.248069 0.248069 0.248069 0.248069 0.248069 0.248069 0.248069 0.248069 0.248069 0.256074 0.256074 0.256074 0.256074 0.256074 0.256074 0.256074 0.256074 0.256074 0.256074 0.256074 0.256074 0.256074 0.256074 0.256074 0.256074 0.256074 0.256074 0.256074
