# Output from CTFFind version 4.1.9, run on 2019-11-03 19:42:33
# Input file: stack16_bm3d_averaged_1_4.75_0_2000_half.mrc ; Number of micrographs: 1
# Pixel size: 3.000 Angstroms ; acceleration voltage: 300.0 keV ; spherical aberration: 0.00 mm ; amplitude contrast: 0.07
# Box size: 512 pixels ; min. res.: 30.0 Angstroms ; max. res.: 5.0 Angstroms ; min. def.: 5000.0 um; max. def. 50000.0 um; num. frames averaged: 1
# 6 lines per micrograph: #1 - spatial frequency (1/Angstroms); #2 - 1D rotational average of spectrum (assuming no astigmatism); #3 - 1D rotational average of spectrum; #4 - CTF fit; #5 - cross-correlation between spectrum and CTF fit; #6 - 2sigma of expected cross correlation of noise
0.000000 0.000651 0.001302 0.001953 0.002604 0.003255 0.003906 0.004557 0.005208 0.005859 0.006510 0.007161 0.007812 0.008464 0.009115 0.009766 0.010417 0.011068 0.011719 0.012370 0.013021 0.013672 0.014323 0.014974 0.015625 0.016276 0.016927 0.017578 0.018229 0.018880 0.019531 0.020182 0.020833 0.021484 0.022135 0.022786 0.023438 0.024089 0.024740 0.025391 0.026042 0.026693 0.027344 0.027995 0.028646 0.029297 0.029948 0.030599 0.031250 0.031901 0.032552 0.033203 0.033854 0.034505 0.035156 0.035807 0.036458 0.037109 0.037760 0.038411 0.039062 0.039714 0.040365 0.041016 0.041667 0.042318 0.042969 0.043620 0.044271 0.044922 0.045573 0.046224 0.046875 0.047526 0.048177 0.048828 0.049479 0.050130 0.050781 0.051432 0.052083 0.052734 0.053385 0.054036 0.054688 0.055339 0.055990 0.056641 0.057292 0.057943 0.058594 0.059245 0.059896 0.060547 0.061198 0.061849 0.062500 0.063151 0.063802 0.064453 0.065104 0.065755 0.066406 0.067057 0.067708 0.068359 0.069010 0.069661 0.070312 0.070964 0.071615 0.072266 0.072917 0.073568 0.074219 0.074870 0.075521 0.076172 0.076823 0.077474 0.078125 0.078776 0.079427 0.080078 0.080729 0.081380 0.082031 0.082682 0.083333 0.083984 0.084635 0.085286 0.085938 0.086589 0.087240 0.087891 0.088542 0.089193 0.089844 0.090495 0.091146 0.091797 0.092448 0.093099 0.093750 0.094401 0.095052 0.095703 0.096354 0.097005 0.097656 0.098307 0.098958 0.099609 0.100260 0.100911 0.101562 0.102214 0.102865 0.103516 0.104167 0.104818 0.105469 0.106120 0.106771 0.107422 0.108073 0.108724 0.109375 0.110026 0.110677 0.111328 0.111979 0.112630 0.113281 0.113932 0.114583 0.115234 0.115885 0.116536 0.117188 0.117839 0.118490 0.119141 0.119792 0.120443 0.121094 0.121745 0.122396 0.123047 0.123698 0.124349 0.125000 0.125651 0.126302 0.126953 0.127604 0.128255 0.128906 0.129557 0.130208 0.130859 0.131510 0.132161 0.132812 0.133464 0.134115 0.134766 0.135417 0.136068 0.136719 0.137370 0.138021 0.138672 0.139323 0.139974 0.140625 0.141276 0.141927 0.142578 0.143229 0.143880 0.144531 0.145182 0.145833 0.146484 0.147135 0.147786 0.148438 0.149089 0.149740 0.150391 0.151042 0.151693 0.152344 0.152995 0.153646 0.154297 0.154948 0.155599 0.156250 0.156901 0.157552 0.158203 0.158854 0.159505 0.160156 0.160807 0.161458 0.162109 0.162760 0.163411 0.164062 0.164714 0.165365 0.166016 0.166667 0.167318 0.167969 0.168620 0.169271 0.169922 0.170573 0.171224 0.171875 0.172526 0.173177 0.173828 0.174479 0.175130 0.175781 0.176432 0.177083 0.177734 0.178385 0.179036 0.179688 0.180339 0.180990 0.181641 0.182292 0.182943 0.183594 0.184245 0.184896 0.185547 0.186198 0.186849 0.187500 0.188151 0.188802 0.189453 0.190104 0.190755 0.191406 0.192057 0.192708 0.193359 0.194010 0.194661 0.195312 0.195964 0.196615 0.197266 0.197917 0.198568 0.199219 0.199870 0.200521 0.201172 0.201823 0.202474 0.203125 0.203776 0.204427 0.205078 0.205729 0.206380 0.207031 0.207682 0.208333 0.208984 0.209635 0.210286 0.210938 0.211589 0.212240 0.212891 0.213542 0.214193 0.214844 0.215495 0.216146 0.216797 0.217448 0.218099 0.218750 0.219401 0.220052 0.220703 0.221354 0.222005 0.222656 0.223307 0.223958 0.224609 0.225260 0.225911 0.226562 0.227214 0.227865 0.228516 0.229167 0.229818 0.230469 0.231120 0.231771 0.232422 0.233073 0.233724 0.234375 0.235026 0.235677
       0.33151        0.33151        0.33151        0.33151        0.33151        0.33151        0.33151        0.33151        0.33151        0.33151        0.33151        0.33151        0.33151        0.33151        0.33151        0.33151        0.33151        0.33151        0.33151        0.33151        0.33151        0.33151        0.33151        0.33151        0.33151        0.33151        0.33151        0.33151        0.33151        0.33151        0.33151        0.33151        0.33151        0.33151        0.33151        0.33151        0.33151        0.33151        0.33151        0.33151        0.33151        0.33151        0.33151        0.33151        0.33151        0.33151        0.33151        0.33151        0.33151        0.33151        0.33151        0.41752        0.56045        0.34695       -0.19932       -0.45852       -0.55941       -0.65624       -0.72952       -0.74632       -0.85129       -0.91167       -0.71008       -0.87103       -0.84565       -0.99584       -1.03099       -0.91478       -0.87253       -0.81867       -0.74634       -0.67202       -0.58546       -0.49031       -0.42086       -0.19481       -0.08773        0.00423        0.23287        0.24148        0.29949        0.36538        0.39072        0.49692        0.53364        0.56882        0.53153        0.47080        0.50844        0.50155        0.42225        0.31792        0.19099        0.16657        0.09982       -0.02673       -0.04054       -0.04629        0.03039       -0.00740        0.04913        0.02777        0.14156        0.18306        0.39776        0.45508        0.55028        0.65577        0.69343        0.71347        0.63462        0.61265        0.52580        0.43351        0.37564        0.25627        0.20166        0.19046        0.07949        0.07524        0.05759        0.06252        0.08031        0.29315        0.40340        0.50513        0.53486        0.57584        0.61288        0.58895        0.58197        0.58225        0.56049        0.46044        0.28467        0.24576        0.22194        0.12055        0.06943        0.13305        0.15882        0.26406        0.34479        0.40798        0.46626        0.52887        0.60118        0.54886        0.50833        0.48598        0.35128        0.23851        0.23073        0.15829        0.14812        0.19413        0.24368        0.26530        0.30707        0.41217        0.43822        0.50190        0.45409        0.44510        0.46805        0.37024        0.31533        0.27122        0.23333        0.21009        0.21751        0.22814        0.32191        0.42487        0.41686        0.48402        0.54449        0.43954        0.41076        0.35150        0.29135        0.24315        0.25282        0.26264        0.27639        0.31115        0.32704        0.41161        0.46387        0.43295        0.44392        0.35216        0.36613        0.34843        0.24145        0.22639        0.22956        0.29278        0.35865        0.36455        0.38547        0.42848        0.42886        0.35770        0.33253        0.30795        0.33222        0.29037        0.26353        0.26617        0.32832        0.35696        0.36919        0.39027        0.37111        0.39799        0.37480        0.28971        0.27346        0.30485        0.33232        0.35101        0.34977        0.40038        0.33258        0.36642        0.38112        0.31909        0.33805        0.29618        0.28441        0.33159        0.32322        0.31462        0.32866        0.35240        0.31434        0.33307        0.29853        0.30310        0.27348        0.29582        0.29102        0.32681        0.36277        0.35277        0.33320        0.28950        0.27527        0.27622        0.31459        0.28726        0.30161        0.35420        0.36174        0.32879        0.30153        0.29938        0.30045        0.26403        0.28090        0.28885        0.31208        0.34648        0.32017        0.27769        0.31994        0.30324        0.30083        0.34572        0.33303        0.30278        0.32633        0.28525        0.31712        0.27559        0.29775        0.29127        0.30910        0.37035        0.32322        0.34018        0.29500        0.30433        0.31564        0.31665        0.28737        0.28434        0.31573        0.31041        0.31043        0.29744        0.30475        0.28755        0.29453        0.31183        0.31881        0.32322        0.32793        0.32476        0.29033        0.27066        0.26695        0.25832        0.34619        0.30681        0.34922        0.29068        0.26107        0.28762        0.34597        0.29801        0.28144        0.26595        0.30255        0.27799        0.26468        0.30860        0.27057        0.26187        0.29779        0.30114        0.33002        0.32456        0.29022        0.26377        0.24397        0.25015        0.26237        0.27560        0.32712        0.26928        0.20799        0.28866        0.26368        0.28971        0.22777        0.30606        0.29830        0.30235        0.26971        0.25568        0.26526        0.22007        0.27887        0.32899        0.36375        0.23887        0.25879        0.21751        0.21609        0.19660        0.32824        0.23359        0.23456        0.14436        0.24472        0.23614        0.22305        0.13760        0.02964       -0.62430       -0.92062
3.052394 3.014204 2.976259 2.938562 2.901110 2.863905 2.826946 2.790233 2.753767 2.717546 2.681572 2.645845 2.610363 2.575128 2.540139 2.505397 2.470900 2.436650 2.402646 2.368889 2.335378 2.302113 2.269094 2.236321 2.203795 2.171515 2.139482 2.107694 2.076153 2.044859 2.013810 1.983008 1.952452 1.922142 1.892078 1.862261 1.832690 1.803366 1.774287 1.745455 1.716869 1.688530 1.660436 1.632589 1.604989 1.577634 1.550526 1.523664 1.497048 1.470679 1.444556 1.478765 1.578739 1.518621 0.848803 0.581918 0.439877 0.372706 0.280661 0.198611 0.155182 -0.060660 0.185112 0.049393 -0.045863 -0.127362 -0.245854 -0.158205 -0.074764 -0.095048 -0.089276 0.025955 0.019622 0.211456 0.099505 0.342869 0.453849 0.469579 0.747355 0.684147 0.680603 0.828956 0.795617 0.826089 0.919548 0.861809 0.895351 0.729705 0.809135 0.842543 0.668939 0.602041 0.441375 0.422921 0.359254 0.179686 0.175813 0.117545 0.213034 0.118580 0.213243 0.108047 0.231210 0.236964 0.462007 0.417727 0.596194 0.633163 0.680646 0.732363 0.629636 0.613378 0.475636 0.424902 0.311712 0.278215 0.111093 0.173210 -0.014124 0.037004 -0.035911 -0.036036 -0.029457 0.044147 0.294198 0.309727 0.391897 0.337213 0.418166 0.456735 0.435800 0.437699 0.374983 0.365278 0.145740 0.096954 0.069161 0.002770 -0.146393 -0.031043 -0.073043 0.046881 0.104721 0.176410 0.246372 0.255806 0.348609 0.428340 0.334496 0.381207 0.273420 0.144737 0.068500 0.060703 0.010841 0.038047 0.076202 0.113131 0.123663 0.203787 0.252777 0.303196 0.320666 0.242196 0.268892 0.235047 0.114836 0.093324 0.044524 0.041270 0.009622 0.011057 0.048779 0.177442 0.195923 0.202837 0.318085 0.199474 0.224067 0.100157 0.083857 -0.008229 -0.003797 0.008276 0.012342 0.041402 0.046905 0.094461 0.160822 0.157894 0.217565 0.123152 0.080760 0.106962 0.047088 -0.071526 -0.025030 0.010635 0.049371 0.072898 0.090145 0.155246 0.138047 0.152407 0.041417 0.058679 0.049761 0.050881 0.018884 -0.017544 0.034149 0.043626 0.086925 0.110618 0.103462 0.105039 0.125015 0.063313 0.004718 0.004696 0.032524 0.080326 0.058902 0.106576 0.099166 0.057583 0.110600 0.071408 0.038510 0.072896 -0.026682 0.026119 0.059398 0.034838 0.041834 0.037474 0.068173 0.052851 0.048704 0.010035 0.021135 -0.015412 0.025928 0.000933 0.053897 0.076913 0.063072 0.032492 -0.017708 -0.016205 -0.010881 0.023855 -0.006857 0.013695 0.068696 0.062195 -0.014099 0.013868 -0.011024 0.005935 -0.043717 -0.022628 -0.013538 0.024234 0.030101 0.010798 -0.024959 0.009287 -0.014283 0.001694 0.039409 0.017136 0.022495 -0.082613 0.011910 0.000319 -0.050505 -0.012293 -0.016974 0.021081 0.069009 0.007625 0.009895 -0.002109 0.012704 0.004723 0.028763 -0.014275 -0.009634 0.014442 0.033772 0.015783 0.003315 0.054137 -0.019558 0.001595 0.029711 0.015321 0.062850 0.050473 0.025574 0.009656 -0.003236 -0.030478 -0.002325 0.068882 -0.004441 0.073656 -0.013207 -0.021466 -0.013466 0.080477 -0.006983 -0.001679 0.028492 0.019631 -0.005368 -0.002486 0.028266 0.006472 -0.008439 0.018990 0.047597 0.094831 0.053129 0.027796 0.012952 -0.030799 0.000377 -0.001795 -0.002651 0.090026 -0.029050 -0.084443 0.053868 -0.019083 0.034402 -0.063316 0.026917 0.001245 0.003623 -0.021222 -0.026516 -0.027612 -0.063208 0.012031 0.046211 0.082403 -0.102167 0.028281 -0.055466 -0.007228 -0.092113 0.137437 0.027262 0.081504 -0.032530 0.123916 0.245262 0.203857 0.075838 0.034659 -0.863462
0.072396 0.073047 0.074999 0.078252 0.082804 0.088655 0.095801 0.104241 0.113969 0.124982 0.137271 0.150830 0.165648 0.181711 0.199005 0.217512 0.237208 0.258068 0.280062 0.303153 0.327301 0.352459 0.378572 0.405581 0.433416 0.462002 0.491252 0.521073 0.551360 0.581998 0.612863 0.643820 0.674720 0.705406 0.735707 0.765444 0.794422 0.822439 0.849280 0.874721 0.898529 0.920460 0.940266 0.957691 0.972477 0.984360 0.993079 0.998374 0.999988 0.997673 0.991191 0.980318 0.964848 0.944594 0.919396 0.889122 0.853674 0.812991 0.767054 0.715890 0.659576 0.598242 0.532078 0.461331 0.386313 0.307403 0.225045 0.139753 0.052105 0.037251 0.127603 0.218180 0.308154 0.396646 0.482733 0.565459 0.643845 0.716896 0.783620 0.843039 0.894205 0.936214 0.968229 0.989493 0.999348 0.997253 0.982805 0.955753 0.916013 0.863687 0.799071 0.722666 0.635187 0.537563 0.430939 0.316671 0.196313 0.071609 0.055532 0.183059 0.308806 0.430533 0.545959 0.652811 0.748866 0.832007 0.900268 0.951895 0.985389 0.999563 0.993586 0.967026 0.919883 0.852618 0.766174 0.661976 0.541929 0.408406 0.264202 0.112504 0.043183 0.199102 0.351329 0.495877 0.628796 0.746288 0.844824 0.921261 0.972954 0.997861 0.994642 0.962734 0.902413 0.814829 0.702017 0.566879 0.413135 0.245243 0.068289 0.112154 0.290194 0.459802 0.615027 0.750206 0.860184 0.940532 0.987742 0.999407 0.974365 0.912804 0.816320 0.687919 0.531967 0.354070 0.160909 0.039989 0.240535 0.432387 0.607307 0.757515 0.876063 0.957173 0.996560 0.991681 0.941940 0.848794 0.715775 0.548411 0.354040 0.141529 0.079097 0.297117 0.501617 0.682055 0.828808 0.933727 0.990617 0.995658 0.947698 0.848431 0.702412 0.516912 0.301622 0.068191 0.170375 0.400417 0.608395 0.781712 0.909501 0.983350 0.997917 0.951371 0.845640 0.686426 0.482983 0.247645 0.004864 0.258322 0.496020 0.701882 0.861578 0.963561 0.999969 0.967307 0.866843 0.704683 0.491501 0.241920 0.026425 0.294094 0.541224 0.749018 0.901218 0.985428 0.994208 0.925824 0.784567 0.580611 0.329390 0.050507 0.233722 0.500037 0.726135 0.892579 0.984532 0.993181 0.916679 0.760525 0.537315 0.265836 0.030405 0.325173 0.591798 0.805599 0.946233 0.999726 0.959968 0.829533 0.619692 0.349581 0.044575 0.266004 0.551687 0.783845 0.938611 0.999450 0.959039 0.820296 0.596358 0.309513 0.010900 0.331398 0.617829 0.839017 0.970253 0.996167 0.912684 0.727786 0.460954 0.141270 0.195617 0.511408 0.769503 0.939308 0.999980 0.943150 0.774245 0.512212 0.187569 0.160983 0.491113 0.761969 0.939319 0.999985 0.935071 0.751450 0.471286 0.129570 0.230106 0.561013 0.819384 0.970277 0.992455 0.881599 0.651296 0.331636 0.034515 0.397128 0.705801 0.916813 0.999456 0.940706 0.747518 0.446301 0.079544 0.299984 0.636754 0.880632 0.994452 0.959904 0.780728 0.482668 0.110039 0.280661 0.629204 0.880956 0.995561 0.953635 0.760334 0.445073 0.057346 0.340834 0.684772 0.917632 1.000000 0.916809 0.680401 0.329053 0.078939 0.474715 0.790463 0.971101 0.984105 0.825685 0.522067 0.125487 0.294500 0.663133 0.913724 0.999948 0.904662 0.643685 0.263573 0.166389 0.566591 0.861828 0.995573 0.941082 0.707108 0.336955 0.099179 0.517281 0.835648 0.990962 0.951200 0.722599 0.349180 0.095316 0.521774 0.843461 0.993843 0.940618 0.693085 0.301026 0.154894 0.579505 0.882911 0.999722 0.903493 0.613141 0.189749 0.275896 0.682557
1.000000 1.000000 1.000000 1.000000 1.000000 1.000000 1.000000 1.000000 1.000000 1.000000 1.000000 1.000000 1.000000 1.000000 1.000000 1.000000 1.000000 1.000000 1.000000 1.000000 1.000000 1.000000 1.000000 1.000000 1.000000 1.000000 1.000000 1.000000 1.000000 1.000000 1.000000 1.000000 1.000000 1.000000 1.000000 1.000000 1.000000 1.000000 1.000000 1.000000 1.000000 1.000000 1.000000 1.000000 1.000000 1.000000 1.000000 1.000000 1.000000 1.000000 1.000000 1.000000 0.934154 0.934154 0.934154 0.934154 0.934154 0.934154 0.934154 0.934154 0.934154 0.934154 0.934154 0.934154 0.934154 0.934154 0.934154 0.934154 0.934154 0.934154 0.934154 0.934154 0.934154 0.934154 0.934154 0.934154 0.934154 0.934154 0.934154 0.934154 0.934154 0.934154 0.934154 0.934154 0.934154 0.921695 0.919861 0.922808 0.923845 0.923770 0.923301 0.923008 0.923283 0.924698 0.926562 0.948071 0.950310 0.950900 0.952115 0.953628 0.956346 0.954637 0.959088 0.969775 0.968996 0.969762 0.963669 0.964708 0.964177 0.963501 0.965513 0.965405 0.963992 0.962360 0.961106 0.960721 0.960471 0.962096 0.962461 0.962639 0.963038 0.962960 0.962812 0.962765 0.963021 0.965149 0.964213 0.963453 0.969265 0.968072 0.970194 0.970168 0.970888 0.971578 0.971753 0.971903 0.967438 0.966887 0.965852 0.952632 0.946103 0.942741 0.945000 0.947880 0.945507 0.941345 0.940232 0.942999 0.937901 0.937454 0.929076 0.927648 0.910682 0.901919 0.890399 0.891146 0.892714 0.893607 0.891529 0.882633 0.873074 0.869481 0.871387 0.866221 0.861525 0.878029 0.873193 0.874106 0.878030 0.880673 0.886009 0.879847 0.875797 0.871724 0.867999 0.865397 0.867849 0.872610 0.875717 0.863395 0.855987 0.859058 0.848756 0.844641 0.851229 0.853197 0.849530 0.848710 0.849718 0.850156 0.842113 0.838577 0.839698 0.849397 0.849713 0.839615 0.834893 0.828836 0.828878 0.826478 0.827097 0.825786 0.822832 0.816473 0.827704 0.798486 0.821108 0.816772 0.804814 0.791286 0.780762 0.783130 0.794600 0.797381 0.794486 0.774719 0.773158 0.772875 0.755203 0.760794 0.767817 0.765516 0.753930 0.731139 0.738421 0.746977 0.738246 0.729331 0.731408 0.732041 0.699982 0.713644 0.717310 0.704761 0.718843 0.716259 0.707844 0.703250 0.703855 0.703257 0.693151 0.655438 0.655842 0.664535 0.650041 0.598124 0.596013 0.598865 0.594965 0.521528 0.523940 0.512762 0.514213 0.502310 0.528067 0.509769 0.499243 0.525426 0.492243 0.401650 0.415251 0.404938 0.409036 0.416444 0.396002 0.359550 0.364674 0.388874 0.370822 0.340201 0.285515 0.324077 0.338343 0.385318 0.372063 0.380575 0.405337 0.387879 0.371959 0.347060 0.366390 0.358411 0.395442 0.338702 0.308898 0.313949 0.336574 0.341973 0.341683 0.326948 0.261021 0.304924 0.241225 0.263496 0.242725 0.221700 0.223512 0.254756 0.247533 0.250744 0.235703 0.270542 0.260614 0.256706 0.245950 0.257350 0.287595 0.223763 0.239973 0.270918 0.267573 0.342483 0.345825 0.317435 0.202559 0.262771 0.238027 0.246467 0.219648 0.150855 0.157429 0.166042 0.130353 0.135315 0.120171 0.088831 0.063133 0.026591 0.026581 0.001765 0.009331 0.028682 0.013967 0.014726 0.014726 0.014726 0.014726 -0.018348 -0.018348 -0.018348 -0.018348 -0.018348 -0.018348 -0.018348 -0.018348 -0.018348 -0.018348 -0.018348 -0.018348 -0.018348 -0.018348 0.004190 0.004190 0.004190 0.004190 0.004190 0.004190 0.004190 0.004190 0.004190 0.004190 0.004190 0.004190
0.000000 0.000000 0.000000 0.000000 0.000000 0.000000 0.000000 0.000000 0.000000 0.000000 0.000000 0.000000 0.000000 0.000000 0.000000 0.000000 0.000000 0.000000 0.000000 0.000000 0.000000 0.000000 0.000000 0.000000 0.000000 7.000000 4.000000 0.000000 0.000000 0.000000 0.000000 0.000000 0.000000 0.000000 0.000000 0.000000 0.000000 0.000000 0.000000 0.000000 0.000000 0.000000 0.000000 0.000000 0.000000 0.000000 0.000000 0.000000 0.000000 0.000000 0.000000 0.000000 0.209657 0.209657 0.209657 0.209657 0.209657 0.209657 0.209657 0.209657 0.209657 0.209657 0.209657 0.209657 0.209657 0.209657 0.209657 0.209657 0.209657 0.209657 0.209657 0.209657 0.209657 0.209657 0.209657 0.209657 0.209657 0.209657 0.209657 0.209657 0.209657 0.209657 0.209657 0.209657 0.209657 0.244339 0.244339 0.244339 0.244339 0.244339 0.244339 0.244339 0.244339 0.244339 0.244339 0.244339 0.244339 0.244339 0.244339 0.244339 0.244339 0.244339 0.244339 0.244339 0.244339 0.244339 0.244339 0.244339 0.244339 0.244339 0.260378 0.260378 0.260378 0.260378 0.260378 0.260378 0.260378 0.260378 0.260378 0.260378 0.260378 0.260378 0.260378 0.260378 0.260378 0.260378 0.260378 0.260378 0.260378 0.260378 0.269680 0.269680 0.269680 0.269680 0.269680 0.269680 0.269680 0.269680 0.269680 0.269680 0.269680 0.269680 0.269680 0.269680 0.269680 0.269680 0.269680 0.269680 0.269680 0.269680 0.269680 0.269680 0.269680 0.269680 0.269680 0.269680 0.269680 0.269680 0.269680 0.269680 0.269680 0.269680 0.269680 0.280056 0.280056 0.280056 0.280056 0.280056 0.280056 0.280056 0.280056 0.280056 0.280056 0.280056 0.280056 0.280056 0.280056 0.280056 0.280056 0.280056 0.280056 0.280056 0.280056 0.280056 0.280056 0.280056 0.280056 0.280056 0.280056 0.280056 0.274721 0.274721 0.274721 0.274721 0.274721 0.274721 0.274721 0.274721 0.274721 0.274721 0.274721 0.274721 0.274721 0.285714 0.285714 0.285714 0.285714 0.285714 0.285714 0.285714 0.285714 0.285714 0.285714 0.285714 0.280056 0.280056 0.280056 0.280056 0.280056 0.280056 0.280056 0.280056 0.280056 0.280056 0.280056 0.274721 0.274721 0.274721 0.274721 0.274721 0.274721 0.274721 0.274721 0.274721 0.274721 0.274721 0.280056 0.280056 0.280056 0.280056 0.280056 0.280056 0.280056 0.280056 0.280056 0.280056 0.285714 0.285714 0.285714 0.285714 0.285714 0.285714 0.285714 0.285714 0.285714 0.269680 0.269680 0.269680 0.269680 0.269680 0.269680 0.269680 0.269680 0.269680 0.269680 0.291730 0.291730 0.291730 0.291730 0.291730 0.291730 0.291730 0.291730 0.269680 0.269680 0.269680 0.269680 0.269680 0.269680 0.269680 0.269680 0.269680 0.264906 0.264906 0.264906 0.264906 0.264906 0.264906 0.264906 0.264906 0.264906 0.274721 0.274721 0.274721 0.274721 0.274721 0.274721 0.274721 0.274721 0.269680 0.269680 0.269680 0.269680 0.269680 0.269680 0.269680 0.269680 0.285714 0.285714 0.285714 0.285714 0.285714 0.285714 0.285714 0.264906 0.264906 0.264906 0.264906 0.264906 0.264906 0.264906 0.264906 0.274721 0.274721 0.274721 0.274721 0.274721 0.274721 0.274721 0.256074 0.256074 0.256074 0.256074 0.256074 0.256074 0.256074 0.256074 0.264906 0.264906 0.264906 0.264906 0.264906 0.264906 0.264906 0.264906 0.264906 0.264906 0.264906 0.264906 0.264906 0.264906 0.260378 0.260378 0.260378 0.260378 0.260378 0.260378 0.260378 0.260378 0.260378 0.260378 0.260378 0.260378
