# Output from CTFFind version 4.1.9, run on 2019-11-02 17:48:36
# Input file: stack11_bm3d_averaged_1_1.25_0_2000_half.mrc ; Number of micrographs: 1
# Pixel size: 3.000 Angstroms ; acceleration voltage: 300.0 keV ; spherical aberration: 0.00 mm ; amplitude contrast: 0.07
# Box size: 512 pixels ; min. res.: 30.0 Angstroms ; max. res.: 5.0 Angstroms ; min. def.: 5000.0 um; max. def. 50000.0 um; num. frames averaged: 1
# 6 lines per micrograph: #1 - spatial frequency (1/Angstroms); #2 - 1D rotational average of spectrum (assuming no astigmatism); #3 - 1D rotational average of spectrum; #4 - CTF fit; #5 - cross-correlation between spectrum and CTF fit; #6 - 2sigma of expected cross correlation of noise
0.000000 0.000651 0.001302 0.001953 0.002604 0.003255 0.003906 0.004557 0.005208 0.005859 0.006510 0.007161 0.007812 0.008464 0.009115 0.009766 0.010417 0.011068 0.011719 0.012370 0.013021 0.013672 0.014323 0.014974 0.015625 0.016276 0.016927 0.017578 0.018229 0.018880 0.019531 0.020182 0.020833 0.021484 0.022135 0.022786 0.023438 0.024089 0.024740 0.025391 0.026042 0.026693 0.027344 0.027995 0.028646 0.029297 0.029948 0.030599 0.031250 0.031901 0.032552 0.033203 0.033854 0.034505 0.035156 0.035807 0.036458 0.037109 0.037760 0.038411 0.039062 0.039714 0.040365 0.041016 0.041667 0.042318 0.042969 0.043620 0.044271 0.044922 0.045573 0.046224 0.046875 0.047526 0.048177 0.048828 0.049479 0.050130 0.050781 0.051432 0.052083 0.052734 0.053385 0.054036 0.054688 0.055339 0.055990 0.056641 0.057292 0.057943 0.058594 0.059245 0.059896 0.060547 0.061198 0.061849 0.062500 0.063151 0.063802 0.064453 0.065104 0.065755 0.066406 0.067057 0.067708 0.068359 0.069010 0.069661 0.070312 0.070964 0.071615 0.072266 0.072917 0.073568 0.074219 0.074870 0.075521 0.076172 0.076823 0.077474 0.078125 0.078776 0.079427 0.080078 0.080729 0.081380 0.082031 0.082682 0.083333 0.083984 0.084635 0.085286 0.085938 0.086589 0.087240 0.087891 0.088542 0.089193 0.089844 0.090495 0.091146 0.091797 0.092448 0.093099 0.093750 0.094401 0.095052 0.095703 0.096354 0.097005 0.097656 0.098307 0.098958 0.099609 0.100260 0.100911 0.101562 0.102214 0.102865 0.103516 0.104167 0.104818 0.105469 0.106120 0.106771 0.107422 0.108073 0.108724 0.109375 0.110026 0.110677 0.111328 0.111979 0.112630 0.113281 0.113932 0.114583 0.115234 0.115885 0.116536 0.117188 0.117839 0.118490 0.119141 0.119792 0.120443 0.121094 0.121745 0.122396 0.123047 0.123698 0.124349 0.125000 0.125651 0.126302 0.126953 0.127604 0.128255 0.128906 0.129557 0.130208 0.130859 0.131510 0.132161 0.132812 0.133464 0.134115 0.134766 0.135417 0.136068 0.136719 0.137370 0.138021 0.138672 0.139323 0.139974 0.140625 0.141276 0.141927 0.142578 0.143229 0.143880 0.144531 0.145182 0.145833 0.146484 0.147135 0.147786 0.148438 0.149089 0.149740 0.150391 0.151042 0.151693 0.152344 0.152995 0.153646 0.154297 0.154948 0.155599 0.156250 0.156901 0.157552 0.158203 0.158854 0.159505 0.160156 0.160807 0.161458 0.162109 0.162760 0.163411 0.164062 0.164714 0.165365 0.166016 0.166667 0.167318 0.167969 0.168620 0.169271 0.169922 0.170573 0.171224 0.171875 0.172526 0.173177 0.173828 0.174479 0.175130 0.175781 0.176432 0.177083 0.177734 0.178385 0.179036 0.179688 0.180339 0.180990 0.181641 0.182292 0.182943 0.183594 0.184245 0.184896 0.185547 0.186198 0.186849 0.187500 0.188151 0.188802 0.189453 0.190104 0.190755 0.191406 0.192057 0.192708 0.193359 0.194010 0.194661 0.195312 0.195964 0.196615 0.197266 0.197917 0.198568 0.199219 0.199870 0.200521 0.201172 0.201823 0.202474 0.203125 0.203776 0.204427 0.205078 0.205729 0.206380 0.207031 0.207682 0.208333 0.208984 0.209635 0.210286 0.210938 0.211589 0.212240 0.212891 0.213542 0.214193 0.214844 0.215495 0.216146 0.216797 0.217448 0.218099 0.218750 0.219401 0.220052 0.220703 0.221354 0.222005 0.222656 0.223307 0.223958 0.224609 0.225260 0.225911 0.226562 0.227214 0.227865 0.228516 0.229167 0.229818 0.230469 0.231120 0.231771 0.232422 0.233073 0.233724 0.234375 0.235026 0.235677
       0.31678        0.31678        0.31678        0.31678        0.31678        0.31678        0.31678        0.31678        0.31678        0.31678        0.31678        0.31678        0.31678        0.31678        0.31678        0.31678        0.31678        0.31678        0.31678        0.31678        0.31678        0.31678        0.31678        0.31678        0.31678        0.31678        0.31678        0.31678        0.31678        0.31678        0.31678        0.31678        0.31678        0.31678        0.31678        0.31678        0.31678        0.31678        0.31678        0.31678        0.31678        0.31678        0.31678        0.31678        0.31678        0.31678        0.31678        0.31678        0.31678        0.31678        0.31678        0.68397        0.87025        0.52198        0.08698       -0.06613       -0.42669       -0.20677       -0.29646       -0.11894       -0.07785       -0.11840       -0.06988       -0.20880       -0.23639       -0.25827       -0.33138       -0.33803       -0.49246       -0.38390       -0.46685       -0.45033       -0.42225       -0.47029       -0.54554       -0.56341       -0.58854       -0.62526       -0.57909       -0.41539       -0.37875       -0.33174       -0.31688       -0.21169       -0.19924        0.01859        0.06969        0.10399        0.22471        0.37258        0.44288        0.51683        0.55901        0.55330        0.57246        0.69841        0.81323        0.74453        0.73365        0.67155        0.58064        0.48590        0.40607        0.49345        0.37346        0.20026        0.07753        0.04457        0.00840       -0.06116       -0.04039       -0.02448       -0.07408       -0.00693       -0.02222        0.21177        0.25023        0.29102        0.42985        0.46448        0.40312        0.53344        0.62789        0.70087        0.76632        0.69035        0.66041        0.69914        0.58662        0.50298        0.41931        0.29030        0.18742        0.15659        0.10891        0.03586        0.01224       -0.00104        0.07538        0.13223        0.20310        0.28170        0.40147        0.41578        0.50730        0.59990        0.63482        0.61390        0.63101        0.55250        0.44582        0.44498        0.35203        0.22827        0.18594        0.14970        0.10663        0.12190        0.06776        0.10072        0.22269        0.26330        0.33996        0.34940        0.45195        0.51255        0.53750        0.54983        0.47028        0.42847        0.39051        0.37196        0.30804        0.25084        0.20161        0.18527        0.16265        0.19442        0.17727        0.26851        0.33291        0.36415        0.42226        0.46112        0.47758        0.44384        0.39288        0.41187        0.37544        0.28892        0.27428        0.22693        0.21207        0.19431        0.21331        0.22943        0.32744        0.37363        0.36863        0.45959        0.43714        0.43955        0.43018        0.39435        0.34387        0.32926        0.27922        0.23631        0.23662        0.26938        0.27114        0.30006        0.30030        0.33920        0.32945        0.40856        0.41469        0.37521        0.34463        0.36385        0.28084        0.28059        0.26239        0.27687        0.26101        0.28163        0.29244        0.31422        0.34958        0.35792        0.35929        0.33306        0.35215        0.28734        0.32493        0.26926        0.24732        0.28307        0.28404        0.30691        0.31358        0.33009        0.32505        0.31329        0.31855        0.28694        0.28499        0.25820        0.28172        0.27015        0.31052        0.28392        0.26312        0.30683        0.30957        0.31385        0.28799        0.29774        0.28952        0.24624        0.24085        0.21790        0.27758        0.27493        0.31264        0.31490        0.32143        0.31567        0.30509        0.27680        0.28373        0.33186        0.27126        0.26331        0.29446        0.29369        0.34277        0.33807        0.36027        0.33421        0.31149        0.28169        0.26393        0.25975        0.22597        0.26705        0.30282        0.29772        0.27870        0.29504        0.26829        0.32359        0.33570        0.25230        0.21988        0.27026        0.33876        0.27706        0.31195        0.32633        0.32619        0.29654        0.32181        0.34434        0.29594        0.29174        0.25853        0.27766        0.34890        0.35170        0.25900        0.26827        0.25560        0.27893        0.22359        0.29387        0.22368        0.24954        0.33125        0.31983        0.34949        0.29872        0.23762        0.23668        0.24151        0.23963        0.18084        0.22134        0.26391        0.29388        0.27622        0.30648        0.29387        0.27446        0.28188        0.20988        0.17719        0.18963        0.22970        0.19689        0.21770        0.23195        0.20541        0.25104        0.33937        0.29692        0.31016        0.22176        0.26366        0.23186        0.27827        0.29706        0.14464        0.22472        0.22630        0.12464        0.22806        0.11239        0.16702        0.21010        0.13414       -0.13721       -0.65393
2.583044 2.556105 2.529312 2.502664 2.476163 2.449807 2.423598 2.397535 2.371617 2.345845 2.320220 2.294740 2.269406 2.244218 2.219177 2.194281 2.169531 2.144927 2.120469 2.096156 2.071990 2.047970 2.024096 2.000368 1.976785 1.953349 1.930059 1.906914 1.883916 1.861063 1.838357 1.815796 1.793381 1.771113 1.748990 1.727013 1.705182 1.683497 1.661959 1.640566 1.619318 1.598217 1.577262 1.556453 1.535790 1.515273 1.494901 1.474676 1.454597 1.434663 1.414876 1.636714 2.042698 1.615171 1.127479 0.987034 0.419341 0.811585 0.560299 0.833153 0.771384 0.786595 0.750573 0.709781 0.560917 0.512667 0.483811 0.443857 0.203771 0.377519 0.202183 0.306184 0.235988 0.179543 0.130372 0.003440 0.041262 -0.014726 -0.055901 0.104926 0.206379 0.194121 0.152027 0.332931 0.197872 0.497068 0.575010 0.548673 0.592565 0.878804 0.809937 0.946268 0.889368 0.973841 0.941870 1.081298 1.140226 1.078554 1.127422 0.953651 0.942897 0.786715 0.651189 0.770057 0.705539 0.459519 0.307715 0.253313 0.212182 0.148001 0.089162 0.127881 0.066422 0.154406 0.051382 0.262148 0.379283 0.360914 0.479685 0.583280 0.467690 0.544353 0.698587 0.746064 0.782733 0.733921 0.736679 0.716655 0.627763 0.570268 0.430760 0.287411 0.208560 0.078648 0.134256 -0.044076 -0.029970 -0.079453 -0.037459 0.005535 0.146476 0.089371 0.302682 0.278417 0.363419 0.452032 0.524751 0.507988 0.520675 0.504785 0.333782 0.309545 0.279425 0.099718 0.049405 -0.001178 -0.033915 -0.039993 -0.089842 -0.101670 -0.013648 0.055105 0.136329 0.138561 0.228362 0.332900 0.309538 0.411076 0.398076 0.285495 0.231292 0.249241 0.208162 0.103225 0.074970 0.019459 0.001157 0.011196 -0.014437 0.057534 0.148166 0.143156 0.227167 0.253506 0.306841 0.256697 0.221357 0.182979 0.212293 0.147677 0.046231 0.047604 -0.011031 -0.011928 -0.030362 0.015224 0.016373 0.169392 0.127931 0.183986 0.236250 0.200779 0.193701 0.196414 0.138132 0.104147 0.066124 0.047415 -0.039022 0.008824 0.022040 0.054367 0.050049 0.077059 0.097874 0.120298 0.134035 0.183288 0.077720 0.095257 0.071588 -0.002030 0.003722 0.008938 -0.011249 0.017800 0.004469 0.030338 0.067074 0.079415 0.117630 0.048224 0.098480 0.054759 0.013649 0.063700 -0.035900 -0.015329 0.022565 0.001976 0.051371 0.053413 0.047654 0.053271 0.053400 0.047849 0.019604 -0.002657 0.006574 0.016930 -0.009211 0.070456 -0.014242 0.009618 0.055860 0.046181 0.033967 0.043173 0.037657 0.019020 -0.021525 -0.039986 -0.019075 0.019344 0.025436 0.066084 0.060343 0.057394 0.087300 0.062960 0.024901 0.064274 0.088947 0.018649 0.022149 0.060707 0.056116 0.105456 0.110967 0.118214 0.118086 0.067053 0.045662 0.032551 0.005079 -0.000486 0.049394 0.082259 0.050256 0.031445 0.031191 0.022597 0.091843 0.068096 -0.045818 -0.052218 0.030903 0.096672 0.006714 0.029351 0.059213 0.088937 0.019822 0.059144 0.083126 0.030074 0.037287 -0.041375 0.018340 0.105631 0.067235 -0.055871 -0.021119 -0.048782 0.013699 -0.107109 0.039432 -0.108801 -0.037094 0.053506 0.028017 0.032731 -0.044115 -0.070722 -0.094498 -0.085695 -0.070869 -0.136451 -0.096326 -0.036288 0.017335 -0.035317 0.038401 -0.024847 -0.050987 0.052710 -0.113097 -0.099669 -0.094207 -0.012714 -0.063376 -0.024261 -0.016383 0.005823 0.017325 0.183018 -0.011683 0.146595 0.002989 0.271393 0.245041 0.319946 0.271793 0.108986 0.227642 0.269884 0.042261 0.252881 0.119503 0.141430 0.278498 0.137344 -0.676340
0.072396 0.072899 0.074406 0.076917 0.080432 0.084950 0.090470 0.096989 0.104507 0.113019 0.122524 0.133015 0.144489 0.156938 0.170355 0.184731 0.200055 0.216313 0.233492 0.251573 0.270537 0.290360 0.311018 0.332480 0.354713 0.377680 0.401340 0.425647 0.450551 0.475995 0.501918 0.528253 0.554928 0.581864 0.608976 0.636172 0.663353 0.690415 0.717246 0.743728 0.769734 0.795133 0.819785 0.843546 0.866265 0.887784 0.907942 0.926572 0.943503 0.958562 0.971571 0.982354 0.990731 0.996527 0.999566 0.999676 0.996693 0.990455 0.980814 0.967628 0.950770 0.930128 0.905605 0.877122 0.844625 0.808078 0.767476 0.722837 0.674211 0.621679 0.565357 0.505396 0.441983 0.375343 0.305744 0.233489 0.158924 0.082437 0.004453 0.074563 0.154109 0.233646 0.312604 0.390384 0.466359 0.539885 0.610299 0.676930 0.739101 0.796144 0.847396 0.892220 0.930003 0.960170 0.982194 0.995605 0.999997 0.995039 0.980487 0.956187 0.922090 0.878254 0.824852 0.762182 0.690663 0.610844 0.523403 0.429145 0.329000 0.224018 0.115361 0.004295 0.107827 0.219571 0.329451 0.435934 0.537472 0.632522 0.719569 0.797153 0.863897 0.918533 0.959932 0.987128 0.999345 0.996022 0.976835 0.941715 0.890863 0.824763 0.744187 0.650198 0.544140 0.427636 0.302563 0.171033 0.035361 0.101972 0.238358 0.371114 0.497529 0.614929 0.720727 0.812491 0.888002 0.945315 0.982816 0.999276 0.993897 0.966352 0.916817 0.845986 0.755084 0.645857 0.520555 0.381898 0.233028 0.077445 0.081062 0.238511 0.390820 0.533911 0.663826 0.776842 0.869581 0.939127 0.983123 0.999868 0.988393 0.948521 0.880904 0.787041 0.669264 0.530705 0.375225 0.207323 0.032024 0.145271 0.318940 0.483318 0.632889 0.762472 0.867413 0.943765 0.988457 0.999429 0.975751 0.917694 0.826769 0.705716 0.558453 0.389971 0.206183 0.013736 0.180216 0.368277 0.543091 0.697625 0.825479 0.921152 0.980309 0.999995 0.978812 0.917029 0.816631 0.681292 0.516272 0.328254 0.125078 0.084546 0.291418 0.486238 0.660029 0.804563 0.912777 0.979129 0.999923 0.973539 0.900587 0.783941 0.628679 0.441895 0.232413 0.010398 0.213121 0.426791 0.619513 0.781029 0.902487 0.976958 0.999870 0.969321 0.886269 0.754566 0.580832 0.374171 0.145727 0.091886 0.325261 0.540950 0.726250 0.869971 0.963141 0.999607 0.976489 0.894451 0.757759 0.574123 0.354322 0.111603 0.139072 0.381938 0.601413 0.783110 0.914810 0.987330 0.995197 0.937138 0.816267 0.639993 0.419648 0.169787 0.092704 0.349741 0.583279 0.776588 0.915484 0.989419 0.992335 0.923228 0.786358 0.591061 0.351196 0.084216 0.190056 0.450893 0.678209 0.854134 0.964476 0.999912 0.956856 0.837880 0.651676 0.412489 0.139118 0.146521 0.421119 0.661875 0.848402 0.964517 0.999701 0.950132 0.819183 0.617298 0.361256 0.072854 0.222896 0.499909 0.733332 0.901809 0.989488 0.987604 0.895446 0.720609 0.478474 0.190966 0.115374 0.411788 0.670002 0.864929 0.977194 0.995120 0.916058 0.746846 0.503347 0.209073 0.107023 0.413312 0.678673 0.875673 0.983468 0.990104 0.893956 0.704125 0.439712 0.128006 0.198246 0.504241 0.756826 0.928142 0.998778 0.960078 0.815335 0.579674 0.278605 0.054626 0.382642 0.668108 0.878005 0.987529 0.983131 0.864333 0.644045 0.347327 0.008662 0.331985 0.633821 0.860153 0.982911 0.986260 0.868777 0.643924 0.338662 0.009631 0.357666 0.661570 0.882457 0.991487 0.973760 0.830518 0.579288 0.251921 0.109313
1.000000 1.000000 1.000000 1.000000 1.000000 1.000000 1.000000 1.000000 1.000000 1.000000 1.000000 1.000000 1.000000 1.000000 1.000000 1.000000 1.000000 1.000000 1.000000 1.000000 1.000000 1.000000 1.000000 1.000000 1.000000 1.000000 1.000000 1.000000 1.000000 1.000000 1.000000 1.000000 1.000000 1.000000 1.000000 1.000000 1.000000 1.000000 1.000000 1.000000 1.000000 1.000000 1.000000 1.000000 1.000000 1.000000 1.000000 1.000000 1.000000 1.000000 1.000000 1.000000 0.931409 0.931409 0.931409 0.921870 0.921870 0.921870 0.921870 0.921870 0.921870 0.921870 0.921870 0.921870 0.921870 0.921870 0.921870 0.921870 0.921870 0.921870 0.921870 0.921870 0.921870 0.921870 0.921870 0.921870 0.921870 0.921870 0.921870 0.921870 0.921870 0.921870 0.921870 0.921870 0.921870 0.921870 0.921870 0.921870 0.921870 0.921870 0.921870 0.921870 0.921870 0.921870 0.921870 0.921870 0.947199 0.948488 0.956402 0.956228 0.955696 0.953541 0.952592 0.951440 0.950979 0.951267 0.951908 0.952788 0.964569 0.965636 0.967211 0.968035 0.968748 0.969390 0.969214 0.969932 0.969133 0.968562 0.968039 0.964038 0.964677 0.965236 0.965340 0.966371 0.966247 0.968284 0.968466 0.967854 0.966959 0.966204 0.965477 0.965047 0.964763 0.965270 0.965565 0.966876 0.970062 0.969479 0.969189 0.969347 0.969446 0.969626 0.970060 0.971755 0.967987 0.968635 0.966966 0.964776 0.968992 0.966113 0.965899 0.967262 0.967642 0.968041 0.966593 0.962663 0.956249 0.955217 0.952475 0.943322 0.942093 0.942689 0.945163 0.945670 0.944169 0.936851 0.937424 0.931059 0.932232 0.935554 0.930356 0.930467 0.931618 0.931090 0.930123 0.929510 0.926813 0.924188 0.922681 0.922244 0.925226 0.925011 0.926172 0.926093 0.920779 0.912482 0.900396 0.898938 0.893699 0.896763 0.886640 0.886469 0.886640 0.882196 0.885615 0.885000 0.885950 0.882810 0.867300 0.850392 0.843283 0.846931 0.851811 0.847235 0.845784 0.838768 0.850324 0.829472 0.842086 0.853825 0.850629 0.851236 0.850732 0.848865 0.842021 0.842858 0.845330 0.846873 0.844788 0.842088 0.841577 0.822281 0.822486 0.758183 0.740665 0.732761 0.738250 0.744860 0.746008 0.745246 0.752900 0.758033 0.753601 0.736654 0.728808 0.720721 0.725444 0.723969 0.728698 0.713326 0.687089 0.682136 0.650913 0.668511 0.681024 0.640871 0.664066 0.674861 0.672861 0.671932 0.665049 0.662792 0.658603 0.661541 0.667984 0.680483 0.699468 0.722563 0.719515 0.709533 0.709693 0.689361 0.681783 0.674563 0.688163 0.666813 0.662498 0.680549 0.679868 0.665624 0.644654 0.634133 0.624372 0.620421 0.631491 0.622393 0.617857 0.606906 0.582577 0.574137 0.610184 0.626135 0.646748 0.615661 0.601998 0.591335 0.574913 0.588137 0.530488 0.530214 0.549984 0.557420 0.536418 0.520722 0.531050 0.537560 0.538752 0.529310 0.519462 0.508270 0.524703 0.556063 0.545450 0.525022 0.527517 0.526905 0.521962 0.433003 0.426810 0.398764 0.367746 0.307992 0.291876 0.283334 0.265239 0.250282 0.214724 0.211360 0.220512 0.228974 0.243923 0.246078 0.230407 0.237810 0.230544 0.217079 0.154857 0.143388 0.135811 0.125500 0.125149 0.099007 0.122855 0.192012 0.194833 0.194833 0.194833 0.194833 0.194833 0.194833 0.205916 0.205916 0.205916 0.205916 0.205916 0.205916 0.205916 0.205916 0.205916 0.216004 0.216004 0.216004 0.216004 0.216004 0.216004 0.216004 0.216004 0.216004 0.216004 0.216004 0.216004 0.216004 0.216004
0.000000 0.000000 0.000000 0.000000 0.000000 0.000000 0.000000 0.000000 0.000000 0.000000 0.000000 0.000000 0.000000 0.000000 0.000000 0.000000 0.000000 0.000000 0.000000 0.000000 0.000000 0.000000 0.000000 0.000000 0.000000 7.000000 4.000000 0.000000 0.000000 0.000000 0.000000 0.000000 0.000000 0.000000 0.000000 0.000000 0.000000 0.000000 0.000000 0.000000 0.000000 0.000000 0.000000 0.000000 0.000000 0.000000 0.000000 0.000000 0.000000 0.000000 0.000000 0.000000 0.180334 0.180334 0.180334 0.199007 0.199007 0.199007 0.199007 0.199007 0.199007 0.199007 0.199007 0.199007 0.199007 0.199007 0.199007 0.199007 0.199007 0.199007 0.199007 0.199007 0.199007 0.199007 0.199007 0.199007 0.199007 0.199007 0.199007 0.199007 0.199007 0.199007 0.199007 0.199007 0.199007 0.199007 0.199007 0.199007 0.199007 0.199007 0.199007 0.199007 0.199007 0.199007 0.199007 0.199007 0.225018 0.225018 0.225018 0.225018 0.225018 0.225018 0.225018 0.225018 0.225018 0.225018 0.225018 0.225018 0.225018 0.225018 0.225018 0.225018 0.225018 0.225018 0.225018 0.225018 0.225018 0.225018 0.225018 0.225018 0.225018 0.225018 0.225018 0.225018 0.225018 0.244339 0.244339 0.244339 0.244339 0.244339 0.244339 0.244339 0.244339 0.244339 0.244339 0.244339 0.244339 0.244339 0.244339 0.244339 0.244339 0.244339 0.244339 0.244339 0.244339 0.244339 0.244339 0.244339 0.251976 0.251976 0.251976 0.251976 0.251976 0.251976 0.251976 0.251976 0.251976 0.251976 0.251976 0.251976 0.251976 0.251976 0.251976 0.251976 0.251976 0.251976 0.251976 0.251976 0.264906 0.264906 0.264906 0.264906 0.264906 0.264906 0.264906 0.264906 0.264906 0.264906 0.264906 0.264906 0.264906 0.264906 0.264906 0.264906 0.264906 0.264906 0.264906 0.264906 0.264906 0.264906 0.264906 0.264906 0.264906 0.264906 0.264906 0.264906 0.264906 0.264906 0.264906 0.264906 0.264906 0.264906 0.264906 0.264906 0.264906 0.264906 0.264906 0.264906 0.264906 0.264906 0.264906 0.264906 0.264906 0.264906 0.264906 0.264906 0.264906 0.264906 0.264906 0.264906 0.264906 0.264906 0.264906 0.264906 0.264906 0.264906 0.264906 0.264906 0.264906 0.264906 0.256074 0.256074 0.256074 0.256074 0.256074 0.256074 0.256074 0.256074 0.256074 0.256074 0.256074 0.256074 0.256074 0.256074 0.269680 0.269680 0.269680 0.269680 0.269680 0.269680 0.269680 0.269680 0.269680 0.269680 0.269680 0.269680 0.264906 0.264906 0.264906 0.264906 0.264906 0.264906 0.264906 0.264906 0.264906 0.264906 0.264906 0.264906 0.269680 0.269680 0.269680 0.269680 0.269680 0.269680 0.269680 0.269680 0.269680 0.269680 0.269680 0.264906 0.264906 0.264906 0.264906 0.264906 0.264906 0.264906 0.264906 0.264906 0.264906 0.264906 0.256074 0.256074 0.256074 0.256074 0.256074 0.256074 0.256074 0.256074 0.256074 0.256074 0.256074 0.264906 0.264906 0.264906 0.264906 0.264906 0.264906 0.264906 0.264906 0.264906 0.264906 0.260378 0.260378 0.260378 0.260378 0.260378 0.260378 0.260378 0.260378 0.260378 0.260378 0.256074 0.256074 0.256074 0.256074 0.256074 0.256074 0.256074 0.256074 0.256074 0.256074 0.260378 0.260378 0.260378 0.260378 0.260378 0.260378 0.260378 0.260378 0.260378 0.256074 0.256074 0.256074 0.256074 0.256074 0.256074 0.256074 0.256074 0.256074 0.251976 0.251976 0.251976 0.251976 0.251976 0.251976 0.251976 0.251976 0.251976 0.251976 0.251976 0.251976 0.251976 0.251976
