# Output from CTFFind version 4.1.9, run on 2019-11-03 19:33:34
# Input file: stack1_bm3d_averaged_1_4.25_0_1000_half.mrc ; Number of micrographs: 1
# Pixel size: 3.000 Angstroms ; acceleration voltage: 300.0 keV ; spherical aberration: 0.00 mm ; amplitude contrast: 0.07
# Box size: 512 pixels ; min. res.: 30.0 Angstroms ; max. res.: 5.0 Angstroms ; min. def.: 5000.0 um; max. def. 50000.0 um; num. frames averaged: 1
# 6 lines per micrograph: #1 - spatial frequency (1/Angstroms); #2 - 1D rotational average of spectrum (assuming no astigmatism); #3 - 1D rotational average of spectrum; #4 - CTF fit; #5 - cross-correlation between spectrum and CTF fit; #6 - 2sigma of expected cross correlation of noise
0.000000 0.000651 0.001302 0.001953 0.002604 0.003255 0.003906 0.004557 0.005208 0.005859 0.006510 0.007161 0.007812 0.008464 0.009115 0.009766 0.010417 0.011068 0.011719 0.012370 0.013021 0.013672 0.014323 0.014974 0.015625 0.016276 0.016927 0.017578 0.018229 0.018880 0.019531 0.020182 0.020833 0.021484 0.022135 0.022786 0.023438 0.024089 0.024740 0.025391 0.026042 0.026693 0.027344 0.027995 0.028646 0.029297 0.029948 0.030599 0.031250 0.031901 0.032552 0.033203 0.033854 0.034505 0.035156 0.035807 0.036458 0.037109 0.037760 0.038411 0.039062 0.039714 0.040365 0.041016 0.041667 0.042318 0.042969 0.043620 0.044271 0.044922 0.045573 0.046224 0.046875 0.047526 0.048177 0.048828 0.049479 0.050130 0.050781 0.051432 0.052083 0.052734 0.053385 0.054036 0.054688 0.055339 0.055990 0.056641 0.057292 0.057943 0.058594 0.059245 0.059896 0.060547 0.061198 0.061849 0.062500 0.063151 0.063802 0.064453 0.065104 0.065755 0.066406 0.067057 0.067708 0.068359 0.069010 0.069661 0.070312 0.070964 0.071615 0.072266 0.072917 0.073568 0.074219 0.074870 0.075521 0.076172 0.076823 0.077474 0.078125 0.078776 0.079427 0.080078 0.080729 0.081380 0.082031 0.082682 0.083333 0.083984 0.084635 0.085286 0.085938 0.086589 0.087240 0.087891 0.088542 0.089193 0.089844 0.090495 0.091146 0.091797 0.092448 0.093099 0.093750 0.094401 0.095052 0.095703 0.096354 0.097005 0.097656 0.098307 0.098958 0.099609 0.100260 0.100911 0.101562 0.102214 0.102865 0.103516 0.104167 0.104818 0.105469 0.106120 0.106771 0.107422 0.108073 0.108724 0.109375 0.110026 0.110677 0.111328 0.111979 0.112630 0.113281 0.113932 0.114583 0.115234 0.115885 0.116536 0.117188 0.117839 0.118490 0.119141 0.119792 0.120443 0.121094 0.121745 0.122396 0.123047 0.123698 0.124349 0.125000 0.125651 0.126302 0.126953 0.127604 0.128255 0.128906 0.129557 0.130208 0.130859 0.131510 0.132161 0.132812 0.133464 0.134115 0.134766 0.135417 0.136068 0.136719 0.137370 0.138021 0.138672 0.139323 0.139974 0.140625 0.141276 0.141927 0.142578 0.143229 0.143880 0.144531 0.145182 0.145833 0.146484 0.147135 0.147786 0.148438 0.149089 0.149740 0.150391 0.151042 0.151693 0.152344 0.152995 0.153646 0.154297 0.154948 0.155599 0.156250 0.156901 0.157552 0.158203 0.158854 0.159505 0.160156 0.160807 0.161458 0.162109 0.162760 0.163411 0.164062 0.164714 0.165365 0.166016 0.166667 0.167318 0.167969 0.168620 0.169271 0.169922 0.170573 0.171224 0.171875 0.172526 0.173177 0.173828 0.174479 0.175130 0.175781 0.176432 0.177083 0.177734 0.178385 0.179036 0.179688 0.180339 0.180990 0.181641 0.182292 0.182943 0.183594 0.184245 0.184896 0.185547 0.186198 0.186849 0.187500 0.188151 0.188802 0.189453 0.190104 0.190755 0.191406 0.192057 0.192708 0.193359 0.194010 0.194661 0.195312 0.195964 0.196615 0.197266 0.197917 0.198568 0.199219 0.199870 0.200521 0.201172 0.201823 0.202474 0.203125 0.203776 0.204427 0.205078 0.205729 0.206380 0.207031 0.207682 0.208333 0.208984 0.209635 0.210286 0.210938 0.211589 0.212240 0.212891 0.213542 0.214193 0.214844 0.215495 0.216146 0.216797 0.217448 0.218099 0.218750 0.219401 0.220052 0.220703 0.221354 0.222005 0.222656 0.223307 0.223958 0.224609 0.225260 0.225911 0.226562 0.227214 0.227865 0.228516 0.229167 0.229818 0.230469 0.231120 0.231771 0.232422 0.233073 0.233724 0.234375 0.235026 0.235677
       0.34365        0.34365        0.34365        0.34365        0.34365        0.34365        0.34365        0.34365        0.34365        0.34365        0.34365        0.34365        0.34365        0.34365        0.34365        0.34365        0.34365        0.34365        0.34365        0.34365        0.34365        0.34365        0.34365        0.34365        0.34365        0.34365        0.34365        0.34365        0.34365        0.34365        0.34365        0.34365        0.34365        0.34365        0.34365        0.34365        0.34365        0.34365        0.34365        0.34365        0.34365        0.34365        0.34365        0.34365        0.34365        0.34365        0.34365        0.34365        0.34365        0.34365        0.34365        0.45027        0.65855        0.33732        0.16714       -0.03607       -0.25736       -0.06838       -0.15721       -0.15101        0.00566       -0.11771       -0.12399       -0.05258       -0.04042       -0.13583       -0.16399       -0.31136       -0.46338       -0.54780       -0.50959       -0.42022       -0.31792       -0.47853       -0.37179       -0.49252       -0.40100       -0.44104       -0.28962       -0.27343       -0.28202       -0.16453       -0.10488       -0.07678        0.05865        0.02140        0.18721        0.17264        0.31236        0.37755        0.49819        0.51841        0.55501        0.59501        0.72010        0.61822        0.59152        0.52392        0.51915        0.60067        0.49435        0.46793        0.40172        0.30892        0.27540        0.28674        0.25902        0.15478        0.15288        0.02441        0.09116        0.08603        0.06760        0.09390        0.12882        0.21063        0.28942        0.28508        0.32350        0.47023        0.48307        0.50219        0.63785        0.63153        0.58312        0.60192        0.59791        0.46807        0.47980        0.38089        0.34297        0.28348        0.21982        0.20287        0.17755        0.13630        0.18713        0.21728        0.23142        0.25146        0.32469        0.36662        0.38541        0.47394        0.50957        0.50706        0.48421        0.57856        0.49440        0.49128        0.47613        0.38363        0.32642        0.27479        0.28838        0.21149        0.22719        0.23272        0.21570        0.22317        0.30399        0.36942        0.41105        0.44726        0.44325        0.48467        0.45257        0.46664        0.40415        0.38818        0.35227        0.37275        0.37048        0.36247        0.26260        0.31122        0.26639        0.26856        0.28538        0.34587        0.37806        0.41297        0.43567        0.46417        0.43521        0.41929        0.45599        0.37810        0.35033        0.35694        0.31122        0.33653        0.28085        0.31928        0.31217        0.32522        0.36231        0.38888        0.41214        0.43242        0.39068        0.39659        0.37478        0.39426        0.29815        0.31355        0.30494        0.24771        0.32708        0.31333        0.33237        0.35188        0.36108        0.37325        0.37417        0.44656        0.38338        0.36064        0.35143        0.30322        0.29284        0.31451        0.31409        0.34756        0.33107        0.34745        0.33075        0.39217        0.36331        0.37635        0.39679        0.38290        0.34176        0.31666        0.33978        0.31742        0.34410        0.30779        0.35223        0.35324        0.34456        0.32266        0.34691        0.32559        0.28449        0.28700        0.28740        0.31561        0.32801        0.35291        0.33039        0.31992        0.33613        0.33073        0.31019        0.28908        0.32440        0.33612        0.31854        0.29818        0.32569        0.32659        0.34013        0.31556        0.33559        0.35124        0.33219        0.33295        0.30086        0.26230        0.29975        0.33783        0.32732        0.31377        0.35768        0.32391        0.29283        0.33219        0.32730        0.30819        0.30097        0.27174        0.32426        0.34832        0.35552        0.29346        0.28683        0.29225        0.26762        0.26253        0.32191        0.31443        0.31379        0.31450        0.30173        0.27860        0.34646        0.33595        0.33763        0.31397        0.29859        0.32730        0.36019        0.39770        0.30479        0.32673        0.32938        0.34615        0.29592        0.32096        0.32056        0.25012        0.32609        0.36389        0.32425        0.33828        0.30169        0.27390        0.25179        0.29815        0.30737        0.35095        0.32327        0.27685        0.22617        0.30195        0.31699        0.28012        0.26040        0.24022        0.28666        0.26012        0.31025        0.27077        0.30297        0.31607        0.24651        0.30558        0.27320        0.19194        0.20165        0.25038        0.19392        0.24191        0.22543        0.22614        0.36472        0.26253        0.28235        0.27955        0.18510        0.25128        0.33786        0.22132        0.12859        0.25680        0.20415        0.22471        0.32468        0.11412        0.04066       -0.40500       -0.55763
2.887520 2.856337 2.825324 2.794481 2.763809 2.733308 2.702976 2.672815 2.642825 2.613005 2.583356 2.553877 2.524568 2.495430 2.466462 2.437665 2.409038 2.380581 2.352295 2.324180 2.296235 2.268460 2.240856 2.213422 2.186158 2.159066 2.132143 2.105391 2.078809 2.052398 2.026157 2.000087 1.974187 1.948458 1.922899 1.897510 1.872292 1.847244 1.822367 1.797660 1.773123 1.748757 1.724562 1.700537 1.676682 1.652998 1.629484 1.606141 1.582968 1.559965 1.537133 1.544347 1.910501 1.708215 1.039372 1.111399 0.481427 0.938498 0.581164 0.747455 0.885440 0.689967 0.604175 0.782205 0.737693 0.608331 0.571182 0.352597 0.056618 0.003110 -0.017037 -0.037007 0.351890 -0.052822 0.069250 -0.053273 0.010508 -0.041700 0.120386 0.128543 0.101992 0.212999 0.311283 0.290596 0.464133 0.388310 0.644122 0.524249 0.773873 0.745936 0.927953 1.024720 0.947076 1.055593 1.138302 1.121349 1.029377 0.876638 0.880089 0.966184 0.821241 0.801478 0.663765 0.553832 0.486165 0.466559 0.456161 0.258367 0.299331 0.110424 0.090285 0.165676 0.077450 0.079321 0.151641 0.188582 0.328049 0.325466 0.378809 0.406845 0.602222 0.434946 0.688776 0.814410 0.610028 0.673326 0.679113 0.495262 0.413474 0.394161 0.253857 0.241117 0.063110 0.095779 -0.008277 -0.010337 -0.051504 0.024764 0.067475 0.045057 0.087348 0.209407 0.232537 0.250994 0.384644 0.350378 0.360593 0.403633 0.379607 0.326183 0.305791 0.262555 0.094126 0.064701 0.003980 -0.033360 -0.084289 -0.046832 -0.054975 -0.089246 -0.064230 0.065209 0.179125 0.186754 0.194250 0.243268 0.295057 0.210263 0.210720 0.203449 0.095809 0.074917 0.174426 0.072580 0.023876 -0.009296 0.042619 -0.061873 0.006641 0.000589 0.120897 0.103121 0.130626 0.199047 0.237843 0.096334 0.171310 0.166058 0.091322 0.047021 0.034791 0.044751 -0.017486 -0.010525 -0.009690 -0.008647 0.049853 0.062753 0.096654 0.163537 0.123236 0.067097 0.067421 0.111096 0.045481 -0.074016 0.001196 -0.053983 -0.076486 0.002961 -0.021630 0.050816 0.008621 0.040298 0.093704 0.132936 0.168368 0.043472 0.071742 0.063281 -0.067052 -0.000043 0.015939 0.012624 0.059037 0.051154 0.026939 0.061716 0.084903 0.082340 0.111114 0.134000 0.052998 0.049024 0.032281 0.029099 0.013930 0.069303 0.005616 0.077224 0.063531 0.004659 -0.001554 0.052721 0.001604 -0.065691 -0.029182 -0.039180 -0.015953 0.029875 0.059008 0.021349 -0.012951 0.041166 0.017663 0.023311 -0.012644 0.024777 0.033944 0.023403 -0.008638 0.027802 0.021975 0.044150 0.023844 0.078542 0.060076 0.053851 0.036980 -0.009203 -0.077810 0.019442 0.049189 0.053232 0.005858 0.097392 0.017378 -0.034775 0.027446 0.012833 0.015941 -0.059684 -0.054634 0.059611 0.032119 0.022787 -0.051452 -0.034429 -0.031119 -0.107478 -0.033506 -0.024624 0.018341 0.000203 -0.016714 -0.043848 -0.056025 0.027304 -0.023333 -0.078584 -0.005325 -0.091850 -0.008047 0.022228 0.049295 -0.080068 -0.066188 0.000552 -0.054986 -0.131037 -0.056771 -0.052729 -0.146042 -0.037041 0.042815 -0.054897 -0.064978 -0.051228 -0.090788 -0.094939 -0.008471 -0.077086 0.076680 -0.046460 -0.041991 -0.109942 0.013282 -0.012936 -0.059100 -0.003674 -0.125641 0.075035 -0.052149 0.073428 -0.030597 0.019774 0.110678 -0.051928 0.121824 -0.001174 -0.104185 -0.045580 -0.009006 -0.054837 -0.080955 0.039931 -0.010435 0.210616 -0.008161 0.120203 0.040807 -0.055405 0.038422 0.169443 0.261143 0.058904 0.334941 0.301672 0.226060 0.444492 0.018783 0.061428 -0.732169
0.072396 0.072908 0.074445 0.077005 0.080589 0.085194 0.090821 0.097468 0.105131 0.113809 0.123497 0.134191 0.145886 0.158574 0.172249 0.186899 0.202514 0.219079 0.236580 0.254997 0.274310 0.294495 0.315525 0.337367 0.359987 0.383347 0.407402 0.432104 0.457400 0.483230 0.509530 0.536230 0.563253 0.590515 0.617927 0.645393 0.672808 0.700063 0.727040 0.753614 0.779653 0.805019 0.829567 0.853143 0.875591 0.896747 0.916441 0.934501 0.950748 0.965002 0.977082 0.986804 0.993984 0.998442 1.000000 0.998482 0.993723 0.985563 0.973851 0.958452 0.939242 0.916114 0.888980 0.857773 0.822449 0.782990 0.739404 0.691732 0.640046 0.584451 0.525092 0.462147 0.395837 0.326423 0.254207 0.179533 0.102786 0.024395 0.055172 0.135408 0.215766 0.295669 0.374503 0.451632 0.526394 0.598110 0.666090 0.729640 0.788068 0.840692 0.886850 0.925908 0.957269 0.980386 0.994766 0.999986 0.995698 0.981644 0.957659 0.923686 0.879780 0.826115 0.762993 0.690845 0.610234 0.521858 0.426547 0.325263 0.219088 0.109225 0.003020 0.116248 0.228979 0.339677 0.446764 0.548647 0.643736 0.730479 0.807384 0.873044 0.926177 0.965643 0.990479 0.999925 0.993446 0.970758 0.931848 0.876984 0.806730 0.721953 0.623816 0.513778 0.393581 0.265226 0.130948 0.006816 0.145465 0.282287 0.414505 0.539335 0.654048 0.756029 0.842849 0.912319 0.962561 0.992061 0.999727 0.984932 0.947553 0.887997 0.807218 0.706720 0.588539 0.455224 0.309787 0.155651 0.003421 0.163421 0.320181 0.469487 0.607196 0.729350 0.832299 0.912821 0.968233 0.996493 0.996287 0.967104 0.909282 0.824034 0.713449 0.580460 0.428789 0.262858 0.087674 0.091309 0.268356 0.437632 0.593393 0.730189 0.843065 0.927751 0.980845 0.999963 0.983868 0.932559 0.847320 0.730716 0.586552 0.419771 0.236309 0.042896 0.153169 0.344292 0.522877 0.681629 0.813867 0.913821 0.976900 0.999934 0.981353 0.921316 0.821764 0.686393 0.520563 0.331106 0.126078 0.085571 0.294365 0.490737 0.665456 0.810087 0.917412 0.981811 0.999601 0.969266 0.891614 0.769807 0.609280 0.417541 0.203858 0.021169 0.246111 0.459282 0.649355 0.805971 0.920327 0.985712 0.997927 0.955604 0.860369 0.716836 0.532447 0.317125 0.082781 0.157314 0.389276 0.599396 0.774973 0.905106 0.981398 0.998552 0.954785 0.852042 0.695978 0.495720 0.263376 0.013348 0.238528 0.475978 0.683340 0.846625 0.954481 0.999052 0.976588 0.887824 0.738052 0.536881 0.297685 0.036763 0.227738 0.477056 0.693171 0.860111 0.965176 0.999976 0.961148 0.850754 0.676261 0.450130 0.188974 0.087591 0.358401 0.602338 0.800021 0.935354 0.996914 0.978979 0.882138 0.713404 0.485799 0.217436 0.069875 0.352347 0.606181 0.809589 0.944699 0.999205 0.967558 0.851621 0.660688 0.410837 0.123665 0.175518 0.459895 0.703527 0.883764 0.983406 0.992429 0.909088 0.740278 0.501085 0.213534 0.095352 0.396050 0.659348 0.859209 0.975397 0.995628 0.916964 0.746328 0.500021 0.202286 0.116997 0.425263 0.690559 0.884910 0.987318 0.986143 0.880546 0.680807 0.407478 0.089367 0.239392 0.542992 0.787831 0.946298 0.999981 0.941920 0.777645 0.524812 0.211439 0.127078 0.451925 0.725287 0.914796 0.997465 0.962589 0.813280 0.566380 0.250713 0.096151 0.432300 0.716527 0.913420 0.997865 0.958390 0.798880 0.538389 0.209038 0.147824 0.486739 0.763919 0.942959 0.999720 0.925754 0.729715 0.436545 0.084475 0.279839 0.607460 0.853733 0.984482
1.000000 1.000000 1.000000 1.000000 1.000000 1.000000 1.000000 1.000000 1.000000 1.000000 1.000000 1.000000 1.000000 1.000000 1.000000 1.000000 1.000000 1.000000 1.000000 1.000000 1.000000 1.000000 1.000000 1.000000 1.000000 1.000000 1.000000 1.000000 1.000000 1.000000 1.000000 1.000000 1.000000 1.000000 1.000000 1.000000 1.000000 1.000000 1.000000 1.000000 1.000000 1.000000 1.000000 1.000000 1.000000 1.000000 1.000000 1.000000 1.000000 1.000000 1.000000 1.000000 0.874123 0.874123 0.874123 0.880030 0.880030 0.880030 0.880030 0.880030 0.880030 0.880030 0.880030 0.880030 0.880030 0.880030 0.880030 0.880030 0.880030 0.880030 0.880030 0.880030 0.880030 0.880030 0.880030 0.880030 0.880030 0.880030 0.880030 0.880030 0.880030 0.880030 0.880030 0.880030 0.880030 0.880030 0.880030 0.880030 0.880030 0.880030 0.880030 0.880030 0.880030 0.880030 0.880030 0.880030 0.885537 0.888358 0.890037 0.892259 0.893690 0.891016 0.890089 0.889738 0.889962 0.891259 0.901860 0.916819 0.931698 0.948325 0.955566 0.957246 0.960500 0.960445 0.966876 0.974809 0.973521 0.974154 0.974470 0.975796 0.960726 0.958925 0.953749 0.948972 0.978408 0.960959 0.958361 0.950928 0.944421 0.943155 0.942923 0.942711 0.943077 0.943779 0.944763 0.944613 0.945359 0.945387 0.942742 0.931578 0.927494 0.927342 0.927681 0.920036 0.903323 0.897116 0.895165 0.894887 0.890669 0.890908 0.891226 0.892279 0.889945 0.890443 0.868486 0.865514 0.863602 0.859604 0.857518 0.859804 0.859984 0.864275 0.861674 0.849422 0.825674 0.810867 0.796768 0.771133 0.755533 0.765237 0.766832 0.763545 0.762470 0.759344 0.756412 0.756550 0.750657 0.753956 0.752299 0.747322 0.735882 0.732291 0.717465 0.712420 0.707212 0.685141 0.713448 0.725425 0.725119 0.723215 0.723270 0.716771 0.724898 0.714736 0.705796 0.697844 0.690091 0.682163 0.667991 0.661850 0.676900 0.678304 0.661481 0.670206 0.695961 0.692869 0.698176 0.702789 0.709938 0.707982 0.699622 0.659068 0.649489 0.667322 0.665876 0.662374 0.663608 0.660591 0.658548 0.654753 0.649811 0.615183 0.592182 0.598243 0.603701 0.625124 0.633857 0.641371 0.603961 0.587528 0.549070 0.511254 0.527256 0.518313 0.509368 0.513194 0.492937 0.488284 0.492211 0.501031 0.501478 0.528503 0.526060 0.515146 0.508327 0.494063 0.497052 0.491096 0.455345 0.462804 0.439387 0.421786 0.441174 0.467089 0.432120 0.458654 0.488396 0.441982 0.439256 0.442499 0.396861 0.372259 0.348418 0.298254 0.297725 0.201732 0.184276 0.178893 0.198754 0.192176 0.145444 0.147092 0.160232 0.139438 0.109245 0.079688 0.057971 0.006350 -0.003935 0.003397 -0.004310 -0.018965 -0.048371 -0.048024 -0.007405 -0.000409 -0.015179 0.000413 -0.026832 -0.028627 -0.027771 -0.069361 -0.090767 -0.117027 -0.120931 -0.178843 -0.167213 -0.169594 -0.154672 -0.191525 -0.198200 -0.184301 -0.164744 -0.199743 -0.212264 -0.225314 -0.209881 -0.212765 -0.183992 -0.165221 -0.162185 -0.165576 -0.187236 -0.160066 -0.162478 -0.189434 -0.173353 -0.190204 -0.184115 -0.164510 -0.152619 -0.120242 -0.074974 -0.050841 -0.055382 -0.063098 -0.088178 -0.059461 -0.055804 -0.063837 -0.081587 -0.116456 -0.127496 -0.127496 -0.127496 -0.127496 -0.127496 -0.120107 -0.120107 -0.120107 -0.120107 -0.120107 -0.120107 -0.120107 -0.120107 -0.120107 -0.052663 -0.052663 -0.052663 -0.052663 -0.052663 -0.052663 -0.052663 -0.052663 -0.052663 -0.052663 -0.052663 -0.052663 -0.052663 -0.052663 -0.052663 -0.052663 -0.052663
0.000000 0.000000 0.000000 0.000000 0.000000 0.000000 0.000000 0.000000 0.000000 0.000000 0.000000 0.000000 0.000000 0.000000 0.000000 0.000000 0.000000 0.000000 0.000000 0.000000 0.000000 0.000000 0.000000 0.000000 0.000000 0.000000 0.000000 0.000000 0.000000 0.000000 0.000000 0.000000 0.000000 0.000000 0.000000 0.000000 0.000000 0.000000 0.000000 0.000000 0.000000 0.000000 0.000000 0.000000 0.000000 0.000000 0.000000 0.000000 0.000000 0.000000 0.000000 0.000000 0.180334 0.180334 0.180334 0.199007 0.199007 0.199007 0.199007 0.199007 0.199007 0.199007 0.199007 0.199007 0.199007 0.199007 0.199007 0.199007 0.199007 0.199007 0.199007 0.199007 0.199007 0.199007 0.199007 0.199007 0.199007 0.199007 0.199007 0.199007 0.199007 0.199007 0.199007 0.199007 0.199007 0.199007 0.199007 0.199007 0.199007 0.199007 0.199007 0.199007 0.199007 0.199007 0.199007 0.199007 0.230940 0.230940 0.230940 0.230940 0.230940 0.230940 0.230940 0.230940 0.230940 0.230940 0.230940 0.230940 0.230940 0.230940 0.230940 0.230940 0.230940 0.230940 0.230940 0.230940 0.230940 0.230940 0.230940 0.230940 0.230940 0.230940 0.230940 0.230940 0.248069 0.248069 0.248069 0.248069 0.248069 0.248069 0.248069 0.248069 0.248069 0.248069 0.248069 0.248069 0.248069 0.248069 0.248069 0.248069 0.248069 0.248069 0.248069 0.248069 0.248069 0.248069 0.251976 0.251976 0.251976 0.251976 0.251976 0.251976 0.251976 0.251976 0.251976 0.251976 0.251976 0.251976 0.251976 0.251976 0.251976 0.251976 0.251976 0.251976 0.251976 0.251976 0.256074 0.256074 0.256074 0.256074 0.256074 0.256074 0.256074 0.256074 0.256074 0.256074 0.256074 0.256074 0.256074 0.256074 0.256074 0.256074 0.256074 0.256074 0.264906 0.264906 0.264906 0.264906 0.264906 0.264906 0.264906 0.264906 0.264906 0.264906 0.264906 0.264906 0.264906 0.264906 0.264906 0.264906 0.269680 0.269680 0.269680 0.269680 0.269680 0.269680 0.269680 0.269680 0.269680 0.269680 0.269680 0.269680 0.269680 0.269680 0.264906 0.264906 0.264906 0.264906 0.264906 0.264906 0.264906 0.264906 0.264906 0.264906 0.264906 0.264906 0.264906 0.264906 0.264906 0.264906 0.264906 0.264906 0.264906 0.264906 0.264906 0.264906 0.264906 0.264906 0.264906 0.264906 0.264906 0.260378 0.260378 0.260378 0.260378 0.260378 0.260378 0.260378 0.260378 0.260378 0.260378 0.260378 0.260378 0.260378 0.274721 0.274721 0.274721 0.274721 0.274721 0.274721 0.274721 0.274721 0.274721 0.274721 0.274721 0.260378 0.260378 0.260378 0.260378 0.260378 0.260378 0.260378 0.260378 0.260378 0.260378 0.260378 0.260378 0.264906 0.264906 0.264906 0.264906 0.264906 0.264906 0.264906 0.264906 0.264906 0.264906 0.264906 0.269680 0.269680 0.269680 0.269680 0.269680 0.269680 0.269680 0.269680 0.269680 0.269680 0.264906 0.264906 0.264906 0.264906 0.264906 0.264906 0.264906 0.264906 0.264906 0.264906 0.260378 0.260378 0.260378 0.260378 0.260378 0.260378 0.260378 0.260378 0.260378 0.260378 0.264906 0.264906 0.264906 0.264906 0.264906 0.264906 0.264906 0.264906 0.264906 0.251976 0.251976 0.251976 0.251976 0.251976 0.251976 0.251976 0.251976 0.251976 0.251976 0.256074 0.256074 0.256074 0.256074 0.256074 0.256074 0.256074 0.256074 0.256074 0.269680 0.269680 0.269680 0.269680 0.269680 0.269680 0.269680 0.269680 0.269680 0.269680 0.269680 0.269680 0.269680 0.269680 0.269680 0.269680 0.269680
