# Output from CTFFind version 4.1.9, run on 2019-11-03 19:44:08
# Input file: stack1_bm3d_averaged_1_5.25_0_50_half.mrc ; Number of micrographs: 1
# Pixel size: 3.000 Angstroms ; acceleration voltage: 300.0 keV ; spherical aberration: 0.00 mm ; amplitude contrast: 0.07
# Box size: 512 pixels ; min. res.: 30.0 Angstroms ; max. res.: 5.0 Angstroms ; min. def.: 5000.0 um; max. def. 50000.0 um; num. frames averaged: 1
# 6 lines per micrograph: #1 - spatial frequency (1/Angstroms); #2 - 1D rotational average of spectrum (assuming no astigmatism); #3 - 1D rotational average of spectrum; #4 - CTF fit; #5 - cross-correlation between spectrum and CTF fit; #6 - 2sigma of expected cross correlation of noise
0.000000 0.000651 0.001302 0.001953 0.002604 0.003255 0.003906 0.004557 0.005208 0.005859 0.006510 0.007161 0.007812 0.008464 0.009115 0.009766 0.010417 0.011068 0.011719 0.012370 0.013021 0.013672 0.014323 0.014974 0.015625 0.016276 0.016927 0.017578 0.018229 0.018880 0.019531 0.020182 0.020833 0.021484 0.022135 0.022786 0.023438 0.024089 0.024740 0.025391 0.026042 0.026693 0.027344 0.027995 0.028646 0.029297 0.029948 0.030599 0.031250 0.031901 0.032552 0.033203 0.033854 0.034505 0.035156 0.035807 0.036458 0.037109 0.037760 0.038411 0.039062 0.039714 0.040365 0.041016 0.041667 0.042318 0.042969 0.043620 0.044271 0.044922 0.045573 0.046224 0.046875 0.047526 0.048177 0.048828 0.049479 0.050130 0.050781 0.051432 0.052083 0.052734 0.053385 0.054036 0.054688 0.055339 0.055990 0.056641 0.057292 0.057943 0.058594 0.059245 0.059896 0.060547 0.061198 0.061849 0.062500 0.063151 0.063802 0.064453 0.065104 0.065755 0.066406 0.067057 0.067708 0.068359 0.069010 0.069661 0.070312 0.070964 0.071615 0.072266 0.072917 0.073568 0.074219 0.074870 0.075521 0.076172 0.076823 0.077474 0.078125 0.078776 0.079427 0.080078 0.080729 0.081380 0.082031 0.082682 0.083333 0.083984 0.084635 0.085286 0.085938 0.086589 0.087240 0.087891 0.088542 0.089193 0.089844 0.090495 0.091146 0.091797 0.092448 0.093099 0.093750 0.094401 0.095052 0.095703 0.096354 0.097005 0.097656 0.098307 0.098958 0.099609 0.100260 0.100911 0.101562 0.102214 0.102865 0.103516 0.104167 0.104818 0.105469 0.106120 0.106771 0.107422 0.108073 0.108724 0.109375 0.110026 0.110677 0.111328 0.111979 0.112630 0.113281 0.113932 0.114583 0.115234 0.115885 0.116536 0.117188 0.117839 0.118490 0.119141 0.119792 0.120443 0.121094 0.121745 0.122396 0.123047 0.123698 0.124349 0.125000 0.125651 0.126302 0.126953 0.127604 0.128255 0.128906 0.129557 0.130208 0.130859 0.131510 0.132161 0.132812 0.133464 0.134115 0.134766 0.135417 0.136068 0.136719 0.137370 0.138021 0.138672 0.139323 0.139974 0.140625 0.141276 0.141927 0.142578 0.143229 0.143880 0.144531 0.145182 0.145833 0.146484 0.147135 0.147786 0.148438 0.149089 0.149740 0.150391 0.151042 0.151693 0.152344 0.152995 0.153646 0.154297 0.154948 0.155599 0.156250 0.156901 0.157552 0.158203 0.158854 0.159505 0.160156 0.160807 0.161458 0.162109 0.162760 0.163411 0.164062 0.164714 0.165365 0.166016 0.166667 0.167318 0.167969 0.168620 0.169271 0.169922 0.170573 0.171224 0.171875 0.172526 0.173177 0.173828 0.174479 0.175130 0.175781 0.176432 0.177083 0.177734 0.178385 0.179036 0.179688 0.180339 0.180990 0.181641 0.182292 0.182943 0.183594 0.184245 0.184896 0.185547 0.186198 0.186849 0.187500 0.188151 0.188802 0.189453 0.190104 0.190755 0.191406 0.192057 0.192708 0.193359 0.194010 0.194661 0.195312 0.195964 0.196615 0.197266 0.197917 0.198568 0.199219 0.199870 0.200521 0.201172 0.201823 0.202474 0.203125 0.203776 0.204427 0.205078 0.205729 0.206380 0.207031 0.207682 0.208333 0.208984 0.209635 0.210286 0.210938 0.211589 0.212240 0.212891 0.213542 0.214193 0.214844 0.215495 0.216146 0.216797 0.217448 0.218099 0.218750 0.219401 0.220052 0.220703 0.221354 0.222005 0.222656 0.223307 0.223958 0.224609 0.225260 0.225911 0.226562 0.227214 0.227865 0.228516 0.229167 0.229818 0.230469 0.231120 0.231771 0.232422 0.233073 0.233724 0.234375 0.235026 0.235677
       0.34865        0.34865        0.34865        0.34865        0.34865        0.34865        0.34865        0.34865        0.34865        0.34865        0.34865        0.34865        0.34865        0.34865        0.34865        0.34865        0.34865        0.34865        0.34865        0.34865        0.34865        0.34865        0.34865        0.34865        0.34865        0.34865        0.34865        0.34865        0.34865        0.34865        0.34865        0.34865        0.34865        0.34865        0.34865        0.34865        0.34865        0.34865        0.34865        0.34865        0.34865        0.34865        0.34865        0.34865        0.34865        0.34865        0.34865        0.34865        0.34865        0.34865        0.34865        0.40651        0.59666        0.28166        0.12691       -0.01522       -0.26688       -0.09329       -0.17453       -0.20472        0.01318       -0.13282       -0.11047       -0.06011       -0.04305       -0.13045       -0.15955       -0.29782       -0.40222       -0.50675       -0.44706       -0.35066       -0.27532       -0.40049       -0.30940       -0.40589       -0.34108       -0.38860       -0.20864       -0.20631       -0.25885       -0.09353       -0.04676       -0.05191        0.07884        0.02791        0.20410        0.21788        0.33479        0.36904        0.45262        0.48725        0.54299        0.60050        0.66332        0.56609        0.52881        0.50799        0.48614        0.56962        0.48231        0.42721        0.40348        0.32814        0.28661        0.30745        0.32066        0.21680        0.18230        0.09025        0.12780        0.12948        0.15681        0.12750        0.18709        0.23793        0.30594        0.29353        0.33077        0.46203        0.42225        0.48289        0.62876        0.62060        0.55206        0.55152        0.57437        0.42201        0.48092        0.37342        0.31563        0.28829        0.24784        0.24789        0.19426        0.16974        0.15132        0.22051        0.24578        0.26996        0.33786        0.32976        0.40625        0.47286        0.47313        0.45266        0.47802        0.54642        0.48995        0.47564        0.42509        0.35412        0.33978        0.26868        0.29706        0.23445        0.22172        0.27912        0.23117        0.25182        0.31804        0.41095        0.41041        0.44128        0.42730        0.50472        0.50028        0.47231        0.43663        0.39266        0.37959        0.38874        0.39997        0.34141        0.28282        0.31198        0.29009        0.29903        0.29749        0.34173        0.37750        0.39502        0.45020        0.48013        0.40442        0.42682        0.42709        0.40154        0.32843        0.36909        0.32273        0.31898        0.33141        0.28937        0.25804        0.32226        0.34267        0.41559        0.42607        0.41285        0.40603        0.39526        0.37258        0.37290        0.31214        0.32055        0.34926        0.29908        0.31023        0.32249        0.34542        0.34843        0.35001        0.38502        0.38630        0.46140        0.39597        0.34325        0.35800        0.34204        0.33395        0.32921        0.33276        0.37085        0.33378        0.35097        0.34708        0.41292        0.37361        0.35980        0.38625        0.38092        0.35728        0.33628        0.33053        0.30666        0.35507        0.33248        0.31015        0.32704        0.36132        0.34893        0.33617        0.33614        0.30625        0.29858        0.28001        0.31605        0.33663        0.34758        0.33253        0.32404        0.37103        0.33396        0.33647        0.32450        0.29981        0.33365        0.31260        0.31463        0.34303        0.32694        0.31650        0.29785        0.34255        0.36746        0.32565        0.31179        0.31491        0.31760        0.29661        0.34847        0.32585        0.28687        0.34219        0.29858        0.34040        0.35087        0.36689        0.31487        0.30864        0.26521        0.33306        0.36063        0.34334        0.31729        0.31026        0.33045        0.32342        0.29291        0.31977        0.32390        0.32053        0.30266        0.29265        0.29359        0.29222        0.29519        0.32066        0.27592        0.30165        0.36083        0.36545        0.34242        0.31240        0.33041        0.28613        0.30772        0.29345        0.33072        0.33511        0.26652        0.26022        0.31688        0.32809        0.32430        0.28897        0.30640        0.32549        0.29330        0.30103        0.32359        0.33338        0.27962        0.25266        0.29730        0.33840        0.28623        0.26025        0.28699        0.27467        0.30869        0.36493        0.30688        0.33214        0.27831        0.25736        0.29198        0.29104        0.23602        0.25579        0.27521        0.24748        0.21099        0.26715        0.30616        0.39027        0.29462        0.25056        0.20573        0.22414        0.25713        0.23966        0.35046        0.23505        0.17394        0.31029        0.41441        0.30075        0.10028        0.09356       -0.54668       -1.10961
2.366178 2.342268 2.318483 2.294821 2.271284 2.247870 2.224580 2.201415 2.178373 2.155455 2.132661 2.109991 2.087445 2.065023 2.042725 2.020551 1.998501 1.976575 1.954772 1.933094 1.911540 1.890110 1.868803 1.847621 1.826562 1.805628 1.784817 1.764131 1.743568 1.723129 1.702815 1.682624 1.662557 1.642614 1.622795 1.603100 1.583529 1.564083 1.544759 1.525560 1.506485 1.487534 1.468707 1.450004 1.431424 1.412969 1.394638 1.376430 1.358347 1.340387 1.322552 1.292378 1.708228 1.419815 0.963897 0.685243 0.041712 0.603920 0.172454 0.343908 0.608478 0.384785 0.281668 0.484281 0.423825 0.341815 0.242644 0.030195 -0.218438 -0.359795 -0.344592 -0.312043 0.135112 -0.354424 -0.155877 -0.292443 -0.209766 -0.344812 -0.037521 -0.068753 -0.156593 0.058641 0.198433 0.084479 0.319915 0.228582 0.566029 0.445142 0.729784 0.687655 0.815683 1.009426 0.901159 1.124693 1.149342 1.097797 0.900639 0.885396 0.878450 0.908411 0.863874 0.744075 0.618122 0.563234 0.479193 0.443979 0.487207 0.328502 0.268616 0.104003 0.071079 0.114656 0.150375 0.077496 0.123253 0.223476 0.335843 0.330974 0.404816 0.429586 0.589618 0.403144 0.796157 0.849200 0.708555 0.665021 0.736379 0.490210 0.470121 0.449340 0.230745 0.244335 0.076710 0.183492 -0.008152 0.013229 -0.073277 -0.050389 0.139408 0.045548 0.143451 0.220416 0.259888 0.356452 0.434140 0.364818 0.391027 0.469917 0.458041 0.410618 0.347463 0.247802 0.186417 0.102811 0.023539 0.033075 -0.085470 0.035197 0.038816 -0.072490 -0.026009 0.163497 0.316367 0.211142 0.316163 0.284482 0.474176 0.316684 0.311912 0.302509 0.174994 0.115338 0.326042 0.074318 0.084028 0.006672 0.082258 -0.009583 0.093496 -0.010593 0.189669 0.062891 0.220778 0.291025 0.290721 0.140400 0.212539 0.189786 0.104715 0.088546 0.085097 0.001306 0.020976 0.048934 -0.098891 -0.084169 0.053442 0.054357 0.244223 0.130604 0.172768 0.080457 0.106178 0.053495 0.032138 -0.074364 0.003591 0.001976 -0.079662 -0.032260 -0.009667 0.027027 -0.026510 0.027214 0.079123 0.101916 0.239570 0.005082 0.032573 0.026523 -0.025496 -0.001671 -0.017944 0.016236 0.084296 -0.040810 0.014301 0.040419 0.157117 0.022555 0.043758 0.104991 0.023856 0.044792 -0.018268 -0.003738 -0.039094 0.039787 -0.015902 -0.035247 -0.015514 0.074404 -0.032923 0.025024 -0.018493 -0.058680 -0.062408 -0.091654 -0.018425 0.020638 0.038760 -0.024140 -0.006839 0.083444 -0.005256 0.041425 -0.015573 -0.024611 0.028288 -0.035129 0.029514 0.048296 0.025024 -0.014565 -0.018902 0.080469 0.073596 0.029336 0.005158 0.039646 -0.023488 0.025849 0.082314 0.026068 -0.012507 0.082922 0.023044 0.037878 0.050160 0.077202 0.026147 -0.031133 -0.089324 0.061058 0.116018 0.004640 0.017076 -0.011770 0.121239 -0.029604 -0.040549 0.033024 0.051608 0.019690 -0.013513 -0.054772 0.007454 -0.053919 -0.010944 -0.011236 -0.095041 0.029414 0.102943 0.099059 0.020063 0.010356 -0.007211 -0.026190 -0.031003 -0.024543 0.010318 0.029926 -0.123772 -0.095082 0.005489 -0.001014 0.030026 -0.065478 -0.057127 -0.017101 -0.042017 -0.077206 0.058923 -0.008234 -0.039146 -0.123503 -0.025421 0.048273 -0.039774 -0.038762 -0.011062 0.029457 0.054823 0.154227 0.018603 0.085333 0.081976 -0.167302 0.091193 0.000080 -0.042010 -0.017436 0.062001 0.017835 -0.054224 0.028226 0.113789 0.217817 0.017060 0.095927 -0.128704 -0.015928 0.094042 -0.015220 0.238781 0.348624 0.283450 0.598341 0.744766 0.351882 0.016387 0.160153 -1.812068
0.072396 0.072906 0.074434 0.076982 0.080547 0.085130 0.090728 0.097341 0.104966 0.113600 0.123239 0.133880 0.145516 0.158142 0.171748 0.186326 0.201863 0.218348 0.235763 0.254092 0.273313 0.293402 0.314333 0.336075 0.358593 0.381850 0.405801 0.430399 0.455591 0.481320 0.507521 0.534125 0.561057 0.588233 0.615567 0.642963 0.670318 0.697524 0.724464 0.751015 0.777048 0.802426 0.827004 0.850632 0.873155 0.894411 0.914232 0.932446 0.948879 0.963351 0.975681 0.985689 0.993192 0.998009 0.999964 0.998884 0.994600 0.986954 0.975796 0.960988 0.942405 0.919940 0.893501 0.863018 0.828445 0.789757 0.746962 0.700091 0.649212 0.594425 0.535863 0.473700 0.408146 0.339454 0.267915 0.193863 0.117673 0.039762 0.039413 0.119355 0.199532 0.279373 0.358279 0.435622 0.510750 0.582991 0.651664 0.716079 0.775548 0.829392 0.876949 0.917583 0.950692 0.975720 0.992164 0.999588 0.997628 0.986004 0.964531 0.933124 0.891810 0.840731 0.780153 0.710472 0.632211 0.546030 0.452716 0.353190 0.248496 0.139794 0.028354 0.084460 0.197199 0.308353 0.416366 0.519657 0.616647 0.705781 0.785558 0.854553 0.911454 0.955083 0.984429 0.998673 0.997212 0.979686 0.945992 0.896309 0.831101 0.751131 0.657458 0.551436 0.434703 0.309159 0.176951 0.040434 0.097863 0.235279 0.369076 0.496485 0.614772 0.721295 0.813571 0.889333 0.946601 0.983734 0.999490 0.993072 0.964169 0.912985 0.840264 0.747293 0.635892 0.508402 0.367639 0.216852 0.059651 0.100070 0.258225 0.410636 0.553150 0.681751 0.792676 0.882542 0.948453 0.988107 0.999891 0.982957 0.937281 0.863697 0.763910 0.640478 0.496766 0.336873 0.165533 0.012020 0.190194 0.363220 0.525332 0.670966 0.794958 0.892738 0.960518 0.995448 0.995765 0.960888 0.891494 0.789535 0.658218 0.501927 0.326103 0.137077 0.058147 0.252139 0.437328 0.606285 0.752043 0.868395 0.950169 0.993489 0.995981 0.956926 0.877350 0.760044 0.609499 0.431770 0.234261 0.025438 0.185518 0.389106 0.575932 0.737156 0.864914 0.952738 0.995908 0.991730 0.939746 0.841822 0.702134 0.527037 0.324807 0.105288 0.120570 0.341236 0.545194 0.721546 0.860611 0.954483 0.997523 0.986728 0.921983 0.806158 0.645032 0.447062 0.222978 0.014762 0.252647 0.476869 0.674130 0.832444 0.941900 0.995319 0.988772 0.921916 0.798121 0.624367 0.410907 0.170717 0.081270 0.329049 0.556571 0.748790 0.892672 0.978128 0.998774 0.952462 0.841540 0.672821 0.457233 0.209169 0.054427 0.315188 0.554593 0.755303 0.902433 0.984705 0.995378 0.932864 0.800981 0.608807 0.370138 0.102560 0.173811 0.437808 0.668837 0.848503 0.962121 0.999979 0.958243 0.839411 0.652277 0.411363 0.135869 0.151802 0.427833 0.668968 0.854490 0.968050 0.999187 0.944364 0.807452 0.599571 0.338278 0.046173 0.251020 0.526667 0.755648 0.916655 0.994264 0.980487 0.875694 0.688774 0.436494 0.142099 0.166778 0.460645 0.710990 0.893064 0.988401 0.986778 0.887426 0.699315 0.440470 0.136360 0.182543 0.483766 0.736144 0.913083 0.995437 0.973689 0.849167 0.634139 0.350740 0.028798 0.297216 0.591866 0.822615 0.963462 0.997984 0.921374 0.741224 0.476933 0.157747 0.180373 0.498757 0.760435 0.934489 0.999798 0.947723 0.783400 0.525405 0.203803 0.143237 0.473910 0.747798 0.930867 0.999780 0.945025 0.772373 0.502463 0.168490 0.187748 0.521033 0.788441 0.954954 0.998142 0.911349 0.704879 0.404953 0.050565 0.311505 0.632804 0.869692
1.000000 1.000000 1.000000 1.000000 1.000000 1.000000 1.000000 1.000000 1.000000 1.000000 1.000000 1.000000 1.000000 1.000000 1.000000 1.000000 1.000000 1.000000 1.000000 1.000000 1.000000 1.000000 1.000000 1.000000 1.000000 1.000000 1.000000 1.000000 1.000000 1.000000 1.000000 1.000000 1.000000 1.000000 1.000000 1.000000 1.000000 1.000000 1.000000 1.000000 1.000000 1.000000 1.000000 1.000000 1.000000 1.000000 1.000000 1.000000 1.000000 1.000000 1.000000 1.000000 0.824794 0.824794 0.824794 0.825820 0.825820 0.825820 0.825820 0.825820 0.825820 0.825820 0.825820 0.825820 0.825820 0.825820 0.825820 0.825820 0.825820 0.825820 0.825820 0.825820 0.825820 0.825820 0.825820 0.825820 0.825820 0.825820 0.825820 0.825820 0.825820 0.825820 0.825820 0.825820 0.825820 0.825820 0.825820 0.825820 0.825820 0.825820 0.825820 0.825820 0.825820 0.825820 0.825820 0.825820 0.832245 0.837152 0.840279 0.843432 0.846144 0.843072 0.841769 0.841112 0.841311 0.842529 0.854239 0.879156 0.896137 0.902311 0.912814 0.916687 0.921297 0.921752 0.928952 0.931210 0.962640 0.959570 0.958679 0.960074 0.949142 0.938996 0.936493 0.933928 0.950148 0.939149 0.935157 0.931045 0.929129 0.926571 0.926580 0.928065 0.925027 0.925582 0.926292 0.926718 0.925098 0.922964 0.921743 0.904991 0.905958 0.905391 0.908562 0.887175 0.880549 0.871424 0.868669 0.879800 0.872622 0.865656 0.864516 0.853691 0.854807 0.854805 0.854778 0.841891 0.839989 0.837459 0.834341 0.833896 0.832939 0.838680 0.838909 0.840574 0.827771 0.801072 0.784810 0.761915 0.760961 0.760298 0.764150 0.758128 0.758415 0.754545 0.751596 0.744460 0.742438 0.736555 0.739886 0.736060 0.728316 0.721887 0.697542 0.686486 0.689992 0.659672 0.653893 0.660514 0.661418 0.635074 0.630469 0.633060 0.638974 0.643478 0.650259 0.644308 0.633370 0.600187 0.575692 0.556489 0.571966 0.584311 0.572368 0.575416 0.551610 0.590000 0.595696 0.620919 0.633499 0.635307 0.625189 0.587853 0.545777 0.545738 0.533967 0.534910 0.533639 0.532874 0.541350 0.568925 0.548238 0.531488 0.526084 0.519876 0.524455 0.537941 0.522044 0.516114 0.491538 0.467417 0.451207 0.459056 0.428220 0.407111 0.400424 0.393905 0.383346 0.386301 0.398582 0.397647 0.391194 0.396583 0.396402 0.404781 0.369555 0.320287 0.320816 0.313549 0.314193 0.300524 0.289813 0.293861 0.303970 0.313584 0.347293 0.318404 0.296275 0.268549 0.282457 0.270335 0.291690 0.270789 0.257042 0.237636 0.203743 0.171634 0.174233 0.209032 0.239630 0.205201 0.179178 0.160547 0.157192 0.132758 0.124644 0.059633 0.003015 -0.010929 0.000553 0.000616 0.011367 0.022870 0.007563 0.027037 0.037177 0.073594 0.045738 0.037348 0.040291 0.049838 0.014609 0.011856 -0.010096 -0.025444 -0.014627 0.009371 -0.022660 -0.030627 -0.056901 -0.043180 -0.087832 -0.081802 -0.090143 -0.084970 -0.096095 -0.134864 -0.138399 -0.151301 -0.164733 -0.156142 -0.152348 -0.160037 -0.209809 -0.215033 -0.203784 -0.206539 -0.201000 -0.171593 -0.177155 -0.150701 -0.152228 -0.150871 -0.113832 -0.115042 -0.130205 -0.133373 -0.118742 -0.132025 -0.133140 -0.082477 -0.078386 -0.118778 -0.118608 -0.118608 -0.118608 -0.118608 -0.118608 -0.118608 -0.103092 -0.103092 -0.103092 -0.103092 -0.103092 -0.103092 -0.103092 -0.103092 -0.103092 -0.042450 -0.042450 -0.042450 -0.042450 -0.042450 -0.042450 -0.042450 -0.042450 -0.042450 -0.042450 -0.042450 -0.042450 -0.042450 -0.042450 -0.042450 -0.042450
0.000000 0.000000 0.000000 0.000000 0.000000 0.000000 0.000000 0.000000 0.000000 0.000000 0.000000 0.000000 0.000000 0.000000 0.000000 0.000000 0.000000 0.000000 0.000000 0.000000 0.000000 0.000000 0.000000 0.000000 0.000000 0.000000 0.000000 0.000000 0.000000 0.000000 0.000000 0.000000 0.000000 0.000000 0.000000 0.000000 0.000000 0.000000 0.000000 0.000000 0.000000 0.000000 0.000000 0.000000 0.000000 0.000000 0.000000 0.000000 0.000000 0.000000 0.000000 0.000000 0.180334 0.180334 0.180334 0.199007 0.199007 0.199007 0.199007 0.199007 0.199007 0.199007 0.199007 0.199007 0.199007 0.199007 0.199007 0.199007 0.199007 0.199007 0.199007 0.199007 0.199007 0.199007 0.199007 0.199007 0.199007 0.199007 0.199007 0.199007 0.199007 0.199007 0.199007 0.199007 0.199007 0.199007 0.199007 0.199007 0.199007 0.199007 0.199007 0.199007 0.199007 0.199007 0.199007 0.199007 0.230940 0.230940 0.230940 0.230940 0.230940 0.230940 0.230940 0.230940 0.230940 0.230940 0.230940 0.230940 0.230940 0.230940 0.230940 0.230940 0.230940 0.230940 0.230940 0.230940 0.230940 0.230940 0.230940 0.230940 0.230940 0.230940 0.230940 0.230940 0.244339 0.244339 0.244339 0.244339 0.244339 0.244339 0.244339 0.244339 0.244339 0.244339 0.244339 0.244339 0.244339 0.244339 0.244339 0.244339 0.244339 0.244339 0.244339 0.244339 0.244339 0.244339 0.244339 0.256074 0.256074 0.256074 0.256074 0.256074 0.256074 0.256074 0.256074 0.256074 0.256074 0.256074 0.256074 0.256074 0.256074 0.256074 0.256074 0.256074 0.256074 0.256074 0.256074 0.256074 0.256074 0.256074 0.256074 0.256074 0.256074 0.256074 0.256074 0.256074 0.256074 0.256074 0.256074 0.256074 0.256074 0.256074 0.256074 0.256074 0.264906 0.264906 0.264906 0.264906 0.264906 0.264906 0.264906 0.264906 0.264906 0.264906 0.264906 0.264906 0.264906 0.264906 0.264906 0.264906 0.264906 0.264906 0.264906 0.264906 0.264906 0.264906 0.264906 0.264906 0.264906 0.264906 0.264906 0.264906 0.264906 0.264906 0.264906 0.264906 0.264906 0.264906 0.264906 0.264906 0.264906 0.264906 0.264906 0.264906 0.264906 0.264906 0.264906 0.264906 0.264906 0.264906 0.264906 0.264906 0.264906 0.264906 0.264906 0.264906 0.264906 0.264906 0.264906 0.264906 0.264906 0.264906 0.269680 0.269680 0.269680 0.269680 0.269680 0.269680 0.269680 0.269680 0.269680 0.269680 0.269680 0.269680 0.264906 0.264906 0.264906 0.264906 0.264906 0.264906 0.264906 0.264906 0.264906 0.264906 0.264906 0.264906 0.269680 0.269680 0.269680 0.269680 0.269680 0.269680 0.269680 0.269680 0.269680 0.269680 0.269680 0.264906 0.264906 0.264906 0.264906 0.264906 0.264906 0.264906 0.264906 0.264906 0.264906 0.264906 0.256074 0.256074 0.256074 0.256074 0.256074 0.256074 0.256074 0.256074 0.256074 0.256074 0.256074 0.264906 0.264906 0.264906 0.264906 0.264906 0.264906 0.264906 0.264906 0.264906 0.264906 0.260378 0.260378 0.260378 0.260378 0.260378 0.260378 0.260378 0.260378 0.260378 0.260378 0.264906 0.264906 0.264906 0.264906 0.264906 0.264906 0.264906 0.264906 0.264906 0.251976 0.251976 0.251976 0.251976 0.251976 0.251976 0.251976 0.251976 0.251976 0.251976 0.256074 0.256074 0.256074 0.256074 0.256074 0.256074 0.256074 0.256074 0.256074 0.269680 0.269680 0.269680 0.269680 0.269680 0.269680 0.269680 0.269680 0.269680 0.269680 0.269680 0.269680 0.269680 0.269680 0.269680 0.269680
