# Output from CTFFind version 4.1.9, run on 2019-11-03 20:08:07
# Input file: stack11_bm3d_averaged_1_10_0_1500_half.mrc ; Number of micrographs: 1
# Pixel size: 3.000 Angstroms ; acceleration voltage: 300.0 keV ; spherical aberration: 0.00 mm ; amplitude contrast: 0.07
# Box size: 512 pixels ; min. res.: 30.0 Angstroms ; max. res.: 5.0 Angstroms ; min. def.: 5000.0 um; max. def. 50000.0 um; num. frames averaged: 1
# 6 lines per micrograph: #1 - spatial frequency (1/Angstroms); #2 - 1D rotational average of spectrum (assuming no astigmatism); #3 - 1D rotational average of spectrum; #4 - CTF fit; #5 - cross-correlation between spectrum and CTF fit; #6 - 2sigma of expected cross correlation of noise
0.000000 0.000651 0.001302 0.001953 0.002604 0.003255 0.003906 0.004557 0.005208 0.005859 0.006510 0.007161 0.007812 0.008464 0.009115 0.009766 0.010417 0.011068 0.011719 0.012370 0.013021 0.013672 0.014323 0.014974 0.015625 0.016276 0.016927 0.017578 0.018229 0.018880 0.019531 0.020182 0.020833 0.021484 0.022135 0.022786 0.023438 0.024089 0.024740 0.025391 0.026042 0.026693 0.027344 0.027995 0.028646 0.029297 0.029948 0.030599 0.031250 0.031901 0.032552 0.033203 0.033854 0.034505 0.035156 0.035807 0.036458 0.037109 0.037760 0.038411 0.039062 0.039714 0.040365 0.041016 0.041667 0.042318 0.042969 0.043620 0.044271 0.044922 0.045573 0.046224 0.046875 0.047526 0.048177 0.048828 0.049479 0.050130 0.050781 0.051432 0.052083 0.052734 0.053385 0.054036 0.054688 0.055339 0.055990 0.056641 0.057292 0.057943 0.058594 0.059245 0.059896 0.060547 0.061198 0.061849 0.062500 0.063151 0.063802 0.064453 0.065104 0.065755 0.066406 0.067057 0.067708 0.068359 0.069010 0.069661 0.070312 0.070964 0.071615 0.072266 0.072917 0.073568 0.074219 0.074870 0.075521 0.076172 0.076823 0.077474 0.078125 0.078776 0.079427 0.080078 0.080729 0.081380 0.082031 0.082682 0.083333 0.083984 0.084635 0.085286 0.085938 0.086589 0.087240 0.087891 0.088542 0.089193 0.089844 0.090495 0.091146 0.091797 0.092448 0.093099 0.093750 0.094401 0.095052 0.095703 0.096354 0.097005 0.097656 0.098307 0.098958 0.099609 0.100260 0.100911 0.101562 0.102214 0.102865 0.103516 0.104167 0.104818 0.105469 0.106120 0.106771 0.107422 0.108073 0.108724 0.109375 0.110026 0.110677 0.111328 0.111979 0.112630 0.113281 0.113932 0.114583 0.115234 0.115885 0.116536 0.117188 0.117839 0.118490 0.119141 0.119792 0.120443 0.121094 0.121745 0.122396 0.123047 0.123698 0.124349 0.125000 0.125651 0.126302 0.126953 0.127604 0.128255 0.128906 0.129557 0.130208 0.130859 0.131510 0.132161 0.132812 0.133464 0.134115 0.134766 0.135417 0.136068 0.136719 0.137370 0.138021 0.138672 0.139323 0.139974 0.140625 0.141276 0.141927 0.142578 0.143229 0.143880 0.144531 0.145182 0.145833 0.146484 0.147135 0.147786 0.148438 0.149089 0.149740 0.150391 0.151042 0.151693 0.152344 0.152995 0.153646 0.154297 0.154948 0.155599 0.156250 0.156901 0.157552 0.158203 0.158854 0.159505 0.160156 0.160807 0.161458 0.162109 0.162760 0.163411 0.164062 0.164714 0.165365 0.166016 0.166667 0.167318 0.167969 0.168620 0.169271 0.169922 0.170573 0.171224 0.171875 0.172526 0.173177 0.173828 0.174479 0.175130 0.175781 0.176432 0.177083 0.177734 0.178385 0.179036 0.179688 0.180339 0.180990 0.181641 0.182292 0.182943 0.183594 0.184245 0.184896 0.185547 0.186198 0.186849 0.187500 0.188151 0.188802 0.189453 0.190104 0.190755 0.191406 0.192057 0.192708 0.193359 0.194010 0.194661 0.195312 0.195964 0.196615 0.197266 0.197917 0.198568 0.199219 0.199870 0.200521 0.201172 0.201823 0.202474 0.203125 0.203776 0.204427 0.205078 0.205729 0.206380 0.207031 0.207682 0.208333 0.208984 0.209635 0.210286 0.210938 0.211589 0.212240 0.212891 0.213542 0.214193 0.214844 0.215495 0.216146 0.216797 0.217448 0.218099 0.218750 0.219401 0.220052 0.220703 0.221354 0.222005 0.222656 0.223307 0.223958 0.224609 0.225260 0.225911 0.226562 0.227214 0.227865 0.228516 0.229167 0.229818 0.230469 0.231120 0.231771 0.232422 0.233073 0.233724 0.234375 0.235026 0.235677
       0.34933        0.34933        0.34933        0.34933        0.34933        0.34933        0.34933        0.34933        0.34933        0.34933        0.34933        0.34933        0.34933        0.34933        0.34933        0.34933        0.34933        0.34933        0.34933        0.34933        0.34933        0.34933        0.34933        0.34933        0.34933        0.34933        0.34933        0.34933        0.34933        0.34933        0.34933        0.34933        0.34933        0.34933        0.34933        0.34933        0.34933        0.34933        0.34933        0.34933        0.34933        0.34933        0.34933        0.34933        0.34933        0.34933        0.34933        0.34933        0.34933        0.34933        0.34933        0.70149        0.85798        0.54068        0.10659       -0.02790       -0.37921       -0.17743       -0.28756       -0.11652       -0.05302       -0.11259       -0.05225       -0.16033       -0.20191       -0.20950       -0.30312       -0.31392       -0.43860       -0.35992       -0.42005       -0.41613       -0.38877       -0.39811       -0.43753       -0.50039       -0.55475       -0.54152       -0.51464       -0.35011       -0.31786       -0.28417       -0.26399       -0.18153       -0.16468        0.06561        0.14870        0.18309        0.27172        0.38222        0.45960        0.52546        0.60669        0.60392        0.58895        0.70352        0.80123        0.70177        0.74723        0.61750        0.56998        0.48681        0.43820        0.51432        0.40220        0.28177        0.12256        0.12182        0.10393       -0.00424        0.05716        0.06109        0.02122        0.03165        0.04040        0.23702        0.27374        0.29830        0.43884        0.45665        0.41791        0.60757        0.61540        0.62875        0.72101        0.67553        0.64849        0.65348        0.56059        0.45909        0.42030        0.30901        0.28104        0.19226        0.14099        0.05394        0.07421        0.08726        0.10491        0.16753        0.25201        0.30680        0.43372        0.46850        0.48305        0.56136        0.60198        0.63797        0.61136        0.55553        0.46615        0.47410        0.37956        0.28521        0.21858        0.15807        0.17952        0.15796        0.17307        0.20361        0.33108        0.34656        0.41556        0.45333        0.42495        0.47800        0.56603        0.55877        0.50898        0.45933        0.41843        0.38015        0.34941        0.31760        0.27551        0.25268        0.26733        0.26304        0.23130        0.31559        0.37088        0.38570        0.44144        0.45678        0.46628        0.43196        0.41744        0.40491        0.36867        0.34953        0.27854        0.29057        0.27504        0.25713        0.30396        0.30088        0.35796        0.39147        0.44365        0.47808        0.40735        0.42372        0.43341        0.41634        0.35445        0.33522        0.29446        0.33415        0.28323        0.33167        0.32270        0.34066        0.34875        0.37085        0.31125        0.38710        0.41297        0.38472        0.35572        0.37051        0.32336        0.30157        0.31490        0.32092        0.31126        0.32328        0.35272        0.36588        0.34558        0.36421        0.36198        0.43248        0.39799        0.34547        0.35386        0.30317        0.30207        0.33230        0.32398        0.33432        0.34866        0.35116        0.39354        0.33393        0.33352        0.34093        0.35667        0.30571        0.31497        0.28770        0.30534        0.33858        0.30563        0.33840        0.36582        0.38044        0.30550        0.35331        0.30516        0.29200        0.28200        0.25307        0.31585        0.31509        0.34494        0.34245        0.35168        0.33241        0.35180        0.32138        0.34799        0.30474        0.33244        0.30211        0.34323        0.34327        0.38419        0.34026        0.33919        0.33612        0.29680        0.28223        0.31853        0.25708        0.23664        0.34046        0.32897        0.37466        0.35220        0.36950        0.34354        0.33549        0.35910        0.27248        0.27914        0.32429        0.30178        0.31471        0.31174        0.34191        0.33001        0.28971        0.29709        0.34682        0.32616        0.33121        0.31204        0.32109        0.33802        0.38932        0.37263        0.32919        0.29064        0.30680        0.29392        0.31749        0.28737        0.28112        0.31281        0.32539        0.34881        0.35851        0.33761        0.30211        0.30676        0.27879        0.28748        0.26050        0.30600        0.25640        0.25859        0.28244        0.27538        0.25828        0.29327        0.22838        0.22930        0.23463        0.20054        0.28258        0.35945        0.25977        0.25794        0.32073        0.29631        0.30590        0.31744        0.28400        0.26417        0.20037        0.21381        0.22753        0.30922        0.23909        0.28193        0.37398        0.39424        0.27080        0.21327        0.16568       -0.01315       -0.16870       -0.63878
2.722240 2.693321 2.664560 2.635957 2.607510 2.579222 2.551091 2.523117 2.495301 2.467642 2.440140 2.412796 2.385610 2.358581 2.331710 2.304996 2.278440 2.252041 2.225799 2.199715 2.173789 2.148020 2.122408 2.096954 2.071657 2.046518 2.021537 1.996712 1.972046 1.947537 1.923185 1.898991 1.874954 1.851075 1.827353 1.803788 1.780382 1.757132 1.734041 1.711106 1.688329 1.665710 1.643248 1.620943 1.598796 1.576807 1.554975 1.533300 1.511783 1.490424 1.469222 1.679125 2.092877 1.663127 1.152696 1.018423 0.442400 0.820817 0.538820 0.813607 0.790220 0.789544 0.728459 0.734580 0.577956 0.542451 0.484305 0.410713 0.242284 0.346391 0.191097 0.318863 0.207021 0.205895 0.180808 0.040203 -0.004398 0.017637 -0.068834 0.128956 0.225933 0.182855 0.175699 0.310346 0.175940 0.506127 0.605307 0.620724 0.635753 0.846988 0.808701 0.913158 0.917110 1.008241 0.981733 1.044428 1.155193 1.008944 1.135040 0.879828 0.899101 0.773232 0.636182 0.786670 0.670127 0.488242 0.324737 0.243784 0.265391 0.146194 0.140388 0.164040 0.107934 0.109952 0.084698 0.237561 0.332648 0.327647 0.462926 0.526180 0.401931 0.577827 0.710636 0.610382 0.698291 0.681444 0.695981 0.620071 0.575218 0.465839 0.349980 0.269067 0.213881 0.095251 0.111362 -0.121841 -0.048898 -0.060855 -0.084313 -0.016231 0.122759 0.070423 0.239323 0.298392 0.325044 0.354374 0.474449 0.432756 0.466656 0.467843 0.292430 0.280769 0.274196 0.081579 0.045035 -0.082548 -0.019097 -0.062066 -0.095711 -0.058466 0.040008 0.093243 0.123702 0.222417 0.211501 0.211812 0.299903 0.325041 0.434430 0.244098 0.223504 0.221412 0.138014 0.141680 0.119077 -0.003850 0.014818 0.080943 -0.013774 0.040854 0.129867 0.129074 0.201670 0.225386 0.237624 0.156384 0.203567 0.124916 0.111452 0.118138 0.021636 -0.026494 -0.001959 -0.021323 -0.048082 0.054614 0.000253 0.104422 0.134307 0.190585 0.145376 0.117687 0.132482 0.149362 0.104435 0.030122 -0.027191 0.020756 0.032399 -0.046449 0.042525 0.016197 0.045709 0.038894 0.051148 0.011631 0.121411 0.107965 0.042570 0.031183 0.037601 0.002088 -0.028466 0.006222 -0.001764 -0.007858 -0.001795 0.062156 0.052345 0.035654 0.063388 0.059286 0.165866 0.064302 0.041822 0.043110 -0.035037 0.015319 0.048568 0.007296 0.030478 0.056017 0.074131 0.066123 0.040342 0.007563 0.077336 0.033084 0.014827 0.026807 -0.003316 0.029002 0.029012 0.018106 0.071299 0.077023 0.081075 0.041959 0.057126 0.017136 0.015287 -0.028855 -0.022249 0.040018 0.051448 0.074830 0.074673 0.064022 0.067547 0.088901 0.037821 0.078084 0.046048 0.046749 0.014810 0.103133 0.064312 0.128236 0.062821 0.059343 0.076590 0.021310 0.001506 0.080053 -0.037876 -0.034547 0.077721 0.040395 0.150980 0.089323 0.074344 0.063919 0.016029 0.078456 -0.020810 -0.023565 0.037353 0.020888 0.023571 0.001955 0.103141 0.013431 -0.019852 0.046343 0.028958 0.049191 0.051305 -0.002804 0.041553 0.038352 0.100054 0.064923 0.030158 -0.028734 -0.038598 -0.003516 0.014274 -0.056326 -0.016054 -0.006585 0.020605 0.024680 0.062816 0.003973 -0.030018 -0.022366 -0.015867 -0.055789 -0.042952 -0.044563 -0.126138 -0.087495 -0.073673 -0.108676 -0.116486 -0.036532 -0.148536 -0.089119 -0.123547 -0.199538 -0.069249 0.062149 -0.079676 -0.121213 0.045016 0.004207 -0.036727 0.060775 -0.024429 -0.002967 -0.078050 -0.048398 0.057274 0.146334 0.043058 0.121462 0.148197 0.502605 0.305442 0.361378 0.200266 -0.017126 -0.695012
0.072396 0.072899 0.074409 0.076924 0.080445 0.084970 0.090498 0.097028 0.104557 0.113083 0.122602 0.133110 0.144601 0.157070 0.170508 0.184906 0.200253 0.216537 0.233741 0.251849 0.270841 0.290694 0.311382 0.332874 0.355139 0.378138 0.401830 0.426169 0.451104 0.476579 0.502533 0.528898 0.555602 0.582564 0.609701 0.636919 0.664120 0.691198 0.718042 0.744531 0.770541 0.795938 0.820583 0.844330 0.867029 0.888520 0.908642 0.927228 0.944106 0.959101 0.972037 0.982736 0.991020 0.996710 0.999631 0.999613 0.996488 0.990098 0.980292 0.966930 0.949884 0.929044 0.904311 0.875611 0.842886 0.806106 0.765263 0.720379 0.671506 0.618726 0.562157 0.501953 0.438302 0.371434 0.301618 0.229161 0.154413 0.077764 0.000358 0.079484 0.159107 0.238687 0.317650 0.395393 0.471288 0.544685 0.614921 0.681323 0.743212 0.799918 0.850780 0.895158 0.932441 0.962058 0.983483 0.996248 0.999953 0.994272 0.978966 0.953890 0.919001 0.874368 0.820173 0.756725 0.684453 0.603918 0.515812 0.420950 0.320276 0.214852 0.105852 0.005448 0.117682 0.229411 0.339136 0.445321 0.546414 0.640869 0.727171 0.803863 0.869576 0.923048 0.963164 0.988970 0.999711 0.994845 0.974072 0.937348 0.884903 0.817251 0.735195 0.639828 0.532530 0.414951 0.289000 0.156817 0.020741 0.116724 0.252955 0.385256 0.510913 0.627249 0.731687 0.821811 0.895422 0.950607 0.985788 0.999780 0.991837 0.961688 0.909568 0.836236 0.742981 0.631616 0.504453 0.364273 0.214272 0.058000 0.100720 0.257876 0.409371 0.551128 0.679202 0.789899 0.879885 0.946305 0.986875 0.999983 0.984757 0.941127 0.869859 0.772568 0.651702 0.510501 0.352928 0.183575 0.007535 0.169734 0.342582 0.505340 0.652515 0.778976 0.880146 0.952188 0.992158 0.998149 0.969399 0.906359 0.810726 0.685426 0.534549 0.363250 0.177575 0.015716 0.209405 0.396061 0.568343 0.719280 0.842577 0.932886 0.986063 0.999382 0.971697 0.903549 0.797200 0.656595 0.487250 0.296067 0.091070 0.118906 0.324593 0.516693 0.686304 0.825346 0.926967 0.985902 0.998783 0.964358 0.883620 0.759839 0.598463 0.406929 0.194342 0.028920 0.251706 0.462642 0.650703 0.805818 0.919424 0.984966 0.998321 0.958090 0.865759 0.725709 0.545054 0.333331 0.102029 0.136008 0.367275 0.578372 0.756795 0.891692 0.974561 0.999826 0.965263 0.872228 0.725678 0.533973 0.308443 0.062768 0.187823 0.427485 0.640755 0.813570 0.934216 0.994180 0.988791 0.917644 0.784745 0.598355 0.370551 0.116485 0.146586 0.400430 0.627133 0.810355 0.936551 0.996022 0.983721 0.899744 0.749461 0.543249 0.295855 0.025384 0.247973 0.503431 0.721217 0.884096 0.978809 0.997205 0.937016 0.802189 0.602721 0.354012 0.075720 0.209710 0.478861 0.709259 0.881272 0.979839 0.995865 0.927137 0.778683 0.562512 0.296730 0.004106 0.289843 0.559052 0.779227 0.930079 0.997266 0.973836 0.861042 0.668420 0.413084 0.118310 0.188539 0.478498 0.723751 0.900323 0.990495 0.984671 0.882506 0.693143 0.434522 0.131782 0.185112 0.484287 0.735168 0.911655 0.994892 0.975397 0.854252 0.643218 0.363731 0.044824 0.279816 0.575369 0.809626 0.956565 0.999328 0.932273 0.761841 0.506092 0.192916 0.142900 0.463483 0.732144 0.917606 0.997741 0.962331 0.814503 0.570642 0.258718 0.084811 0.419163 0.704095 0.904743 0.996009 0.965803 0.816813 0.566454 0.245002 0.107954 0.448296 0.732891 0.925092 0.999556 0.945740 0.769542 0.492863 0.151035 0.211536
1.000000 1.000000 1.000000 1.000000 1.000000 1.000000 1.000000 1.000000 1.000000 1.000000 1.000000 1.000000 1.000000 1.000000 1.000000 1.000000 1.000000 1.000000 1.000000 1.000000 1.000000 1.000000 1.000000 1.000000 1.000000 1.000000 1.000000 1.000000 1.000000 1.000000 1.000000 1.000000 1.000000 1.000000 1.000000 1.000000 1.000000 1.000000 1.000000 1.000000 1.000000 1.000000 1.000000 1.000000 1.000000 1.000000 1.000000 1.000000 1.000000 1.000000 1.000000 1.000000 0.914357 0.914357 0.914357 0.911667 0.911667 0.911667 0.911667 0.911667 0.911667 0.911667 0.911667 0.911667 0.911667 0.911667 0.911667 0.911667 0.911667 0.911667 0.911667 0.911667 0.911667 0.911667 0.911667 0.911667 0.911667 0.911667 0.911667 0.911667 0.911667 0.911667 0.911667 0.911667 0.911667 0.911667 0.911667 0.911667 0.911667 0.911667 0.911667 0.911667 0.911667 0.911667 0.911667 0.911667 0.940008 0.941410 0.949803 0.949287 0.948752 0.946814 0.945531 0.945332 0.945253 0.945609 0.946345 0.947337 0.953532 0.954465 0.958846 0.961581 0.961557 0.963322 0.965325 0.964982 0.956813 0.956552 0.955093 0.954396 0.956520 0.955211 0.954029 0.954523 0.952224 0.956386 0.955984 0.954817 0.953225 0.951676 0.948154 0.947735 0.947486 0.948297 0.948386 0.949965 0.952989 0.951319 0.951431 0.948765 0.948325 0.949540 0.949198 0.950908 0.938923 0.938049 0.936396 0.936338 0.938926 0.938712 0.938609 0.939561 0.939273 0.939198 0.939215 0.933463 0.933361 0.926680 0.922100 0.921134 0.915149 0.911009 0.913785 0.916825 0.917863 0.918285 0.907923 0.905128 0.906208 0.904884 0.906174 0.907567 0.908815 0.909166 0.909102 0.904099 0.895267 0.893847 0.882776 0.885461 0.880612 0.877843 0.875120 0.867323 0.859075 0.870543 0.857637 0.811903 0.815464 0.820088 0.813104 0.809005 0.813124 0.813980 0.818925 0.813461 0.812687 0.805835 0.791013 0.789302 0.784189 0.769266 0.763160 0.753270 0.742811 0.736809 0.759739 0.753416 0.765511 0.769098 0.768435 0.764040 0.753374 0.741008 0.741712 0.742540 0.737927 0.713694 0.705907 0.705414 0.704800 0.690186 0.692303 0.681485 0.681902 0.667087 0.672759 0.678902 0.682425 0.676868 0.669364 0.660923 0.655744 0.669984 0.682340 0.672836 0.669589 0.683715 0.675153 0.670945 0.661498 0.663898 0.654550 0.655031 0.652979 0.688922 0.663615 0.653536 0.659836 0.661429 0.656573 0.654317 0.631991 0.626570 0.602033 0.619973 0.624533 0.639581 0.643770 0.649075 0.660388 0.667551 0.677914 0.683406 0.678713 0.637573 0.643706 0.663711 0.671833 0.663740 0.654494 0.644206 0.627096 0.663938 0.642529 0.604789 0.598772 0.603619 0.560330 0.543150 0.540640 0.539100 0.567952 0.568510 0.554652 0.530990 0.532874 0.529517 0.520736 0.519706 0.506424 0.510694 0.493815 0.473107 0.489273 0.496961 0.495946 0.479914 0.471149 0.483819 0.468570 0.486312 0.471143 0.458177 0.473620 0.473891 0.466111 0.392802 0.400357 0.396539 0.377658 0.337356 0.345440 0.356107 0.333690 0.259927 0.255882 0.256609 0.252308 0.224345 0.198694 0.184481 0.177660 0.156870 0.092142 0.040889 0.044738 0.048010 0.074446 0.037589 0.096157 0.168722 0.160827 0.160827 0.160827 0.160827 0.160827 0.160827 0.160827 0.160827 0.140676 0.140676 0.140676 0.140676 0.140676 0.140676 0.140676 0.140676 0.140676 0.160827 0.160827 0.160827 0.160827 0.160827 0.160827 0.160827 0.160827 0.160827 0.160827 0.160827 0.160827 0.160827 0.160827
0.000000 0.000000 0.000000 0.000000 0.000000 0.000000 0.000000 0.000000 0.000000 0.000000 0.000000 0.000000 0.000000 0.000000 0.000000 0.000000 0.000000 0.000000 0.000000 0.000000 0.000000 0.000000 0.000000 0.000000 0.000000 0.000000 0.000000 0.000000 0.000000 0.000000 0.000000 0.000000 0.000000 0.000000 0.000000 0.000000 0.000000 0.000000 0.000000 0.000000 0.000000 0.000000 0.000000 0.000000 0.000000 0.000000 0.000000 0.000000 0.000000 0.000000 0.000000 0.000000 0.180334 0.180334 0.180334 0.199007 0.199007 0.199007 0.199007 0.199007 0.199007 0.199007 0.199007 0.199007 0.199007 0.199007 0.199007 0.199007 0.199007 0.199007 0.199007 0.199007 0.199007 0.199007 0.199007 0.199007 0.199007 0.199007 0.199007 0.199007 0.199007 0.199007 0.199007 0.199007 0.199007 0.199007 0.199007 0.199007 0.199007 0.199007 0.199007 0.199007 0.199007 0.199007 0.199007 0.199007 0.225018 0.225018 0.225018 0.225018 0.225018 0.225018 0.225018 0.225018 0.225018 0.225018 0.225018 0.225018 0.225018 0.225018 0.225018 0.225018 0.225018 0.225018 0.225018 0.225018 0.225018 0.225018 0.225018 0.225018 0.225018 0.225018 0.225018 0.225018 0.225018 0.244339 0.244339 0.244339 0.244339 0.244339 0.244339 0.244339 0.244339 0.244339 0.244339 0.244339 0.244339 0.244339 0.244339 0.244339 0.244339 0.244339 0.244339 0.244339 0.244339 0.244339 0.244339 0.244339 0.256074 0.256074 0.256074 0.256074 0.256074 0.256074 0.256074 0.256074 0.256074 0.256074 0.256074 0.256074 0.256074 0.256074 0.256074 0.256074 0.256074 0.256074 0.256074 0.256074 0.256074 0.256074 0.256074 0.256074 0.256074 0.256074 0.256074 0.256074 0.256074 0.256074 0.256074 0.256074 0.256074 0.256074 0.256074 0.256074 0.256074 0.264906 0.264906 0.264906 0.264906 0.264906 0.264906 0.264906 0.264906 0.264906 0.264906 0.264906 0.264906 0.264906 0.264906 0.264906 0.264906 0.264906 0.264906 0.264906 0.264906 0.264906 0.264906 0.264906 0.264906 0.264906 0.264906 0.264906 0.264906 0.264906 0.264906 0.264906 0.264906 0.264906 0.264906 0.264906 0.264906 0.264906 0.264906 0.264906 0.264906 0.264906 0.264906 0.264906 0.264906 0.264906 0.264906 0.264906 0.264906 0.264906 0.264906 0.264906 0.264906 0.264906 0.264906 0.264906 0.264906 0.264906 0.264906 0.260378 0.260378 0.260378 0.260378 0.260378 0.260378 0.260378 0.260378 0.260378 0.260378 0.260378 0.260378 0.260378 0.264906 0.264906 0.264906 0.264906 0.264906 0.264906 0.264906 0.264906 0.264906 0.264906 0.264906 0.264906 0.269680 0.269680 0.269680 0.269680 0.269680 0.269680 0.269680 0.269680 0.269680 0.269680 0.269680 0.264906 0.264906 0.264906 0.264906 0.264906 0.264906 0.264906 0.264906 0.264906 0.264906 0.264906 0.256074 0.256074 0.256074 0.256074 0.256074 0.256074 0.256074 0.256074 0.256074 0.256074 0.256074 0.264906 0.264906 0.264906 0.264906 0.264906 0.264906 0.264906 0.264906 0.264906 0.264906 0.260378 0.260378 0.260378 0.260378 0.260378 0.260378 0.260378 0.260378 0.260378 0.260378 0.264906 0.264906 0.264906 0.264906 0.264906 0.264906 0.264906 0.264906 0.264906 0.251976 0.251976 0.251976 0.251976 0.251976 0.251976 0.251976 0.251976 0.251976 0.251976 0.256074 0.256074 0.256074 0.256074 0.256074 0.256074 0.256074 0.256074 0.256074 0.251976 0.251976 0.251976 0.251976 0.251976 0.251976 0.251976 0.251976 0.251976 0.251976 0.251976 0.251976 0.251976 0.251976
