# Output from CTFFind version 4.1.9, run on 2019-11-04 22:08:43
# Input file: stack6_bm3d_averaged_1_0_0_1250_half.mrc ; Number of micrographs: 1
# Pixel size: 3.000 Angstroms ; acceleration voltage: 300.0 keV ; spherical aberration: 0.00 mm ; amplitude contrast: 0.07
# Box size: 512 pixels ; min. res.: 30.0 Angstroms ; max. res.: 5.0 Angstroms ; min. def.: 5000.0 um; max. def. 50000.0 um; num. frames averaged: 1
# 6 lines per micrograph: #1 - spatial frequency (1/Angstroms); #2 - 1D rotational average of spectrum (assuming no astigmatism); #3 - 1D rotational average of spectrum; #4 - CTF fit; #5 - cross-correlation between spectrum and CTF fit; #6 - 2sigma of expected cross correlation of noise
0.000000 0.000651 0.001302 0.001953 0.002604 0.003255 0.003906 0.004557 0.005208 0.005859 0.006510 0.007161 0.007812 0.008464 0.009115 0.009766 0.010417 0.011068 0.011719 0.012370 0.013021 0.013672 0.014323 0.014974 0.015625 0.016276 0.016927 0.017578 0.018229 0.018880 0.019531 0.020182 0.020833 0.021484 0.022135 0.022786 0.023438 0.024089 0.024740 0.025391 0.026042 0.026693 0.027344 0.027995 0.028646 0.029297 0.029948 0.030599 0.031250 0.031901 0.032552 0.033203 0.033854 0.034505 0.035156 0.035807 0.036458 0.037109 0.037760 0.038411 0.039062 0.039714 0.040365 0.041016 0.041667 0.042318 0.042969 0.043620 0.044271 0.044922 0.045573 0.046224 0.046875 0.047526 0.048177 0.048828 0.049479 0.050130 0.050781 0.051432 0.052083 0.052734 0.053385 0.054036 0.054688 0.055339 0.055990 0.056641 0.057292 0.057943 0.058594 0.059245 0.059896 0.060547 0.061198 0.061849 0.062500 0.063151 0.063802 0.064453 0.065104 0.065755 0.066406 0.067057 0.067708 0.068359 0.069010 0.069661 0.070312 0.070964 0.071615 0.072266 0.072917 0.073568 0.074219 0.074870 0.075521 0.076172 0.076823 0.077474 0.078125 0.078776 0.079427 0.080078 0.080729 0.081380 0.082031 0.082682 0.083333 0.083984 0.084635 0.085286 0.085938 0.086589 0.087240 0.087891 0.088542 0.089193 0.089844 0.090495 0.091146 0.091797 0.092448 0.093099 0.093750 0.094401 0.095052 0.095703 0.096354 0.097005 0.097656 0.098307 0.098958 0.099609 0.100260 0.100911 0.101562 0.102214 0.102865 0.103516 0.104167 0.104818 0.105469 0.106120 0.106771 0.107422 0.108073 0.108724 0.109375 0.110026 0.110677 0.111328 0.111979 0.112630 0.113281 0.113932 0.114583 0.115234 0.115885 0.116536 0.117188 0.117839 0.118490 0.119141 0.119792 0.120443 0.121094 0.121745 0.122396 0.123047 0.123698 0.124349 0.125000 0.125651 0.126302 0.126953 0.127604 0.128255 0.128906 0.129557 0.130208 0.130859 0.131510 0.132161 0.132812 0.133464 0.134115 0.134766 0.135417 0.136068 0.136719 0.137370 0.138021 0.138672 0.139323 0.139974 0.140625 0.141276 0.141927 0.142578 0.143229 0.143880 0.144531 0.145182 0.145833 0.146484 0.147135 0.147786 0.148438 0.149089 0.149740 0.150391 0.151042 0.151693 0.152344 0.152995 0.153646 0.154297 0.154948 0.155599 0.156250 0.156901 0.157552 0.158203 0.158854 0.159505 0.160156 0.160807 0.161458 0.162109 0.162760 0.163411 0.164062 0.164714 0.165365 0.166016 0.166667 0.167318 0.167969 0.168620 0.169271 0.169922 0.170573 0.171224 0.171875 0.172526 0.173177 0.173828 0.174479 0.175130 0.175781 0.176432 0.177083 0.177734 0.178385 0.179036 0.179688 0.180339 0.180990 0.181641 0.182292 0.182943 0.183594 0.184245 0.184896 0.185547 0.186198 0.186849 0.187500 0.188151 0.188802 0.189453 0.190104 0.190755 0.191406 0.192057 0.192708 0.193359 0.194010 0.194661 0.195312 0.195964 0.196615 0.197266 0.197917 0.198568 0.199219 0.199870 0.200521 0.201172 0.201823 0.202474 0.203125 0.203776 0.204427 0.205078 0.205729 0.206380 0.207031 0.207682 0.208333 0.208984 0.209635 0.210286 0.210938 0.211589 0.212240 0.212891 0.213542 0.214193 0.214844 0.215495 0.216146 0.216797 0.217448 0.218099 0.218750 0.219401 0.220052 0.220703 0.221354 0.222005 0.222656 0.223307 0.223958 0.224609 0.225260 0.225911 0.226562 0.227214 0.227865 0.228516 0.229167 0.229818 0.230469 0.231120 0.231771 0.232422 0.233073 0.233724 0.234375 0.235026 0.235677
       0.31213        0.31213        0.31213        0.31213        0.31213        0.31213        0.31213        0.31213        0.31213        0.31213        0.31213        0.31213        0.31213        0.31213        0.31213        0.31213        0.31213        0.31213        0.31213        0.31213        0.31213        0.31213        0.31213        0.31213        0.31213        0.31213        0.31213        0.31213        0.31213        0.31213        0.31213        0.31213        0.31213        0.31213        0.31213        0.31213        0.31213        0.31213        0.31213        0.31213        0.31213        0.31213        0.31213        0.31213        0.31213        0.31213        0.31213        0.31213        0.31213        0.31213        0.31213        0.63531        0.82049        0.41766        0.31256        0.18939       -0.10494        0.11253       -0.00261        0.03440        0.11863        0.33636        0.42416        0.40669        0.22517       -0.01183        0.04805        0.07134       -0.16621       -0.17885       -0.08592       -0.10685       -0.29135       -0.18770       -0.30156       -0.25642       -0.28513       -0.40039       -0.47549       -0.47807       -0.42054       -0.33653       -0.43931       -0.36707       -0.40702       -0.34734       -0.27410       -0.19830       -0.19222       -0.13481       -0.09380        0.03768        0.08484        0.25021        0.28026        0.36994        0.40310        0.52050        0.59010        0.60749        0.74146        0.70080        0.74168        0.64990        0.66646        0.69772        0.63366        0.61563        0.60938        0.43648        0.40040        0.35998        0.32434        0.22210        0.13233        0.06034        0.05869        0.00036       -0.07900       -0.03081       -0.03110       -0.06897        0.06232        0.16439        0.25409        0.32245        0.33604        0.43198        0.54898        0.59460        0.54493        0.67100        0.56627        0.54449        0.59805        0.64323        0.53249        0.46017        0.40742        0.37483        0.24940        0.21470        0.13123        0.11663        0.05600        0.05869        0.11005        0.16975        0.14455        0.18005        0.21860        0.24052        0.33393        0.45967        0.49368        0.49847        0.52139        0.57843        0.56975        0.52241        0.42565        0.38519        0.36740        0.27193        0.24751        0.21571        0.20669        0.20412        0.18327        0.16103        0.12592        0.19327        0.25126        0.34917        0.38502        0.40621        0.46352        0.53684        0.47698        0.48286        0.42232        0.40269        0.38401        0.36360        0.29016        0.25829        0.19895        0.23211        0.21673        0.19182        0.21807        0.22377        0.24234        0.29962        0.40231        0.40324        0.37178        0.39087        0.45628        0.48537        0.42699        0.35315        0.32692        0.27895        0.26237        0.24807        0.21300        0.28525        0.29314        0.29660        0.31662        0.31209        0.35028        0.37295        0.37222        0.37398        0.35796        0.31915        0.33508        0.31756        0.29711        0.28028        0.27198        0.21840        0.27380        0.27399        0.30270        0.32246        0.34639        0.37908        0.34149        0.32165        0.36099        0.36880        0.26713        0.29537        0.30534        0.24446        0.21063        0.25876        0.27197        0.27680        0.30025        0.30673        0.33553        0.33569        0.36333        0.32654        0.32142        0.30991        0.29512        0.27670        0.25127        0.25456        0.25774        0.27612        0.29905        0.29730        0.30339        0.31485        0.32555        0.26301        0.30507        0.26999        0.26341        0.27913        0.26429        0.26263        0.26669        0.31127        0.28510        0.31718        0.28655        0.27403        0.30594        0.30975        0.33025        0.31459        0.29115        0.25412        0.26788        0.27192        0.26551        0.31291        0.31707        0.33898        0.32015        0.30901        0.25903        0.28013        0.20983        0.20720        0.24269        0.25674        0.25620        0.28854        0.31105        0.29690        0.34880        0.31069        0.26468        0.23744        0.23696        0.28987        0.31230        0.30427        0.26764        0.28034        0.26165        0.32292        0.28419        0.25291        0.26778        0.25495        0.29089        0.25097        0.28752        0.32959        0.28871        0.21956        0.23730        0.28702        0.32176        0.27253        0.26517        0.24319        0.27613        0.29307        0.37743        0.29161        0.27416        0.25198        0.26073        0.22108        0.17549        0.24965        0.22874        0.20758        0.18690        0.19689        0.23985        0.22622        0.23626        0.19108        0.25495        0.22464        0.20553        0.17707        0.16986        0.19642        0.24017        0.14385        0.06044        0.19653        0.20718        0.15615        0.24512        0.14766        0.20813        0.21903       -0.05700       -0.46060       -0.92795
2.849818 2.821774 2.793873 2.766117 2.738506 2.711038 2.683715 2.656536 2.629502 2.602612 2.575866 2.549264 2.522807 2.496494 2.470326 2.444301 2.418421 2.392686 2.367095 2.341648 2.316345 2.291187 2.266173 2.241303 2.216578 2.191997 2.167560 2.143268 2.119120 2.095116 2.071257 2.047542 2.023971 2.000544 1.977262 1.954125 1.931131 1.908282 1.885577 1.863017 1.840600 1.818329 1.796201 1.774218 1.752379 1.730684 1.709134 1.687728 1.666467 1.645349 1.624376 1.920194 2.277780 1.700685 1.741296 1.380581 0.942741 1.198651 1.020894 1.072510 1.031064 1.491341 1.517635 1.543173 1.279583 0.940530 0.823559 1.008570 0.716572 0.490220 0.586607 0.678367 0.421112 0.487874 0.323788 0.368573 0.244167 0.160852 -0.038194 -0.000171 0.023490 0.081496 0.036357 0.071223 -0.039259 0.027760 0.111908 0.224582 0.286457 0.208087 0.317806 0.549477 0.452032 0.726891 0.788974 0.877837 0.908700 1.122518 1.143727 1.174251 1.328086 1.236783 1.372104 1.194370 1.115456 1.298093 1.145221 1.053083 1.127471 0.888324 0.743057 0.681182 0.674436 0.457333 0.394488 0.256705 0.228730 0.090839 -0.008487 0.086615 0.026099 -0.064513 0.112762 0.251849 0.304453 0.465164 0.486764 0.555579 0.724610 0.826068 0.663377 0.961336 0.799751 0.667839 0.766714 0.805681 0.713237 0.639360 0.448093 0.500435 0.279761 0.191722 0.139800 0.004625 -0.018203 -0.108002 -0.015325 0.028164 0.088378 -0.052025 0.251395 0.096033 0.209696 0.379815 0.441053 0.530001 0.438159 0.575406 0.637369 0.506479 0.390070 0.334955 0.323060 0.147764 0.139365 0.013182 0.090144 0.029997 -0.001413 -0.023022 -0.122198 -0.010256 0.023532 0.111817 0.296506 0.201619 0.355727 0.372454 0.424585 0.416536 0.385038 0.328489 0.229712 0.302841 0.165909 0.155344 0.004946 0.043168 0.061309 -0.026374 -0.011655 0.015379 0.057238 0.073445 0.212777 0.308414 0.242979 0.206987 0.378709 0.408646 0.350804 0.241488 0.175419 0.149326 0.080649 0.075982 0.023033 0.020287 0.135974 0.053796 0.187254 0.091157 0.142474 0.234629 0.211087 0.235546 0.199793 0.200082 0.120420 0.163990 0.122403 0.093778 0.109270 -0.000514 0.034590 0.090405 0.050037 0.148387 0.125971 0.211446 0.210166 0.138087 0.131485 0.233444 0.116677 0.074432 0.086313 0.058478 -0.000086 -0.029122 0.043831 0.070874 0.030942 0.117409 0.111450 0.124406 0.129322 0.180331 0.114091 0.079783 0.101169 0.083053 0.025438 0.014460 0.031422 -0.003063 0.069599 0.101698 0.063823 0.073420 0.141639 0.079872 0.017689 0.113480 0.027181 0.031594 0.063298 0.019596 0.018270 0.059056 0.086839 0.028374 0.110901 0.050560 0.027558 0.118003 0.070245 0.094682 0.087300 0.022138 -0.006982 0.005638 0.043971 0.009774 0.070897 0.098934 0.092904 0.060056 0.137606 -0.009355 0.028528 -0.091901 -0.017888 -0.042830 0.007761 0.020655 0.034697 0.072364 0.083879 0.108643 0.018427 -0.014339 -0.058599 -0.074487 0.070733 0.049960 0.051685 -0.015212 0.003490 -0.029915 0.069755 0.017457 -0.060922 -0.012163 -0.072321 0.029677 -0.043353 0.027263 0.068125 -0.010277 -0.071177 -0.041446 0.099311 0.041752 0.008868 0.003601 -0.048988 0.073401 0.078553 0.178100 0.048031 0.016981 0.028657 0.059199 -0.051174 -0.048155 0.058122 0.023974 -0.020289 -0.035392 -0.031560 0.098787 -0.042748 0.072290 0.004940 0.133431 -0.004853 0.063300 -0.083699 -0.007492 -0.033621 0.116293 -0.013565 -0.174211 0.290205 0.305021 0.220938 0.410343 0.177602 0.272418 0.383100 -0.078448 -1.299569
0.072396 0.072834 0.074148 0.076338 0.079403 0.083343 0.088156 0.093842 0.100399 0.107825 0.116117 0.125273 0.135289 0.146159 0.157880 0.170444 0.183844 0.198071 0.213114 0.228963 0.245602 0.263017 0.281190 0.300101 0.319727 0.340042 0.361020 0.382628 0.404832 0.427594 0.450873 0.474622 0.498792 0.523328 0.548174 0.573264 0.598532 0.623905 0.649305 0.674648 0.699849 0.724812 0.749439 0.773628 0.797269 0.820249 0.842450 0.863748 0.884016 0.903123 0.920933 0.937310 0.952111 0.965194 0.976414 0.985628 0.992689 0.997455 0.999783 0.999534 0.996574 0.990774 0.982011 0.970171 0.955147 0.936845 0.915183 0.890092 0.861520 0.829429 0.793802 0.754641 0.711971 0.665838 0.616314 0.563497 0.507510 0.448507 0.386670 0.322210 0.255369 0.186421 0.115668 0.043445 0.029883 0.103925 0.178259 0.252438 0.325991 0.398425 0.469228 0.537873 0.603822 0.666526 0.725438 0.780009 0.829699 0.873980 0.912346 0.944314 0.969432 0.987289 0.997519 0.999808 0.993901 0.979609 0.956813 0.925473 0.885632 0.837421 0.781060 0.716867 0.645254 0.566732 0.481912 0.391496 0.296286 0.197167 0.095110 0.008837 0.113561 0.217893 0.320618 0.420491 0.516253 0.606643 0.690421 0.766382 0.833375 0.890327 0.936256 0.970295 0.991712 0.999923 0.994512 0.975246 0.942090 0.895211 0.834995 0.762044 0.677183 0.581451 0.476101 0.362588 0.242548 0.117788 0.009746 0.137992 0.264802 0.387983 0.505330 0.614668 0.713894 0.801022 0.874224 0.931876 0.972595 0.995281 0.999153 0.983773 0.949078 0.895393 0.823442 0.734351 0.629640 0.511209 0.381312 0.242518 0.097672 0.050164 0.197762 0.341811 0.478978 0.605994 0.719734 0.817295 0.896081 0.953878 0.988923 0.999969 0.986338 0.947956 0.885385 0.799830 0.693132 0.567741 0.426676 0.273463 0.112054 0.053265 0.217984 0.377491 0.527199 0.662681 0.779811 0.874893 0.944787 0.987028 0.999925 0.982640 0.935245 0.858752 0.755116 0.627201 0.478721 0.314152 0.138602 0.042329 0.222727 0.396553 0.557844 0.700922 0.820607 0.912410 0.972718 0.998956 0.989708 0.944815 0.865414 0.753942 0.614090 0.450695 0.269599 0.077453 0.118514 0.310763 0.491732 0.654134 0.791264 0.897289 0.967509 0.998589 0.988739 0.937840 0.847494 0.721010 0.563318 0.380790 0.181025 0.027467 0.235613 0.434159 0.614096 0.767066 0.885768 0.964335 0.998636 0.986533 0.928031 0.825342 0.682842 0.506917 0.305712 0.088771 0.133390 0.349787 0.549508 0.722276 0.858982 0.952196 0.996598 0.989314 0.930132 0.821587 0.668901 0.479767 0.264005 0.033072 0.200527 0.423902 0.624490 0.790783 0.912999 0.983691 0.998237 0.955185 0.856414 0.707109 0.515547 0.292662 0.051469 0.193668 0.427903 0.636785 0.807174 0.928093 0.991464 0.992699 0.931074 0.809866 0.636248 0.420910 0.177446 0.078460 0.330047 0.560548 0.754318 0.897938 0.981162 0.997703 0.945757 0.828237 0.652679 0.430814 0.177850 0.088558 0.349490 0.586119 0.781066 0.919717 0.991357 0.990051 0.915197 0.771690 0.569678 0.323905 0.052692 0.223397 0.483099 0.706093 0.874603 0.974872 0.998333 0.942406 0.810841 0.613548 0.365921 0.087709 0.198528 0.469223 0.701747 0.876316 0.977729 0.996751 0.931028 0.785431 0.571791 0.308011 0.016641 0.277027 0.547120 0.769475 0.923839 0.995776 0.978076 0.871572 0.685224 0.435455 0.144785 0.160138 0.450953 0.700226 0.884058 0.984432 0.991058 0.902512 0.726554 0.479549 0.185039 0.128444 0.430082 0.689827 0.881390
1.000000 1.000000 1.000000 1.000000 1.000000 1.000000 1.000000 1.000000 1.000000 1.000000 1.000000 1.000000 1.000000 1.000000 1.000000 1.000000 1.000000 1.000000 1.000000 1.000000 1.000000 1.000000 1.000000 1.000000 1.000000 1.000000 1.000000 1.000000 1.000000 1.000000 1.000000 1.000000 1.000000 1.000000 1.000000 1.000000 1.000000 1.000000 1.000000 1.000000 1.000000 1.000000 1.000000 1.000000 1.000000 1.000000 1.000000 1.000000 1.000000 1.000000 1.000000 1.000000 0.834929 0.834929 0.834929 0.834929 0.834929 0.834929 0.834929 0.812366 0.812366 0.812366 0.812366 0.812366 0.812366 0.812366 0.812366 0.812366 0.812366 0.812366 0.812366 0.812366 0.812366 0.812366 0.812366 0.812366 0.812366 0.812366 0.812366 0.812366 0.812366 0.812366 0.812366 0.812366 0.812366 0.812366 0.812366 0.812366 0.812366 0.812366 0.812366 0.812366 0.812366 0.812366 0.812366 0.812366 0.812366 0.812366 0.812366 0.812366 0.812366 0.812366 0.812366 0.952587 0.953244 0.945584 0.944468 0.942712 0.939502 0.935042 0.934580 0.935935 0.936145 0.936786 0.938232 0.939312 0.941048 0.942160 0.943062 0.943918 0.951972 0.955583 0.956000 0.955535 0.950928 0.957532 0.956684 0.956522 0.957302 0.957602 0.958317 0.958197 0.958029 0.957483 0.956331 0.957049 0.956901 0.956178 0.955149 0.952834 0.952817 0.952363 0.952485 0.953441 0.954130 0.954769 0.955281 0.955241 0.955425 0.955408 0.955310 0.950282 0.950312 0.943832 0.944508 0.945685 0.945377 0.944323 0.942918 0.942969 0.942833 0.942743 0.942540 0.942766 0.923392 0.922804 0.922833 0.922927 0.915162 0.904170 0.896887 0.890234 0.891149 0.895229 0.900185 0.900560 0.897528 0.896584 0.880402 0.884115 0.871058 0.868178 0.856433 0.866879 0.867940 0.869230 0.863262 0.862699 0.861443 0.859708 0.851386 0.855491 0.855753 0.851696 0.848129 0.846309 0.844991 0.846930 0.851719 0.848786 0.845071 0.842348 0.830509 0.821382 0.820292 0.822832 0.830621 0.842898 0.843028 0.842312 0.835387 0.831741 0.825194 0.819026 0.816820 0.818496 0.816391 0.820096 0.818321 0.825700 0.815735 0.810843 0.815866 0.825145 0.830634 0.833508 0.836345 0.834521 0.834417 0.819965 0.820693 0.811283 0.761638 0.764826 0.753595 0.753388 0.742854 0.741875 0.737670 0.738046 0.732228 0.715901 0.728072 0.720872 0.694664 0.702075 0.696117 0.683690 0.662590 0.668392 0.682897 0.691143 0.690101 0.692572 0.681329 0.680892 0.692454 0.692835 0.699078 0.693004 0.690523 0.682850 0.684567 0.674762 0.674706 0.670762 0.669663 0.670348 0.666813 0.656354 0.664309 0.661254 0.655043 0.645792 0.601591 0.561972 0.542424 0.535336 0.517699 0.494616 0.512051 0.520335 0.501758 0.493568 0.475297 0.436018 0.429145 0.427682 0.404782 0.387297 0.365828 0.337540 0.344750 0.347798 0.350347 0.336882 0.335882 0.320470 0.279509 0.268633 0.230943 0.245838 0.265051 0.253194 0.230254 0.232437 0.244306 0.240289 0.252302 0.250720 0.264794 0.219490 0.166364 0.179203 0.176279 0.186665 0.170521 0.144458 0.170546 0.156784 0.167515 0.170706 0.130039 0.099955 0.080319 0.055648 0.060596 0.085367 0.101974 0.094973 0.071822 -0.017954 0.015268 0.043840 0.043840 0.043840 0.043840 0.043840 0.043840 0.043840 0.043840 0.043840 0.043840 0.043840 -0.023236 -0.023236 -0.023236 -0.023236 -0.023236 -0.023236 -0.023236 -0.023236 -0.023236 -0.023236 -0.023236 -0.023236 -0.023236 -0.023236 -0.023236 -0.023236 -0.023236 -0.023236 -0.023236
0.000000 0.000000 0.000000 0.000000 0.000000 0.000000 0.000000 0.000000 0.000000 0.000000 0.000000 0.000000 0.000000 0.000000 0.000000 0.000000 0.000000 0.000000 2.000000 0.000000 0.000000 0.000000 0.000000 0.000000 0.000000 0.000000 0.000000 0.000000 0.000000 0.000000 0.000000 0.000000 0.000000 0.000000 0.000000 0.000000 0.000000 0.000000 0.000000 0.000000 0.000000 0.000000 0.000000 0.000000 0.000000 0.000000 0.000000 0.000000 0.000000 0.000000 0.000000 0.000000 0.173422 0.173422 0.173422 0.173422 0.173422 0.173422 0.173422 0.191565 0.191565 0.191565 0.191565 0.191565 0.191565 0.191565 0.191565 0.191565 0.191565 0.191565 0.191565 0.191565 0.191565 0.191565 0.191565 0.191565 0.191565 0.191565 0.191565 0.191565 0.191565 0.191565 0.191565 0.191565 0.191565 0.191565 0.191565 0.191565 0.191565 0.191565 0.191565 0.191565 0.191565 0.191565 0.191565 0.191565 0.191565 0.191565 0.191565 0.191565 0.191565 0.191565 0.191565 0.219529 0.219529 0.219529 0.219529 0.219529 0.219529 0.219529 0.219529 0.219529 0.219529 0.219529 0.219529 0.219529 0.219529 0.219529 0.219529 0.219529 0.219529 0.219529 0.219529 0.219529 0.219529 0.219529 0.219529 0.219529 0.219529 0.219529 0.219529 0.219529 0.219529 0.219529 0.237356 0.237356 0.237356 0.237356 0.237356 0.237356 0.237356 0.237356 0.237356 0.237356 0.237356 0.237356 0.237356 0.237356 0.237356 0.237356 0.237356 0.237356 0.237356 0.237356 0.237356 0.237356 0.237356 0.237356 0.244339 0.244339 0.244339 0.244339 0.244339 0.244339 0.244339 0.244339 0.244339 0.244339 0.244339 0.244339 0.244339 0.244339 0.244339 0.244339 0.244339 0.244339 0.244339 0.244339 0.244339 0.248069 0.248069 0.248069 0.248069 0.248069 0.248069 0.248069 0.248069 0.248069 0.248069 0.248069 0.248069 0.248069 0.248069 0.248069 0.248069 0.248069 0.248069 0.248069 0.248069 0.248069 0.248069 0.248069 0.248069 0.248069 0.248069 0.248069 0.248069 0.248069 0.248069 0.248069 0.248069 0.248069 0.248069 0.248069 0.248069 0.248069 0.256074 0.256074 0.256074 0.256074 0.256074 0.256074 0.256074 0.256074 0.256074 0.256074 0.256074 0.256074 0.256074 0.256074 0.256074 0.256074 0.256074 0.256074 0.256074 0.256074 0.256074 0.256074 0.256074 0.256074 0.256074 0.256074 0.256074 0.256074 0.256074 0.256074 0.256074 0.256074 0.256074 0.256074 0.256074 0.256074 0.256074 0.256074 0.256074 0.256074 0.256074 0.256074 0.256074 0.256074 0.256074 0.260378 0.260378 0.260378 0.260378 0.260378 0.260378 0.260378 0.260378 0.260378 0.260378 0.260378 0.260378 0.260378 0.256074 0.256074 0.256074 0.256074 0.256074 0.256074 0.256074 0.256074 0.256074 0.256074 0.256074 0.256074 0.256074 0.260378 0.260378 0.260378 0.260378 0.260378 0.260378 0.260378 0.260378 0.260378 0.260378 0.260378 0.260378 0.251976 0.251976 0.251976 0.251976 0.251976 0.251976 0.251976 0.251976 0.251976 0.251976 0.251976 0.251976 0.256074 0.256074 0.256074 0.256074 0.256074 0.256074 0.256074 0.256074 0.256074 0.256074 0.256074 0.251976 0.251976 0.251976 0.251976 0.251976 0.251976 0.251976 0.251976 0.251976 0.251976 0.251976 0.248069 0.248069 0.248069 0.248069 0.248069 0.248069 0.248069 0.248069 0.248069 0.248069 0.248069 0.256074 0.256074 0.256074 0.256074 0.256074 0.256074 0.256074 0.256074 0.256074 0.256074 0.256074 0.256074 0.256074 0.256074 0.256074 0.256074 0.256074 0.256074 0.256074
