# Output from CTFFind version 4.1.9, run on 2019-11-03 20:05:46
# Input file: stack1_bm3d_averaged_1_6.0_0_1000_half.mrc ; Number of micrographs: 1
# Pixel size: 3.000 Angstroms ; acceleration voltage: 300.0 keV ; spherical aberration: 0.00 mm ; amplitude contrast: 0.07
# Box size: 512 pixels ; min. res.: 30.0 Angstroms ; max. res.: 5.0 Angstroms ; min. def.: 5000.0 um; max. def. 50000.0 um; num. frames averaged: 1
# 6 lines per micrograph: #1 - spatial frequency (1/Angstroms); #2 - 1D rotational average of spectrum (assuming no astigmatism); #3 - 1D rotational average of spectrum; #4 - CTF fit; #5 - cross-correlation between spectrum and CTF fit; #6 - 2sigma of expected cross correlation of noise
0.000000 0.000651 0.001302 0.001953 0.002604 0.003255 0.003906 0.004557 0.005208 0.005859 0.006510 0.007161 0.007812 0.008464 0.009115 0.009766 0.010417 0.011068 0.011719 0.012370 0.013021 0.013672 0.014323 0.014974 0.015625 0.016276 0.016927 0.017578 0.018229 0.018880 0.019531 0.020182 0.020833 0.021484 0.022135 0.022786 0.023438 0.024089 0.024740 0.025391 0.026042 0.026693 0.027344 0.027995 0.028646 0.029297 0.029948 0.030599 0.031250 0.031901 0.032552 0.033203 0.033854 0.034505 0.035156 0.035807 0.036458 0.037109 0.037760 0.038411 0.039062 0.039714 0.040365 0.041016 0.041667 0.042318 0.042969 0.043620 0.044271 0.044922 0.045573 0.046224 0.046875 0.047526 0.048177 0.048828 0.049479 0.050130 0.050781 0.051432 0.052083 0.052734 0.053385 0.054036 0.054688 0.055339 0.055990 0.056641 0.057292 0.057943 0.058594 0.059245 0.059896 0.060547 0.061198 0.061849 0.062500 0.063151 0.063802 0.064453 0.065104 0.065755 0.066406 0.067057 0.067708 0.068359 0.069010 0.069661 0.070312 0.070964 0.071615 0.072266 0.072917 0.073568 0.074219 0.074870 0.075521 0.076172 0.076823 0.077474 0.078125 0.078776 0.079427 0.080078 0.080729 0.081380 0.082031 0.082682 0.083333 0.083984 0.084635 0.085286 0.085938 0.086589 0.087240 0.087891 0.088542 0.089193 0.089844 0.090495 0.091146 0.091797 0.092448 0.093099 0.093750 0.094401 0.095052 0.095703 0.096354 0.097005 0.097656 0.098307 0.098958 0.099609 0.100260 0.100911 0.101562 0.102214 0.102865 0.103516 0.104167 0.104818 0.105469 0.106120 0.106771 0.107422 0.108073 0.108724 0.109375 0.110026 0.110677 0.111328 0.111979 0.112630 0.113281 0.113932 0.114583 0.115234 0.115885 0.116536 0.117188 0.117839 0.118490 0.119141 0.119792 0.120443 0.121094 0.121745 0.122396 0.123047 0.123698 0.124349 0.125000 0.125651 0.126302 0.126953 0.127604 0.128255 0.128906 0.129557 0.130208 0.130859 0.131510 0.132161 0.132812 0.133464 0.134115 0.134766 0.135417 0.136068 0.136719 0.137370 0.138021 0.138672 0.139323 0.139974 0.140625 0.141276 0.141927 0.142578 0.143229 0.143880 0.144531 0.145182 0.145833 0.146484 0.147135 0.147786 0.148438 0.149089 0.149740 0.150391 0.151042 0.151693 0.152344 0.152995 0.153646 0.154297 0.154948 0.155599 0.156250 0.156901 0.157552 0.158203 0.158854 0.159505 0.160156 0.160807 0.161458 0.162109 0.162760 0.163411 0.164062 0.164714 0.165365 0.166016 0.166667 0.167318 0.167969 0.168620 0.169271 0.169922 0.170573 0.171224 0.171875 0.172526 0.173177 0.173828 0.174479 0.175130 0.175781 0.176432 0.177083 0.177734 0.178385 0.179036 0.179688 0.180339 0.180990 0.181641 0.182292 0.182943 0.183594 0.184245 0.184896 0.185547 0.186198 0.186849 0.187500 0.188151 0.188802 0.189453 0.190104 0.190755 0.191406 0.192057 0.192708 0.193359 0.194010 0.194661 0.195312 0.195964 0.196615 0.197266 0.197917 0.198568 0.199219 0.199870 0.200521 0.201172 0.201823 0.202474 0.203125 0.203776 0.204427 0.205078 0.205729 0.206380 0.207031 0.207682 0.208333 0.208984 0.209635 0.210286 0.210938 0.211589 0.212240 0.212891 0.213542 0.214193 0.214844 0.215495 0.216146 0.216797 0.217448 0.218099 0.218750 0.219401 0.220052 0.220703 0.221354 0.222005 0.222656 0.223307 0.223958 0.224609 0.225260 0.225911 0.226562 0.227214 0.227865 0.228516 0.229167 0.229818 0.230469 0.231120 0.231771 0.232422 0.233073 0.233724 0.234375 0.235026 0.235677
       0.34979        0.34979        0.34979        0.34979        0.34979        0.34979        0.34979        0.34979        0.34979        0.34979        0.34979        0.34979        0.34979        0.34979        0.34979        0.34979        0.34979        0.34979        0.34979        0.34979        0.34979        0.34979        0.34979        0.34979        0.34979        0.34979        0.34979        0.34979        0.34979        0.34979        0.34979        0.34979        0.34979        0.34979        0.34979        0.34979        0.34979        0.34979        0.34979        0.34979        0.34979        0.34979        0.34979        0.34979        0.34979        0.34979        0.34979        0.34979        0.34979        0.34979        0.34979        0.37436        0.53999        0.24920        0.09773       -0.00581       -0.27063       -0.10688       -0.17160       -0.21969        0.01510       -0.13821       -0.09265       -0.05822       -0.04050       -0.12818       -0.15553       -0.27546       -0.35119       -0.46495       -0.40113       -0.29776       -0.24555       -0.34891       -0.26543       -0.34507       -0.30357       -0.33607       -0.16240       -0.16598       -0.22806       -0.05809       -0.00187       -0.03661        0.08273        0.03022        0.21516        0.23866        0.34103        0.35907        0.41672        0.45574        0.52275        0.58328        0.61774        0.53612        0.50231        0.50969        0.46857        0.54953        0.46803        0.41601        0.41021        0.34208        0.29511        0.31162        0.33628        0.23265        0.19851        0.11417        0.14154        0.15084        0.18245        0.14809        0.21628        0.26370        0.31033        0.30140        0.36114        0.46837        0.40486        0.48777        0.62053        0.59595        0.53592        0.55311        0.59317        0.42332        0.48822        0.38073        0.31694        0.29531        0.26957        0.25652        0.18325        0.17899        0.14397        0.21490        0.26154        0.28785        0.35035        0.31353        0.41780        0.45588        0.46564        0.46449        0.49228        0.53638        0.48329        0.45298        0.41866        0.34182        0.33649        0.29324        0.31434        0.24583        0.23297        0.27456        0.24789        0.27200        0.32990        0.43119        0.43273        0.43262        0.41429        0.48999        0.48680        0.47174        0.45524        0.38184        0.37873        0.40925        0.38283        0.31345        0.28887        0.32486        0.29403        0.30258        0.29578        0.32715        0.36084        0.38843        0.45192        0.47777        0.38044        0.44715        0.43126        0.37308        0.30716        0.36348        0.32410        0.31406        0.33620        0.27252        0.26215        0.31922        0.33798        0.44238        0.41815        0.38352        0.38701        0.41483        0.36118        0.36333        0.33247        0.33219        0.31154        0.30355        0.29667        0.35793        0.36814        0.34595        0.35217        0.40438        0.40064        0.45970        0.40975        0.35505        0.35086        0.35553        0.33466        0.32209        0.34388        0.39093        0.35300        0.36209        0.34057        0.43544        0.37554        0.35162        0.34394        0.37639        0.37729        0.33153        0.32999        0.30054        0.32129        0.33525        0.31284        0.32792        0.34690        0.36098        0.34680        0.34000        0.30440        0.30109        0.28769        0.33541        0.32258        0.35803        0.32321        0.34675        0.36462        0.33727        0.33193        0.31574        0.28644        0.33635        0.32264        0.33018        0.32107        0.31925        0.32592        0.31908        0.34067        0.35618        0.35769        0.33798        0.29605        0.33420        0.30919        0.33961        0.33194        0.27018        0.32167        0.30153        0.33485        0.32384        0.39135        0.33257        0.31068        0.26725        0.31423        0.38522        0.35186        0.32037        0.33659        0.31576        0.32622        0.32515        0.32670        0.29931        0.31547        0.26850        0.28108        0.31386        0.30047        0.29980        0.31282        0.24135        0.31081        0.34263        0.36392        0.35360        0.31571        0.31928        0.28872        0.30857        0.31166        0.28614        0.32095        0.28235        0.30342        0.33502        0.37178        0.35503        0.28750        0.27914        0.33275        0.31049        0.31669        0.35450        0.36438        0.28685        0.28502        0.32651        0.32209        0.26216        0.21737        0.23405        0.26622        0.30261        0.31376        0.27208        0.33971        0.29570        0.25794        0.28682        0.28522        0.21509        0.27364        0.31729        0.26489        0.20172        0.22751        0.31466        0.41758        0.30444        0.24164        0.15638        0.22500        0.28122        0.28568        0.40606        0.23045        0.16877        0.26245        0.31729        0.28422        0.18279       -0.03272       -0.57603       -0.90924
3.146722 3.112147 3.077766 3.043577 3.009581 2.975778 2.942168 2.908751 2.875527 2.842496 2.809657 2.777012 2.744560 2.712301 2.680235 2.648361 2.616681 2.585193 2.553899 2.522797 2.491889 2.461173 2.430650 2.400321 2.370184 2.340240 2.310489 2.280931 2.251566 2.222394 2.193415 2.164629 2.136036 2.107636 2.079429 2.051415 2.023593 1.995965 1.968530 1.941287 1.914238 1.887381 1.860718 1.834247 1.807970 1.781885 1.755993 1.730295 1.704789 1.679476 1.654356 1.588022 1.915519 1.649540 1.189338 1.036153 0.385051 0.891574 0.510965 0.632204 0.899762 0.674981 0.604131 0.754045 0.687864 0.623644 0.494778 0.331702 0.148386 -0.023772 -0.019347 0.054685 0.399506 -0.029020 0.152335 0.031081 0.100915 -0.062784 0.237752 0.185734 0.093225 0.283978 0.447578 0.277703 0.470544 0.381365 0.707749 0.603772 0.836118 0.806185 0.835593 1.032910 0.929335 1.181728 1.130334 1.085289 0.918330 0.950839 0.901187 0.893270 0.905590 0.744401 0.673243 0.618714 0.564427 0.468431 0.540296 0.417859 0.311741 0.181132 0.137038 0.172607 0.223023 0.153583 0.169309 0.305946 0.335714 0.352287 0.427891 0.469312 0.528761 0.391300 0.776195 0.756368 0.666652 0.608985 0.711340 0.483041 0.436067 0.438051 0.193343 0.219350 0.084505 0.174783 -0.024703 -0.018231 -0.089749 -0.087800 0.124575 0.032353 0.132596 0.172753 0.192243 0.316382 0.336832 0.319088 0.360233 0.409820 0.381960 0.290804 0.272248 0.154873 0.135126 0.060156 0.021256 0.012499 -0.093515 -0.033209 -0.012530 -0.074664 -0.030672 0.133412 0.280078 0.172019 0.228379 0.211726 0.444384 0.266852 0.302270 0.279980 0.160255 0.129003 0.302575 0.029574 0.055846 0.026245 0.076185 0.010109 0.084718 -0.006834 0.144950 0.003084 0.232068 0.286922 0.240282 0.179266 0.218498 0.157817 0.050876 0.076710 0.094454 -0.005953 0.018051 0.055263 -0.112824 -0.046372 0.010529 0.101228 0.256894 0.111444 0.120145 0.121112 0.124102 0.053550 0.055107 -0.013615 0.021091 -0.044858 -0.043439 0.002876 0.055541 0.067796 0.000124 0.056899 0.136321 0.113359 0.257520 0.055086 0.045366 0.045168 0.007951 0.024821 -0.014102 0.063172 0.110034 0.014334 0.046351 0.034383 0.196194 0.026036 0.018782 0.026508 0.061976 0.059128 -0.027590 0.006149 -0.059815 -0.022842 0.007849 -0.022268 -0.025915 0.042853 -0.012258 0.015409 -0.024939 -0.087815 -0.048080 -0.078271 -0.023172 -0.018211 0.015803 -0.017395 0.006374 0.049711 -0.018047 0.024801 -0.038068 -0.053019 0.028962 -0.017881 0.027793 0.009317 -0.001042 0.005924 -0.009729 0.063591 0.067846 0.090530 -0.000349 -0.001192 0.029183 0.017448 0.050774 0.042183 -0.056668 0.044005 0.011045 0.044781 0.014055 0.148844 0.024455 -0.030936 -0.068229 0.034512 0.141296 0.031846 0.006069 0.019496 0.074264 0.028329 0.014151 0.030219 0.003530 0.016497 -0.061617 -0.045059 0.022019 -0.005599 -0.019906 -0.052149 -0.161328 0.032609 0.059445 0.058039 0.021747 0.004632 -0.022081 -0.041334 -0.044828 -0.060457 -0.057190 -0.033761 -0.118289 -0.064072 0.012487 0.044679 0.003513 -0.083409 -0.148964 -0.074339 -0.041539 -0.115317 0.017737 0.004234 -0.109592 -0.087663 -0.035996 -0.051764 -0.100004 -0.151689 -0.153013 -0.005451 0.036644 -0.038403 -0.077062 0.104880 0.039675 -0.193703 0.056529 0.004643 -0.108946 0.042179 0.091336 0.003610 -0.073786 -0.015155 0.063325 0.262986 0.089939 0.074327 -0.200305 -0.002302 0.182565 0.092909 0.351358 0.300622 0.266760 0.456614 0.560672 0.303240 0.263437 -0.042402 -1.407192
0.072396 0.072906 0.074435 0.076983 0.080549 0.085132 0.090732 0.097346 0.104972 0.113607 0.123248 0.133891 0.145529 0.158157 0.171765 0.186345 0.201886 0.218373 0.235792 0.254123 0.273347 0.293440 0.314375 0.336120 0.358642 0.381902 0.405856 0.430458 0.455654 0.481386 0.507591 0.534198 0.561133 0.588313 0.615649 0.643047 0.670404 0.697612 0.724553 0.751106 0.777139 0.802516 0.827093 0.850720 0.873240 0.894492 0.914309 0.932518 0.948944 0.963409 0.975731 0.985728 0.993220 0.998025 0.999967 0.998871 0.994571 0.986907 0.975730 0.960901 0.942297 0.919809 0.893346 0.862838 0.828238 0.789525 0.746702 0.699803 0.648897 0.594081 0.535491 0.473301 0.407721 0.339004 0.267441 0.193367 0.117158 0.039230 0.039959 0.119912 0.200095 0.279939 0.358843 0.436179 0.511294 0.583518 0.652168 0.716553 0.775987 0.829790 0.877299 0.917878 0.950927 0.975890 0.992263 0.999611 0.997571 0.985863 0.964303 0.932808 0.891403 0.840234 0.779568 0.709800 0.631458 0.545200 0.451816 0.352228 0.247480 0.138737 0.027267 0.085563 0.198303 0.309444 0.417427 0.520672 0.617598 0.706652 0.786331 0.855213 0.911985 0.955472 0.984664 0.998742 0.997108 0.979403 0.945529 0.895665 0.830282 0.750143 0.656314 0.550150 0.433293 0.307647 0.175364 0.038798 0.099516 0.236918 0.370666 0.497991 0.616160 0.722531 0.814622 0.890171 0.947200 0.984072 0.999550 0.992842 0.963645 0.912170 0.839167 0.745930 0.634289 0.506590 0.365657 0.214745 0.057469 0.102273 0.260390 0.412706 0.555065 0.683453 0.794111 0.883662 0.949216 0.988480 0.999852 0.982494 0.936394 0.862401 0.762232 0.638458 0.494457 0.334341 0.162850 0.014771 0.192925 0.365840 0.527751 0.673097 0.796720 0.894061 0.961341 0.995731 0.995480 0.960032 0.890082 0.787603 0.655825 0.499148 0.323036 0.133831 0.061452 0.255375 0.440365 0.608996 0.754314 0.870119 0.951261 0.993888 0.995652 0.955865 0.875586 0.757633 0.606531 0.428362 0.230553 0.021590 0.189336 0.392718 0.579166 0.739851 0.866932 0.953969 0.996271 0.991189 0.938305 0.839531 0.699088 0.523370 0.320691 0.100924 0.124963 0.345431 0.548967 0.724687 0.862938 0.955854 0.997841 0.985952 0.920133 0.803312 0.641330 0.442694 0.218180 0.019721 0.257484 0.481298 0.677879 0.835276 0.943626 0.995810 0.987972 0.919848 0.794887 0.620146 0.405946 0.165313 0.086774 0.334303 0.561228 0.752530 0.895227 0.979308 0.998471 0.950666 0.838343 0.668418 0.451905 0.203271 0.060490 0.320989 0.559716 0.759361 0.905112 0.985784 0.994748 0.930539 0.797100 0.603638 0.364049 0.095997 0.180351 0.443817 0.673836 0.852078 0.963964 0.999911 0.956235 0.835591 0.646924 0.404885 0.128787 0.158909 0.434373 0.674375 0.858283 0.969879 0.998859 0.941870 0.802973 0.593466 0.331063 0.038467 0.258526 0.533298 0.760779 0.919793 0.995085 0.978877 0.871762 0.682852 0.429111 0.133931 0.174956 0.468044 0.716880 0.896841 0.989659 0.985352 0.883416 0.693077 0.432604 0.127636 0.191245 0.491549 0.742187 0.916726 0.996263 0.971565 0.844274 0.626953 0.342001 0.019432 0.306207 0.599489 0.828006 0.965990 0.997324 0.917551 0.734621 0.468259 0.147961 0.190165 0.507417 0.766942 0.938052 0.999951 0.944399 0.776943 0.516538 0.193563 0.153626 0.483189 0.754814 0.934720 0.999948 0.941434 0.765420 0.492973 0.157636 0.198605 0.530501 0.795278 0.958235 0.997388 0.906604 0.696710 0.394400 0.039003 0.322547 0.641823 0.875442
1.000000 1.000000 1.000000 1.000000 1.000000 1.000000 1.000000 1.000000 1.000000 1.000000 1.000000 1.000000 1.000000 1.000000 1.000000 1.000000 1.000000 1.000000 1.000000 1.000000 1.000000 1.000000 1.000000 1.000000 1.000000 1.000000 1.000000 1.000000 1.000000 1.000000 1.000000 1.000000 1.000000 1.000000 1.000000 1.000000 1.000000 1.000000 1.000000 1.000000 1.000000 1.000000 1.000000 1.000000 1.000000 1.000000 1.000000 1.000000 1.000000 1.000000 1.000000 1.000000 0.821698 0.821698 0.821698 0.820429 0.820429 0.820429 0.820429 0.820429 0.820429 0.820429 0.820429 0.820429 0.820429 0.820429 0.820429 0.820429 0.820429 0.820429 0.820429 0.820429 0.820429 0.820429 0.820429 0.820429 0.820429 0.820429 0.820429 0.820429 0.820429 0.820429 0.820429 0.820429 0.820429 0.820429 0.820429 0.820429 0.820429 0.820429 0.820429 0.820429 0.820429 0.820429 0.820429 0.820429 0.851647 0.858968 0.861785 0.864731 0.866123 0.863467 0.862269 0.861766 0.861609 0.862561 0.868669 0.893811 0.910754 0.915255 0.928634 0.932386 0.937603 0.940593 0.949334 0.953038 0.954558 0.953450 0.953820 0.955869 0.955936 0.945593 0.943664 0.943965 0.958162 0.947196 0.943188 0.942018 0.940373 0.936972 0.938064 0.937807 0.935176 0.935607 0.930121 0.930833 0.931322 0.929222 0.928035 0.911052 0.907432 0.906626 0.906976 0.885728 0.880326 0.868443 0.854441 0.874679 0.867665 0.849939 0.848780 0.837778 0.840411 0.840524 0.838316 0.831906 0.830454 0.826795 0.820272 0.821213 0.818216 0.827722 0.827510 0.828080 0.817995 0.799539 0.777435 0.762060 0.761139 0.764991 0.768185 0.772271 0.773653 0.770770 0.768639 0.765991 0.762460 0.772694 0.775389 0.772278 0.767738 0.766319 0.745556 0.743642 0.734743 0.716002 0.702198 0.699366 0.700387 0.678238 0.668932 0.671176 0.676660 0.682187 0.692733 0.686932 0.685248 0.658869 0.633331 0.602208 0.615416 0.622276 0.598709 0.590062 0.578682 0.612242 0.623674 0.639615 0.657096 0.659945 0.656064 0.628219 0.587153 0.588353 0.586904 0.588592 0.587693 0.578785 0.581559 0.605206 0.576954 0.571392 0.564273 0.561114 0.569153 0.584289 0.565678 0.559460 0.530514 0.505015 0.478165 0.472110 0.430571 0.425710 0.421597 0.427219 0.389073 0.388120 0.403065 0.422652 0.420340 0.427230 0.416004 0.405221 0.366023 0.339150 0.333938 0.319943 0.314190 0.283451 0.250659 0.236515 0.248138 0.255924 0.301982 0.306012 0.299928 0.273219 0.279144 0.300220 0.332177 0.338620 0.340298 0.317480 0.299513 0.251074 0.246163 0.294853 0.329279 0.307122 0.293098 0.280782 0.275266 0.246939 0.240471 0.176009 0.123309 0.082191 0.086339 0.093649 0.083249 0.058140 0.019224 0.035661 0.049790 0.084381 0.065609 0.055884 -0.000089 0.000037 -0.016949 -0.006440 -0.038878 -0.079392 -0.048963 -0.034674 -0.062669 -0.078283 -0.122395 -0.102698 -0.122379 -0.127269 -0.125416 -0.131004 -0.161097 -0.143705 -0.139694 -0.116970 -0.128083 -0.126024 -0.119128 -0.128404 -0.203775 -0.245020 -0.235555 -0.239045 -0.235494 -0.236261 -0.241898 -0.252751 -0.249055 -0.254641 -0.200029 -0.228174 -0.242370 -0.245277 -0.247639 -0.273201 -0.225467 -0.203083 -0.209641 -0.234435 -0.230406 -0.230406 -0.230406 -0.230406 -0.230406 -0.230406 -0.220858 -0.220858 -0.220858 -0.220858 -0.220858 -0.220858 -0.220858 -0.220858 -0.220858 -0.154449 -0.154449 -0.154449 -0.154449 -0.154449 -0.154449 -0.154449 -0.154449 -0.154449 -0.154449 -0.154449 -0.154449 -0.154449 -0.154449 -0.154449 -0.154449
0.000000 0.000000 0.000000 0.000000 0.000000 0.000000 0.000000 0.000000 0.000000 0.000000 0.000000 0.000000 0.000000 0.000000 0.000000 0.000000 0.000000 0.000000 0.000000 0.000000 0.000000 0.000000 0.000000 0.000000 0.000000 0.000000 0.000000 0.000000 0.000000 0.000000 0.000000 0.000000 0.000000 0.000000 0.000000 0.000000 0.000000 0.000000 0.000000 0.000000 0.000000 0.000000 0.000000 0.000000 0.000000 0.000000 0.000000 0.000000 0.000000 0.000000 0.000000 0.000000 0.180334 0.180334 0.180334 0.199007 0.199007 0.199007 0.199007 0.199007 0.199007 0.199007 0.199007 0.199007 0.199007 0.199007 0.199007 0.199007 0.199007 0.199007 0.199007 0.199007 0.199007 0.199007 0.199007 0.199007 0.199007 0.199007 0.199007 0.199007 0.199007 0.199007 0.199007 0.199007 0.199007 0.199007 0.199007 0.199007 0.199007 0.199007 0.199007 0.199007 0.199007 0.199007 0.199007 0.199007 0.230940 0.230940 0.230940 0.230940 0.230940 0.230940 0.230940 0.230940 0.230940 0.230940 0.230940 0.230940 0.230940 0.230940 0.230940 0.230940 0.230940 0.230940 0.230940 0.230940 0.230940 0.230940 0.230940 0.230940 0.230940 0.230940 0.230940 0.230940 0.244339 0.244339 0.244339 0.244339 0.244339 0.244339 0.244339 0.244339 0.244339 0.244339 0.244339 0.244339 0.244339 0.244339 0.244339 0.244339 0.244339 0.244339 0.244339 0.244339 0.244339 0.244339 0.244339 0.256074 0.256074 0.256074 0.256074 0.256074 0.256074 0.256074 0.256074 0.256074 0.256074 0.256074 0.256074 0.256074 0.256074 0.256074 0.256074 0.256074 0.256074 0.256074 0.256074 0.256074 0.256074 0.256074 0.256074 0.256074 0.256074 0.256074 0.256074 0.256074 0.256074 0.256074 0.256074 0.256074 0.256074 0.256074 0.256074 0.256074 0.264906 0.264906 0.264906 0.264906 0.264906 0.264906 0.264906 0.264906 0.264906 0.264906 0.264906 0.264906 0.264906 0.264906 0.264906 0.264906 0.264906 0.264906 0.264906 0.264906 0.264906 0.264906 0.264906 0.264906 0.264906 0.264906 0.264906 0.264906 0.264906 0.264906 0.264906 0.264906 0.264906 0.264906 0.264906 0.264906 0.264906 0.264906 0.264906 0.264906 0.264906 0.264906 0.264906 0.264906 0.264906 0.264906 0.264906 0.264906 0.264906 0.264906 0.264906 0.264906 0.264906 0.264906 0.264906 0.264906 0.264906 0.264906 0.269680 0.269680 0.269680 0.269680 0.269680 0.269680 0.269680 0.269680 0.269680 0.269680 0.269680 0.269680 0.264906 0.264906 0.264906 0.264906 0.264906 0.264906 0.264906 0.264906 0.264906 0.264906 0.264906 0.264906 0.269680 0.269680 0.269680 0.269680 0.269680 0.269680 0.269680 0.269680 0.269680 0.269680 0.269680 0.264906 0.264906 0.264906 0.264906 0.264906 0.264906 0.264906 0.264906 0.264906 0.264906 0.264906 0.256074 0.256074 0.256074 0.256074 0.256074 0.256074 0.256074 0.256074 0.256074 0.256074 0.256074 0.264906 0.264906 0.264906 0.264906 0.264906 0.264906 0.264906 0.264906 0.264906 0.264906 0.260378 0.260378 0.260378 0.260378 0.260378 0.260378 0.260378 0.260378 0.260378 0.260378 0.264906 0.264906 0.264906 0.264906 0.264906 0.264906 0.264906 0.264906 0.264906 0.251976 0.251976 0.251976 0.251976 0.251976 0.251976 0.251976 0.251976 0.251976 0.251976 0.256074 0.256074 0.256074 0.256074 0.256074 0.256074 0.256074 0.256074 0.256074 0.269680 0.269680 0.269680 0.269680 0.269680 0.269680 0.269680 0.269680 0.269680 0.269680 0.269680 0.269680 0.269680 0.269680 0.269680 0.269680
