# Output from CTFFind version 4.1.9, run on 2019-11-02 17:58:41
# Input file: stack6_bm3d_averaged_1_1.75_0_2000_half.mrc ; Number of micrographs: 1
# Pixel size: 3.000 Angstroms ; acceleration voltage: 300.0 keV ; spherical aberration: 0.00 mm ; amplitude contrast: 0.07
# Box size: 512 pixels ; min. res.: 30.0 Angstroms ; max. res.: 5.0 Angstroms ; min. def.: 5000.0 um; max. def. 50000.0 um; num. frames averaged: 1
# 6 lines per micrograph: #1 - spatial frequency (1/Angstroms); #2 - 1D rotational average of spectrum (assuming no astigmatism); #3 - 1D rotational average of spectrum; #4 - CTF fit; #5 - cross-correlation between spectrum and CTF fit; #6 - 2sigma of expected cross correlation of noise
0.000000 0.000651 0.001302 0.001953 0.002604 0.003255 0.003906 0.004557 0.005208 0.005859 0.006510 0.007161 0.007812 0.008464 0.009115 0.009766 0.010417 0.011068 0.011719 0.012370 0.013021 0.013672 0.014323 0.014974 0.015625 0.016276 0.016927 0.017578 0.018229 0.018880 0.019531 0.020182 0.020833 0.021484 0.022135 0.022786 0.023438 0.024089 0.024740 0.025391 0.026042 0.026693 0.027344 0.027995 0.028646 0.029297 0.029948 0.030599 0.031250 0.031901 0.032552 0.033203 0.033854 0.034505 0.035156 0.035807 0.036458 0.037109 0.037760 0.038411 0.039062 0.039714 0.040365 0.041016 0.041667 0.042318 0.042969 0.043620 0.044271 0.044922 0.045573 0.046224 0.046875 0.047526 0.048177 0.048828 0.049479 0.050130 0.050781 0.051432 0.052083 0.052734 0.053385 0.054036 0.054688 0.055339 0.055990 0.056641 0.057292 0.057943 0.058594 0.059245 0.059896 0.060547 0.061198 0.061849 0.062500 0.063151 0.063802 0.064453 0.065104 0.065755 0.066406 0.067057 0.067708 0.068359 0.069010 0.069661 0.070312 0.070964 0.071615 0.072266 0.072917 0.073568 0.074219 0.074870 0.075521 0.076172 0.076823 0.077474 0.078125 0.078776 0.079427 0.080078 0.080729 0.081380 0.082031 0.082682 0.083333 0.083984 0.084635 0.085286 0.085938 0.086589 0.087240 0.087891 0.088542 0.089193 0.089844 0.090495 0.091146 0.091797 0.092448 0.093099 0.093750 0.094401 0.095052 0.095703 0.096354 0.097005 0.097656 0.098307 0.098958 0.099609 0.100260 0.100911 0.101562 0.102214 0.102865 0.103516 0.104167 0.104818 0.105469 0.106120 0.106771 0.107422 0.108073 0.108724 0.109375 0.110026 0.110677 0.111328 0.111979 0.112630 0.113281 0.113932 0.114583 0.115234 0.115885 0.116536 0.117188 0.117839 0.118490 0.119141 0.119792 0.120443 0.121094 0.121745 0.122396 0.123047 0.123698 0.124349 0.125000 0.125651 0.126302 0.126953 0.127604 0.128255 0.128906 0.129557 0.130208 0.130859 0.131510 0.132161 0.132812 0.133464 0.134115 0.134766 0.135417 0.136068 0.136719 0.137370 0.138021 0.138672 0.139323 0.139974 0.140625 0.141276 0.141927 0.142578 0.143229 0.143880 0.144531 0.145182 0.145833 0.146484 0.147135 0.147786 0.148438 0.149089 0.149740 0.150391 0.151042 0.151693 0.152344 0.152995 0.153646 0.154297 0.154948 0.155599 0.156250 0.156901 0.157552 0.158203 0.158854 0.159505 0.160156 0.160807 0.161458 0.162109 0.162760 0.163411 0.164062 0.164714 0.165365 0.166016 0.166667 0.167318 0.167969 0.168620 0.169271 0.169922 0.170573 0.171224 0.171875 0.172526 0.173177 0.173828 0.174479 0.175130 0.175781 0.176432 0.177083 0.177734 0.178385 0.179036 0.179688 0.180339 0.180990 0.181641 0.182292 0.182943 0.183594 0.184245 0.184896 0.185547 0.186198 0.186849 0.187500 0.188151 0.188802 0.189453 0.190104 0.190755 0.191406 0.192057 0.192708 0.193359 0.194010 0.194661 0.195312 0.195964 0.196615 0.197266 0.197917 0.198568 0.199219 0.199870 0.200521 0.201172 0.201823 0.202474 0.203125 0.203776 0.204427 0.205078 0.205729 0.206380 0.207031 0.207682 0.208333 0.208984 0.209635 0.210286 0.210938 0.211589 0.212240 0.212891 0.213542 0.214193 0.214844 0.215495 0.216146 0.216797 0.217448 0.218099 0.218750 0.219401 0.220052 0.220703 0.221354 0.222005 0.222656 0.223307 0.223958 0.224609 0.225260 0.225911 0.226562 0.227214 0.227865 0.228516 0.229167 0.229818 0.230469 0.231120 0.231771 0.232422 0.233073 0.233724 0.234375 0.235026 0.235677
       0.30650        0.30650        0.30650        0.30650        0.30650        0.30650        0.30650        0.30650        0.30650        0.30650        0.30650        0.30650        0.30650        0.30650        0.30650        0.30650        0.30650        0.30650        0.30650        0.30650        0.30650        0.30650        0.30650        0.30650        0.30650        0.30650        0.30650        0.30650        0.30650        0.30650        0.30650        0.30650        0.30650        0.30650        0.30650        0.30650        0.30650        0.30650        0.30650        0.30650        0.30650        0.30650        0.30650        0.30650        0.30650        0.30650        0.30650        0.30650        0.30650        0.30650        0.30650        0.63035        0.80384        0.40620        0.30025        0.18167       -0.10996        0.11162       -0.00082        0.03063        0.11183        0.33720        0.41929        0.39453        0.21851       -0.01642        0.04209        0.07087       -0.17416       -0.18094       -0.09014       -0.11391       -0.30013       -0.19103       -0.30994       -0.26589       -0.28753       -0.41082       -0.47684       -0.47252       -0.41945       -0.34659       -0.43388       -0.36345       -0.41589       -0.35587       -0.27696       -0.20463       -0.19820       -0.13122       -0.08326        0.03869        0.07879        0.24992        0.29001        0.37398        0.39952        0.51133        0.58204        0.60613        0.73205        0.68961        0.73672        0.64675        0.65865        0.68939        0.62958        0.61543        0.60690        0.42914        0.38711        0.35072        0.32858        0.22293        0.13199        0.06177        0.04935       -0.00131       -0.08048       -0.02757       -0.03597       -0.07411        0.06533        0.16229        0.25488        0.31124        0.32938        0.41922        0.53097        0.57604        0.52553        0.66901        0.55643        0.52822        0.60041        0.61964        0.52499        0.46399        0.39824        0.37607        0.24266        0.19970        0.12755        0.11589        0.05814        0.05529        0.09517        0.14622        0.14685        0.17161        0.22118        0.23848        0.32655        0.44183        0.48029        0.48936        0.51808        0.57509        0.57086        0.52298        0.40900        0.38316        0.35989        0.26502        0.23941        0.21378        0.19991        0.19189        0.17379        0.15820        0.12544        0.18433        0.23759        0.33675        0.37562        0.40331        0.46002        0.53178        0.46391        0.48158        0.42669        0.40659        0.38074        0.36338        0.28264        0.24898        0.19984        0.23342        0.21862        0.19713        0.20948        0.21115        0.24140        0.30969        0.39505        0.38402        0.37529        0.39345        0.44861        0.46583        0.43467        0.35526        0.31480        0.27854        0.26712        0.25236        0.21509        0.27881        0.29406        0.29562        0.30926        0.29872        0.32283        0.37320        0.36440        0.36407        0.35079        0.31449        0.32761        0.31971        0.29260        0.28467        0.26419        0.21671        0.26389        0.27047        0.29598        0.31124        0.33491        0.36368        0.32108        0.30460        0.35161        0.35869        0.25768        0.28784        0.30046        0.23551        0.21364        0.26807        0.26531        0.27112        0.29771        0.29707        0.32775        0.33175        0.34873        0.31728        0.32157        0.30566        0.28941        0.26134        0.23518        0.24783        0.25420        0.27421        0.29531        0.28830        0.28114        0.31892        0.33892        0.27240        0.30385        0.26891        0.25479        0.25198        0.24335        0.24773        0.26145        0.31172        0.27605        0.31130        0.29222        0.27175        0.30293        0.28590        0.32279        0.31530        0.29775        0.24945        0.24620        0.25860        0.26211        0.31419        0.30664        0.32866        0.32185        0.30613        0.26875        0.30016        0.22530        0.18444        0.26277        0.28099        0.26167        0.27468        0.30578        0.29003        0.35446        0.29147        0.24099        0.20758        0.23621        0.28837        0.29046        0.29686        0.26887        0.27607        0.26079        0.30406        0.27094        0.24805        0.26793        0.24139        0.29079        0.25332        0.27763        0.32065        0.28804        0.20824        0.25021        0.28784        0.30677        0.23619        0.26093        0.24666        0.28879        0.28376        0.36788        0.28696        0.25845        0.27521        0.24452        0.20634        0.18414        0.23503        0.20401        0.18941        0.16638        0.20515        0.25910        0.21792        0.24490        0.19102        0.22290        0.20094        0.21428        0.18411        0.17317        0.19702        0.23100        0.15701        0.06843        0.21047        0.17643        0.11659        0.21852        0.12803        0.17460        0.18764       -0.12430       -0.49536       -0.81636
2.884984 2.856481 2.828125 2.799916 2.771854 2.743939 2.716171 2.688549 2.661075 2.633747 2.606567 2.579533 2.552646 2.525906 2.499313 2.472867 2.446568 2.420416 2.394410 2.368552 2.342841 2.317276 2.291858 2.266587 2.241463 2.216486 2.191656 2.166973 2.142437 2.118047 2.093805 2.069709 2.045761 2.021959 1.998304 1.974796 1.951435 1.928221 1.905154 1.882233 1.859460 1.836834 1.814354 1.792021 1.769835 1.747797 1.725905 1.704160 1.682561 1.661110 1.639806 1.942044 2.280975 1.705869 1.745188 1.392173 0.946301 1.214892 1.043929 1.090237 1.035192 1.516354 1.526477 1.553886 1.282959 0.954815 0.828544 1.026612 0.725401 0.493155 0.598488 0.684732 0.421309 0.494083 0.328442 0.358199 0.255821 0.163892 -0.040478 0.013640 0.039318 0.073853 0.049865 0.096665 -0.044900 0.025874 0.108969 0.228557 0.281788 0.223807 0.341498 0.567642 0.444781 0.732771 0.824814 0.893978 0.908952 1.130365 1.139714 1.185359 1.333738 1.226344 1.384135 1.197480 1.113998 1.319798 1.131467 1.065343 1.139019 0.890739 0.730415 0.676754 0.672770 0.478695 0.397470 0.276288 0.210618 0.100816 -0.014386 0.100375 0.018286 -0.066845 0.113060 0.261649 0.310829 0.463485 0.476613 0.548607 0.709208 0.803713 0.642383 0.956969 0.801791 0.645066 0.774087 0.775047 0.705027 0.646272 0.442560 0.504521 0.282468 0.176093 0.129124 0.001355 -0.012035 -0.108344 -0.020586 -0.009136 0.081353 -0.055565 0.247612 0.110769 0.196154 0.370967 0.415537 0.522083 0.423777 0.559821 0.671626 0.505418 0.382822 0.323110 0.315042 0.143717 0.120154 0.017928 0.088953 0.003503 -0.000283 -0.039626 -0.114510 -0.022633 0.005447 0.098009 0.280468 0.209862 0.343029 0.372703 0.442924 0.380761 0.420099 0.345650 0.225062 0.315506 0.165424 0.160122 0.001134 0.060954 0.067239 -0.009139 0.001578 -0.000527 0.058103 0.084779 0.237783 0.289983 0.234982 0.231506 0.362089 0.363649 0.359580 0.254434 0.165435 0.147999 0.086223 0.081624 0.030640 0.021384 0.135749 0.052521 0.186145 0.085533 0.117572 0.210951 0.217582 0.218115 0.189677 0.193437 0.111650 0.166803 0.118905 0.094605 0.116697 -0.019466 0.029563 0.078518 0.048726 0.142547 0.104219 0.206446 0.188052 0.126615 0.122094 0.212705 0.127222 0.060577 0.097579 0.057680 0.000200 -0.004353 0.067951 0.065021 0.041411 0.117620 0.104369 0.129328 0.151152 0.162391 0.142800 0.099178 0.109074 0.091771 0.015508 0.009991 0.037355 0.012142 0.073486 0.110710 0.080552 0.041507 0.127373 0.126751 0.019704 0.118537 0.026809 0.015460 0.010281 -0.004247 -0.008498 0.074552 0.083826 0.012649 0.107794 0.066451 0.017580 0.105855 0.043687 0.087543 0.105650 0.023845 -0.003320 -0.024806 0.033113 0.006054 0.074437 0.081312 0.095896 0.071395 0.122076 -0.000531 0.081323 -0.099733 -0.054233 0.003701 0.035741 0.016394 0.001059 0.092737 0.052401 0.099968 -0.042765 -0.053805 -0.110835 -0.087038 0.074005 -0.001156 0.032086 -0.025076 -0.023578 -0.030088 0.062086 -0.039222 -0.038074 -0.014024 -0.100031 0.035808 -0.037542 0.011266 0.057847 -0.008998 -0.097215 0.007769 0.044120 0.019317 -0.050354 0.006389 -0.054645 0.100688 0.068633 0.164060 0.040956 -0.003263 0.049611 0.051548 -0.065261 -0.017346 0.051563 -0.009695 -0.046397 -0.050111 -0.000062 0.130472 -0.024670 0.136679 0.004801 0.100842 -0.021286 0.120390 -0.034220 0.023985 -0.003622 0.134444 0.039229 0.015674 0.297335 0.245933 0.169435 0.352070 0.208092 0.210937 0.317887 -0.171902 -1.149272
0.072396 0.072835 0.074150 0.076342 0.079410 0.083353 0.088171 0.093862 0.100425 0.107858 0.116158 0.125322 0.135347 0.146227 0.157959 0.170534 0.183946 0.198186 0.213243 0.229105 0.245760 0.263190 0.281378 0.300305 0.319948 0.340281 0.361275 0.382901 0.405123 0.427902 0.451198 0.474965 0.499151 0.523705 0.548566 0.573671 0.598953 0.624339 0.649750 0.675104 0.700312 0.725281 0.749913 0.774103 0.797743 0.820719 0.842912 0.864199 0.884452 0.903540 0.921328 0.937677 0.952445 0.965491 0.976669 0.985834 0.992842 0.997548 0.999810 0.999490 0.996453 0.990569 0.981716 0.969779 0.954654 0.936245 0.914470 0.889261 0.860566 0.828349 0.792592 0.753299 0.710494 0.664225 0.614564 0.561611 0.505491 0.446358 0.384394 0.319813 0.252860 0.183807 0.112960 0.040655 0.032743 0.106838 0.181209 0.255407 0.328958 0.401369 0.472126 0.540701 0.606554 0.669136 0.727899 0.782293 0.831779 0.875828 0.913934 0.945614 0.970418 0.987938 0.997807 0.999715 0.993408 0.978701 0.955479 0.923705 0.883426 0.834778 0.777987 0.713374 0.641360 0.562459 0.477288 0.386557 0.291071 0.191722 0.089489 0.014578 0.119360 0.223683 0.326328 0.426048 0.521582 0.611667 0.695064 0.770566 0.837029 0.893379 0.938641 0.971955 0.992595 0.999986 0.993723 0.973586 0.939548 0.891794 0.830722 0.756949 0.671314 0.574874 0.468896 0.354848 0.234383 0.109318 0.018389 0.146664 0.273355 0.396263 0.513181 0.621933 0.720422 0.806667 0.878852 0.935365 0.974842 0.996201 0.998685 0.981883 0.945757 0.890664 0.817358 0.726996 0.621131 0.501692 0.370960 0.231533 0.086276 0.061726 0.209234 0.352928 0.489472 0.615602 0.728202 0.824387 0.901586 0.957614 0.990748 0.999784 0.984088 0.943643 0.879062 0.791607 0.683172 0.556263 0.413948 0.259798 0.097802 0.067722 0.232245 0.391147 0.539840 0.673916 0.789273 0.882255 0.949776 0.989432 0.999604 0.979534 0.929381 0.850244 0.744167 0.614100 0.463838 0.297929 0.121542 0.059680 0.239794 0.412748 0.572593 0.713682 0.830885 0.919784 0.976858 0.999637 0.986824 0.938388 0.855598 0.741026 0.598484 0.432930 0.250303 0.057336 0.138690 0.330207 0.509657 0.669792 0.803976 0.906472 0.972709 0.999504 0.985238 0.929974 0.835502 0.705316 0.544517 0.359636 0.158393 0.050610 0.258243 0.455252 0.632663 0.782204 0.896713 0.970490 0.999617 0.982186 0.918455 0.810889 0.664112 0.484736 0.281097 0.062893 0.159265 0.374362 0.571513 0.740536 0.872486 0.960152 0.998483 0.984910 0.919552 0.805278 0.647630 0.454594 0.236230 0.004174 0.228968 0.450288 0.647301 0.808657 0.924824 0.988676 0.995968 0.945661 0.840061 0.684773 0.488446 0.262341 0.019703 0.224974 0.456817 0.661484 0.826044 0.939850 0.995242 0.988118 0.918280 0.789541 0.609576 0.389522 0.143326 0.113107 0.362923 0.589411 0.777160 0.913102 0.987481 0.994592 0.933275 0.807097 0.624222 0.396931 0.140859 0.126057 0.384803 0.616647 0.804501 0.934222 0.995715 0.983774 0.898583 0.745824 0.536375 0.285592 0.012231 0.262916 0.518585 0.734700 0.893973 0.983326 0.995025 0.927418 0.785202 0.579176 0.325491 0.044453 0.241079 0.507516 0.732511 0.896844 0.986129 0.992124 0.913574 0.756464 0.533650 0.263891 0.029675 0.321483 0.585739 0.798720 0.940947 0.999021 0.966962 0.846907 0.649078 0.391005 0.096044 0.208671 0.494710 0.735000 0.906412 0.992052 0.983002 0.879338 0.690304 0.433585 0.133746 0.180066 0.476906 0.727102 0.905233
1.000000 1.000000 1.000000 1.000000 1.000000 1.000000 1.000000 1.000000 1.000000 1.000000 1.000000 1.000000 1.000000 1.000000 1.000000 1.000000 1.000000 1.000000 1.000000 1.000000 1.000000 1.000000 1.000000 1.000000 1.000000 1.000000 1.000000 1.000000 1.000000 1.000000 1.000000 1.000000 1.000000 1.000000 1.000000 1.000000 1.000000 1.000000 1.000000 1.000000 1.000000 1.000000 1.000000 1.000000 1.000000 1.000000 1.000000 1.000000 1.000000 1.000000 1.000000 1.000000 0.835431 0.835431 0.835431 0.835431 0.835431 0.835431 0.835431 0.811686 0.811686 0.811686 0.811686 0.811686 0.811686 0.811686 0.811686 0.811686 0.811686 0.811686 0.811686 0.811686 0.811686 0.811686 0.811686 0.811686 0.811686 0.811686 0.811686 0.811686 0.811686 0.811686 0.811686 0.811686 0.811686 0.811686 0.811686 0.811686 0.811686 0.811686 0.811686 0.811686 0.811686 0.811686 0.811686 0.811686 0.811686 0.811686 0.811686 0.811686 0.811686 0.811686 0.811686 0.954962 0.955674 0.948373 0.947379 0.945779 0.942288 0.938114 0.937602 0.938903 0.939136 0.939801 0.941208 0.942251 0.943907 0.944963 0.945812 0.946620 0.954592 0.958165 0.957795 0.957458 0.956168 0.962865 0.962195 0.959823 0.960417 0.960627 0.961286 0.961222 0.961094 0.960666 0.959559 0.960145 0.959982 0.959325 0.958408 0.956470 0.956452 0.956074 0.956212 0.957123 0.957831 0.958538 0.959008 0.958996 0.959118 0.959121 0.959047 0.954484 0.954474 0.947350 0.947708 0.946736 0.943982 0.943003 0.941537 0.941612 0.941533 0.941511 0.941402 0.941592 0.930367 0.930500 0.930518 0.931320 0.927940 0.918543 0.913235 0.908352 0.909710 0.913412 0.917416 0.917096 0.913047 0.912374 0.895305 0.898999 0.882202 0.878367 0.871289 0.880572 0.881742 0.883100 0.878287 0.877043 0.875559 0.872816 0.858653 0.863001 0.862337 0.858785 0.855839 0.854205 0.851279 0.853153 0.856060 0.850054 0.837975 0.839457 0.828418 0.814686 0.813079 0.816215 0.825616 0.837312 0.836440 0.835726 0.826340 0.821870 0.812572 0.806625 0.807834 0.810191 0.806777 0.810562 0.811508 0.821792 0.810745 0.811573 0.814369 0.825798 0.830529 0.831478 0.831886 0.828815 0.828474 0.796952 0.797764 0.800151 0.769892 0.769636 0.765660 0.765703 0.767085 0.767531 0.764368 0.756959 0.751289 0.735358 0.748137 0.757504 0.735080 0.740748 0.731738 0.720776 0.686716 0.687544 0.693267 0.702705 0.703784 0.713227 0.703318 0.705104 0.714806 0.716811 0.722018 0.719678 0.708949 0.706417 0.713906 0.711295 0.694685 0.689225 0.688802 0.684766 0.678836 0.661594 0.669416 0.650562 0.642707 0.632148 0.588173 0.577910 0.567291 0.556333 0.538362 0.517417 0.530943 0.523331 0.520902 0.509010 0.484766 0.438704 0.421684 0.419679 0.405055 0.412597 0.395114 0.341163 0.353346 0.343013 0.337119 0.311631 0.293686 0.274156 0.212314 0.218064 0.169137 0.191887 0.202961 0.188025 0.167952 0.159384 0.187496 0.204599 0.223566 0.221750 0.247441 0.219028 0.163229 0.187091 0.176069 0.176360 0.160848 0.123574 0.147359 0.137438 0.144024 0.150611 0.108760 0.078285 0.049216 0.051309 0.068332 0.091988 0.109243 0.093968 0.071770 -0.017191 0.016741 0.048585 0.048585 0.048585 0.048585 0.048585 0.048585 0.048585 0.048585 0.048585 0.048585 0.048585 -0.014294 -0.014294 -0.014294 -0.014294 -0.014294 -0.014294 -0.014294 -0.014294 -0.014294 -0.014294 -0.014294 -0.014294 -0.014294 -0.014294 -0.014294 -0.014294 -0.014294 -0.014294 -0.014294
0.000000 0.000000 0.000000 0.000000 0.000000 0.000000 0.000000 0.000000 0.000000 0.000000 0.000000 0.000000 0.000000 0.000000 0.000000 0.000000 0.000000 0.000000 0.000000 0.000000 0.000000 0.000000 0.000000 0.000000 0.000000 0.000000 0.000000 0.000000 0.000000 0.000000 0.000000 0.000000 0.000000 0.000000 0.000000 0.000000 0.000000 0.000000 0.000000 0.000000 0.000000 0.000000 0.000000 0.000000 0.000000 0.000000 0.000000 0.000000 0.000000 0.000000 0.000000 0.000000 0.173422 0.173422 0.173422 0.173422 0.173422 0.173422 0.173422 0.191565 0.191565 0.191565 0.191565 0.191565 0.191565 0.191565 0.191565 0.191565 0.191565 0.191565 0.191565 0.191565 0.191565 0.191565 0.191565 0.191565 0.191565 0.191565 0.191565 0.191565 0.191565 0.191565 0.191565 0.191565 0.191565 0.191565 0.191565 0.191565 0.191565 0.191565 0.191565 0.191565 0.191565 0.191565 0.191565 0.191565 0.191565 0.191565 0.191565 0.191565 0.191565 0.191565 0.191565 0.219529 0.219529 0.219529 0.219529 0.219529 0.219529 0.219529 0.219529 0.219529 0.219529 0.219529 0.219529 0.219529 0.219529 0.219529 0.219529 0.219529 0.219529 0.219529 0.219529 0.219529 0.219529 0.219529 0.219529 0.219529 0.219529 0.219529 0.219529 0.219529 0.219529 0.219529 0.237356 0.237356 0.237356 0.237356 0.237356 0.237356 0.237356 0.237356 0.237356 0.237356 0.237356 0.237356 0.237356 0.237356 0.237356 0.237356 0.237356 0.237356 0.237356 0.237356 0.237356 0.237356 0.237356 0.237356 0.244339 0.244339 0.244339 0.244339 0.244339 0.244339 0.244339 0.244339 0.244339 0.244339 0.244339 0.244339 0.244339 0.244339 0.244339 0.244339 0.244339 0.244339 0.244339 0.244339 0.244339 0.248069 0.248069 0.248069 0.248069 0.248069 0.248069 0.248069 0.248069 0.248069 0.248069 0.248069 0.248069 0.248069 0.248069 0.248069 0.248069 0.248069 0.248069 0.248069 0.248069 0.248069 0.248069 0.248069 0.248069 0.248069 0.248069 0.248069 0.248069 0.248069 0.248069 0.248069 0.248069 0.248069 0.248069 0.248069 0.248069 0.248069 0.256074 0.256074 0.256074 0.256074 0.256074 0.256074 0.256074 0.256074 0.256074 0.256074 0.256074 0.256074 0.256074 0.256074 0.256074 0.256074 0.256074 0.256074 0.256074 0.256074 0.256074 0.256074 0.256074 0.256074 0.256074 0.256074 0.256074 0.256074 0.256074 0.256074 0.256074 0.256074 0.256074 0.256074 0.256074 0.256074 0.256074 0.256074 0.256074 0.256074 0.256074 0.256074 0.256074 0.256074 0.256074 0.260378 0.260378 0.260378 0.260378 0.260378 0.260378 0.260378 0.260378 0.260378 0.260378 0.260378 0.260378 0.260378 0.256074 0.256074 0.256074 0.256074 0.256074 0.256074 0.256074 0.256074 0.256074 0.256074 0.256074 0.256074 0.256074 0.260378 0.260378 0.260378 0.260378 0.260378 0.260378 0.260378 0.260378 0.260378 0.260378 0.260378 0.260378 0.251976 0.251976 0.251976 0.251976 0.251976 0.251976 0.251976 0.251976 0.251976 0.251976 0.251976 0.251976 0.256074 0.256074 0.256074 0.256074 0.256074 0.256074 0.256074 0.256074 0.256074 0.256074 0.256074 0.251976 0.251976 0.251976 0.251976 0.251976 0.251976 0.251976 0.251976 0.251976 0.251976 0.251976 0.248069 0.248069 0.248069 0.248069 0.248069 0.248069 0.248069 0.248069 0.248069 0.248069 0.248069 0.256074 0.256074 0.256074 0.256074 0.256074 0.256074 0.256074 0.256074 0.256074 0.256074 0.256074 0.256074 0.256074 0.256074 0.256074 0.256074 0.256074 0.256074 0.256074
