# Output from CTFFind version 4.1.9, run on 2019-11-02 17:47:30
# Input file: stack6_bm3d_averaged_1_0.75_0_1500_half.mrc ; Number of micrographs: 1
# Pixel size: 3.000 Angstroms ; acceleration voltage: 300.0 keV ; spherical aberration: 0.00 mm ; amplitude contrast: 0.07
# Box size: 512 pixels ; min. res.: 30.0 Angstroms ; max. res.: 5.0 Angstroms ; min. def.: 5000.0 um; max. def. 50000.0 um; num. frames averaged: 1
# 6 lines per micrograph: #1 - spatial frequency (1/Angstroms); #2 - 1D rotational average of spectrum (assuming no astigmatism); #3 - 1D rotational average of spectrum; #4 - CTF fit; #5 - cross-correlation between spectrum and CTF fit; #6 - 2sigma of expected cross correlation of noise
0.000000 0.000651 0.001302 0.001953 0.002604 0.003255 0.003906 0.004557 0.005208 0.005859 0.006510 0.007161 0.007812 0.008464 0.009115 0.009766 0.010417 0.011068 0.011719 0.012370 0.013021 0.013672 0.014323 0.014974 0.015625 0.016276 0.016927 0.017578 0.018229 0.018880 0.019531 0.020182 0.020833 0.021484 0.022135 0.022786 0.023438 0.024089 0.024740 0.025391 0.026042 0.026693 0.027344 0.027995 0.028646 0.029297 0.029948 0.030599 0.031250 0.031901 0.032552 0.033203 0.033854 0.034505 0.035156 0.035807 0.036458 0.037109 0.037760 0.038411 0.039062 0.039714 0.040365 0.041016 0.041667 0.042318 0.042969 0.043620 0.044271 0.044922 0.045573 0.046224 0.046875 0.047526 0.048177 0.048828 0.049479 0.050130 0.050781 0.051432 0.052083 0.052734 0.053385 0.054036 0.054688 0.055339 0.055990 0.056641 0.057292 0.057943 0.058594 0.059245 0.059896 0.060547 0.061198 0.061849 0.062500 0.063151 0.063802 0.064453 0.065104 0.065755 0.066406 0.067057 0.067708 0.068359 0.069010 0.069661 0.070312 0.070964 0.071615 0.072266 0.072917 0.073568 0.074219 0.074870 0.075521 0.076172 0.076823 0.077474 0.078125 0.078776 0.079427 0.080078 0.080729 0.081380 0.082031 0.082682 0.083333 0.083984 0.084635 0.085286 0.085938 0.086589 0.087240 0.087891 0.088542 0.089193 0.089844 0.090495 0.091146 0.091797 0.092448 0.093099 0.093750 0.094401 0.095052 0.095703 0.096354 0.097005 0.097656 0.098307 0.098958 0.099609 0.100260 0.100911 0.101562 0.102214 0.102865 0.103516 0.104167 0.104818 0.105469 0.106120 0.106771 0.107422 0.108073 0.108724 0.109375 0.110026 0.110677 0.111328 0.111979 0.112630 0.113281 0.113932 0.114583 0.115234 0.115885 0.116536 0.117188 0.117839 0.118490 0.119141 0.119792 0.120443 0.121094 0.121745 0.122396 0.123047 0.123698 0.124349 0.125000 0.125651 0.126302 0.126953 0.127604 0.128255 0.128906 0.129557 0.130208 0.130859 0.131510 0.132161 0.132812 0.133464 0.134115 0.134766 0.135417 0.136068 0.136719 0.137370 0.138021 0.138672 0.139323 0.139974 0.140625 0.141276 0.141927 0.142578 0.143229 0.143880 0.144531 0.145182 0.145833 0.146484 0.147135 0.147786 0.148438 0.149089 0.149740 0.150391 0.151042 0.151693 0.152344 0.152995 0.153646 0.154297 0.154948 0.155599 0.156250 0.156901 0.157552 0.158203 0.158854 0.159505 0.160156 0.160807 0.161458 0.162109 0.162760 0.163411 0.164062 0.164714 0.165365 0.166016 0.166667 0.167318 0.167969 0.168620 0.169271 0.169922 0.170573 0.171224 0.171875 0.172526 0.173177 0.173828 0.174479 0.175130 0.175781 0.176432 0.177083 0.177734 0.178385 0.179036 0.179688 0.180339 0.180990 0.181641 0.182292 0.182943 0.183594 0.184245 0.184896 0.185547 0.186198 0.186849 0.187500 0.188151 0.188802 0.189453 0.190104 0.190755 0.191406 0.192057 0.192708 0.193359 0.194010 0.194661 0.195312 0.195964 0.196615 0.197266 0.197917 0.198568 0.199219 0.199870 0.200521 0.201172 0.201823 0.202474 0.203125 0.203776 0.204427 0.205078 0.205729 0.206380 0.207031 0.207682 0.208333 0.208984 0.209635 0.210286 0.210938 0.211589 0.212240 0.212891 0.213542 0.214193 0.214844 0.215495 0.216146 0.216797 0.217448 0.218099 0.218750 0.219401 0.220052 0.220703 0.221354 0.222005 0.222656 0.223307 0.223958 0.224609 0.225260 0.225911 0.226562 0.227214 0.227865 0.228516 0.229167 0.229818 0.230469 0.231120 0.231771 0.232422 0.233073 0.233724 0.234375 0.235026 0.235677
       0.31254        0.31254        0.31254        0.31254        0.31254        0.31254        0.31254        0.31254        0.31254        0.31254        0.31254        0.31254        0.31254        0.31254        0.31254        0.31254        0.31254        0.31254        0.31254        0.31254        0.31254        0.31254        0.31254        0.31254        0.31254        0.31254        0.31254        0.31254        0.31254        0.31254        0.31254        0.31254        0.31254        0.31254        0.31254        0.31254        0.31254        0.31254        0.31254        0.31254        0.31254        0.31254        0.31254        0.31254        0.31254        0.31254        0.31254        0.31254        0.31254        0.31254        0.31254        0.63604        0.82009        0.41762        0.31269        0.19081       -0.10449        0.11337       -0.00147        0.03514        0.11821        0.33670        0.42564        0.40705        0.22586       -0.01017        0.04890        0.07230       -0.16634       -0.17791       -0.08634       -0.10709       -0.29152       -0.18620       -0.30181       -0.25628       -0.28399       -0.40043       -0.47512       -0.47636       -0.41948       -0.33687       -0.43748       -0.36693       -0.40797       -0.34788       -0.27294       -0.19839       -0.19235       -0.13345       -0.09187        0.03869        0.08573        0.25114        0.28266        0.37236        0.40327        0.51879        0.58972        0.60791        0.74183        0.70106        0.74154        0.65057        0.66628        0.69844        0.63485        0.61602        0.60948        0.43702        0.39905        0.35938        0.32583        0.22333        0.13340        0.06131        0.05857        0.00006       -0.07797       -0.03035       -0.03059       -0.06883        0.06355        0.16536        0.25633        0.32248        0.33736        0.43273        0.54807        0.59372        0.54438        0.67209        0.56588        0.54286        0.59993        0.64070        0.53267        0.46144        0.40793        0.37646        0.25136        0.21546        0.13286        0.11631        0.05603        0.06018        0.11036        0.16854        0.14715        0.18088        0.21937        0.24038        0.33371        0.45758        0.49434        0.49832        0.52249        0.57880        0.57218        0.52336        0.42460        0.38547        0.36827        0.27111        0.24782        0.21659        0.20714        0.20487        0.18289        0.15954        0.12619        0.19095        0.24976        0.34953        0.38412        0.40694        0.46432        0.53698        0.47751        0.48429        0.42381        0.40285        0.38437        0.36429        0.29027        0.25950        0.20169        0.23434        0.21811        0.19366        0.21917        0.22518        0.24284        0.30034        0.40210        0.40230        0.37264        0.39016        0.45538        0.48479        0.42916        0.35539        0.32617        0.28026        0.26301        0.24798        0.21401        0.28531        0.29392        0.29528        0.31645        0.31143        0.35000        0.37496        0.37395        0.37498        0.35745        0.31907        0.33536        0.31893        0.29837        0.28288        0.27173        0.21763        0.27312        0.27458        0.30354        0.32225        0.34536        0.37716        0.34034        0.32109        0.36118        0.37013        0.26817        0.29592        0.30720        0.24526        0.21204        0.26093        0.27271        0.27710        0.30093        0.30670        0.33501        0.33653        0.36288        0.32823        0.32345        0.31012        0.29391        0.27512        0.24999        0.25508        0.25976        0.27689        0.29992        0.29506        0.30040        0.31552        0.32910        0.26479        0.30493        0.26965        0.26275        0.27844        0.26461        0.26217        0.26702        0.31324        0.28673        0.31644        0.28765        0.27607        0.30946        0.31046        0.33033        0.31530        0.29394        0.25334        0.26582        0.27213        0.26534        0.31205        0.31685        0.33888        0.32384        0.30974        0.26076        0.28277        0.21176        0.20532        0.24680        0.26089        0.25612        0.28842        0.31409        0.29739        0.34969        0.31024        0.26529        0.23522        0.23666        0.29108        0.31072        0.30549        0.26777        0.27977        0.25754        0.32121        0.28419        0.25262        0.26603        0.25338        0.29002        0.25205        0.29226        0.33100        0.29040        0.21672        0.23435        0.28455        0.32371        0.27164        0.26425        0.24174        0.27996        0.29155        0.37784        0.29508        0.27746        0.25595        0.25903        0.22107        0.18103        0.25239        0.22543        0.20539        0.18968        0.19530        0.23951        0.22605        0.23918        0.19233        0.25604        0.22882        0.20725        0.17945        0.16285        0.19561        0.23452        0.14689        0.06942        0.20258        0.20112        0.15394        0.24567        0.14928        0.22447        0.21569       -0.06704       -0.48907       -0.97387
2.854893 2.826790 2.798832 2.771019 2.743350 2.715825 2.688446 2.661211 2.634120 2.607175 2.580373 2.553717 2.527205 2.500838 2.474615 2.448537 2.422603 2.396814 2.371170 2.345670 2.320315 2.295105 2.270039 2.245118 2.220341 2.195709 2.171222 2.146879 2.122681 2.098628 2.074719 2.050954 2.027335 2.003860 1.980529 1.957343 1.934302 1.911405 1.888654 1.866046 1.843583 1.821265 1.799092 1.777063 1.755178 1.733439 1.711844 1.690393 1.669087 1.647926 1.626909 1.923186 2.278878 1.701951 1.742912 1.384685 0.944568 1.201997 1.024028 1.075790 1.031898 1.492865 1.520762 1.546281 1.281186 0.945066 0.826234 1.011274 0.718772 0.492077 0.587956 0.679677 0.422095 0.491557 0.325423 0.368626 0.248151 0.162651 -0.036870 0.002527 0.027517 0.081814 0.040107 0.074470 -0.039945 0.027970 0.113557 0.225690 0.287079 0.210249 0.322404 0.551417 0.453100 0.728316 0.793205 0.881868 0.909002 1.120818 1.141922 1.175545 1.328615 1.236831 1.371226 1.196576 1.113873 1.299359 1.145853 1.053836 1.127082 0.889354 0.741355 0.680114 0.674573 0.459578 0.395443 0.259325 0.228393 0.090433 -0.007747 0.087823 0.025982 -0.064442 0.113389 0.253729 0.305968 0.467246 0.485872 0.557393 0.723778 0.822391 0.662734 0.960425 0.803526 0.663008 0.767531 0.800462 0.711560 0.639752 0.449351 0.500097 0.281642 0.193013 0.140646 0.005348 -0.019966 -0.106649 -0.014811 0.024063 0.091789 -0.050952 0.251399 0.096428 0.207310 0.376233 0.439612 0.528788 0.436592 0.575812 0.641081 0.508042 0.388358 0.333544 0.322780 0.147228 0.137268 0.014053 0.091323 0.030093 -0.000498 -0.027111 -0.122584 -0.012167 0.019470 0.109985 0.296416 0.200480 0.355216 0.373014 0.424063 0.418710 0.389243 0.328397 0.229013 0.304106 0.165428 0.156179 0.009000 0.047122 0.063112 -0.023770 -0.009259 0.016080 0.059338 0.072738 0.214190 0.306758 0.241266 0.207376 0.375425 0.405484 0.351895 0.243863 0.174794 0.148263 0.082012 0.074991 0.022686 0.020801 0.135339 0.051955 0.185789 0.088441 0.141622 0.232355 0.214267 0.235626 0.199109 0.196307 0.119280 0.163544 0.121102 0.096099 0.108578 -0.002367 0.030144 0.087592 0.049404 0.148165 0.120699 0.209971 0.204113 0.135759 0.130402 0.230765 0.120116 0.073121 0.086131 0.060854 -0.001505 -0.026802 0.046458 0.070118 0.031385 0.115882 0.110639 0.122304 0.132105 0.178173 0.119731 0.081148 0.100928 0.081402 0.022171 0.013407 0.031422 0.001315 0.069026 0.101962 0.060679 0.067136 0.134205 0.090220 0.015682 0.112861 0.022945 0.028840 0.059538 0.018695 0.013163 0.062144 0.085145 0.027608 0.108708 0.052967 0.031495 0.112443 0.071128 0.090245 0.090645 0.021789 -0.008635 0.001226 0.041791 0.008680 0.067657 0.096675 0.091206 0.064279 0.135952 -0.009028 0.032671 -0.093494 -0.020112 -0.035508 0.008433 0.018337 0.032565 0.076129 0.079082 0.108095 0.013528 -0.017385 -0.063974 -0.080040 0.072279 0.042206 0.051109 -0.020908 -0.000880 -0.037827 0.062964 0.016307 -0.063583 -0.018462 -0.078949 0.026967 -0.043043 0.031788 0.068158 -0.013505 -0.076588 -0.047137 0.095059 0.046988 0.005114 0.002240 -0.053376 0.082169 0.074877 0.176158 0.051556 0.018851 0.031546 0.053652 -0.051092 -0.041856 0.061724 0.013972 -0.027677 -0.034365 -0.037017 0.095625 -0.050145 0.073769 -0.000855 0.125227 -0.006119 0.059342 -0.083808 -0.027824 -0.041063 0.096524 -0.023632 -0.194186 0.293955 0.289432 0.218239 0.409975 0.181087 0.292318 0.363885 -0.092329 -1.363133
0.072396 0.072834 0.074148 0.076338 0.079403 0.083343 0.088157 0.093843 0.100400 0.107826 0.116119 0.125275 0.135291 0.146162 0.157884 0.170448 0.183848 0.198076 0.213120 0.228969 0.245609 0.263025 0.281198 0.300110 0.319736 0.340053 0.361031 0.382640 0.404845 0.427608 0.450887 0.474637 0.498807 0.523345 0.548191 0.573282 0.598550 0.623924 0.649324 0.674668 0.699869 0.724832 0.749460 0.773649 0.797290 0.820270 0.842470 0.863768 0.884035 0.903141 0.920950 0.937326 0.952125 0.965207 0.976425 0.985637 0.992696 0.997459 0.999784 0.999532 0.996569 0.990766 0.981999 0.970154 0.955125 0.936819 0.915152 0.890056 0.861478 0.829382 0.793750 0.754583 0.711907 0.665768 0.616238 0.563415 0.507423 0.448414 0.386571 0.322106 0.255260 0.186307 0.115551 0.043324 0.030008 0.104052 0.178387 0.252567 0.326120 0.398553 0.469354 0.537996 0.603940 0.666640 0.725545 0.780108 0.829789 0.874061 0.912416 0.944370 0.969475 0.987317 0.997532 0.999805 0.993880 0.979570 0.956755 0.925397 0.885537 0.837307 0.780927 0.716715 0.645085 0.566547 0.481711 0.391282 0.296059 0.196930 0.094866 0.009087 0.113813 0.218144 0.320866 0.420733 0.516485 0.606862 0.690624 0.766565 0.833535 0.890460 0.936360 0.970368 0.991751 0.999926 0.994478 0.975175 0.941980 0.895064 0.834810 0.761824 0.676929 0.581165 0.475789 0.362252 0.242194 0.117420 0.010122 0.138369 0.265174 0.388343 0.505671 0.614984 0.714179 0.801268 0.874427 0.932029 0.972694 0.995323 0.999135 0.983693 0.948936 0.895190 0.823179 0.734033 0.629272 0.510797 0.380863 0.242041 0.097176 0.050666 0.198261 0.342295 0.479435 0.606413 0.720104 0.817606 0.896323 0.954044 0.989006 0.999965 0.986243 0.947772 0.885114 0.799476 0.692702 0.567244 0.426125 0.272870 0.111435 0.053893 0.218605 0.378086 0.527750 0.663172 0.780226 0.875217 0.945008 0.987138 0.999916 0.982510 0.934995 0.858387 0.754644 0.626634 0.478077 0.313449 0.137861 0.043083 0.223469 0.397258 0.558488 0.701481 0.821059 0.912737 0.972905 0.998993 0.989590 0.944543 0.864994 0.753387 0.613417 0.449926 0.268763 0.076580 0.119392 0.311611 0.492514 0.654820 0.791824 0.897697 0.967744 0.998638 0.988597 0.937508 0.846982 0.720336 0.562506 0.379875 0.180044 0.028474 0.236599 0.435082 0.614910 0.767732 0.886255 0.964614 0.998691 0.986357 0.927627 0.824726 0.682038 0.505960 0.304646 0.087646 0.134517 0.350859 0.550474 0.723081 0.859582 0.952557 0.996696 0.989138 0.929687 0.820892 0.667988 0.478683 0.262804 0.031815 0.201768 0.425056 0.625493 0.791574 0.913530 0.983926 0.998158 0.954790 0.855720 0.706154 0.514380 0.291349 0.050090 0.195034 0.429168 0.637873 0.808013 0.928624 0.991651 0.992523 0.930540 0.809001 0.635105 0.419556 0.175970 0.079970 0.331487 0.561817 0.755331 0.898621 0.981463 0.997595 0.945240 0.827343 0.651462 0.429354 0.176247 0.090192 0.351037 0.587462 0.782108 0.920376 0.991578 0.989810 0.914505 0.770592 0.568248 0.322252 0.050936 0.225122 0.484658 0.707361 0.875476 0.975275 0.998225 0.941789 0.809756 0.612076 0.364177 0.085832 0.200386 0.470907 0.703113 0.877244 0.978135 0.996592 0.930309 0.784206 0.570159 0.306108 0.014627 0.278972 0.548824 0.770782 0.924627 0.995964 0.977639 0.870542 0.683686 0.433545 0.142674 0.162254 0.452876 0.701774 0.885076 0.984815 0.990760 0.901554 0.725019 0.477580 0.182819 0.130694 0.432144 0.691487 0.882478
1.000000 1.000000 1.000000 1.000000 1.000000 1.000000 1.000000 1.000000 1.000000 1.000000 1.000000 1.000000 1.000000 1.000000 1.000000 1.000000 1.000000 1.000000 1.000000 1.000000 1.000000 1.000000 1.000000 1.000000 1.000000 1.000000 1.000000 1.000000 1.000000 1.000000 1.000000 1.000000 1.000000 1.000000 1.000000 1.000000 1.000000 1.000000 1.000000 1.000000 1.000000 1.000000 1.000000 1.000000 1.000000 1.000000 1.000000 1.000000 1.000000 1.000000 1.000000 1.000000 0.836152 0.836152 0.836152 0.836152 0.836152 0.836152 0.836152 0.813811 0.813811 0.813811 0.813811 0.813811 0.813811 0.813811 0.813811 0.813811 0.813811 0.813811 0.813811 0.813811 0.813811 0.813811 0.813811 0.813811 0.813811 0.813811 0.813811 0.813811 0.813811 0.813811 0.813811 0.813811 0.813811 0.813811 0.813811 0.813811 0.813811 0.813811 0.813811 0.813811 0.813811 0.813811 0.813811 0.813811 0.813811 0.813811 0.813811 0.813811 0.813811 0.813811 0.813811 0.954398 0.955015 0.947351 0.946233 0.944491 0.941262 0.936835 0.936383 0.937741 0.937948 0.938579 0.939996 0.941048 0.942750 0.943829 0.944707 0.945551 0.953628 0.957270 0.956903 0.956489 0.952024 0.958711 0.956760 0.956599 0.957372 0.957669 0.958382 0.958264 0.958098 0.957558 0.956400 0.957115 0.956966 0.956245 0.955219 0.952915 0.952896 0.952445 0.952567 0.953522 0.954212 0.954850 0.955361 0.955322 0.955505 0.955488 0.955391 0.950385 0.950414 0.943905 0.944568 0.945738 0.945428 0.944382 0.942976 0.943029 0.942896 0.942809 0.942609 0.942834 0.923648 0.923041 0.923069 0.923308 0.916019 0.905091 0.897790 0.891305 0.892181 0.896226 0.901130 0.901502 0.898269 0.897313 0.880716 0.884443 0.871367 0.868404 0.857392 0.867783 0.868785 0.869881 0.863878 0.863313 0.862062 0.860157 0.851750 0.855856 0.856464 0.852656 0.849159 0.847339 0.845549 0.847564 0.852304 0.849167 0.845483 0.842753 0.831494 0.822218 0.821154 0.823561 0.831571 0.843794 0.843695 0.843054 0.836031 0.832360 0.825788 0.819423 0.817793 0.819426 0.817476 0.821098 0.820262 0.827747 0.817941 0.813479 0.818781 0.828890 0.834895 0.837756 0.840680 0.838956 0.837068 0.819857 0.820595 0.817930 0.768691 0.770607 0.758779 0.758541 0.747656 0.745791 0.742255 0.740559 0.733907 0.719044 0.731120 0.727659 0.706801 0.713630 0.708523 0.696535 0.671617 0.676973 0.690907 0.699350 0.698438 0.701058 0.690297 0.689226 0.699816 0.700703 0.706754 0.701174 0.698189 0.691360 0.693738 0.684171 0.681029 0.677333 0.676396 0.677034 0.673230 0.662010 0.669989 0.665557 0.659515 0.650315 0.605829 0.571678 0.553399 0.546220 0.528811 0.503356 0.519597 0.527268 0.508647 0.498706 0.478382 0.439522 0.430642 0.429002 0.405439 0.392330 0.371332 0.335460 0.342654 0.344089 0.348809 0.334870 0.333692 0.319003 0.271456 0.265029 0.226598 0.244080 0.261616 0.250457 0.228777 0.227568 0.239362 0.238130 0.247319 0.245668 0.261920 0.216205 0.160631 0.174979 0.170806 0.181070 0.164017 0.137605 0.163439 0.155661 0.166597 0.169622 0.126996 0.096719 0.076118 0.055074 0.060727 0.085482 0.100947 0.093247 0.070915 -0.020789 0.012352 0.040810 0.040810 0.040810 0.040810 0.040810 0.040810 0.040810 0.040810 0.040810 0.040810 0.040810 -0.025588 -0.025588 -0.025588 -0.025588 -0.025588 -0.025588 -0.025588 -0.025588 -0.025588 -0.025588 -0.025588 -0.025588 -0.025588 -0.025588 -0.025588 -0.025588 -0.025588 -0.025588 -0.025588
0.000000 0.000000 0.000000 0.000000 0.000000 0.000000 0.000000 0.000000 0.000000 0.000000 0.000000 0.000000 0.000000 0.000000 0.000000 0.000000 0.000000 0.000000 0.000000 0.000000 0.000000 0.000000 0.000000 0.000000 0.000000 0.000000 0.000000 0.000000 0.000000 0.000000 0.000000 0.000000 0.000000 0.000000 0.000000 0.000000 0.000000 0.000000 0.000000 0.000000 0.000000 0.000000 0.000000 0.000000 0.000000 0.000000 0.000000 0.000000 0.000000 0.000000 0.000000 0.000000 0.173422 0.173422 0.173422 0.173422 0.173422 0.173422 0.173422 0.191565 0.191565 0.191565 0.191565 0.191565 0.191565 0.191565 0.191565 0.191565 0.191565 0.191565 0.191565 0.191565 0.191565 0.191565 0.191565 0.191565 0.191565 0.191565 0.191565 0.191565 0.191565 0.191565 0.191565 0.191565 0.191565 0.191565 0.191565 0.191565 0.191565 0.191565 0.191565 0.191565 0.191565 0.191565 0.191565 0.191565 0.191565 0.191565 0.191565 0.191565 0.191565 0.191565 0.191565 0.219529 0.219529 0.219529 0.219529 0.219529 0.219529 0.219529 0.219529 0.219529 0.219529 0.219529 0.219529 0.219529 0.219529 0.219529 0.219529 0.219529 0.219529 0.219529 0.219529 0.219529 0.219529 0.219529 0.219529 0.219529 0.219529 0.219529 0.219529 0.219529 0.219529 0.219529 0.237356 0.237356 0.237356 0.237356 0.237356 0.237356 0.237356 0.237356 0.237356 0.237356 0.237356 0.237356 0.237356 0.237356 0.237356 0.237356 0.237356 0.237356 0.237356 0.237356 0.237356 0.237356 0.237356 0.237356 0.244339 0.244339 0.244339 0.244339 0.244339 0.244339 0.244339 0.244339 0.244339 0.244339 0.244339 0.244339 0.244339 0.244339 0.244339 0.244339 0.244339 0.244339 0.244339 0.244339 0.244339 0.248069 0.248069 0.248069 0.248069 0.248069 0.248069 0.248069 0.248069 0.248069 0.248069 0.248069 0.248069 0.248069 0.248069 0.248069 0.248069 0.248069 0.248069 0.248069 0.248069 0.248069 0.248069 0.248069 0.248069 0.248069 0.248069 0.248069 0.248069 0.248069 0.248069 0.248069 0.248069 0.248069 0.248069 0.248069 0.248069 0.248069 0.256074 0.256074 0.256074 0.256074 0.256074 0.256074 0.256074 0.256074 0.256074 0.256074 0.256074 0.256074 0.256074 0.256074 0.256074 0.256074 0.256074 0.256074 0.256074 0.256074 0.256074 0.256074 0.256074 0.256074 0.256074 0.256074 0.256074 0.256074 0.256074 0.256074 0.256074 0.256074 0.256074 0.256074 0.256074 0.256074 0.256074 0.256074 0.256074 0.256074 0.256074 0.256074 0.256074 0.256074 0.256074 0.260378 0.260378 0.260378 0.260378 0.260378 0.260378 0.260378 0.260378 0.260378 0.260378 0.260378 0.260378 0.260378 0.256074 0.256074 0.256074 0.256074 0.256074 0.256074 0.256074 0.256074 0.256074 0.256074 0.256074 0.256074 0.256074 0.260378 0.260378 0.260378 0.260378 0.260378 0.260378 0.260378 0.260378 0.260378 0.260378 0.260378 0.260378 0.251976 0.251976 0.251976 0.251976 0.251976 0.251976 0.251976 0.251976 0.251976 0.251976 0.251976 0.251976 0.256074 0.256074 0.256074 0.256074 0.256074 0.256074 0.256074 0.256074 0.256074 0.256074 0.256074 0.251976 0.251976 0.251976 0.251976 0.251976 0.251976 0.251976 0.251976 0.251976 0.251976 0.251976 0.248069 0.248069 0.248069 0.248069 0.248069 0.248069 0.248069 0.248069 0.248069 0.248069 0.248069 0.256074 0.256074 0.256074 0.256074 0.256074 0.256074 0.256074 0.256074 0.256074 0.256074 0.256074 0.256074 0.256074 0.256074 0.256074 0.256074 0.256074 0.256074 0.256074
