# Output from CTFFind version 4.1.9, run on 2019-11-03 19:00:52
# Input file: stack6_bm3d_averaged_1_2.25_0_1250_half.mrc ; Number of micrographs: 1
# Pixel size: 3.000 Angstroms ; acceleration voltage: 300.0 keV ; spherical aberration: 0.00 mm ; amplitude contrast: 0.07
# Box size: 512 pixels ; min. res.: 30.0 Angstroms ; max. res.: 5.0 Angstroms ; min. def.: 5000.0 um; max. def. 50000.0 um; num. frames averaged: 1
# 6 lines per micrograph: #1 - spatial frequency (1/Angstroms); #2 - 1D rotational average of spectrum (assuming no astigmatism); #3 - 1D rotational average of spectrum; #4 - CTF fit; #5 - cross-correlation between spectrum and CTF fit; #6 - 2sigma of expected cross correlation of noise
0.000000 0.000651 0.001302 0.001953 0.002604 0.003255 0.003906 0.004557 0.005208 0.005859 0.006510 0.007161 0.007812 0.008464 0.009115 0.009766 0.010417 0.011068 0.011719 0.012370 0.013021 0.013672 0.014323 0.014974 0.015625 0.016276 0.016927 0.017578 0.018229 0.018880 0.019531 0.020182 0.020833 0.021484 0.022135 0.022786 0.023438 0.024089 0.024740 0.025391 0.026042 0.026693 0.027344 0.027995 0.028646 0.029297 0.029948 0.030599 0.031250 0.031901 0.032552 0.033203 0.033854 0.034505 0.035156 0.035807 0.036458 0.037109 0.037760 0.038411 0.039062 0.039714 0.040365 0.041016 0.041667 0.042318 0.042969 0.043620 0.044271 0.044922 0.045573 0.046224 0.046875 0.047526 0.048177 0.048828 0.049479 0.050130 0.050781 0.051432 0.052083 0.052734 0.053385 0.054036 0.054688 0.055339 0.055990 0.056641 0.057292 0.057943 0.058594 0.059245 0.059896 0.060547 0.061198 0.061849 0.062500 0.063151 0.063802 0.064453 0.065104 0.065755 0.066406 0.067057 0.067708 0.068359 0.069010 0.069661 0.070312 0.070964 0.071615 0.072266 0.072917 0.073568 0.074219 0.074870 0.075521 0.076172 0.076823 0.077474 0.078125 0.078776 0.079427 0.080078 0.080729 0.081380 0.082031 0.082682 0.083333 0.083984 0.084635 0.085286 0.085938 0.086589 0.087240 0.087891 0.088542 0.089193 0.089844 0.090495 0.091146 0.091797 0.092448 0.093099 0.093750 0.094401 0.095052 0.095703 0.096354 0.097005 0.097656 0.098307 0.098958 0.099609 0.100260 0.100911 0.101562 0.102214 0.102865 0.103516 0.104167 0.104818 0.105469 0.106120 0.106771 0.107422 0.108073 0.108724 0.109375 0.110026 0.110677 0.111328 0.111979 0.112630 0.113281 0.113932 0.114583 0.115234 0.115885 0.116536 0.117188 0.117839 0.118490 0.119141 0.119792 0.120443 0.121094 0.121745 0.122396 0.123047 0.123698 0.124349 0.125000 0.125651 0.126302 0.126953 0.127604 0.128255 0.128906 0.129557 0.130208 0.130859 0.131510 0.132161 0.132812 0.133464 0.134115 0.134766 0.135417 0.136068 0.136719 0.137370 0.138021 0.138672 0.139323 0.139974 0.140625 0.141276 0.141927 0.142578 0.143229 0.143880 0.144531 0.145182 0.145833 0.146484 0.147135 0.147786 0.148438 0.149089 0.149740 0.150391 0.151042 0.151693 0.152344 0.152995 0.153646 0.154297 0.154948 0.155599 0.156250 0.156901 0.157552 0.158203 0.158854 0.159505 0.160156 0.160807 0.161458 0.162109 0.162760 0.163411 0.164062 0.164714 0.165365 0.166016 0.166667 0.167318 0.167969 0.168620 0.169271 0.169922 0.170573 0.171224 0.171875 0.172526 0.173177 0.173828 0.174479 0.175130 0.175781 0.176432 0.177083 0.177734 0.178385 0.179036 0.179688 0.180339 0.180990 0.181641 0.182292 0.182943 0.183594 0.184245 0.184896 0.185547 0.186198 0.186849 0.187500 0.188151 0.188802 0.189453 0.190104 0.190755 0.191406 0.192057 0.192708 0.193359 0.194010 0.194661 0.195312 0.195964 0.196615 0.197266 0.197917 0.198568 0.199219 0.199870 0.200521 0.201172 0.201823 0.202474 0.203125 0.203776 0.204427 0.205078 0.205729 0.206380 0.207031 0.207682 0.208333 0.208984 0.209635 0.210286 0.210938 0.211589 0.212240 0.212891 0.213542 0.214193 0.214844 0.215495 0.216146 0.216797 0.217448 0.218099 0.218750 0.219401 0.220052 0.220703 0.221354 0.222005 0.222656 0.223307 0.223958 0.224609 0.225260 0.225911 0.226562 0.227214 0.227865 0.228516 0.229167 0.229818 0.230469 0.231120 0.231771 0.232422 0.233073 0.233724 0.234375 0.235026 0.235677
       0.30478        0.30478        0.30478        0.30478        0.30478        0.30478        0.30478        0.30478        0.30478        0.30478        0.30478        0.30478        0.30478        0.30478        0.30478        0.30478        0.30478        0.30478        0.30478        0.30478        0.30478        0.30478        0.30478        0.30478        0.30478        0.30478        0.30478        0.30478        0.30478        0.30478        0.30478        0.30478        0.30478        0.30478        0.30478        0.30478        0.30478        0.30478        0.30478        0.30478        0.30478        0.30478        0.30478        0.30478        0.30478        0.30478        0.30478        0.30478        0.30478        0.30478        0.30478        0.62490        0.79107        0.39631        0.28620        0.17066       -0.11309        0.11589        0.01323        0.03288        0.11063        0.34481        0.41406        0.37819        0.21484       -0.02151        0.03566        0.06870       -0.17682       -0.18027       -0.08716       -0.11515       -0.29849       -0.19129       -0.31186       -0.26637       -0.28661       -0.40603       -0.46707       -0.46406       -0.41150       -0.34540       -0.42510       -0.34309       -0.40889       -0.35183       -0.27605       -0.20715       -0.19320       -0.11496       -0.06760        0.03805        0.07497        0.24127        0.30255        0.37378        0.39661        0.51388        0.57700        0.60976        0.71523        0.68326        0.74082        0.64031        0.65991        0.67623        0.62479        0.61546        0.61614        0.41337        0.38285        0.35373        0.32940        0.21468        0.12568        0.05778        0.05618        0.00283       -0.08098       -0.01222       -0.03965       -0.07972        0.06465        0.16801        0.26314        0.31032        0.32203        0.40850        0.51660        0.55785        0.51474        0.66454        0.55185        0.52262        0.59630        0.61002        0.53315        0.47970        0.41648        0.37768        0.23066        0.18738        0.12310        0.12397        0.08387        0.05267        0.08111        0.14301        0.13122        0.15581        0.21795        0.24321        0.32850        0.44141        0.46524        0.47567        0.51146        0.57205        0.54538        0.52303        0.40867        0.39753        0.35407        0.27428        0.23742        0.21088        0.17416        0.18237        0.17227        0.16863        0.13823        0.19840        0.24502        0.33753        0.38201        0.39994        0.46118        0.51018        0.44490        0.47524        0.42207        0.40822        0.39100        0.36800        0.28248        0.25186        0.18968        0.21570        0.22168        0.19894        0.21053        0.20426        0.24458        0.32117        0.40050        0.38266        0.37137        0.38896        0.44667        0.44288        0.42389        0.34974        0.31851        0.28116        0.28417        0.25487        0.22065        0.28273        0.29359        0.29224        0.30005        0.31563        0.31275        0.36830        0.35119        0.35046        0.36542        0.32489        0.32147        0.30606        0.28432        0.26989        0.25620        0.22485        0.26995        0.26227        0.29736        0.30972        0.34542        0.36037        0.32128        0.30907        0.34981        0.35505        0.25959        0.29207        0.28632        0.24051        0.22341        0.27661        0.26561        0.26180        0.30095        0.29967        0.32349        0.33380        0.35087        0.30083        0.31103        0.30784        0.28281        0.26507        0.24333        0.22835        0.24903        0.27622        0.29532        0.28873        0.28716        0.31425        0.33493        0.27592        0.29962        0.27378        0.25946        0.24039        0.24090        0.24583        0.25898        0.29913        0.26377        0.29807        0.28107        0.27857        0.30839        0.27208        0.31037        0.31442        0.29215        0.25466        0.25904        0.25505        0.24957        0.30758        0.30509        0.33821        0.30398        0.30040        0.27054        0.30514        0.23390        0.20424        0.27445        0.26900        0.26349        0.26682        0.30096        0.29554        0.35490        0.29986        0.23553        0.22376        0.23210        0.28409        0.30630        0.29207        0.24988        0.26597        0.26545        0.29530        0.27124        0.24799        0.26931        0.25343        0.28487        0.23259        0.27064        0.33575        0.29731        0.22639        0.25875        0.27769        0.29069        0.20934        0.24405        0.25525        0.27137        0.28252        0.35714        0.27739        0.26524        0.26629        0.24305        0.20892        0.18613        0.22781        0.21403        0.20521        0.19106        0.20747        0.26001        0.23793        0.24646        0.22242        0.19274        0.22528        0.22665        0.17489        0.16384        0.18063        0.22681        0.16109        0.04990        0.19567        0.15860        0.09064        0.18191        0.08459        0.11147        0.12764       -0.15567       -0.52733       -0.95923
2.855482 2.827367 2.799396 2.771570 2.743889 2.716352 2.688960 2.661712 2.634608 2.607649 2.580835 2.554165 2.527640 2.501259 2.475023 2.448931 2.422984 2.397182 2.371523 2.346010 2.320641 2.295416 2.270336 2.245401 2.220610 2.195963 2.171461 2.147104 2.122891 2.098822 2.074899 2.051119 2.027484 2.003994 1.980648 1.957447 1.934390 1.911478 1.888710 1.866087 1.843609 1.821274 1.799085 1.777040 1.755139 1.733383 1.711772 1.690305 1.668982 1.647804 1.626771 1.932402 2.259339 1.686061 1.711942 1.367858 0.919834 1.201289 1.053822 1.090439 1.011525 1.525793 1.513644 1.524827 1.265909 0.938696 0.804189 1.019406 0.713230 0.470431 0.597672 0.670471 0.410510 0.477586 0.313943 0.338637 0.241842 0.166915 -0.051122 0.008297 0.033061 0.061201 0.043835 0.123107 -0.050952 0.017762 0.102512 0.217121 0.260699 0.251259 0.341666 0.577263 0.433719 0.705674 0.851165 0.892329 0.901144 1.138468 1.136660 1.201247 1.319970 1.209168 1.397668 1.183714 1.131002 1.309047 1.127774 1.072307 1.166566 0.867955 0.723697 0.676828 0.679547 0.471725 0.392995 0.263247 0.208912 0.116525 -0.023744 0.122385 0.001175 -0.066608 0.104951 0.261552 0.337523 0.462983 0.475616 0.536352 0.703363 0.774415 0.628112 0.962220 0.807463 0.656060 0.763796 0.776383 0.714544 0.683024 0.462816 0.538324 0.253646 0.176383 0.115296 -0.004602 0.018811 -0.084573 -0.043383 -0.009367 0.056333 -0.070368 0.231802 0.130862 0.194242 0.388980 0.405550 0.508400 0.407158 0.581929 0.636035 0.482488 0.399900 0.331377 0.311411 0.157322 0.111930 0.027737 0.054485 -0.023329 -0.007918 -0.035162 -0.097976 -0.008228 0.008251 0.122000 0.272932 0.219102 0.354840 0.357394 0.397134 0.391013 0.433552 0.351317 0.227137 0.342941 0.166034 0.174035 -0.004982 0.053050 0.052054 0.003220 0.001686 -0.000082 0.049724 0.112172 0.246334 0.304374 0.231724 0.228101 0.370703 0.343803 0.341607 0.238902 0.160225 0.147679 0.102498 0.090178 0.027992 0.021917 0.145637 0.048640 0.154943 0.090925 0.125339 0.205028 0.202615 0.189139 0.185457 0.227961 0.127108 0.148273 0.102779 0.077181 0.102710 -0.034486 0.060913 0.084156 0.040113 0.139583 0.120545 0.206833 0.201412 0.125571 0.126468 0.233566 0.123598 0.060761 0.113287 0.042088 0.028977 0.004548 0.089690 0.054670 0.030358 0.140491 0.102543 0.133242 0.160735 0.157340 0.133640 0.093777 0.116798 0.070461 0.039856 0.013443 0.007787 0.012925 0.073392 0.107016 0.080271 0.060464 0.106060 0.127307 0.011234 0.095510 0.042399 -0.000897 -0.007038 -0.014983 -0.015583 0.052384 0.059846 -0.016993 0.077582 0.053177 0.008392 0.075110 0.007224 0.054659 0.085786 -0.001050 -0.003378 -0.025296 0.000505 -0.032623 0.062058 0.061302 0.092349 0.010109 0.118505 -0.010858 0.069688 -0.091502 -0.053072 0.010896 -0.013878 0.026288 -0.033569 0.076740 0.039156 0.103583 -0.003068 -0.078544 -0.070343 -0.089438 0.061345 0.024335 0.027472 -0.048279 -0.029713 -0.024766 0.034372 -0.014060 -0.040296 0.009170 -0.082978 0.040234 -0.071426 0.025654 0.100480 0.010997 -0.053619 0.033202 0.027032 0.027899 -0.091173 0.008383 -0.020301 0.079862 0.088136 0.161768 0.041485 0.042901 0.059754 0.041303 -0.045405 -0.012044 0.036796 0.022127 -0.012538 -0.013178 0.032598 0.139001 0.027856 0.172449 0.030685 0.059807 0.087417 0.133401 -0.026027 0.029191 0.003637 0.191321 0.053910 -0.031687 0.277567 0.224448 0.131290 0.317200 0.155574 0.123683 0.244072 -0.220458 -1.365489
0.072396 0.072835 0.074150 0.076341 0.079409 0.083352 0.088169 0.093859 0.100422 0.107853 0.116152 0.125315 0.135339 0.146218 0.157948 0.170522 0.183933 0.198171 0.213226 0.229087 0.245739 0.263167 0.281354 0.300278 0.319919 0.340249 0.361242 0.382865 0.405084 0.427862 0.451155 0.474919 0.499104 0.523655 0.548514 0.573617 0.598898 0.624281 0.649691 0.675044 0.700251 0.725219 0.749850 0.774040 0.797680 0.820657 0.842851 0.864140 0.884395 0.903485 0.921276 0.937628 0.952401 0.965452 0.976635 0.985807 0.992822 0.997536 0.999807 0.999496 0.996469 0.990596 0.981755 0.969831 0.954719 0.936324 0.914564 0.889371 0.860692 0.828492 0.792752 0.753476 0.710689 0.664438 0.614795 0.561860 0.505757 0.446641 0.384694 0.320129 0.253191 0.184151 0.113317 0.041023 0.032366 0.106455 0.180821 0.255016 0.328567 0.400981 0.471744 0.540328 0.606194 0.668793 0.727575 0.781993 0.831505 0.875585 0.913725 0.945443 0.970289 0.987853 0.997770 0.999728 0.993474 0.978822 0.955656 0.923939 0.883718 0.835128 0.778393 0.713836 0.641874 0.563023 0.477898 0.387208 0.291758 0.192440 0.090229 0.013822 0.118596 0.222920 0.325576 0.425317 0.520881 0.611007 0.694454 0.770017 0.836549 0.892979 0.938329 0.971739 0.992481 0.999981 0.993830 0.973808 0.939886 0.892247 0.831288 0.757623 0.672090 0.575743 0.469847 0.355870 0.235460 0.110435 0.017249 0.145521 0.272229 0.395173 0.512149 0.620979 0.719565 0.805928 0.878247 0.934911 0.974551 0.996086 0.998753 0.982138 0.946201 0.891293 0.818165 0.727970 0.622256 0.502949 0.372327 0.232981 0.087778 0.060202 0.207724 0.351466 0.488094 0.614341 0.727092 0.823460 0.900868 0.957131 0.990517 0.999818 0.984395 0.944221 0.879905 0.792699 0.684492 0.557781 0.415630 0.261602 0.099682 0.065817 0.230368 0.389352 0.538180 0.672444 0.788037 0.881297 0.949132 0.989129 0.999661 0.979958 0.930168 0.851379 0.745621 0.615836 0.465807 0.300073 0.123793 0.057393 0.237547 0.410622 0.570660 0.712014 0.829546 0.918830 0.976332 0.999567 0.987224 0.939255 0.856911 0.742744 0.600554 0.435281 0.252852 0.059989 0.136034 0.327653 0.507306 0.667745 0.802320 0.905285 0.972049 0.999410 0.985727 0.931037 0.837106 0.707404 0.547010 0.362435 0.161381 0.047560 0.255269 0.452487 0.630236 0.780235 0.895300 0.969712 0.999522 0.982793 0.919750 0.812823 0.666605 0.487678 0.284352 0.066306 0.155862 0.371138 0.568636 0.738160 0.870742 0.959144 0.998277 0.985534 0.920987 0.807464 0.650464 0.457935 0.239903 0.007983 0.225231 0.446833 0.644327 0.806341 0.923314 0.988070 0.996320 0.946967 0.842262 0.687756 0.492047 0.266351 0.023894 0.220861 0.453036 0.658268 0.823607 0.938358 0.994807 0.988785 0.920026 0.792272 0.613132 0.393684 0.147833 0.108550 0.358615 0.585648 0.774204 0.911170 0.986721 0.995077 0.934992 0.809946 0.628021 0.401429 0.145748 0.121125 0.380179 0.612672 0.801480 0.932391 0.995227 0.984688 0.900852 0.749303 0.540814 0.290670 0.017567 0.257730 0.513956 0.731002 0.891509 0.982309 0.995561 0.929490 0.788665 0.583769 0.330857 0.050161 0.235495 0.502524 0.728535 0.894239 0.985135 0.992849 0.915983 0.760372 0.538744 0.269740 0.023574 0.315661 0.580722 0.794965 0.938813 0.998723 0.968555 0.850271 0.653932 0.396916 0.102486 0.202298 0.489010 0.730520 0.903597 0.991193 0.984209 0.882524 0.695187 0.439711 0.140528 0.173289 0.470809 0.722302 0.902236
1.000000 1.000000 1.000000 1.000000 1.000000 1.000000 1.000000 1.000000 1.000000 1.000000 1.000000 1.000000 1.000000 1.000000 1.000000 1.000000 1.000000 1.000000 1.000000 1.000000 1.000000 1.000000 1.000000 1.000000 1.000000 1.000000 1.000000 1.000000 1.000000 1.000000 1.000000 1.000000 1.000000 1.000000 1.000000 1.000000 1.000000 1.000000 1.000000 1.000000 1.000000 1.000000 1.000000 1.000000 1.000000 1.000000 1.000000 1.000000 1.000000 1.000000 1.000000 1.000000 0.836367 0.836367 0.836367 0.836367 0.836367 0.836367 0.836367 0.814206 0.814206 0.814206 0.814206 0.814206 0.814206 0.814206 0.814206 0.814206 0.814206 0.814206 0.814206 0.814206 0.814206 0.814206 0.814206 0.814206 0.814206 0.814206 0.814206 0.814206 0.814206 0.814206 0.814206 0.814206 0.814206 0.814206 0.814206 0.814206 0.814206 0.814206 0.814206 0.814206 0.814206 0.814206 0.814206 0.814206 0.814206 0.814206 0.814206 0.814206 0.814206 0.814206 0.814206 0.954591 0.955216 0.955398 0.954358 0.952775 0.949288 0.945171 0.944721 0.946050 0.946259 0.946870 0.948157 0.949085 0.950615 0.951545 0.952302 0.953070 0.961176 0.964904 0.964678 0.964472 0.963312 0.970158 0.969573 0.967301 0.967751 0.967917 0.967896 0.967784 0.967676 0.967214 0.966660 0.967149 0.967029 0.966484 0.965710 0.963852 0.963927 0.963594 0.963709 0.964544 0.965213 0.965818 0.966209 0.966151 0.966241 0.964853 0.964113 0.953318 0.953286 0.945961 0.945695 0.946725 0.946374 0.945458 0.944059 0.944128 0.944042 0.942958 0.942843 0.941736 0.927866 0.928047 0.927642 0.928471 0.923279 0.912674 0.907049 0.903576 0.905079 0.908934 0.913183 0.912268 0.907855 0.906168 0.892919 0.885393 0.869908 0.865165 0.855324 0.863367 0.864175 0.865583 0.863162 0.862440 0.861093 0.859089 0.847677 0.852289 0.844775 0.839574 0.836372 0.834716 0.833815 0.836327 0.839759 0.829722 0.814660 0.815704 0.800452 0.783186 0.781252 0.785630 0.795023 0.808750 0.806332 0.805133 0.791292 0.786695 0.773807 0.765788 0.767433 0.770408 0.768377 0.776289 0.777372 0.787251 0.778614 0.773803 0.778293 0.791049 0.802062 0.807170 0.807635 0.803714 0.806258 0.788698 0.788700 0.790079 0.757579 0.761319 0.761243 0.759479 0.762686 0.764024 0.760908 0.760690 0.757760 0.729529 0.740648 0.747210 0.728284 0.735326 0.719699 0.711423 0.673895 0.675702 0.674455 0.683325 0.685659 0.683051 0.672651 0.686401 0.700385 0.692323 0.698024 0.693491 0.682862 0.680754 0.689077 0.686416 0.666118 0.671201 0.670215 0.659233 0.656724 0.639902 0.653241 0.643994 0.627163 0.621123 0.583114 0.563734 0.554343 0.537787 0.515665 0.493421 0.498761 0.494607 0.483369 0.477846 0.457120 0.411359 0.425315 0.424450 0.408117 0.392745 0.377723 0.331299 0.357964 0.353427 0.355343 0.330326 0.311385 0.281841 0.219838 0.205897 0.176721 0.197836 0.205234 0.193983 0.176807 0.171106 0.188281 0.201630 0.225038 0.223427 0.251540 0.229978 0.189134 0.210558 0.207162 0.198677 0.184383 0.147594 0.184798 0.176112 0.184168 0.191563 0.144515 0.114133 0.083976 0.090123 0.095833 0.121913 0.146738 0.135279 0.113875 0.011836 0.046442 0.073304 0.073304 0.073304 0.073304 0.073304 0.073304 0.073304 0.073304 0.073304 0.073304 0.073304 0.007756 0.007756 0.007756 0.007756 0.007756 0.007756 0.007756 0.007756 0.007756 0.007756 0.007756 0.007756 0.007756 0.007756 0.007756 0.007756 0.007756 0.007756 0.007756
0.000000 0.000000 0.000000 0.000000 0.000000 0.000000 0.000000 0.000000 0.000000 0.000000 0.000000 0.000000 0.000000 0.000000 0.000000 0.000000 0.000000 0.000000 0.000000 0.000000 0.000000 0.000000 0.000000 0.000000 0.000000 0.000000 0.000000 0.000000 0.000000 0.000000 0.000000 0.000000 0.000000 0.000000 0.000000 0.000000 0.000000 0.000000 0.000000 0.000000 0.000000 0.000000 0.000000 0.000000 0.000000 0.000000 0.000000 0.000000 0.000000 0.000000 0.000000 0.000000 0.173422 0.173422 0.173422 0.173422 0.173422 0.173422 0.173422 0.191565 0.191565 0.191565 0.191565 0.191565 0.191565 0.191565 0.191565 0.191565 0.191565 0.191565 0.191565 0.191565 0.191565 0.191565 0.191565 0.191565 0.191565 0.191565 0.191565 0.191565 0.191565 0.191565 0.191565 0.191565 0.191565 0.191565 0.191565 0.191565 0.191565 0.191565 0.191565 0.191565 0.191565 0.191565 0.191565 0.191565 0.191565 0.191565 0.191565 0.191565 0.191565 0.191565 0.191565 0.219529 0.219529 0.219529 0.219529 0.219529 0.219529 0.219529 0.219529 0.219529 0.219529 0.219529 0.219529 0.219529 0.219529 0.219529 0.219529 0.219529 0.219529 0.219529 0.219529 0.219529 0.219529 0.219529 0.219529 0.219529 0.219529 0.219529 0.219529 0.219529 0.219529 0.219529 0.237356 0.237356 0.237356 0.237356 0.237356 0.237356 0.237356 0.237356 0.237356 0.237356 0.237356 0.237356 0.237356 0.237356 0.237356 0.237356 0.237356 0.237356 0.237356 0.237356 0.237356 0.237356 0.237356 0.237356 0.244339 0.244339 0.244339 0.244339 0.244339 0.244339 0.244339 0.244339 0.244339 0.244339 0.244339 0.244339 0.244339 0.244339 0.244339 0.244339 0.244339 0.244339 0.244339 0.244339 0.244339 0.248069 0.248069 0.248069 0.248069 0.248069 0.248069 0.248069 0.248069 0.248069 0.248069 0.248069 0.248069 0.248069 0.248069 0.248069 0.248069 0.248069 0.248069 0.248069 0.248069 0.248069 0.248069 0.248069 0.248069 0.248069 0.248069 0.248069 0.248069 0.248069 0.248069 0.248069 0.248069 0.248069 0.248069 0.248069 0.248069 0.248069 0.256074 0.256074 0.256074 0.256074 0.256074 0.256074 0.256074 0.256074 0.256074 0.256074 0.256074 0.256074 0.256074 0.256074 0.256074 0.256074 0.256074 0.256074 0.256074 0.256074 0.256074 0.256074 0.256074 0.256074 0.256074 0.256074 0.256074 0.256074 0.256074 0.256074 0.256074 0.256074 0.256074 0.256074 0.256074 0.256074 0.256074 0.256074 0.256074 0.256074 0.256074 0.256074 0.256074 0.256074 0.256074 0.260378 0.260378 0.260378 0.260378 0.260378 0.260378 0.260378 0.260378 0.260378 0.260378 0.260378 0.260378 0.260378 0.256074 0.256074 0.256074 0.256074 0.256074 0.256074 0.256074 0.256074 0.256074 0.256074 0.256074 0.256074 0.256074 0.260378 0.260378 0.260378 0.260378 0.260378 0.260378 0.260378 0.260378 0.260378 0.260378 0.260378 0.260378 0.251976 0.251976 0.251976 0.251976 0.251976 0.251976 0.251976 0.251976 0.251976 0.251976 0.251976 0.251976 0.256074 0.256074 0.256074 0.256074 0.256074 0.256074 0.256074 0.256074 0.256074 0.256074 0.256074 0.251976 0.251976 0.251976 0.251976 0.251976 0.251976 0.251976 0.251976 0.251976 0.251976 0.251976 0.248069 0.248069 0.248069 0.248069 0.248069 0.248069 0.248069 0.248069 0.248069 0.248069 0.248069 0.256074 0.256074 0.256074 0.256074 0.256074 0.256074 0.256074 0.256074 0.256074 0.256074 0.256074 0.256074 0.256074 0.256074 0.256074 0.256074 0.256074 0.256074 0.256074
