# Output from CTFFind version 4.1.9, run on 2019-11-03 20:10:00
# Input file: stack16_bm3d_averaged_1_7.5_0_2500_half.mrc ; Number of micrographs: 1
# Pixel size: 3.000 Angstroms ; acceleration voltage: 300.0 keV ; spherical aberration: 0.00 mm ; amplitude contrast: 0.07
# Box size: 512 pixels ; min. res.: 30.0 Angstroms ; max. res.: 5.0 Angstroms ; min. def.: 5000.0 um; max. def. 50000.0 um; num. frames averaged: 1
# 6 lines per micrograph: #1 - spatial frequency (1/Angstroms); #2 - 1D rotational average of spectrum (assuming no astigmatism); #3 - 1D rotational average of spectrum; #4 - CTF fit; #5 - cross-correlation between spectrum and CTF fit; #6 - 2sigma of expected cross correlation of noise
0.000000 0.000651 0.001302 0.001953 0.002604 0.003255 0.003906 0.004557 0.005208 0.005859 0.006510 0.007161 0.007812 0.008464 0.009115 0.009766 0.010417 0.011068 0.011719 0.012370 0.013021 0.013672 0.014323 0.014974 0.015625 0.016276 0.016927 0.017578 0.018229 0.018880 0.019531 0.020182 0.020833 0.021484 0.022135 0.022786 0.023438 0.024089 0.024740 0.025391 0.026042 0.026693 0.027344 0.027995 0.028646 0.029297 0.029948 0.030599 0.031250 0.031901 0.032552 0.033203 0.033854 0.034505 0.035156 0.035807 0.036458 0.037109 0.037760 0.038411 0.039062 0.039714 0.040365 0.041016 0.041667 0.042318 0.042969 0.043620 0.044271 0.044922 0.045573 0.046224 0.046875 0.047526 0.048177 0.048828 0.049479 0.050130 0.050781 0.051432 0.052083 0.052734 0.053385 0.054036 0.054688 0.055339 0.055990 0.056641 0.057292 0.057943 0.058594 0.059245 0.059896 0.060547 0.061198 0.061849 0.062500 0.063151 0.063802 0.064453 0.065104 0.065755 0.066406 0.067057 0.067708 0.068359 0.069010 0.069661 0.070312 0.070964 0.071615 0.072266 0.072917 0.073568 0.074219 0.074870 0.075521 0.076172 0.076823 0.077474 0.078125 0.078776 0.079427 0.080078 0.080729 0.081380 0.082031 0.082682 0.083333 0.083984 0.084635 0.085286 0.085938 0.086589 0.087240 0.087891 0.088542 0.089193 0.089844 0.090495 0.091146 0.091797 0.092448 0.093099 0.093750 0.094401 0.095052 0.095703 0.096354 0.097005 0.097656 0.098307 0.098958 0.099609 0.100260 0.100911 0.101562 0.102214 0.102865 0.103516 0.104167 0.104818 0.105469 0.106120 0.106771 0.107422 0.108073 0.108724 0.109375 0.110026 0.110677 0.111328 0.111979 0.112630 0.113281 0.113932 0.114583 0.115234 0.115885 0.116536 0.117188 0.117839 0.118490 0.119141 0.119792 0.120443 0.121094 0.121745 0.122396 0.123047 0.123698 0.124349 0.125000 0.125651 0.126302 0.126953 0.127604 0.128255 0.128906 0.129557 0.130208 0.130859 0.131510 0.132161 0.132812 0.133464 0.134115 0.134766 0.135417 0.136068 0.136719 0.137370 0.138021 0.138672 0.139323 0.139974 0.140625 0.141276 0.141927 0.142578 0.143229 0.143880 0.144531 0.145182 0.145833 0.146484 0.147135 0.147786 0.148438 0.149089 0.149740 0.150391 0.151042 0.151693 0.152344 0.152995 0.153646 0.154297 0.154948 0.155599 0.156250 0.156901 0.157552 0.158203 0.158854 0.159505 0.160156 0.160807 0.161458 0.162109 0.162760 0.163411 0.164062 0.164714 0.165365 0.166016 0.166667 0.167318 0.167969 0.168620 0.169271 0.169922 0.170573 0.171224 0.171875 0.172526 0.173177 0.173828 0.174479 0.175130 0.175781 0.176432 0.177083 0.177734 0.178385 0.179036 0.179688 0.180339 0.180990 0.181641 0.182292 0.182943 0.183594 0.184245 0.184896 0.185547 0.186198 0.186849 0.187500 0.188151 0.188802 0.189453 0.190104 0.190755 0.191406 0.192057 0.192708 0.193359 0.194010 0.194661 0.195312 0.195964 0.196615 0.197266 0.197917 0.198568 0.199219 0.199870 0.200521 0.201172 0.201823 0.202474 0.203125 0.203776 0.204427 0.205078 0.205729 0.206380 0.207031 0.207682 0.208333 0.208984 0.209635 0.210286 0.210938 0.211589 0.212240 0.212891 0.213542 0.214193 0.214844 0.215495 0.216146 0.216797 0.217448 0.218099 0.218750 0.219401 0.220052 0.220703 0.221354 0.222005 0.222656 0.223307 0.223958 0.224609 0.225260 0.225911 0.226562 0.227214 0.227865 0.228516 0.229167 0.229818 0.230469 0.231120 0.231771 0.232422 0.233073 0.233724 0.234375 0.235026 0.235677
       0.36244        0.36244        0.36244        0.36244        0.36244        0.36244        0.36244        0.36244        0.36244        0.36244        0.36244        0.36244        0.36244        0.36244        0.36244        0.36244        0.36244        0.36244        0.36244        0.36244        0.36244        0.36244        0.36244        0.36244        0.36244        0.36244        0.36244        0.36244        0.36244        0.36244        0.36244        0.36244        0.36244        0.36244        0.36244        0.36244        0.36244        0.36244        0.36244        0.36244        0.36244        0.36244        0.36244        0.36244        0.36244        0.36244        0.36244        0.36244        0.36244        0.36244        0.36244        0.43910        0.56115        0.34768       -0.21510       -0.44268       -0.53202       -0.63610       -0.70282       -0.70610       -0.79749       -0.87544       -0.66415       -0.81547       -0.80276       -0.94076       -0.98150       -0.86281       -0.82235       -0.78371       -0.69060       -0.62286       -0.53193       -0.44008       -0.37702       -0.14993       -0.04931        0.05838        0.27648        0.26898        0.32898        0.37843        0.41287        0.53892        0.54714        0.58218        0.53892        0.48294        0.51319        0.54335        0.46802        0.34334        0.23189        0.19654        0.12299        0.03381        0.01694        0.00699        0.07702        0.04366        0.09489        0.06733        0.18562        0.21074        0.41781        0.46870        0.55306        0.66115        0.68667        0.71539        0.64698        0.61705        0.55842        0.45263        0.39909        0.29616        0.23291        0.23154        0.11978        0.13456        0.14004        0.10549        0.11100        0.31416        0.42997        0.53700        0.53984        0.56971        0.60973        0.59180        0.57352        0.59135        0.57556        0.47898        0.32352        0.28064        0.27530        0.17621        0.10869        0.18849        0.23548        0.30293        0.36405        0.43880        0.48430        0.53969        0.60839        0.55430        0.50944        0.51946        0.36734        0.30120        0.27842        0.19292        0.22710        0.25985        0.29602        0.29812        0.34646        0.44288        0.47591        0.50513        0.46136        0.45008        0.49860        0.40913        0.33843        0.30018        0.27841        0.24903        0.23691        0.25070        0.35298        0.46272        0.44701        0.49371        0.55981        0.46472        0.42490        0.36737        0.33470        0.29152        0.29607        0.28274        0.30318        0.37627        0.38256        0.45461        0.47937        0.45303        0.47637        0.39332        0.38931        0.36174        0.28915        0.26967        0.26976        0.35513        0.39097        0.37314        0.39815        0.44069        0.45537        0.39713        0.34763        0.33593        0.36593        0.33130        0.29912        0.30556        0.37368        0.39001        0.40917        0.39786        0.40680        0.43331        0.41980        0.33907        0.30239        0.32241        0.35208        0.40166        0.37543        0.41293        0.35979        0.38060        0.40276        0.35495        0.36507        0.33391        0.31723        0.34941        0.36089        0.34415        0.37863        0.39268        0.34112        0.36123        0.33701        0.32891        0.31650        0.33491        0.34178        0.33834        0.37909        0.38932        0.37498        0.32028        0.31577        0.30005        0.34485        0.33021        0.32747        0.38302        0.36709        0.35185        0.32993        0.31849        0.31462        0.29061        0.33377        0.34841        0.36368        0.38316        0.36792        0.33565        0.35367        0.37475        0.35240        0.36481        0.35850        0.32941        0.34475        0.30409        0.32940        0.31530        0.32763        0.29632        0.33525        0.36114        0.33806        0.37006        0.32899        0.34990        0.36794        0.35193        0.33322        0.34743        0.38260        0.35859        0.37079        0.34520        0.32377        0.33829        0.32765        0.34149        0.33994        0.37941        0.33696        0.33827        0.31015        0.31073        0.28572        0.29242        0.37381        0.32419        0.33410        0.30277        0.27553        0.28409        0.37332        0.31602        0.29803        0.33988        0.32892        0.30076        0.26534        0.30629        0.28196        0.31859        0.32104        0.35824        0.34802        0.33488        0.32943        0.27822        0.29784        0.29934        0.30101        0.31611        0.36751        0.31300        0.22546        0.31577        0.31908        0.34968        0.28516        0.30404        0.28228        0.33131        0.28792        0.27471        0.28744        0.25508        0.31702        0.33392        0.32075        0.27195        0.33768        0.28616        0.24741        0.24011        0.33100        0.25741        0.15760        0.11364        0.19922        0.35760        0.28834        0.19947        0.16805       -0.36021       -0.53166
3.271035 3.229244 3.187725 3.146478 3.105504 3.064802 3.024372 2.984215 2.944329 2.904717 2.865376 2.826307 2.787511 2.748988 2.710736 2.672757 2.635050 2.597616 2.560453 2.523563 2.486946 2.450600 2.414527 2.378726 2.343198 2.307941 2.272957 2.238246 2.203806 2.169639 2.135744 2.102122 2.068772 2.035694 2.002888 1.970355 1.938094 1.906105 1.874388 1.842944 1.811772 1.780873 1.750245 1.719890 1.689808 1.659997 1.630459 1.601193 1.572200 1.543478 1.515029 1.551770 1.616076 1.556690 0.844021 0.604793 0.466147 0.395629 0.298066 0.227419 0.196817 -0.046639 0.216460 0.083966 -0.023818 -0.099433 -0.234392 -0.139317 -0.045949 -0.093757 -0.067407 0.040989 0.043323 0.236949 0.111379 0.361166 0.465650 0.503881 0.778972 0.682041 0.701989 0.821196 0.795332 0.849368 0.923489 0.851762 0.883384 0.725636 0.781739 0.844835 0.693410 0.604941 0.431809 0.429326 0.321395 0.194849 0.189005 0.111876 0.207629 0.118924 0.205453 0.103900 0.213264 0.225622 0.429550 0.394468 0.561123 0.599144 0.614313 0.710020 0.596766 0.562470 0.454530 0.406408 0.277636 0.256389 0.084927 0.143828 -0.035213 0.033308 -0.030615 -0.048797 -0.067154 0.016041 0.251432 0.284457 0.344978 0.281272 0.368122 0.374551 0.395823 0.377360 0.348135 0.314782 0.111722 0.063492 0.057768 -0.028634 -0.154384 -0.065855 -0.065785 0.029853 0.066465 0.138820 0.199720 0.214495 0.307064 0.394849 0.267533 0.356789 0.217761 0.143348 0.061559 0.029804 -0.000604 0.054223 0.067525 0.087970 0.117086 0.165144 0.234401 0.297691 0.259821 0.201726 0.247316 0.221554 0.106702 0.047757 0.056381 0.021339 0.003885 -0.034626 0.028284 0.164683 0.197414 0.183013 0.290439 0.184304 0.193103 0.070182 0.062256 0.019407 -0.006303 -0.008705 -0.012442 0.047254 0.081381 0.103971 0.157104 0.137882 0.223505 0.141061 0.076606 0.098083 0.037802 -0.045553 -0.015151 0.030809 0.072799 0.070123 0.062756 0.148831 0.107283 0.156027 0.037241 0.043181 0.046252 0.043843 0.027722 -0.018842 0.040249 0.054748 0.092793 0.098272 0.083679 0.113776 0.121447 0.079573 0.009624 -0.013460 0.016416 0.073072 0.079712 0.085742 0.081390 0.054028 0.098435 0.065786 0.041180 0.071298 -0.008833 0.009854 0.068108 0.040572 0.044317 0.079167 0.082300 0.046809 0.067383 0.019981 0.018200 0.014607 0.056897 0.020888 0.037165 0.076780 0.079884 0.046475 -0.004520 -0.000912 -0.019222 0.047732 0.002285 0.012028 0.073755 0.042227 0.006516 0.014327 -0.018394 0.002507 -0.036412 0.010820 0.024257 0.051042 0.044730 0.033166 0.003928 0.007829 0.048110 0.012137 0.033380 0.010213 -0.010150 0.013267 -0.042549 -0.032368 -0.051183 -0.011822 -0.070756 0.008559 0.008064 -0.005951 -0.014867 -0.001192 -0.003499 0.028041 0.006994 -0.011742 0.015151 0.026592 0.027735 0.035800 0.000695 0.007134 0.011539 -0.009491 0.016239 -0.004991 0.097703 0.026330 0.018541 0.005115 -0.006947 -0.025488 0.005922 0.074482 0.001588 0.043719 -0.026036 -0.025083 -0.022566 0.089144 0.002792 -0.025847 0.073344 0.051971 0.001017 -0.002162 0.009013 0.007632 0.047244 0.039889 0.103529 0.043448 0.056660 0.044838 -0.007023 0.025179 0.003736 0.001500 0.024831 0.081422 -0.003245 -0.074650 0.033691 0.013465 0.079578 -0.039990 -0.007481 -0.016868 0.012675 -0.008504 -0.035915 -0.004601 -0.067908 0.050391 0.033466 0.047078 -0.103058 0.050002 0.035691 -0.007757 -0.056126 0.103412 0.025009 -0.053539 -0.137865 0.169620 0.358743 0.242632 0.132924 0.168413 -0.513158
0.072396 0.073047 0.074998 0.078249 0.082799 0.088647 0.095791 0.104226 0.113951 0.124958 0.137242 0.150795 0.165606 0.181662 0.198949 0.217447 0.237135 0.257986 0.279971 0.303052 0.327190 0.352338 0.378441 0.405439 0.433264 0.461839 0.491079 0.520890 0.551168 0.581797 0.612655 0.643604 0.674498 0.705179 0.735478 0.765212 0.794191 0.822211 0.849057 0.874505 0.898322 0.920267 0.940089 0.957535 0.972344 0.984255 0.993006 0.998337 0.999991 0.997721 0.991288 0.980469 0.965056 0.944864 0.919732 0.889528 0.854153 0.813546 0.767687 0.716603 0.660370 0.599118 0.533033 0.462364 0.387422 0.308584 0.226292 0.141058 0.053461 0.035853 0.126176 0.216735 0.306706 0.395209 0.481324 0.564096 0.642546 0.715681 0.782509 0.842052 0.893362 0.935535 0.967734 0.989199 0.999270 0.997408 0.983204 0.956404 0.916923 0.864857 0.800499 0.724345 0.637105 0.539703 0.433279 0.319183 0.198966 0.074364 0.052716 0.180228 0.306012 0.427827 0.543397 0.650448 0.746758 0.830207 0.898827 0.950859 0.984800 0.999454 0.993982 0.967941 0.921321 0.854572 0.768621 0.664881 0.545246 0.412072 0.268144 0.116635 0.038958 0.194886 0.347233 0.492014 0.625279 0.743226 0.842321 0.919409 0.971831 0.997529 0.995143 0.964085 0.904606 0.817829 0.705762 0.571280 0.418075 0.250583 0.073868 0.106514 0.284680 0.454609 0.610347 0.746221 0.857063 0.938417 0.986746 0.999605 0.975792 0.915447 0.820119 0.692764 0.537700 0.360491 0.167779 0.032938 0.233592 0.425849 0.601466 0.752647 0.872412 0.954942 0.995891 0.992655 0.944563 0.852994 0.721403 0.555242 0.361778 0.149826 0.070635 0.288907 0.494082 0.675601 0.823800 0.930469 0.989333 0.996472 0.950627 0.853375 0.709152 0.525124 0.310884 0.077999 0.160571 0.391186 0.600300 0.775266 0.905137 0.981390 0.998545 0.954617 0.851368 0.694340 0.492632 0.258449 0.006417 0.247294 0.485989 0.693552 0.855557 0.960320 0.999803 0.970305 0.872871 0.713387 0.502316 0.254110 0.013723 0.281809 0.530289 0.740293 0.895420 0.983074 0.995564 0.930869 0.792989 0.591815 0.342535 0.064569 0.219879 0.487564 0.716109 0.885898 0.981844 0.994805 0.922569 0.770264 0.550128 0.280653 0.014876 0.310318 0.578982 0.796050 0.940910 0.999215 0.964421 0.838632 0.632659 0.365246 0.061469 0.249525 0.537263 0.772959 0.932437 0.998711 0.963922 0.830409 0.610759 0.326774 0.007452 0.313887 0.603058 0.828640 0.965492 0.997656 0.920379 0.740951 0.478211 0.160743 0.176112 0.494116 0.756472 0.932145 0.999641 0.949803 0.787227 0.530078 0.208246 0.139973 0.472353 0.747828 0.931645 0.999865 0.942659 0.765917 0.490896 0.151878 0.207960 0.541943 0.805971 0.964405 0.995048 0.892455 0.669084 0.354042 0.010501 0.374814 0.688336 0.906744 0.998336 0.948851 0.763915 0.468718 0.104818 0.275508 0.616706 0.868064 0.991371 0.966932 0.796970 0.505798 0.136617 0.254683 0.607879 0.867702 0.992597 0.961599 0.778132 0.470006 0.085495 0.313997 0.663662 0.905820 0.999592 0.928053 0.701592 0.356773 0.049300 0.448205 0.771692 0.963433 0.989055 0.842579 0.548110 0.156198 0.264534 0.639305 0.900433 0.999768 0.917826 0.667975 0.294649 0.134198 0.539297 0.844646 0.991910 0.951836 0.730427 0.368529 0.065353 0.487760 0.816288 0.985736 0.961347 0.746313 0.381901 0.060062 0.491107 0.823712 0.989214 0.952281 0.718848 0.335717 0.118445 0.548953 0.864825 0.998141 0.918980 0.642594 0.226966 0.238920 0.653934
1.000000 1.000000 1.000000 1.000000 1.000000 1.000000 1.000000 1.000000 1.000000 1.000000 1.000000 1.000000 1.000000 1.000000 1.000000 1.000000 1.000000 1.000000 1.000000 1.000000 1.000000 1.000000 1.000000 1.000000 1.000000 1.000000 1.000000 1.000000 1.000000 1.000000 1.000000 1.000000 1.000000 1.000000 1.000000 1.000000 1.000000 1.000000 1.000000 1.000000 1.000000 1.000000 1.000000 1.000000 1.000000 1.000000 1.000000 1.000000 1.000000 1.000000 1.000000 1.000000 0.926930 0.926930 0.926930 0.926930 0.926930 0.926930 0.926930 0.926930 0.926930 0.926930 0.926930 0.926930 0.926930 0.926930 0.926930 0.926930 0.926930 0.926930 0.926930 0.926930 0.926930 0.926930 0.926930 0.926930 0.926930 0.926930 0.926930 0.926930 0.926930 0.926930 0.926930 0.926930 0.926930 0.913212 0.911329 0.912479 0.911017 0.909584 0.908994 0.908599 0.909638 0.911236 0.913317 0.934966 0.938067 0.939312 0.940642 0.942020 0.944310 0.942141 0.949690 0.956189 0.955113 0.956243 0.956357 0.956861 0.956206 0.955460 0.958036 0.957208 0.955581 0.953676 0.952082 0.951559 0.951339 0.954922 0.955357 0.955511 0.956052 0.955973 0.956691 0.957277 0.955298 0.957433 0.949458 0.948307 0.953753 0.951889 0.953461 0.953419 0.954119 0.954874 0.955153 0.955379 0.952175 0.951700 0.950772 0.944791 0.937606 0.937925 0.939582 0.941656 0.938662 0.936676 0.938332 0.939882 0.938970 0.942184 0.933682 0.929692 0.902791 0.888627 0.880305 0.880214 0.884450 0.887014 0.884930 0.879973 0.872366 0.869104 0.867890 0.864942 0.856187 0.858851 0.858726 0.854006 0.857328 0.860508 0.865771 0.864259 0.860265 0.855390 0.849950 0.838204 0.838998 0.839904 0.844194 0.825706 0.813064 0.829279 0.822734 0.814879 0.822853 0.824830 0.822381 0.820972 0.821243 0.819063 0.812327 0.804022 0.807853 0.816934 0.818959 0.809802 0.807374 0.806891 0.806437 0.801338 0.806913 0.809434 0.805941 0.797878 0.815284 0.786684 0.805533 0.806940 0.787746 0.772396 0.760976 0.768974 0.777430 0.771106 0.767840 0.778520 0.778541 0.772113 0.752022 0.735336 0.743030 0.741305 0.732043 0.720589 0.727284 0.720969 0.719009 0.716955 0.720698 0.720844 0.699282 0.713051 0.718074 0.713232 0.725425 0.728370 0.719433 0.722715 0.727225 0.728764 0.728340 0.703000 0.706077 0.639963 0.630609 0.596570 0.593457 0.586872 0.532008 0.536619 0.521583 0.507603 0.507971 0.470918 0.519133 0.417002 0.407941 0.431073 0.359932 0.335525 0.353932 0.355487 0.367893 0.364690 0.363629 0.368457 0.349873 0.321510 0.292008 0.319341 0.333353 0.315132 0.316267 0.288649 0.278995 0.226078 0.241385 0.245644 0.276920 0.278939 0.264844 0.284034 0.326812 0.265134 0.250879 0.228898 0.255268 0.259201 0.250169 0.239457 0.261926 0.199964 0.210879 0.227122 0.228991 0.280456 0.306991 0.321169 0.319014 0.326838 0.355960 0.312295 0.320315 0.327152 0.318545 0.347032 0.350240 0.360657 0.357561 0.391585 0.398174 0.402822 0.409374 0.432270 0.456900 0.432440 0.415569 0.371259 0.387001 0.379541 0.394770 0.340503 0.318413 0.317876 0.287984 0.240950 0.242183 0.241095 0.196491 0.193967 0.178507 0.147383 0.146116 0.155028 0.178272 0.149980 0.162860 0.167020 0.167020 0.167020 0.167020 0.167020 0.167020 0.167020 0.167020 0.167020 0.167020 0.167020 0.167020 0.167020 0.167020 0.188100 0.188100 0.188100 0.188100 0.188100 0.188100 0.188100 0.188100 0.188100 0.188100 0.188100 0.188100
0.000000 0.000000 0.000000 0.000000 0.000000 0.000000 0.000000 0.000000 0.000000 0.000000 0.000000 0.000000 0.000000 0.000000 0.000000 0.000000 0.000000 0.000000 0.000000 0.000000 0.000000 0.000000 0.000000 0.000000 0.000000 0.000000 0.000000 0.000000 0.000000 0.000000 0.000000 0.000000 0.000000 0.000000 0.000000 0.000000 0.000000 0.000000 0.000000 0.000000 0.000000 0.000000 0.000000 0.000000 0.000000 0.000000 0.000000 0.000000 0.000000 0.000000 0.000000 0.000000 0.209657 0.209657 0.209657 0.209657 0.209657 0.209657 0.209657 0.209657 0.209657 0.209657 0.209657 0.209657 0.209657 0.209657 0.209657 0.209657 0.209657 0.209657 0.209657 0.209657 0.209657 0.209657 0.209657 0.209657 0.209657 0.209657 0.209657 0.209657 0.209657 0.209657 0.209657 0.209657 0.209657 0.244339 0.244339 0.244339 0.244339 0.244339 0.244339 0.244339 0.244339 0.244339 0.244339 0.244339 0.244339 0.244339 0.244339 0.244339 0.244339 0.244339 0.244339 0.244339 0.244339 0.244339 0.244339 0.244339 0.244339 0.244339 0.260378 0.260378 0.260378 0.260378 0.260378 0.260378 0.260378 0.260378 0.260378 0.260378 0.260378 0.260378 0.260378 0.260378 0.260378 0.260378 0.260378 0.260378 0.260378 0.260378 0.269680 0.269680 0.269680 0.269680 0.269680 0.269680 0.269680 0.269680 0.269680 0.269680 0.269680 0.269680 0.269680 0.269680 0.269680 0.269680 0.269680 0.269680 0.269680 0.269680 0.269680 0.269680 0.269680 0.269680 0.269680 0.269680 0.269680 0.269680 0.269680 0.269680 0.269680 0.269680 0.269680 0.280056 0.280056 0.280056 0.280056 0.280056 0.280056 0.280056 0.280056 0.280056 0.280056 0.280056 0.280056 0.280056 0.280056 0.280056 0.280056 0.280056 0.280056 0.280056 0.280056 0.280056 0.280056 0.280056 0.280056 0.280056 0.280056 0.280056 0.274721 0.274721 0.274721 0.274721 0.274721 0.274721 0.274721 0.274721 0.274721 0.274721 0.274721 0.274721 0.274721 0.285714 0.285714 0.285714 0.285714 0.285714 0.285714 0.285714 0.285714 0.285714 0.285714 0.285714 0.280056 0.280056 0.280056 0.280056 0.280056 0.280056 0.280056 0.280056 0.280056 0.280056 0.280056 0.274721 0.274721 0.274721 0.274721 0.274721 0.274721 0.274721 0.274721 0.274721 0.274721 0.274721 0.280056 0.280056 0.280056 0.280056 0.280056 0.280056 0.280056 0.280056 0.280056 0.280056 0.285714 0.285714 0.285714 0.285714 0.285714 0.285714 0.285714 0.285714 0.285714 0.269680 0.269680 0.269680 0.269680 0.269680 0.269680 0.269680 0.269680 0.269680 0.269680 0.274721 0.274721 0.274721 0.274721 0.274721 0.274721 0.274721 0.274721 0.274721 0.285714 0.285714 0.285714 0.285714 0.285714 0.285714 0.285714 0.285714 0.264906 0.264906 0.264906 0.264906 0.264906 0.264906 0.264906 0.264906 0.264906 0.274721 0.274721 0.274721 0.274721 0.274721 0.274721 0.274721 0.274721 0.269680 0.269680 0.269680 0.269680 0.269680 0.269680 0.269680 0.269680 0.269680 0.269680 0.269680 0.269680 0.269680 0.269680 0.269680 0.269680 0.280056 0.280056 0.280056 0.280056 0.280056 0.280056 0.280056 0.260378 0.260378 0.260378 0.260378 0.260378 0.260378 0.260378 0.260378 0.269680 0.269680 0.269680 0.269680 0.269680 0.269680 0.269680 0.264906 0.264906 0.264906 0.264906 0.264906 0.264906 0.264906 0.264906 0.264906 0.264906 0.264906 0.264906 0.264906 0.264906 0.260378 0.260378 0.260378 0.260378 0.260378 0.260378 0.260378 0.260378 0.260378 0.260378 0.260378 0.260378
