# Output from CTFFind version 4.1.9, run on 2019-11-03 19:00:57
# Input file: stack6_bm3d_averaged_1_2.75_0_50_half.mrc ; Number of micrographs: 1
# Pixel size: 3.000 Angstroms ; acceleration voltage: 300.0 keV ; spherical aberration: 0.00 mm ; amplitude contrast: 0.07
# Box size: 512 pixels ; min. res.: 30.0 Angstroms ; max. res.: 5.0 Angstroms ; min. def.: 5000.0 um; max. def. 50000.0 um; num. frames averaged: 1
# 6 lines per micrograph: #1 - spatial frequency (1/Angstroms); #2 - 1D rotational average of spectrum (assuming no astigmatism); #3 - 1D rotational average of spectrum; #4 - CTF fit; #5 - cross-correlation between spectrum and CTF fit; #6 - 2sigma of expected cross correlation of noise
0.000000 0.000651 0.001302 0.001953 0.002604 0.003255 0.003906 0.004557 0.005208 0.005859 0.006510 0.007161 0.007812 0.008464 0.009115 0.009766 0.010417 0.011068 0.011719 0.012370 0.013021 0.013672 0.014323 0.014974 0.015625 0.016276 0.016927 0.017578 0.018229 0.018880 0.019531 0.020182 0.020833 0.021484 0.022135 0.022786 0.023438 0.024089 0.024740 0.025391 0.026042 0.026693 0.027344 0.027995 0.028646 0.029297 0.029948 0.030599 0.031250 0.031901 0.032552 0.033203 0.033854 0.034505 0.035156 0.035807 0.036458 0.037109 0.037760 0.038411 0.039062 0.039714 0.040365 0.041016 0.041667 0.042318 0.042969 0.043620 0.044271 0.044922 0.045573 0.046224 0.046875 0.047526 0.048177 0.048828 0.049479 0.050130 0.050781 0.051432 0.052083 0.052734 0.053385 0.054036 0.054688 0.055339 0.055990 0.056641 0.057292 0.057943 0.058594 0.059245 0.059896 0.060547 0.061198 0.061849 0.062500 0.063151 0.063802 0.064453 0.065104 0.065755 0.066406 0.067057 0.067708 0.068359 0.069010 0.069661 0.070312 0.070964 0.071615 0.072266 0.072917 0.073568 0.074219 0.074870 0.075521 0.076172 0.076823 0.077474 0.078125 0.078776 0.079427 0.080078 0.080729 0.081380 0.082031 0.082682 0.083333 0.083984 0.084635 0.085286 0.085938 0.086589 0.087240 0.087891 0.088542 0.089193 0.089844 0.090495 0.091146 0.091797 0.092448 0.093099 0.093750 0.094401 0.095052 0.095703 0.096354 0.097005 0.097656 0.098307 0.098958 0.099609 0.100260 0.100911 0.101562 0.102214 0.102865 0.103516 0.104167 0.104818 0.105469 0.106120 0.106771 0.107422 0.108073 0.108724 0.109375 0.110026 0.110677 0.111328 0.111979 0.112630 0.113281 0.113932 0.114583 0.115234 0.115885 0.116536 0.117188 0.117839 0.118490 0.119141 0.119792 0.120443 0.121094 0.121745 0.122396 0.123047 0.123698 0.124349 0.125000 0.125651 0.126302 0.126953 0.127604 0.128255 0.128906 0.129557 0.130208 0.130859 0.131510 0.132161 0.132812 0.133464 0.134115 0.134766 0.135417 0.136068 0.136719 0.137370 0.138021 0.138672 0.139323 0.139974 0.140625 0.141276 0.141927 0.142578 0.143229 0.143880 0.144531 0.145182 0.145833 0.146484 0.147135 0.147786 0.148438 0.149089 0.149740 0.150391 0.151042 0.151693 0.152344 0.152995 0.153646 0.154297 0.154948 0.155599 0.156250 0.156901 0.157552 0.158203 0.158854 0.159505 0.160156 0.160807 0.161458 0.162109 0.162760 0.163411 0.164062 0.164714 0.165365 0.166016 0.166667 0.167318 0.167969 0.168620 0.169271 0.169922 0.170573 0.171224 0.171875 0.172526 0.173177 0.173828 0.174479 0.175130 0.175781 0.176432 0.177083 0.177734 0.178385 0.179036 0.179688 0.180339 0.180990 0.181641 0.182292 0.182943 0.183594 0.184245 0.184896 0.185547 0.186198 0.186849 0.187500 0.188151 0.188802 0.189453 0.190104 0.190755 0.191406 0.192057 0.192708 0.193359 0.194010 0.194661 0.195312 0.195964 0.196615 0.197266 0.197917 0.198568 0.199219 0.199870 0.200521 0.201172 0.201823 0.202474 0.203125 0.203776 0.204427 0.205078 0.205729 0.206380 0.207031 0.207682 0.208333 0.208984 0.209635 0.210286 0.210938 0.211589 0.212240 0.212891 0.213542 0.214193 0.214844 0.215495 0.216146 0.216797 0.217448 0.218099 0.218750 0.219401 0.220052 0.220703 0.221354 0.222005 0.222656 0.223307 0.223958 0.224609 0.225260 0.225911 0.226562 0.227214 0.227865 0.228516 0.229167 0.229818 0.230469 0.231120 0.231771 0.232422 0.233073 0.233724 0.234375 0.235026 0.235677
       0.29994        0.29994        0.29994        0.29994        0.29994        0.29994        0.29994        0.29994        0.29994        0.29994        0.29994        0.29994        0.29994        0.29994        0.29994        0.29994        0.29994        0.29994        0.29994        0.29994        0.29994        0.29994        0.29994        0.29994        0.29994        0.29994        0.29994        0.29994        0.29994        0.29994        0.29994        0.29994        0.29994        0.29994        0.29994        0.29994        0.29994        0.29994        0.29994        0.29994        0.29994        0.29994        0.29994        0.29994        0.29994        0.29994        0.29994        0.29994        0.29994        0.29994        0.29994        0.61532        0.77710        0.38462        0.25676        0.15268       -0.12871        0.12165        0.02587        0.03329        0.10826        0.34696        0.39485        0.35193        0.20467       -0.02159        0.02503        0.06030       -0.17489       -0.18350       -0.09215       -0.12124       -0.28465       -0.17742       -0.30685       -0.27308       -0.30505       -0.38738       -0.45733       -0.45854       -0.39003       -0.33102       -0.41528       -0.31538       -0.38892       -0.33395       -0.27093       -0.20348       -0.17252       -0.09366       -0.05435        0.05085        0.08547        0.22529        0.30907        0.37154        0.38455        0.50307        0.57107        0.59984        0.67904        0.66132        0.72702        0.62746        0.64825        0.65997        0.60778        0.59751        0.60557        0.40011        0.37339        0.36265        0.32161        0.18342        0.11709        0.05073        0.07706        0.02559       -0.07103       -0.00221       -0.04709       -0.08124        0.04737        0.15409        0.25906        0.32045        0.31957        0.39779        0.50969        0.54057        0.51465        0.65667        0.54160        0.52341        0.56632        0.58567        0.52886        0.47356        0.40372        0.35434        0.21985        0.19264        0.12289        0.13168        0.09742        0.03716        0.07805        0.15172        0.14407        0.16583        0.20626        0.23790        0.32601        0.44865        0.44925        0.45165        0.49120        0.55795        0.55161        0.50994        0.39936        0.39743        0.36607        0.28064        0.23474        0.20728        0.17478        0.18417        0.18292        0.16119        0.13197        0.19520        0.23885        0.33760        0.37101        0.40781        0.46338        0.50003        0.43351        0.45331        0.41004        0.39433        0.39039        0.33729        0.26575        0.26018        0.19242        0.22255        0.20934        0.18450        0.20935        0.21876        0.24732        0.31834        0.37527        0.37360        0.37125        0.39347        0.43575        0.43396        0.42048        0.32661        0.30015        0.26708        0.29096        0.25849        0.21722        0.26331        0.29257        0.29051        0.28754        0.32289        0.30630        0.37330        0.34667        0.34248        0.35736        0.33231        0.32062        0.30811        0.27606        0.29218        0.26105        0.22617        0.25640        0.25334        0.29355        0.30627        0.34019        0.35566        0.31823        0.29438        0.34769        0.33355        0.25043        0.28378        0.28355        0.24779        0.23581        0.28123        0.26806        0.26726        0.29767        0.29748        0.31197        0.33154        0.33467        0.27843        0.29279        0.30296        0.26984        0.25219        0.24331        0.23614        0.23795        0.26356        0.27697        0.28256        0.26859        0.31254        0.34051        0.28898        0.30298        0.25517        0.24094        0.24536        0.23473        0.22988        0.24606        0.30337        0.25466        0.29835        0.28708        0.28236        0.31030        0.26753        0.29574        0.30608        0.28234        0.25361        0.25581        0.23902        0.24818        0.29376        0.29048        0.31115        0.28650        0.31176        0.28315        0.30099        0.24808        0.20706        0.27701        0.26389        0.25190        0.26418        0.31540        0.30070        0.34593        0.28315        0.22796        0.22446        0.23556        0.26753        0.30804        0.28776        0.24708        0.28833        0.27179        0.28681        0.26910        0.24881        0.25580        0.24408        0.27678        0.22631        0.26535        0.32650        0.29725        0.25119        0.27058        0.25996        0.26388        0.20764        0.24173        0.25400        0.27123        0.27574        0.32740        0.25277        0.24889        0.23836        0.20205        0.20285        0.18420        0.23392        0.20667        0.22602        0.22051        0.20036        0.26540        0.24752        0.25632        0.22262        0.19662        0.22455        0.22323        0.13990        0.16288        0.13323        0.18817        0.16843        0.08252        0.26495        0.14187        0.07425        0.15583        0.14587        0.11882        0.09096       -0.09952       -0.57631       -1.02457
2.729395 2.702951 2.676641 2.650465 2.624422 2.598513 2.572738 2.547097 2.521589 2.496216 2.470976 2.445870 2.420898 2.396060 2.371356 2.346785 2.322348 2.298045 2.273876 2.249841 2.225939 2.202172 2.178538 2.155038 2.131672 2.108439 2.085341 2.062376 2.039545 2.016848 1.994285 1.971856 1.949560 1.927398 1.905370 1.883476 1.861716 1.840089 1.818597 1.797238 1.776013 1.754922 1.733964 1.713141 1.692451 1.671895 1.651473 1.631185 1.611030 1.591010 1.571123 1.883166 2.204779 1.634035 1.616373 1.298448 0.838089 1.155049 1.028488 1.053965 0.952844 1.499864 1.454893 1.456174 1.213223 0.892343 0.746994 0.974159 0.681247 0.416993 0.554011 0.624286 0.383382 0.449207 0.282519 0.291004 0.170114 0.158542 -0.068747 -0.033413 0.018894 0.039543 0.020784 0.127581 -0.052486 -0.004291 0.105787 0.187430 0.239976 0.278490 0.322111 0.585742 0.442709 0.665499 0.846695 0.881136 0.877290 1.134767 1.121082 1.198084 1.283796 1.170239 1.387717 1.168972 1.121841 1.291894 1.118482 1.048470 1.162446 0.854908 0.706623 0.685564 0.701467 0.415818 0.383867 0.226119 0.226069 0.141710 -0.002467 0.132364 0.003136 -0.067297 0.091498 0.218883 0.334890 0.466996 0.497416 0.529878 0.708028 0.773107 0.628816 0.978411 0.801717 0.689578 0.746824 0.759606 0.727152 0.698375 0.452119 0.511141 0.248520 0.193900 0.124832 -0.006783 0.056501 -0.092117 -0.059414 0.007724 0.080497 -0.033130 0.223018 0.122889 0.193830 0.402294 0.460290 0.459455 0.394727 0.586578 0.622444 0.514222 0.379406 0.340660 0.336864 0.178511 0.116240 0.024990 0.054693 -0.014778 0.000692 -0.024138 -0.114347 -0.002048 0.007380 0.128890 0.258130 0.231647 0.376153 0.363407 0.401073 0.349946 0.429852 0.342957 0.249856 0.314425 0.123468 0.183649 0.011104 0.057071 0.029950 0.018846 -0.038369 0.029037 0.065407 0.113535 0.238046 0.280181 0.212471 0.249609 0.323090 0.342192 0.335507 0.212311 0.128150 0.119043 0.078854 0.089511 0.017391 0.000351 0.104294 0.068652 0.106596 0.092097 0.110457 0.189179 0.205726 0.189487 0.174400 0.196925 0.141806 0.134313 0.099052 0.074813 0.120538 -0.033765 0.043467 0.059232 0.018478 0.137515 0.112905 0.188894 0.188955 0.132346 0.103822 0.219411 0.103552 0.040634 0.097898 0.048481 0.018519 0.028421 0.090487 0.043057 0.050238 0.125231 0.098806 0.111542 0.124692 0.124165 0.089745 0.060664 0.086761 0.043850 0.013552 -0.008800 -0.007919 0.002044 0.029084 0.072388 0.077264 0.012485 0.126393 0.149124 0.035789 0.101330 0.019198 0.001265 -0.009417 -0.012230 -0.027135 0.049621 0.081703 -0.022077 0.102781 0.062524 0.058653 0.081962 0.027136 0.054237 0.115302 -0.003955 0.032215 -0.014033 0.006858 -0.022949 0.083791 0.058710 0.090498 0.013226 0.148270 0.027305 0.079798 -0.039255 -0.057288 0.056597 -0.013768 0.041134 -0.030543 0.150006 0.054038 0.099750 0.016993 -0.093773 -0.030607 -0.056929 0.063580 0.069282 0.033443 -0.022647 0.032674 -0.002016 0.027461 -0.007712 -0.031723 0.002965 -0.091324 0.028335 -0.063882 0.049584 0.083067 0.021573 -0.008804 0.031163 0.038772 0.003986 -0.077639 -0.006674 -0.000528 0.053833 0.080578 0.131928 -0.005566 0.036612 0.013912 -0.021881 -0.058340 0.005563 0.026876 0.018265 0.019805 0.024397 0.009402 0.125688 0.073161 0.142419 0.021181 0.068200 0.079159 0.087396 -0.094654 0.009829 -0.110514 0.152075 0.001439 -0.009055 0.382715 0.168832 0.113273 0.255655 0.228258 0.170660 0.162363 -0.141111 -1.487749
0.072396 0.072835 0.074151 0.076344 0.079414 0.083360 0.088180 0.093875 0.100442 0.107879 0.116184 0.125354 0.135385 0.146272 0.158010 0.170593 0.184013 0.198261 0.213327 0.229199 0.245863 0.263303 0.281502 0.300440 0.320093 0.340437 0.361443 0.383080 0.405314 0.428105 0.451412 0.475190 0.499388 0.523952 0.548823 0.573938 0.599229 0.624623 0.650042 0.675402 0.700616 0.725589 0.750224 0.774415 0.798054 0.821027 0.843215 0.864495 0.884739 0.903814 0.921587 0.937917 0.952664 0.965686 0.976835 0.985969 0.992941 0.997608 0.999827 0.999460 0.996371 0.990432 0.981520 0.969521 0.954328 0.935848 0.913999 0.888714 0.859938 0.827638 0.791795 0.752415 0.709521 0.663163 0.613413 0.560371 0.504162 0.444943 0.382897 0.318237 0.251209 0.182088 0.111179 0.038821 0.034622 0.108752 0.183147 0.257356 0.330906 0.403301 0.474027 0.542556 0.608345 0.670847 0.729511 0.783789 0.833139 0.877035 0.914969 0.946460 0.971058 0.988355 0.997987 0.999643 0.993074 0.978094 0.954591 0.922532 0.881966 0.833031 0.775957 0.711070 0.638792 0.559643 0.474242 0.383305 0.287639 0.188141 0.085793 0.018351 0.123169 0.227483 0.330074 0.429692 0.525073 0.614956 0.698099 0.773299 0.839409 0.895362 0.940184 0.973020 0.993148 1.000000 0.993177 0.972465 0.937849 0.889520 0.827886 0.753574 0.667434 0.570531 0.464144 0.349748 0.229009 0.103747 0.024067 0.152357 0.278965 0.401687 0.518317 0.626679 0.724678 0.810338 0.881849 0.937610 0.976266 0.996752 0.998322 0.980584 0.943519 0.887502 0.813309 0.722116 0.615498 0.495403 0.364132 0.224297 0.078781 0.069320 0.216759 0.360208 0.496331 0.621867 0.733707 0.828978 0.905125 0.959985 0.991859 0.999569 0.982518 0.940718 0.874821 0.786123 0.676557 0.548661 0.405539 0.250788 0.088426 0.077214 0.241590 0.400073 0.548082 0.681215 0.795392 0.886981 0.952930 0.990879 0.999256 0.977356 0.925394 0.844528 0.736859 0.605397 0.453987 0.287223 0.110312 0.071073 0.250967 0.423322 0.582187 0.721942 0.837489 0.924461 0.979395 0.999893 0.984737 0.933978 0.848975 0.732384 0.588104 0.421163 0.237568 0.044103 0.151917 0.342908 0.521318 0.679924 0.812136 0.912284 0.975883 0.999851 0.982682 0.924559 0.827395 0.694808 0.532009 0.345630 0.143473 0.065802 0.273039 0.468976 0.644669 0.791911 0.903621 0.974223 0.999933 0.979002 0.911850 0.801111 0.651570 0.469984 0.264820 0.045863 0.176213 0.390372 0.585755 0.752248 0.881015 0.964993 0.999313 0.981607 0.912211 0.794214 0.633370 0.437850 0.217870 0.014823 0.247555 0.467420 0.661984 0.820014 0.932144 0.991461 0.993974 0.938917 0.828877 0.669731 0.470376 0.242271 0.001185 0.245421 0.475563 0.677336 0.837965 0.947022 0.997129 0.984508 0.909306 0.775689 0.591661 0.368642 0.120806 0.135806 0.384284 0.607984 0.791639 0.922432 0.990937 0.991836 0.924393 0.792611 0.605053 0.374361 0.116441 0.150606 0.407708 0.636219 0.819255 0.942994 0.997756 0.978823 0.886899 0.728183 0.514020 0.260157 0.014376 0.288652 0.541431 0.752822 0.905867 0.987947 0.991892 0.916664 0.767578 0.556006 0.298590 0.015975 0.268798 0.532153 0.751954 0.909374 0.990578 0.987990 0.901084 0.736571 0.507975 0.234589 0.060085 0.350326 0.610423 0.816976 0.951039 0.999917 0.958445 0.829619 0.624484 0.361278 0.063880 0.240292 0.522809 0.756858 0.919861 0.995683 0.976324 0.862854 0.665481 0.402740 0.099828 0.213732 0.506970 0.750498 0.919516
1.000000 1.000000 1.000000 1.000000 1.000000 1.000000 1.000000 1.000000 1.000000 1.000000 1.000000 1.000000 1.000000 1.000000 1.000000 1.000000 1.000000 1.000000 1.000000 1.000000 1.000000 1.000000 1.000000 1.000000 1.000000 1.000000 1.000000 1.000000 1.000000 1.000000 1.000000 1.000000 1.000000 1.000000 1.000000 1.000000 1.000000 1.000000 1.000000 1.000000 1.000000 1.000000 1.000000 1.000000 1.000000 1.000000 1.000000 1.000000 1.000000 1.000000 1.000000 1.000000 0.827821 0.827821 0.827821 0.827821 0.827821 0.827821 0.827821 0.804613 0.804613 0.804613 0.804613 0.804613 0.804613 0.804613 0.804613 0.804613 0.804613 0.804613 0.804613 0.804613 0.804613 0.804613 0.804613 0.804613 0.804613 0.804613 0.804613 0.804613 0.804613 0.804613 0.804613 0.804613 0.804613 0.804613 0.804613 0.804613 0.804613 0.804613 0.804613 0.804613 0.804613 0.804613 0.804613 0.804613 0.804613 0.804613 0.804613 0.804613 0.804613 0.804613 0.804613 0.948395 0.949279 0.949671 0.948759 0.947327 0.943649 0.939653 0.938794 0.941183 0.941427 0.941741 0.942711 0.943325 0.944944 0.945981 0.947883 0.948340 0.955710 0.959249 0.958896 0.958600 0.957439 0.967022 0.966511 0.964031 0.964453 0.964584 0.964533 0.964406 0.964304 0.963943 0.963182 0.963702 0.963533 0.962998 0.962181 0.960416 0.960405 0.959813 0.959846 0.960709 0.961428 0.962072 0.963204 0.963197 0.963860 0.962613 0.961711 0.952029 0.950370 0.947855 0.947590 0.948481 0.948093 0.947321 0.945969 0.946041 0.945992 0.945048 0.944984 0.943796 0.936290 0.935946 0.935939 0.936714 0.931587 0.920058 0.914325 0.911211 0.912791 0.916581 0.920334 0.920749 0.919258 0.915609 0.905722 0.898888 0.884107 0.879973 0.874872 0.883749 0.885206 0.886314 0.886452 0.886191 0.884903 0.882787 0.861743 0.866339 0.861759 0.859118 0.854430 0.852704 0.852164 0.854255 0.857388 0.848454 0.825015 0.825969 0.806652 0.781703 0.780001 0.784626 0.795801 0.806712 0.805176 0.801976 0.789804 0.783832 0.769112 0.755367 0.757292 0.760575 0.758027 0.764700 0.770464 0.770318 0.761248 0.756493 0.761988 0.775819 0.786016 0.790186 0.788383 0.785008 0.786103 0.748381 0.748658 0.751243 0.737324 0.741892 0.739219 0.739342 0.744249 0.742306 0.738886 0.738497 0.734623 0.708817 0.717756 0.722488 0.720299 0.722763 0.708952 0.701942 0.662132 0.665937 0.649993 0.659445 0.663348 0.673546 0.664034 0.671009 0.678601 0.662601 0.670500 0.666888 0.658875 0.652039 0.666143 0.672922 0.649740 0.663677 0.663534 0.643798 0.637582 0.632686 0.646192 0.643622 0.623999 0.623361 0.574158 0.529951 0.522271 0.506338 0.494242 0.483002 0.493114 0.495498 0.489989 0.481965 0.458683 0.410251 0.419175 0.416968 0.381942 0.388880 0.375160 0.347477 0.362002 0.362122 0.359200 0.332934 0.314242 0.286090 0.231277 0.215176 0.185399 0.190288 0.173759 0.163902 0.149526 0.144968 0.143566 0.135398 0.143907 0.142653 0.174490 0.150478 0.129695 0.150134 0.158364 0.156287 0.151075 0.127959 0.181054 0.164614 0.172453 0.180529 0.131463 0.099760 0.041210 0.045231 0.045932 0.075795 0.110408 0.094158 0.062566 -0.041043 -0.008724 0.030104 0.030104 0.030104 0.030104 0.030104 0.030104 0.030104 0.030104 0.030104 0.030104 0.030104 -0.047648 -0.047648 -0.047648 -0.047648 -0.047648 -0.047648 -0.047648 -0.047648 -0.047648 -0.047648 -0.047648 -0.047648 -0.047648 -0.047648 -0.047648 -0.047648 -0.047648 -0.047648 -0.047648
0.000000 0.000000 0.000000 0.000000 0.000000 0.000000 0.000000 0.000000 0.000000 0.000000 0.000000 0.000000 0.000000 0.000000 0.000000 0.000000 0.000000 0.000000 0.000000 0.000000 0.000000 0.000000 0.000000 0.000000 0.000000 0.000000 0.000000 0.000000 0.000000 0.000000 0.000000 0.000000 0.000000 0.000000 0.000000 0.000000 0.000000 0.000000 0.000000 0.000000 0.000000 0.000000 0.000000 0.000000 0.000000 0.000000 0.000000 0.000000 0.000000 0.000000 0.000000 0.000000 0.173422 0.173422 0.173422 0.173422 0.173422 0.173422 0.173422 0.191565 0.191565 0.191565 0.191565 0.191565 0.191565 0.191565 0.191565 0.191565 0.191565 0.191565 0.191565 0.191565 0.191565 0.191565 0.191565 0.191565 0.191565 0.191565 0.191565 0.191565 0.191565 0.191565 0.191565 0.191565 0.191565 0.191565 0.191565 0.191565 0.191565 0.191565 0.191565 0.191565 0.191565 0.191565 0.191565 0.191565 0.191565 0.191565 0.191565 0.191565 0.191565 0.191565 0.191565 0.219529 0.219529 0.219529 0.219529 0.219529 0.219529 0.219529 0.219529 0.219529 0.219529 0.219529 0.219529 0.219529 0.219529 0.219529 0.219529 0.219529 0.219529 0.219529 0.219529 0.219529 0.219529 0.219529 0.219529 0.219529 0.219529 0.219529 0.219529 0.219529 0.219529 0.219529 0.237356 0.237356 0.237356 0.237356 0.237356 0.237356 0.237356 0.237356 0.237356 0.237356 0.237356 0.237356 0.237356 0.237356 0.237356 0.237356 0.237356 0.237356 0.237356 0.237356 0.237356 0.237356 0.237356 0.237356 0.244339 0.244339 0.244339 0.244339 0.244339 0.244339 0.244339 0.244339 0.244339 0.244339 0.244339 0.244339 0.244339 0.244339 0.244339 0.244339 0.244339 0.244339 0.244339 0.244339 0.244339 0.248069 0.248069 0.248069 0.248069 0.248069 0.248069 0.248069 0.248069 0.248069 0.248069 0.248069 0.248069 0.248069 0.248069 0.248069 0.248069 0.248069 0.248069 0.248069 0.248069 0.248069 0.248069 0.248069 0.248069 0.248069 0.248069 0.248069 0.248069 0.248069 0.248069 0.248069 0.248069 0.248069 0.248069 0.248069 0.248069 0.248069 0.256074 0.256074 0.256074 0.256074 0.256074 0.256074 0.256074 0.256074 0.256074 0.256074 0.256074 0.256074 0.256074 0.256074 0.256074 0.256074 0.256074 0.256074 0.256074 0.256074 0.256074 0.256074 0.256074 0.256074 0.256074 0.256074 0.256074 0.256074 0.256074 0.256074 0.256074 0.256074 0.256074 0.256074 0.256074 0.256074 0.256074 0.256074 0.256074 0.256074 0.256074 0.256074 0.256074 0.256074 0.256074 0.260378 0.260378 0.260378 0.260378 0.260378 0.260378 0.260378 0.260378 0.260378 0.260378 0.260378 0.260378 0.260378 0.256074 0.256074 0.256074 0.256074 0.256074 0.256074 0.256074 0.256074 0.256074 0.256074 0.256074 0.256074 0.256074 0.260378 0.260378 0.260378 0.260378 0.260378 0.260378 0.260378 0.260378 0.260378 0.260378 0.260378 0.260378 0.251976 0.251976 0.251976 0.251976 0.251976 0.251976 0.251976 0.251976 0.251976 0.251976 0.251976 0.251976 0.256074 0.256074 0.256074 0.256074 0.256074 0.256074 0.256074 0.256074 0.256074 0.256074 0.256074 0.251976 0.251976 0.251976 0.251976 0.251976 0.251976 0.251976 0.251976 0.251976 0.251976 0.251976 0.248069 0.248069 0.248069 0.248069 0.248069 0.248069 0.248069 0.248069 0.248069 0.248069 0.248069 0.256074 0.256074 0.256074 0.256074 0.256074 0.256074 0.256074 0.256074 0.256074 0.256074 0.256074 0.256074 0.256074 0.256074 0.256074 0.256074 0.256074 0.256074 0.256074
