# Output from CTFFind version 4.1.9, run on 2019-11-02 17:58:46
# Input file: stack6_bm3d_averaged_1_1.75_0_50_half.mrc ; Number of micrographs: 1
# Pixel size: 3.000 Angstroms ; acceleration voltage: 300.0 keV ; spherical aberration: 0.00 mm ; amplitude contrast: 0.07
# Box size: 512 pixels ; min. res.: 30.0 Angstroms ; max. res.: 5.0 Angstroms ; min. def.: 5000.0 um; max. def. 50000.0 um; num. frames averaged: 1
# 6 lines per micrograph: #1 - spatial frequency (1/Angstroms); #2 - 1D rotational average of spectrum (assuming no astigmatism); #3 - 1D rotational average of spectrum; #4 - CTF fit; #5 - cross-correlation between spectrum and CTF fit; #6 - 2sigma of expected cross correlation of noise
0.000000 0.000651 0.001302 0.001953 0.002604 0.003255 0.003906 0.004557 0.005208 0.005859 0.006510 0.007161 0.007812 0.008464 0.009115 0.009766 0.010417 0.011068 0.011719 0.012370 0.013021 0.013672 0.014323 0.014974 0.015625 0.016276 0.016927 0.017578 0.018229 0.018880 0.019531 0.020182 0.020833 0.021484 0.022135 0.022786 0.023438 0.024089 0.024740 0.025391 0.026042 0.026693 0.027344 0.027995 0.028646 0.029297 0.029948 0.030599 0.031250 0.031901 0.032552 0.033203 0.033854 0.034505 0.035156 0.035807 0.036458 0.037109 0.037760 0.038411 0.039062 0.039714 0.040365 0.041016 0.041667 0.042318 0.042969 0.043620 0.044271 0.044922 0.045573 0.046224 0.046875 0.047526 0.048177 0.048828 0.049479 0.050130 0.050781 0.051432 0.052083 0.052734 0.053385 0.054036 0.054688 0.055339 0.055990 0.056641 0.057292 0.057943 0.058594 0.059245 0.059896 0.060547 0.061198 0.061849 0.062500 0.063151 0.063802 0.064453 0.065104 0.065755 0.066406 0.067057 0.067708 0.068359 0.069010 0.069661 0.070312 0.070964 0.071615 0.072266 0.072917 0.073568 0.074219 0.074870 0.075521 0.076172 0.076823 0.077474 0.078125 0.078776 0.079427 0.080078 0.080729 0.081380 0.082031 0.082682 0.083333 0.083984 0.084635 0.085286 0.085938 0.086589 0.087240 0.087891 0.088542 0.089193 0.089844 0.090495 0.091146 0.091797 0.092448 0.093099 0.093750 0.094401 0.095052 0.095703 0.096354 0.097005 0.097656 0.098307 0.098958 0.099609 0.100260 0.100911 0.101562 0.102214 0.102865 0.103516 0.104167 0.104818 0.105469 0.106120 0.106771 0.107422 0.108073 0.108724 0.109375 0.110026 0.110677 0.111328 0.111979 0.112630 0.113281 0.113932 0.114583 0.115234 0.115885 0.116536 0.117188 0.117839 0.118490 0.119141 0.119792 0.120443 0.121094 0.121745 0.122396 0.123047 0.123698 0.124349 0.125000 0.125651 0.126302 0.126953 0.127604 0.128255 0.128906 0.129557 0.130208 0.130859 0.131510 0.132161 0.132812 0.133464 0.134115 0.134766 0.135417 0.136068 0.136719 0.137370 0.138021 0.138672 0.139323 0.139974 0.140625 0.141276 0.141927 0.142578 0.143229 0.143880 0.144531 0.145182 0.145833 0.146484 0.147135 0.147786 0.148438 0.149089 0.149740 0.150391 0.151042 0.151693 0.152344 0.152995 0.153646 0.154297 0.154948 0.155599 0.156250 0.156901 0.157552 0.158203 0.158854 0.159505 0.160156 0.160807 0.161458 0.162109 0.162760 0.163411 0.164062 0.164714 0.165365 0.166016 0.166667 0.167318 0.167969 0.168620 0.169271 0.169922 0.170573 0.171224 0.171875 0.172526 0.173177 0.173828 0.174479 0.175130 0.175781 0.176432 0.177083 0.177734 0.178385 0.179036 0.179688 0.180339 0.180990 0.181641 0.182292 0.182943 0.183594 0.184245 0.184896 0.185547 0.186198 0.186849 0.187500 0.188151 0.188802 0.189453 0.190104 0.190755 0.191406 0.192057 0.192708 0.193359 0.194010 0.194661 0.195312 0.195964 0.196615 0.197266 0.197917 0.198568 0.199219 0.199870 0.200521 0.201172 0.201823 0.202474 0.203125 0.203776 0.204427 0.205078 0.205729 0.206380 0.207031 0.207682 0.208333 0.208984 0.209635 0.210286 0.210938 0.211589 0.212240 0.212891 0.213542 0.214193 0.214844 0.215495 0.216146 0.216797 0.217448 0.218099 0.218750 0.219401 0.220052 0.220703 0.221354 0.222005 0.222656 0.223307 0.223958 0.224609 0.225260 0.225911 0.226562 0.227214 0.227865 0.228516 0.229167 0.229818 0.230469 0.231120 0.231771 0.232422 0.233073 0.233724 0.234375 0.235026 0.235677
       0.31081        0.31081        0.31081        0.31081        0.31081        0.31081        0.31081        0.31081        0.31081        0.31081        0.31081        0.31081        0.31081        0.31081        0.31081        0.31081        0.31081        0.31081        0.31081        0.31081        0.31081        0.31081        0.31081        0.31081        0.31081        0.31081        0.31081        0.31081        0.31081        0.31081        0.31081        0.31081        0.31081        0.31081        0.31081        0.31081        0.31081        0.31081        0.31081        0.31081        0.31081        0.31081        0.31081        0.31081        0.31081        0.31081        0.31081        0.31081        0.31081        0.31081        0.31081        0.62977        0.81100        0.41454        0.30747        0.18049       -0.10510        0.11175       -0.00064        0.02999        0.11752        0.34075        0.41897        0.40369        0.22982       -0.01551        0.04699        0.07020       -0.17955       -0.18202       -0.09083       -0.10873       -0.29929       -0.19711       -0.29925       -0.25150       -0.28911       -0.41190       -0.47423       -0.48470       -0.43538       -0.34644       -0.43669       -0.36458       -0.41563       -0.36210       -0.28299       -0.21077       -0.19453       -0.14212       -0.09029        0.04084        0.06880        0.25515        0.27949        0.36348        0.40785        0.53163        0.60069        0.62378        0.74265        0.70437        0.74928        0.66035        0.65924        0.68760        0.63309        0.61912        0.61062        0.42567        0.39946        0.34764        0.31052        0.22725        0.13036        0.06118        0.05629        0.00180       -0.08234       -0.02114       -0.03423       -0.07312        0.07007        0.16619        0.25589        0.31984        0.33986        0.42327        0.53913        0.59342        0.54436        0.67066        0.57403        0.54666        0.60328        0.64556        0.53595        0.45256        0.40787        0.37664        0.23662        0.20539        0.12471        0.11871        0.05575        0.03970        0.09561        0.16430        0.14620        0.17763        0.22668        0.24551        0.32415        0.45831        0.49534        0.49863        0.50289        0.57943        0.56960        0.53373        0.43646        0.39151        0.36468        0.27310        0.24497        0.20164        0.20048        0.18716        0.16908        0.16314        0.13932        0.19539        0.24482        0.32711        0.37742        0.41299        0.46249        0.54324        0.47297        0.49802        0.42689        0.39613        0.37829        0.36839        0.29099        0.23970        0.19048        0.24201        0.21614        0.18620        0.21566        0.21920        0.22893        0.30537        0.39504        0.38900        0.38570        0.40880        0.46331        0.48192        0.42991        0.35540        0.31934        0.27266        0.27906        0.26691        0.22173        0.28304        0.29741        0.30221        0.31768        0.30967        0.33681        0.37519        0.37986        0.37457        0.35086        0.31217        0.32517        0.33155        0.29706        0.28853        0.27494        0.22317        0.26667        0.27448        0.29515        0.31186        0.33323        0.37548        0.33054        0.29940        0.36137        0.35262        0.25274        0.28735        0.30864        0.23735        0.20736        0.25802        0.27614        0.28123        0.29691        0.30584        0.34475        0.33659        0.35852        0.32015        0.32768        0.30434        0.30173        0.26221        0.24647        0.25701        0.25209        0.28416        0.30668        0.30759        0.29556        0.31208        0.33535        0.28109        0.30005        0.26678        0.25095        0.26747        0.25731        0.25974        0.26424        0.32042        0.28664        0.32300        0.29424        0.26130        0.30797        0.31112        0.33668        0.32150        0.28695        0.24819        0.24896        0.25806        0.26196        0.31982        0.30382        0.31789        0.31555        0.30951        0.24206        0.28134        0.21500        0.20714        0.25959        0.26775        0.26809        0.27857        0.29929        0.29338        0.37972        0.30103        0.23607        0.22268        0.24269        0.28073        0.30746        0.31323        0.28413        0.28268        0.27711        0.32906        0.28511        0.25277        0.25964        0.26226        0.28532        0.24685        0.26289        0.30949        0.29022        0.24094        0.24746        0.28790        0.31337        0.25266        0.26171        0.25137        0.29505        0.28329        0.35527        0.27161        0.25870        0.27836        0.23377        0.22306        0.20914        0.23908        0.20886        0.20607        0.15917        0.21400        0.24262        0.19847        0.23196        0.20725        0.23480        0.22302        0.23811        0.18729        0.16642        0.20210        0.28338        0.12137        0.06340        0.22774        0.12374        0.10011        0.24727        0.16211        0.22418        0.22786        0.00133       -0.52861       -0.96706
2.770555 2.743445 2.716473 2.689641 2.662948 2.636393 2.609978 2.583702 2.557565 2.531567 2.505708 2.479989 2.454408 2.428966 2.403663 2.378500 2.353476 2.328590 2.303844 2.279236 2.254768 2.230439 2.206249 2.182198 2.158286 2.134513 2.110879 2.087384 2.064029 2.040812 2.017734 1.994796 1.971996 1.949336 1.926814 1.904432 1.882189 1.860085 1.838120 1.816294 1.794607 1.773059 1.751650 1.730380 1.709249 1.688258 1.667405 1.646692 1.626117 1.605682 1.585385 1.868859 2.208293 1.654256 1.696886 1.345591 0.912973 1.171860 1.007721 1.050139 1.005440 1.467750 1.478767 1.499028 1.264132 0.922088 0.801352 0.998361 0.681626 0.479414 0.578413 0.662932 0.412904 0.469403 0.331491 0.377283 0.245241 0.147349 -0.030438 0.007100 0.009717 0.079047 0.045162 0.095258 -0.047406 0.028993 0.106692 0.213056 0.268580 0.213616 0.319276 0.560264 0.420772 0.716527 0.795136 0.845865 0.899749 1.109209 1.145607 1.169124 1.305003 1.218530 1.355238 1.195785 1.083942 1.277187 1.103883 1.039768 1.123280 0.852920 0.727571 0.661621 0.639882 0.464967 0.389026 0.270921 0.222144 0.107935 -0.001378 0.109360 0.030981 -0.055476 0.122118 0.260464 0.324190 0.450632 0.491046 0.545957 0.699435 0.809516 0.654180 0.955548 0.773817 0.681933 0.763168 0.794491 0.717824 0.623874 0.439936 0.504406 0.280307 0.169590 0.140149 0.013822 -0.007094 -0.109636 -0.029086 0.048021 0.071248 -0.027737 0.249428 0.113375 0.221022 0.380673 0.418216 0.552050 0.403228 0.553416 0.638299 0.503055 0.416317 0.349178 0.324503 0.156401 0.143076 0.008561 0.096155 0.007738 0.004326 -0.032955 -0.087311 0.007247 0.028172 0.098495 0.272264 0.224479 0.351026 0.363124 0.457452 0.381844 0.424799 0.330546 0.221119 0.317921 0.185389 0.157738 -0.008500 0.059196 0.089967 -0.020143 0.008865 0.019392 0.060632 0.071409 0.233027 0.304937 0.239435 0.245788 0.380971 0.377491 0.349917 0.247972 0.174621 0.143798 0.097498 0.085258 0.055455 0.028715 0.137505 0.065783 0.188188 0.101622 0.130231 0.217756 0.212561 0.246929 0.189702 0.200667 0.094070 0.163801 0.145728 0.094531 0.116626 -0.008258 0.045743 0.082324 0.045377 0.138940 0.105125 0.192443 0.204157 0.136827 0.112714 0.213801 0.098977 0.050533 0.085601 0.066061 -0.007477 -0.025081 0.052885 0.075358 0.051789 0.105547 0.108297 0.145477 0.143381 0.166833 0.115355 0.109963 0.097154 0.094705 0.016641 0.017393 0.050764 -0.001043 0.081864 0.120853 0.095220 0.073166 0.094606 0.127966 0.038203 0.105806 0.028854 0.008685 0.063601 0.008897 0.016510 0.060411 0.109802 0.027854 0.125709 0.067201 0.000751 0.105200 0.084303 0.097291 0.105722 0.000499 -0.008660 -0.030917 0.049521 -0.015576 0.099593 0.048830 0.081657 0.069410 0.119160 -0.040450 0.047250 -0.086733 -0.012880 -0.026329 0.039535 0.011627 0.014648 0.083068 0.055151 0.144152 -0.027544 -0.065519 -0.086258 -0.066260 0.036989 0.051460 0.035734 0.005380 -0.018020 -0.008161 0.070979 -0.023468 -0.063167 -0.030712 -0.057760 0.009532 -0.054033 -0.029468 0.018140 -0.020734 -0.056480 -0.017344 0.018643 -0.003219 -0.029691 -0.022804 -0.077541 0.088138 0.031762 0.116055 -0.016975 -0.010433 0.034347 -0.006081 -0.054571 -0.009277 0.031175 -0.026220 -0.028061 -0.081469 -0.015883 0.073175 -0.061361 0.086284 0.005627 0.108567 -0.007209 0.123183 -0.037662 0.007778 -0.034469 0.247409 -0.047510 0.009113 0.309235 0.135725 0.140234 0.432141 0.197799 0.284676 0.327900 0.006466 -1.315554
0.072396 0.072835 0.074150 0.076342 0.079411 0.083355 0.088174 0.093866 0.100431 0.107865 0.116167 0.125333 0.135359 0.146242 0.157976 0.170554 0.183969 0.198211 0.213271 0.229137 0.245795 0.263228 0.281420 0.300351 0.319997 0.340334 0.361332 0.382962 0.405187 0.427971 0.451271 0.475041 0.499232 0.523788 0.548653 0.573762 0.599047 0.624435 0.649849 0.675205 0.700415 0.725385 0.750018 0.774208 0.797848 0.820823 0.843015 0.864299 0.884549 0.903633 0.921416 0.937758 0.952520 0.965557 0.976725 0.985880 0.992876 0.997568 0.999816 0.999480 0.996425 0.990523 0.981650 0.969692 0.954544 0.936111 0.914311 0.889076 0.860354 0.828108 0.792323 0.753000 0.710165 0.663865 0.614175 0.561191 0.505042 0.445879 0.383887 0.319280 0.252301 0.183225 0.112357 0.040034 0.033379 0.107486 0.181865 0.256066 0.329617 0.402023 0.472769 0.541329 0.607160 0.669716 0.728445 0.782800 0.832240 0.876237 0.914285 0.945901 0.970636 0.988080 0.997869 0.999691 0.993296 0.978496 0.955179 0.923309 0.882933 0.834188 0.777301 0.712595 0.640491 0.561507 0.476258 0.385457 0.289909 0.190511 0.088238 0.015855 0.120650 0.224969 0.327596 0.427282 0.522764 0.612782 0.696092 0.771493 0.837836 0.894052 0.939165 0.972318 0.992784 0.999993 0.993541 0.973209 0.938976 0.891027 0.829764 0.755809 0.670002 0.573406 0.467289 0.353123 0.232564 0.107433 0.020310 0.148591 0.275254 0.398101 0.514921 0.623542 0.721865 0.807913 0.879871 0.936129 0.975328 0.996392 0.998567 0.981448 0.945005 0.889599 0.815992 0.725348 0.619228 0.499566 0.368651 0.229085 0.083740 0.064296 0.211782 0.355394 0.491797 0.617727 0.730070 0.825947 0.902791 0.958424 0.991132 0.999719 0.983565 0.942661 0.877634 0.789758 0.680939 0.553695 0.411106 0.256751 0.094630 0.070934 0.235411 0.394171 0.542635 0.676394 0.791352 0.883865 0.950855 0.989933 0.999499 0.978810 0.928043 0.848321 0.741704 0.611162 0.460511 0.294311 0.117743 0.063535 0.243578 0.416334 0.575849 0.716489 0.833133 0.921382 0.977733 0.999740 0.986135 0.936912 0.853372 0.738114 0.594983 0.428955 0.245998 0.052859 0.143169 0.334511 0.513614 0.673236 0.806754 0.908458 0.973805 0.999644 0.984396 0.928163 0.832778 0.701777 0.540297 0.354906 0.153347 0.055752 0.263258 0.459909 0.636744 0.785511 0.899077 0.971781 0.999753 0.981138 0.916247 0.807604 0.659887 0.479759 0.275597 0.057132 0.165008 0.379793 0.576352 0.744526 0.875403 0.961825 0.998800 0.983828 0.917102 0.801565 0.642829 0.448945 0.230026 0.002256 0.235269 0.456105 0.652297 0.812535 0.927342 0.989662 0.995338 0.943421 0.836314 0.679714 0.482353 0.255561 0.012635 0.231904 0.463185 0.666883 0.830122 0.942326 0.995933 0.986949 0.915293 0.784895 0.603546 0.382476 0.135711 0.120794 0.370174 0.595735 0.782108 0.916316 0.988712 0.993723 0.930328 0.802246 0.617776 0.389320 0.132603 0.134375 0.392581 0.623315 0.809551 0.937258 0.996479 0.982172 0.894696 0.739910 0.528853 0.277004 0.003225 0.271646 0.526359 0.740896 0.898074 0.984973 0.994050 0.923859 0.779307 0.571385 0.316416 0.034817 0.250482 0.515903 0.739159 0.901171 0.987730 0.990822 0.909437 0.749806 0.525015 0.254002 0.039973 0.331280 0.594157 0.804986 0.944465 0.999434 0.964187 0.841150 0.640828 0.380986 0.085168 0.219398 0.504280 0.742487 0.911075 0.993404 0.980864 0.873870 0.681990 0.423199 0.122282 0.191487 0.487147 0.735120 0.910191
1.000000 1.000000 1.000000 1.000000 1.000000 1.000000 1.000000 1.000000 1.000000 1.000000 1.000000 1.000000 1.000000 1.000000 1.000000 1.000000 1.000000 1.000000 1.000000 1.000000 1.000000 1.000000 1.000000 1.000000 1.000000 1.000000 1.000000 1.000000 1.000000 1.000000 1.000000 1.000000 1.000000 1.000000 1.000000 1.000000 1.000000 1.000000 1.000000 1.000000 1.000000 1.000000 1.000000 1.000000 1.000000 1.000000 1.000000 1.000000 1.000000 1.000000 1.000000 1.000000 0.832715 0.832715 0.832715 0.832715 0.832715 0.832715 0.832715 0.816463 0.816463 0.816463 0.816463 0.816463 0.816463 0.816463 0.816463 0.816463 0.816463 0.816463 0.816463 0.816463 0.816463 0.816463 0.816463 0.816463 0.816463 0.816463 0.816463 0.816463 0.816463 0.816463 0.816463 0.816463 0.816463 0.816463 0.816463 0.816463 0.816463 0.816463 0.816463 0.816463 0.816463 0.816463 0.816463 0.816463 0.816463 0.816463 0.816463 0.816463 0.816463 0.816463 0.816463 0.952857 0.953571 0.953826 0.952840 0.951299 0.947723 0.943673 0.943185 0.945625 0.945849 0.946267 0.948318 0.948833 0.950367 0.951893 0.952640 0.953397 0.961462 0.965163 0.965759 0.965567 0.956728 0.963594 0.964437 0.957795 0.958404 0.958613 0.959262 0.959190 0.959060 0.958664 0.957359 0.957957 0.957774 0.957083 0.956128 0.954060 0.953995 0.953607 0.953752 0.954680 0.955199 0.955939 0.956437 0.955685 0.955840 0.955844 0.955760 0.951341 0.951325 0.944013 0.944304 0.945237 0.944819 0.943892 0.942449 0.942524 0.942456 0.942445 0.942349 0.942749 0.931295 0.931467 0.931725 0.931743 0.926681 0.917211 0.910458 0.905990 0.907296 0.911063 0.915145 0.915391 0.911750 0.910952 0.895927 0.888527 0.872139 0.867739 0.858232 0.867898 0.867059 0.867914 0.856344 0.856046 0.853858 0.852198 0.841866 0.846670 0.845656 0.843052 0.838319 0.837135 0.832192 0.835053 0.843419 0.842600 0.832881 0.841671 0.828665 0.816819 0.815475 0.816616 0.825568 0.837874 0.836965 0.835637 0.830360 0.826154 0.819816 0.818131 0.819147 0.820676 0.819553 0.822600 0.822072 0.834983 0.824879 0.815938 0.821247 0.829435 0.829577 0.829448 0.830643 0.826892 0.829474 0.815992 0.812736 0.815195 0.786718 0.789711 0.781383 0.776477 0.763035 0.765986 0.760633 0.760012 0.748013 0.731235 0.742435 0.752194 0.718402 0.724802 0.719410 0.704098 0.666138 0.680243 0.687110 0.697247 0.692044 0.689690 0.675404 0.670383 0.677637 0.680261 0.684397 0.674194 0.667413 0.659839 0.668335 0.656561 0.657359 0.651465 0.651346 0.650445 0.644855 0.617669 0.625587 0.603778 0.583592 0.574729 0.565190 0.544229 0.534430 0.523722 0.500246 0.482498 0.495706 0.480997 0.457337 0.440262 0.424010 0.411136 0.422186 0.421116 0.426173 0.428273 0.418018 0.370903 0.379038 0.376797 0.377336 0.365026 0.370651 0.357459 0.277720 0.263989 0.234474 0.256166 0.263507 0.262960 0.247544 0.234342 0.257499 0.242888 0.248832 0.248500 0.277139 0.246879 0.192059 0.207916 0.203586 0.198767 0.191480 0.153722 0.162005 0.146598 0.158952 0.168514 0.112460 0.084394 0.069076 0.059803 0.076485 0.098820 0.107660 0.088892 0.073772 -0.031665 0.007033 0.036385 0.036385 0.036385 0.036385 0.036385 0.036385 0.036385 0.036385 0.036385 0.036385 0.036385 -0.027177 -0.027177 -0.027177 -0.027177 -0.027177 -0.027177 -0.027177 -0.027177 -0.027177 -0.027177 -0.027177 -0.027177 -0.027177 -0.027177 -0.027177 -0.027177 -0.027177 -0.027177 -0.027177
0.000000 0.000000 0.000000 0.000000 0.000000 0.000000 0.000000 0.000000 0.000000 0.000000 0.000000 0.000000 0.000000 0.000000 0.000000 0.000000 0.000000 0.000000 0.000000 0.000000 0.000000 0.000000 0.000000 0.000000 0.000000 0.000000 0.000000 0.000000 0.000000 0.000000 0.000000 0.000000 0.000000 0.000000 0.000000 0.000000 0.000000 0.000000 0.000000 0.000000 0.000000 0.000000 0.000000 0.000000 0.000000 0.000000 0.000000 0.000000 0.000000 0.000000 0.000000 0.000000 0.173422 0.173422 0.173422 0.173422 0.173422 0.173422 0.173422 0.191565 0.191565 0.191565 0.191565 0.191565 0.191565 0.191565 0.191565 0.191565 0.191565 0.191565 0.191565 0.191565 0.191565 0.191565 0.191565 0.191565 0.191565 0.191565 0.191565 0.191565 0.191565 0.191565 0.191565 0.191565 0.191565 0.191565 0.191565 0.191565 0.191565 0.191565 0.191565 0.191565 0.191565 0.191565 0.191565 0.191565 0.191565 0.191565 0.191565 0.191565 0.191565 0.191565 0.191565 0.219529 0.219529 0.219529 0.219529 0.219529 0.219529 0.219529 0.219529 0.219529 0.219529 0.219529 0.219529 0.219529 0.219529 0.219529 0.219529 0.219529 0.219529 0.219529 0.219529 0.219529 0.219529 0.219529 0.219529 0.219529 0.219529 0.219529 0.219529 0.219529 0.219529 0.219529 0.237356 0.237356 0.237356 0.237356 0.237356 0.237356 0.237356 0.237356 0.237356 0.237356 0.237356 0.237356 0.237356 0.237356 0.237356 0.237356 0.237356 0.237356 0.237356 0.237356 0.237356 0.237356 0.237356 0.237356 0.244339 0.244339 0.244339 0.244339 0.244339 0.244339 0.244339 0.244339 0.244339 0.244339 0.244339 0.244339 0.244339 0.244339 0.244339 0.244339 0.244339 0.244339 0.244339 0.244339 0.244339 0.248069 0.248069 0.248069 0.248069 0.248069 0.248069 0.248069 0.248069 0.248069 0.248069 0.248069 0.248069 0.248069 0.248069 0.248069 0.248069 0.248069 0.248069 0.248069 0.248069 0.248069 0.248069 0.248069 0.248069 0.248069 0.248069 0.248069 0.248069 0.248069 0.248069 0.248069 0.248069 0.248069 0.248069 0.248069 0.248069 0.248069 0.256074 0.256074 0.256074 0.256074 0.256074 0.256074 0.256074 0.256074 0.256074 0.256074 0.256074 0.256074 0.256074 0.256074 0.256074 0.256074 0.256074 0.256074 0.256074 0.256074 0.256074 0.256074 0.256074 0.256074 0.256074 0.256074 0.256074 0.256074 0.256074 0.256074 0.256074 0.256074 0.256074 0.256074 0.256074 0.256074 0.256074 0.256074 0.256074 0.256074 0.256074 0.256074 0.256074 0.256074 0.256074 0.260378 0.260378 0.260378 0.260378 0.260378 0.260378 0.260378 0.260378 0.260378 0.260378 0.260378 0.260378 0.260378 0.256074 0.256074 0.256074 0.256074 0.256074 0.256074 0.256074 0.256074 0.256074 0.256074 0.256074 0.256074 0.256074 0.260378 0.260378 0.260378 0.260378 0.260378 0.260378 0.260378 0.260378 0.260378 0.260378 0.260378 0.260378 0.251976 0.251976 0.251976 0.251976 0.251976 0.251976 0.251976 0.251976 0.251976 0.251976 0.251976 0.251976 0.256074 0.256074 0.256074 0.256074 0.256074 0.256074 0.256074 0.256074 0.256074 0.256074 0.256074 0.251976 0.251976 0.251976 0.251976 0.251976 0.251976 0.251976 0.251976 0.251976 0.251976 0.251976 0.248069 0.248069 0.248069 0.248069 0.248069 0.248069 0.248069 0.248069 0.248069 0.248069 0.248069 0.256074 0.256074 0.256074 0.256074 0.256074 0.256074 0.256074 0.256074 0.256074 0.256074 0.256074 0.256074 0.256074 0.256074 0.256074 0.256074 0.256074 0.256074 0.256074
