# Output from CTFFind version 4.1.9, run on 2019-11-02 17:43:40
# Input file: stack16_bm3d_averaged_1_1.0_0_50_half.mrc ; Number of micrographs: 1
# Pixel size: 3.000 Angstroms ; acceleration voltage: 300.0 keV ; spherical aberration: 0.00 mm ; amplitude contrast: 0.07
# Box size: 512 pixels ; min. res.: 30.0 Angstroms ; max. res.: 5.0 Angstroms ; min. def.: 5000.0 um; max. def. 50000.0 um; num. frames averaged: 1
# 6 lines per micrograph: #1 - spatial frequency (1/Angstroms); #2 - 1D rotational average of spectrum (assuming no astigmatism); #3 - 1D rotational average of spectrum; #4 - CTF fit; #5 - cross-correlation between spectrum and CTF fit; #6 - 2sigma of expected cross correlation of noise
0.000000 0.000651 0.001302 0.001953 0.002604 0.003255 0.003906 0.004557 0.005208 0.005859 0.006510 0.007161 0.007812 0.008464 0.009115 0.009766 0.010417 0.011068 0.011719 0.012370 0.013021 0.013672 0.014323 0.014974 0.015625 0.016276 0.016927 0.017578 0.018229 0.018880 0.019531 0.020182 0.020833 0.021484 0.022135 0.022786 0.023438 0.024089 0.024740 0.025391 0.026042 0.026693 0.027344 0.027995 0.028646 0.029297 0.029948 0.030599 0.031250 0.031901 0.032552 0.033203 0.033854 0.034505 0.035156 0.035807 0.036458 0.037109 0.037760 0.038411 0.039062 0.039714 0.040365 0.041016 0.041667 0.042318 0.042969 0.043620 0.044271 0.044922 0.045573 0.046224 0.046875 0.047526 0.048177 0.048828 0.049479 0.050130 0.050781 0.051432 0.052083 0.052734 0.053385 0.054036 0.054688 0.055339 0.055990 0.056641 0.057292 0.057943 0.058594 0.059245 0.059896 0.060547 0.061198 0.061849 0.062500 0.063151 0.063802 0.064453 0.065104 0.065755 0.066406 0.067057 0.067708 0.068359 0.069010 0.069661 0.070312 0.070964 0.071615 0.072266 0.072917 0.073568 0.074219 0.074870 0.075521 0.076172 0.076823 0.077474 0.078125 0.078776 0.079427 0.080078 0.080729 0.081380 0.082031 0.082682 0.083333 0.083984 0.084635 0.085286 0.085938 0.086589 0.087240 0.087891 0.088542 0.089193 0.089844 0.090495 0.091146 0.091797 0.092448 0.093099 0.093750 0.094401 0.095052 0.095703 0.096354 0.097005 0.097656 0.098307 0.098958 0.099609 0.100260 0.100911 0.101562 0.102214 0.102865 0.103516 0.104167 0.104818 0.105469 0.106120 0.106771 0.107422 0.108073 0.108724 0.109375 0.110026 0.110677 0.111328 0.111979 0.112630 0.113281 0.113932 0.114583 0.115234 0.115885 0.116536 0.117188 0.117839 0.118490 0.119141 0.119792 0.120443 0.121094 0.121745 0.122396 0.123047 0.123698 0.124349 0.125000 0.125651 0.126302 0.126953 0.127604 0.128255 0.128906 0.129557 0.130208 0.130859 0.131510 0.132161 0.132812 0.133464 0.134115 0.134766 0.135417 0.136068 0.136719 0.137370 0.138021 0.138672 0.139323 0.139974 0.140625 0.141276 0.141927 0.142578 0.143229 0.143880 0.144531 0.145182 0.145833 0.146484 0.147135 0.147786 0.148438 0.149089 0.149740 0.150391 0.151042 0.151693 0.152344 0.152995 0.153646 0.154297 0.154948 0.155599 0.156250 0.156901 0.157552 0.158203 0.158854 0.159505 0.160156 0.160807 0.161458 0.162109 0.162760 0.163411 0.164062 0.164714 0.165365 0.166016 0.166667 0.167318 0.167969 0.168620 0.169271 0.169922 0.170573 0.171224 0.171875 0.172526 0.173177 0.173828 0.174479 0.175130 0.175781 0.176432 0.177083 0.177734 0.178385 0.179036 0.179688 0.180339 0.180990 0.181641 0.182292 0.182943 0.183594 0.184245 0.184896 0.185547 0.186198 0.186849 0.187500 0.188151 0.188802 0.189453 0.190104 0.190755 0.191406 0.192057 0.192708 0.193359 0.194010 0.194661 0.195312 0.195964 0.196615 0.197266 0.197917 0.198568 0.199219 0.199870 0.200521 0.201172 0.201823 0.202474 0.203125 0.203776 0.204427 0.205078 0.205729 0.206380 0.207031 0.207682 0.208333 0.208984 0.209635 0.210286 0.210938 0.211589 0.212240 0.212891 0.213542 0.214193 0.214844 0.215495 0.216146 0.216797 0.217448 0.218099 0.218750 0.219401 0.220052 0.220703 0.221354 0.222005 0.222656 0.223307 0.223958 0.224609 0.225260 0.225911 0.226562 0.227214 0.227865 0.228516 0.229167 0.229818 0.230469 0.231120 0.231771 0.232422 0.233073 0.233724 0.234375 0.235026 0.235677
       0.33989        0.33989        0.33989        0.33989        0.33989        0.33989        0.33989        0.33989        0.33989        0.33989        0.33989        0.33989        0.33989        0.33989        0.33989        0.33989        0.33989        0.33989        0.33989        0.33989        0.33989        0.33989        0.33989        0.33989        0.33989        0.33989        0.33989        0.33989        0.33989        0.33989        0.33989        0.33989        0.33989        0.33989        0.33989        0.33989        0.33989        0.33989        0.33989        0.33989        0.33989        0.33989        0.33989        0.33989        0.33989        0.33989        0.33989        0.33989        0.33989        0.33989        0.33989        0.48643        0.69899        0.45443       -0.11583       -0.41492       -0.57584       -0.66774       -0.74851       -0.76711       -0.87266       -0.91903       -0.76178       -0.92804       -0.87518       -1.02695       -1.10199       -0.99144       -0.96658       -0.88614       -0.86126       -0.75211       -0.64406       -0.50352       -0.42844       -0.22345       -0.11850       -0.02265        0.20152        0.24188        0.30563        0.37879        0.43405        0.51248        0.57543        0.59306        0.58722        0.49670        0.54096        0.48369        0.39013        0.31790        0.20106        0.16656        0.09759       -0.06113       -0.11055       -0.09520        0.00856       -0.01774        0.01485        0.02430        0.20572        0.21668        0.38895        0.45301        0.55616        0.69164        0.75617        0.72915        0.69929        0.69545        0.57836        0.53526        0.39701        0.26911        0.19023        0.14366        0.06638        0.02502        0.02081        0.06235        0.07456        0.26854        0.41506        0.50530        0.58766        0.63665        0.69922        0.65557        0.64840        0.66704        0.60542        0.47807        0.28330        0.23623        0.20563        0.12602        0.03903        0.08840        0.11791        0.24673        0.33840        0.41398        0.50052        0.53618        0.65779        0.60483        0.55305        0.51105        0.35959        0.20778        0.21166        0.15045        0.11528        0.12163        0.21402        0.24876        0.35221        0.43845        0.43560        0.55440        0.50501        0.44788        0.45483        0.37804        0.32096        0.27138        0.21165        0.23203        0.20800        0.20228        0.31592        0.45023        0.48103        0.48030        0.55103        0.49245        0.45176        0.39156        0.29416        0.22404        0.23026        0.23809        0.26184        0.27700        0.32380        0.43997        0.49724        0.48437        0.45732        0.41193        0.38611        0.35930        0.24883        0.22017        0.24271        0.29120        0.35475        0.35804        0.38618        0.41112        0.44002        0.36952        0.34580        0.31183        0.30428        0.26747        0.25603        0.30114        0.34327        0.41085        0.41297        0.39125        0.39136        0.40048        0.34493        0.28603        0.29191        0.28101        0.30439        0.35567        0.36957        0.41606        0.35452        0.36409        0.38534        0.34324        0.31552        0.27958        0.29174        0.33667        0.32311        0.31997        0.36827        0.38585        0.32654        0.34909        0.29928        0.30668        0.28367        0.28093        0.29783        0.32859        0.38259        0.36213        0.34325        0.32284        0.28123        0.27302        0.29367        0.28095        0.31093        0.36404        0.39235        0.33351        0.31676        0.30522        0.29735        0.28401        0.28221        0.29935        0.33587        0.33773        0.33715        0.31189        0.34510        0.31766        0.28838        0.31320        0.31769        0.33230        0.34290        0.31620        0.30958        0.30030        0.32462        0.30848        0.33433        0.38218        0.32468        0.35970        0.31543        0.30699        0.29128        0.30825        0.29053        0.30416        0.31208        0.34398        0.35364        0.30920        0.31916        0.31480        0.29212        0.28602        0.29100        0.32406        0.34461        0.35161        0.32831        0.31762        0.26052        0.25552        0.31502        0.34111        0.32567        0.29921        0.27853        0.28382        0.32251        0.30935        0.31116        0.33346        0.33807        0.30119        0.23779        0.28900        0.28209        0.28186        0.32162        0.32068        0.34060        0.33724        0.28144        0.26922        0.29395        0.27352        0.29320        0.27230        0.25240        0.25742        0.24898        0.28090        0.28579        0.27656        0.26002        0.31798        0.31925        0.30725        0.27201        0.28847        0.24263        0.26142        0.25531        0.32966        0.35034        0.22978        0.24542        0.26438        0.23450        0.23813        0.29600        0.22247        0.14104        0.17433        0.23528        0.26419        0.21557        0.11255        0.07043       -0.42482       -0.79682
3.165487 3.125698 3.086167 3.046893 3.007876 2.969116 2.930614 2.892369 2.854381 2.816650 2.779177 2.741961 2.705001 2.668300 2.631855 2.595668 2.559738 2.524065 2.488649 2.453491 2.418590 2.383946 2.349559 2.315430 2.281557 2.247942 2.214585 2.181484 2.148641 2.116055 2.083726 2.051654 2.019840 1.988283 1.956983 1.925940 1.895154 1.864626 1.834355 1.804341 1.774585 1.745085 1.715843 1.686858 1.658131 1.629660 1.601447 1.573491 1.545793 1.518351 1.491167 1.549987 1.735569 1.649915 0.991245 0.708185 0.497461 0.446913 0.340650 0.278779 0.215227 0.031780 0.211792 0.093012 0.001699 -0.047663 -0.194268 -0.146111 -0.085608 -0.086038 -0.090416 0.017064 0.035930 0.240363 0.153564 0.368520 0.452841 0.487284 0.723845 0.707759 0.715322 0.843127 0.826186 0.859063 0.926364 0.898858 0.943381 0.753304 0.837976 0.842946 0.625235 0.603811 0.452655 0.432042 0.377883 0.206956 0.117643 0.091206 0.200776 0.138346 0.192858 0.103365 0.293636 0.288726 0.450601 0.407197 0.574536 0.633366 0.753724 0.692257 0.654649 0.656007 0.520216 0.493888 0.355538 0.281945 0.104562 0.132121 -0.008341 -0.023792 -0.053037 -0.040709 -0.016709 0.016275 0.265186 0.318808 0.375246 0.389108 0.454936 0.481768 0.438307 0.483667 0.377454 0.369172 0.129334 0.049068 0.052945 -0.029135 -0.153159 -0.070025 -0.136940 -0.007353 0.112166 0.136021 0.235145 0.236687 0.362286 0.439653 0.327745 0.372286 0.257235 0.100401 0.026628 0.026146 -0.009029 -0.019885 -0.015053 0.084883 0.100709 0.240696 0.215409 0.283717 0.345873 0.220132 0.234603 0.204558 0.116605 0.067589 0.032272 0.013920 0.025568 -0.030818 0.010323 0.174545 0.215020 0.236396 0.275664 0.237452 0.249554 0.151727 0.117148 -0.011870 -0.010649 0.004743 0.021999 0.021330 0.040918 0.114993 0.204138 0.216568 0.215532 0.134066 0.145325 0.080061 0.060122 -0.061761 -0.019544 -0.005031 0.057174 0.066476 0.072895 0.150946 0.091315 0.169731 0.068355 0.048347 0.049923 0.029239 0.005887 0.004227 0.049790 0.085322 0.129067 0.135818 0.070525 0.130698 0.096763 0.015429 0.010754 0.008670 -0.001879 0.053207 0.061876 0.104731 0.098412 0.073482 0.066497 0.079633 0.035785 0.018021 -0.015600 0.010660 0.056388 0.023364 0.038521 0.077086 0.083225 0.056558 0.033382 0.016029 0.016612 -0.006834 -0.007380 0.012568 0.061391 0.104995 0.059522 0.056965 0.038676 -0.014100 -0.003119 0.016321 0.014540 0.027953 0.105508 0.060712 0.020866 0.045137 0.000798 0.029175 -0.009320 0.004635 0.021938 0.060937 0.044209 0.041354 0.027297 0.053640 0.024902 -0.002421 0.031293 0.038318 0.042188 0.046496 0.025803 -0.002937 -0.011486 0.030479 0.005363 0.049406 0.070796 0.041883 0.028689 0.004453 0.000861 -0.002410 0.010809 0.005215 0.008813 -0.004712 0.079502 0.047594 0.033905 0.043939 0.003842 0.012333 0.004563 -0.001771 0.051631 0.068228 0.080843 0.045146 0.047547 -0.024393 0.002013 0.041752 0.073441 0.035831 0.034880 0.001005 0.002470 0.049662 0.051767 0.038726 0.067509 0.063124 0.042968 -0.026149 0.020308 0.040338 0.018672 0.044793 0.067084 0.083981 0.062797 0.017921 0.008333 0.017678 0.004097 0.025290 -0.019042 -0.013773 -0.020790 -0.049705 0.005383 -0.001730 0.006572 -0.069973 0.015767 0.010780 -0.001568 -0.044983 0.016299 -0.088105 -0.026712 -0.040527 0.034565 0.071243 -0.107574 -0.033078 0.028013 -0.003666 -0.050684 0.039544 0.013755 -0.020136 -0.047748 0.048445 0.230001 0.199178 0.050706 0.065945 -0.706336
0.072396 0.073046 0.074994 0.078240 0.082784 0.088623 0.095756 0.104179 0.113889 0.124880 0.137147 0.150679 0.165469 0.181502 0.198763 0.217235 0.236895 0.257716 0.279670 0.302720 0.326825 0.351939 0.378008 0.404971 0.432762 0.461303 0.490510 0.520288 0.550535 0.581136 0.611967 0.642892 0.673767 0.704432 0.734720 0.764449 0.793429 0.821457 0.848318 0.873791 0.897642 0.919630 0.939507 0.957018 0.971905 0.983907 0.992762 0.998211 0.999998 0.997875 0.991604 0.980960 0.965738 0.945750 0.920835 0.890860 0.855725 0.815368 0.769767 0.718946 0.662979 0.601994 0.536174 0.465763 0.391070 0.312466 0.230391 0.145353 0.057924 0.031253 0.121475 0.211976 0.301932 0.390471 0.476677 0.559598 0.638257 0.711666 0.778834 0.838782 0.890565 0.933276 0.966075 0.988200 0.998987 0.997886 0.984484 0.958515 0.919885 0.868676 0.805167 0.729841 0.643390 0.546723 0.440962 0.327439 0.207689 0.083432 0.043443 0.170901 0.296794 0.418893 0.534927 0.642624 0.739763 0.824218 0.894013 0.947374 0.982779 0.999008 0.995195 0.970864 0.925968 0.860917 0.776597 0.674376 0.556104 0.424093 0.281087 0.130220 0.025045 0.180985 0.333705 0.479230 0.613610 0.733036 0.833950 0.913165 0.967976 0.996270 0.996618 0.968358 0.911657 0.827550 0.717953 0.585651 0.434250 0.268106 0.092214 0.087926 0.266468 0.437408 0.594791 0.732917 0.846564 0.931201 0.983193 0.999974 0.980204 0.923873 0.832369 0.708490 0.556395 0.381505 0.190334 0.009719 0.210655 0.404170 0.582012 0.736332 0.860050 0.947206 0.993274 0.995435 0.952779 0.866433 0.739592 0.577460 0.387077 0.177065 0.042742 0.261732 0.469019 0.653990 0.806859 0.919217 0.984528 0.998556 0.959685 0.869109 0.730883 0.551808 0.341153 0.110229 0.128186 0.360529 0.573222 0.753475 0.890086 0.974175 0.999819 0.964525 0.869518 0.719797 0.523960 0.293776 0.043540 0.210778 0.452527 0.665471 0.834904 0.948698 0.998244 0.979169 0.891791 0.741259 0.537356 0.293943 0.028095 0.241056 0.493673 0.710681 0.875237 0.974096 0.998752 0.946261 0.819651 0.627883 0.385320 0.110750 0.174011 0.445814 0.682053 0.862583 0.971492 0.998594 0.940489 0.801062 0.591379 0.328928 0.036256 0.260888 0.535797 0.763207 0.921674 0.995678 0.977251 0.866957 0.674097 0.416066 0.116919 0.194788 0.488679 0.735503 0.910109 0.994086 0.977836 0.861807 0.656731 0.382799 0.067821 0.255517 0.552982 0.792438 0.947383 0.999984 0.943290 0.782291 0.533694 0.224363 0.111454 0.435834 0.711440 0.905870 0.995568 0.968837 0.827534 0.587211 0.275599 0.070426 0.409117 0.698850 0.903296 0.996087 0.964379 0.810831 0.553663 0.224706 0.134371 0.477229 0.758836 0.941431 0.999743 0.924675 0.724941 0.426312 0.068520 0.299881 0.628024 0.869781 0.990357 0.971490 0.814451 0.540328 0.187452 0.193759 0.547901 0.822629 0.976481 0.985337 0.846440 0.579315 0.223312 0.167967 0.534613 0.819555 0.977554 0.982582 0.832382 0.549360 0.177556 0.223981 0.590436 0.861697 0.992336 0.959459 0.767008 0.445693 0.048416 0.358241 0.705058 0.932012 0.998855 0.892526 0.630022 0.256067 0.164236 0.556546 0.850412 0.992049 0.954458 0.742902 0.394615 0.027400 0.445525 0.781717 0.972184 0.979700 0.801255 0.469324 0.046339 0.386762 0.745902 0.960269 0.986493 0.817792 0.486066 0.056266 0.385996 0.751401 0.964982 0.981802 0.796767 0.446479 0.002423 0.443307 0.796987 0.983084 0.960663 0.732827 0.346889 0.115014 0.553111
1.000000 1.000000 1.000000 1.000000 1.000000 1.000000 1.000000 1.000000 1.000000 1.000000 1.000000 1.000000 1.000000 1.000000 1.000000 1.000000 1.000000 1.000000 1.000000 1.000000 1.000000 1.000000 1.000000 1.000000 1.000000 1.000000 1.000000 1.000000 1.000000 1.000000 1.000000 1.000000 1.000000 1.000000 1.000000 1.000000 1.000000 1.000000 1.000000 1.000000 1.000000 1.000000 1.000000 1.000000 1.000000 1.000000 1.000000 1.000000 1.000000 1.000000 1.000000 1.000000 0.943688 0.943688 0.943688 0.943688 0.943688 0.943688 0.943688 0.943688 0.943688 0.943688 0.943688 0.943688 0.943688 0.943688 0.943688 0.943688 0.943688 0.943688 0.943688 0.943688 0.943688 0.943688 0.943688 0.943688 0.943688 0.943688 0.943688 0.943688 0.943688 0.943688 0.943688 0.943688 0.943688 0.924943 0.926378 0.929294 0.930348 0.930314 0.929867 0.929552 0.929755 0.931442 0.933725 0.950378 0.952485 0.953132 0.954431 0.954881 0.957851 0.956763 0.959733 0.968665 0.967668 0.967955 0.968395 0.969864 0.970239 0.970219 0.969014 0.969289 0.968913 0.968113 0.967298 0.967012 0.966727 0.968333 0.968648 0.968582 0.968989 0.968759 0.968439 0.964833 0.963501 0.964794 0.966495 0.966145 0.972358 0.972656 0.979983 0.979829 0.978297 0.978196 0.978294 0.978416 0.968729 0.963746 0.958946 0.947746 0.938844 0.936031 0.938230 0.939008 0.937717 0.932820 0.931982 0.930094 0.925730 0.925007 0.924366 0.925734 0.920514 0.916615 0.899150 0.897421 0.899811 0.899846 0.897917 0.890152 0.885294 0.885940 0.888947 0.891988 0.889252 0.891688 0.887683 0.888978 0.889833 0.891564 0.894769 0.891646 0.889937 0.885509 0.882144 0.876654 0.878036 0.866574 0.869799 0.862299 0.849761 0.842203 0.845614 0.855319 0.864159 0.872302 0.871179 0.871597 0.871007 0.863884 0.865002 0.854795 0.855561 0.860531 0.866552 0.863274 0.861102 0.866101 0.864131 0.866778 0.869434 0.866678 0.864608 0.855251 0.856008 0.856191 0.873027 0.872624 0.861245 0.852763 0.843441 0.850514 0.854475 0.853842 0.855112 0.847800 0.850005 0.840858 0.826669 0.829772 0.835130 0.829335 0.829973 0.828913 0.833506 0.835865 0.835182 0.830843 0.829505 0.834608 0.808045 0.816439 0.820456 0.814962 0.818991 0.813270 0.805853 0.800533 0.799088 0.799823 0.809715 0.806603 0.775872 0.771887 0.779809 0.760526 0.750607 0.748345 0.749707 0.738449 0.722251 0.690930 0.683508 0.664690 0.667693 0.660787 0.640042 0.627791 0.613817 0.601102 0.613774 0.615979 0.584103 0.584630 0.575002 0.569911 0.565545 0.561075 0.557445 0.564344 0.570774 0.535060 0.530085 0.539800 0.512434 0.511138 0.510823 0.503228 0.477257 0.485249 0.483451 0.507314 0.532417 0.494784 0.488360 0.504973 0.521989 0.534382 0.535348 0.519348 0.494836 0.504709 0.477427 0.461709 0.475106 0.477695 0.458825 0.477444 0.474830 0.510804 0.503120 0.475009 0.497428 0.511187 0.514803 0.523132 0.537627 0.524260 0.527748 0.517269 0.467365 0.488180 0.476843 0.429359 0.435334 0.452883 0.443701 0.445548 0.420168 0.419711 0.395794 0.364390 0.366383 0.359558 0.324203 0.288325 0.292105 0.294574 0.262317 0.229347 0.251705 0.201425 0.191489 0.208260 0.215206 0.206031 0.206759 0.230377 0.230377 0.230377 0.230377 0.230377 0.230377 0.230377 0.230377 0.230377 0.230377 0.230377 0.230377 0.230377 0.230377 0.256409 0.256409 0.256409 0.256409 0.256409 0.256409 0.256409 0.256409 0.256409 0.256409 0.256409 0.256409
0.000000 0.000000 0.000000 0.000000 0.000000 0.000000 0.000000 0.000000 0.000000 0.000000 0.000000 0.000000 0.000000 0.000000 0.000000 0.000000 0.000000 0.000000 0.000000 0.000000 0.000000 0.000000 0.000000 0.000000 0.000000 0.000000 0.000000 0.000000 0.000000 0.000000 0.000000 0.000000 0.000000 0.000000 0.000000 0.000000 0.000000 0.000000 0.000000 0.000000 0.000000 0.000000 0.000000 0.000000 0.000000 0.000000 0.000000 0.000000 0.000000 0.000000 0.000000 0.000000 0.209657 0.209657 0.209657 0.209657 0.209657 0.209657 0.209657 0.209657 0.209657 0.209657 0.209657 0.209657 0.209657 0.209657 0.209657 0.209657 0.209657 0.209657 0.209657 0.209657 0.209657 0.209657 0.209657 0.209657 0.209657 0.209657 0.209657 0.209657 0.209657 0.209657 0.209657 0.209657 0.209657 0.244339 0.244339 0.244339 0.244339 0.244339 0.244339 0.244339 0.244339 0.244339 0.244339 0.244339 0.244339 0.244339 0.244339 0.244339 0.244339 0.244339 0.244339 0.244339 0.244339 0.244339 0.244339 0.244339 0.244339 0.244339 0.260378 0.260378 0.260378 0.260378 0.260378 0.260378 0.260378 0.260378 0.260378 0.260378 0.260378 0.260378 0.260378 0.260378 0.260378 0.260378 0.260378 0.260378 0.260378 0.260378 0.269680 0.269680 0.269680 0.269680 0.269680 0.269680 0.269680 0.269680 0.269680 0.269680 0.269680 0.269680 0.269680 0.269680 0.269680 0.269680 0.269680 0.269680 0.269680 0.269680 0.269680 0.269680 0.269680 0.269680 0.269680 0.269680 0.269680 0.269680 0.269680 0.269680 0.269680 0.269680 0.269680 0.280056 0.280056 0.280056 0.280056 0.280056 0.280056 0.280056 0.280056 0.280056 0.280056 0.280056 0.280056 0.280056 0.280056 0.280056 0.280056 0.280056 0.280056 0.280056 0.280056 0.280056 0.280056 0.280056 0.280056 0.280056 0.280056 0.280056 0.274721 0.274721 0.274721 0.274721 0.274721 0.274721 0.274721 0.274721 0.274721 0.274721 0.274721 0.274721 0.274721 0.285714 0.285714 0.285714 0.285714 0.285714 0.285714 0.285714 0.285714 0.285714 0.285714 0.285714 0.280056 0.280056 0.280056 0.280056 0.280056 0.280056 0.280056 0.280056 0.280056 0.280056 0.280056 0.274721 0.274721 0.274721 0.274721 0.274721 0.274721 0.274721 0.274721 0.274721 0.274721 0.274721 0.280056 0.280056 0.280056 0.280056 0.280056 0.280056 0.280056 0.280056 0.280056 0.280056 0.285714 0.285714 0.285714 0.285714 0.285714 0.285714 0.285714 0.285714 0.285714 0.269680 0.269680 0.269680 0.269680 0.269680 0.269680 0.269680 0.269680 0.269680 0.269680 0.274721 0.274721 0.274721 0.274721 0.274721 0.274721 0.274721 0.274721 0.274721 0.285714 0.285714 0.285714 0.285714 0.285714 0.285714 0.285714 0.285714 0.264906 0.264906 0.264906 0.264906 0.264906 0.264906 0.264906 0.264906 0.264906 0.274721 0.274721 0.274721 0.274721 0.274721 0.274721 0.274721 0.274721 0.269680 0.269680 0.269680 0.269680 0.269680 0.269680 0.269680 0.269680 0.269680 0.269680 0.269680 0.269680 0.269680 0.269680 0.269680 0.269680 0.280056 0.280056 0.280056 0.280056 0.280056 0.280056 0.280056 0.260378 0.260378 0.260378 0.260378 0.260378 0.260378 0.260378 0.260378 0.269680 0.269680 0.269680 0.269680 0.269680 0.269680 0.269680 0.264906 0.264906 0.264906 0.264906 0.264906 0.264906 0.264906 0.264906 0.264906 0.264906 0.264906 0.264906 0.264906 0.264906 0.260378 0.260378 0.260378 0.260378 0.260378 0.260378 0.260378 0.260378 0.260378 0.260378 0.260378 0.260378
