# Output from CTFFind version 4.1.9, run on 2019-11-03 20:05:25
# Input file: stack11_bm3d_averaged_1_10_0_750_half.mrc ; Number of micrographs: 1
# Pixel size: 3.000 Angstroms ; acceleration voltage: 300.0 keV ; spherical aberration: 0.00 mm ; amplitude contrast: 0.07
# Box size: 512 pixels ; min. res.: 30.0 Angstroms ; max. res.: 5.0 Angstroms ; min. def.: 5000.0 um; max. def. 50000.0 um; num. frames averaged: 1
# 6 lines per micrograph: #1 - spatial frequency (1/Angstroms); #2 - 1D rotational average of spectrum (assuming no astigmatism); #3 - 1D rotational average of spectrum; #4 - CTF fit; #5 - cross-correlation between spectrum and CTF fit; #6 - 2sigma of expected cross correlation of noise
0.000000 0.000651 0.001302 0.001953 0.002604 0.003255 0.003906 0.004557 0.005208 0.005859 0.006510 0.007161 0.007812 0.008464 0.009115 0.009766 0.010417 0.011068 0.011719 0.012370 0.013021 0.013672 0.014323 0.014974 0.015625 0.016276 0.016927 0.017578 0.018229 0.018880 0.019531 0.020182 0.020833 0.021484 0.022135 0.022786 0.023438 0.024089 0.024740 0.025391 0.026042 0.026693 0.027344 0.027995 0.028646 0.029297 0.029948 0.030599 0.031250 0.031901 0.032552 0.033203 0.033854 0.034505 0.035156 0.035807 0.036458 0.037109 0.037760 0.038411 0.039062 0.039714 0.040365 0.041016 0.041667 0.042318 0.042969 0.043620 0.044271 0.044922 0.045573 0.046224 0.046875 0.047526 0.048177 0.048828 0.049479 0.050130 0.050781 0.051432 0.052083 0.052734 0.053385 0.054036 0.054688 0.055339 0.055990 0.056641 0.057292 0.057943 0.058594 0.059245 0.059896 0.060547 0.061198 0.061849 0.062500 0.063151 0.063802 0.064453 0.065104 0.065755 0.066406 0.067057 0.067708 0.068359 0.069010 0.069661 0.070312 0.070964 0.071615 0.072266 0.072917 0.073568 0.074219 0.074870 0.075521 0.076172 0.076823 0.077474 0.078125 0.078776 0.079427 0.080078 0.080729 0.081380 0.082031 0.082682 0.083333 0.083984 0.084635 0.085286 0.085938 0.086589 0.087240 0.087891 0.088542 0.089193 0.089844 0.090495 0.091146 0.091797 0.092448 0.093099 0.093750 0.094401 0.095052 0.095703 0.096354 0.097005 0.097656 0.098307 0.098958 0.099609 0.100260 0.100911 0.101562 0.102214 0.102865 0.103516 0.104167 0.104818 0.105469 0.106120 0.106771 0.107422 0.108073 0.108724 0.109375 0.110026 0.110677 0.111328 0.111979 0.112630 0.113281 0.113932 0.114583 0.115234 0.115885 0.116536 0.117188 0.117839 0.118490 0.119141 0.119792 0.120443 0.121094 0.121745 0.122396 0.123047 0.123698 0.124349 0.125000 0.125651 0.126302 0.126953 0.127604 0.128255 0.128906 0.129557 0.130208 0.130859 0.131510 0.132161 0.132812 0.133464 0.134115 0.134766 0.135417 0.136068 0.136719 0.137370 0.138021 0.138672 0.139323 0.139974 0.140625 0.141276 0.141927 0.142578 0.143229 0.143880 0.144531 0.145182 0.145833 0.146484 0.147135 0.147786 0.148438 0.149089 0.149740 0.150391 0.151042 0.151693 0.152344 0.152995 0.153646 0.154297 0.154948 0.155599 0.156250 0.156901 0.157552 0.158203 0.158854 0.159505 0.160156 0.160807 0.161458 0.162109 0.162760 0.163411 0.164062 0.164714 0.165365 0.166016 0.166667 0.167318 0.167969 0.168620 0.169271 0.169922 0.170573 0.171224 0.171875 0.172526 0.173177 0.173828 0.174479 0.175130 0.175781 0.176432 0.177083 0.177734 0.178385 0.179036 0.179688 0.180339 0.180990 0.181641 0.182292 0.182943 0.183594 0.184245 0.184896 0.185547 0.186198 0.186849 0.187500 0.188151 0.188802 0.189453 0.190104 0.190755 0.191406 0.192057 0.192708 0.193359 0.194010 0.194661 0.195312 0.195964 0.196615 0.197266 0.197917 0.198568 0.199219 0.199870 0.200521 0.201172 0.201823 0.202474 0.203125 0.203776 0.204427 0.205078 0.205729 0.206380 0.207031 0.207682 0.208333 0.208984 0.209635 0.210286 0.210938 0.211589 0.212240 0.212891 0.213542 0.214193 0.214844 0.215495 0.216146 0.216797 0.217448 0.218099 0.218750 0.219401 0.220052 0.220703 0.221354 0.222005 0.222656 0.223307 0.223958 0.224609 0.225260 0.225911 0.226562 0.227214 0.227865 0.228516 0.229167 0.229818 0.230469 0.231120 0.231771 0.232422 0.233073 0.233724 0.234375 0.235026 0.235677
       0.34932        0.34932        0.34932        0.34932        0.34932        0.34932        0.34932        0.34932        0.34932        0.34932        0.34932        0.34932        0.34932        0.34932        0.34932        0.34932        0.34932        0.34932        0.34932        0.34932        0.34932        0.34932        0.34932        0.34932        0.34932        0.34932        0.34932        0.34932        0.34932        0.34932        0.34932        0.34932        0.34932        0.34932        0.34932        0.34932        0.34932        0.34932        0.34932        0.34932        0.34932        0.34932        0.34932        0.34932        0.34932        0.34932        0.34932        0.34932        0.34932        0.34932        0.34932        0.70149        0.85798        0.54068        0.10659       -0.02790       -0.37921       -0.17743       -0.28756       -0.11652       -0.05303       -0.11259       -0.05225       -0.16033       -0.20192       -0.20950       -0.30312       -0.31393       -0.43860       -0.35992       -0.42005       -0.41613       -0.38877       -0.39812       -0.43754       -0.50040       -0.55476       -0.54153       -0.51465       -0.35011       -0.31787       -0.28417       -0.26400       -0.18153       -0.16468        0.06561        0.14869        0.18308        0.27171        0.38222        0.45959        0.52546        0.60669        0.60391        0.58894        0.70352        0.80123        0.70177        0.74723        0.61750        0.56998        0.48681        0.43820        0.51432        0.40220        0.28176        0.12255        0.12182        0.10392       -0.00425        0.05715        0.06108        0.02121        0.03164        0.04039        0.23702        0.27373        0.29830        0.43884        0.45665        0.41791        0.60756        0.61540        0.62875        0.72101        0.67553        0.64849        0.65348        0.56059        0.45909        0.42030        0.30901        0.28103        0.19226        0.14099        0.05393        0.07420        0.08725        0.10491        0.16753        0.25201        0.30679        0.43371        0.46850        0.48305        0.56136        0.60198        0.63797        0.61136        0.55553        0.46615        0.47409        0.37956        0.28520        0.21858        0.15807        0.17951        0.15795        0.17306        0.20360        0.33107        0.34656        0.41555        0.45332        0.42495        0.47800        0.56603        0.55876        0.50897        0.45932        0.41842        0.38014        0.34940        0.31759        0.27550        0.25268        0.26732        0.26303        0.23130        0.31559        0.37087        0.38570        0.44144        0.45678        0.46628        0.43195        0.41743        0.40490        0.36867        0.34952        0.27854        0.29056        0.27504        0.25712        0.30396        0.30088        0.35796        0.39146        0.44364        0.47808        0.40735        0.42372        0.43341        0.41633        0.35445        0.33521        0.29446        0.33414        0.28322        0.33167        0.32270        0.34065        0.34874        0.37084        0.31125        0.38710        0.41297        0.38472        0.35572        0.37051        0.32335        0.30157        0.31489        0.32091        0.31126        0.32328        0.35271        0.36587        0.34557        0.36421        0.36198        0.43247        0.39798        0.34547        0.35385        0.30317        0.30206        0.33230        0.32397        0.33432        0.34866        0.35115        0.39354        0.33393        0.33352        0.34093        0.35667        0.30571        0.31497        0.28769        0.30534        0.33857        0.30563        0.33839        0.36581        0.38043        0.30549        0.35331        0.30515        0.29200        0.28200        0.25307        0.31585        0.31508        0.34493        0.34244        0.35167        0.33240        0.35179        0.32138        0.34799        0.30474        0.33243        0.30210        0.34322        0.34326        0.38418        0.34026        0.33918        0.33612        0.29679        0.28222        0.31852        0.25707        0.23664        0.34046        0.32896        0.37466        0.35220        0.36950        0.34354        0.33549        0.35910        0.27247        0.27913        0.32429        0.30178        0.31471        0.31174        0.34191        0.33001        0.28971        0.29708        0.34682        0.32615        0.33120        0.31203        0.32109        0.33802        0.38932        0.37262        0.32919        0.29063        0.30680        0.29392        0.31748        0.28736        0.28111        0.31281        0.32539        0.34881        0.35851        0.33761        0.30211        0.30675        0.27878        0.28748        0.26049        0.30600        0.25640        0.25858        0.28244        0.27538        0.25828        0.29327        0.22837        0.22929        0.23463        0.20053        0.28257        0.35944        0.25976        0.25793        0.32073        0.29631        0.30590        0.31743        0.28399        0.26416        0.20037        0.21380        0.22751        0.30920        0.23909        0.28193        0.37397        0.39422        0.27079        0.21325        0.16565       -0.01316       -0.16869       -0.63886
2.722228 2.693309 2.664548 2.635945 2.607499 2.579210 2.551079 2.523105 2.495289 2.467631 2.440129 2.412786 2.385599 2.358571 2.331699 2.304986 2.278429 2.252031 2.225789 2.199705 2.173779 2.148010 2.122399 2.096945 2.071648 2.046509 2.021528 1.996704 1.972037 1.947528 1.923176 1.898982 1.874946 1.851067 1.827345 1.803781 1.780374 1.757125 1.734033 1.711099 1.688322 1.665703 1.643241 1.620937 1.598790 1.576800 1.554968 1.533294 1.511777 1.490417 1.469216 1.679119 2.092869 1.663121 1.152695 1.018423 0.442399 0.820818 0.538823 0.813610 0.790219 0.789546 0.728463 0.734577 0.577956 0.542452 0.484305 0.410715 0.242285 0.346398 0.191098 0.318864 0.207026 0.205894 0.180807 0.040205 -0.004392 0.017638 -0.068833 0.128956 0.225933 0.182857 0.175699 0.310349 0.175942 0.506126 0.605306 0.620719 0.635748 0.846989 0.808701 0.913158 0.917104 1.008238 0.981727 1.044425 1.155191 1.008945 1.135035 0.879827 0.899101 0.773230 0.636179 0.786666 0.670128 0.488236 0.324735 0.243784 0.265388 0.146193 0.140383 0.164038 0.107931 0.109957 0.084694 0.237562 0.332653 0.327648 0.462925 0.526180 0.401932 0.577824 0.710633 0.610392 0.698292 0.681445 0.695981 0.620073 0.575218 0.465844 0.349984 0.269066 0.213880 0.095246 0.111363 -0.121836 -0.048897 -0.060857 -0.084311 -0.016233 0.122761 0.070422 0.239320 0.298391 0.325044 0.354378 0.474453 0.432760 0.466657 0.467847 0.292430 0.280770 0.274200 0.081581 0.045035 -0.082546 -0.019094 -0.062066 -0.095710 -0.058472 0.040008 0.093242 0.123699 0.222413 0.211504 0.211816 0.299905 0.325042 0.434427 0.244100 0.223504 0.221410 0.138014 0.141678 0.119075 -0.003851 0.014818 0.080939 -0.013771 0.040856 0.129865 0.129075 0.201674 0.225385 0.237629 0.156389 0.203568 0.124914 0.111459 0.118132 0.021639 -0.026493 -0.001958 -0.021322 -0.048085 0.054613 0.000256 0.104421 0.134305 0.190583 0.145381 0.117692 0.132484 0.149366 0.104436 0.030125 -0.027190 0.020762 0.032395 -0.046447 0.042520 0.016199 0.045710 0.038892 0.051150 0.011638 0.121414 0.107968 0.042571 0.031186 0.037603 0.002090 -0.028468 0.006224 -0.001759 -0.007856 -0.001792 0.062151 0.052345 0.035654 0.063396 0.059285 0.165861 0.064300 0.041822 0.043110 -0.035036 0.015318 0.048568 0.007297 0.030479 0.056017 0.074130 0.066121 0.040343 0.007563 0.077337 0.033080 0.014832 0.026806 -0.003318 0.029003 0.029011 0.018107 0.071296 0.077021 0.081072 0.041957 0.057123 0.017140 0.015290 -0.028854 -0.022250 0.040016 0.051448 0.074832 0.074677 0.064022 0.067548 0.088905 0.037823 0.078092 0.046055 0.046747 0.014813 0.103130 0.064309 0.128231 0.062824 0.059343 0.076600 0.021315 0.001507 0.080054 -0.037876 -0.034542 0.077729 0.040396 0.150983 0.089326 0.074347 0.063918 0.016037 0.078458 -0.020809 -0.023566 0.037358 0.020893 0.023577 0.001966 0.103144 0.013441 -0.019848 0.046343 0.028966 0.049193 0.051305 -0.002809 0.041565 0.038358 0.100062 0.064918 0.030157 -0.028735 -0.038592 -0.003516 0.014269 -0.056325 -0.016058 -0.006578 0.020609 0.024681 0.062814 0.003975 -0.030016 -0.022372 -0.015869 -0.055792 -0.042950 -0.044553 -0.126138 -0.087500 -0.073663 -0.108664 -0.116475 -0.036525 -0.148538 -0.089131 -0.123539 -0.199533 -0.069248 0.062145 -0.079670 -0.121223 0.045016 0.004222 -0.036721 0.060780 -0.024430 -0.002969 -0.078057 -0.048396 0.057264 0.146320 0.043063 0.121471 0.148206 0.502593 0.305425 0.361348 0.200232 -0.017130 -0.695086
0.072396 0.072899 0.074409 0.076924 0.080445 0.084970 0.090498 0.097028 0.104557 0.113083 0.122602 0.133110 0.144601 0.157070 0.170508 0.184906 0.200253 0.216536 0.233741 0.251849 0.270841 0.290694 0.311382 0.332874 0.355138 0.378137 0.401830 0.426169 0.451104 0.476579 0.502533 0.528898 0.555602 0.582564 0.609701 0.636919 0.664120 0.691198 0.718041 0.744531 0.770541 0.795938 0.820583 0.844330 0.867029 0.888520 0.908642 0.927228 0.944105 0.959101 0.972037 0.982736 0.991020 0.996710 0.999631 0.999613 0.996488 0.990098 0.980292 0.966930 0.949885 0.929044 0.904311 0.875611 0.842887 0.806106 0.765263 0.720380 0.671506 0.618726 0.562158 0.501953 0.438303 0.371435 0.301619 0.229162 0.154414 0.077765 0.000357 0.079483 0.159106 0.238686 0.317649 0.395392 0.471287 0.544685 0.614921 0.681322 0.743212 0.799918 0.850779 0.895158 0.932441 0.962058 0.983483 0.996248 0.999953 0.994272 0.978966 0.953890 0.919002 0.874368 0.820174 0.756725 0.684454 0.603920 0.515813 0.420951 0.320277 0.214853 0.105854 0.005447 0.117681 0.229409 0.339134 0.445320 0.546413 0.640868 0.727170 0.803862 0.869575 0.923048 0.963163 0.988970 0.999711 0.994845 0.974072 0.937348 0.884904 0.817252 0.735196 0.639830 0.532531 0.414953 0.289002 0.156819 0.020743 0.116722 0.252953 0.385254 0.510910 0.627247 0.731686 0.821809 0.895421 0.950606 0.985787 0.999780 0.991837 0.961688 0.909569 0.836238 0.742983 0.631618 0.504455 0.364276 0.214275 0.058003 0.100718 0.257874 0.409369 0.551126 0.679200 0.789896 0.879884 0.946304 0.986875 0.999983 0.984758 0.941128 0.869861 0.772570 0.651704 0.510503 0.352931 0.183578 0.007539 0.169730 0.342578 0.505337 0.652512 0.778973 0.880145 0.952187 0.992157 0.998149 0.969400 0.906361 0.810728 0.685428 0.534554 0.363253 0.177581 0.015712 0.209399 0.396057 0.568340 0.719277 0.842575 0.932884 0.986062 0.999382 0.971698 0.903552 0.797203 0.656598 0.487254 0.296070 0.091076 0.118900 0.324587 0.516688 0.686300 0.825343 0.926964 0.985901 0.998784 0.964359 0.883623 0.759842 0.598468 0.406934 0.194347 0.028914 0.251701 0.462637 0.650699 0.805815 0.919422 0.984965 0.998321 0.958091 0.865762 0.725713 0.545059 0.333338 0.102035 0.136002 0.367268 0.578367 0.756792 0.891689 0.974559 0.999826 0.965265 0.872231 0.725684 0.533979 0.308450 0.062776 0.187815 0.427478 0.640749 0.813565 0.934214 0.994179 0.988792 0.917647 0.784749 0.598361 0.370558 0.116493 0.146579 0.400423 0.627127 0.810351 0.936548 0.996021 0.983722 0.899747 0.749466 0.543256 0.295862 0.025392 0.247962 0.503424 0.721209 0.884091 0.978808 0.997206 0.937019 0.802194 0.602730 0.354019 0.075732 0.209699 0.478854 0.709253 0.881266 0.979837 0.995866 0.927140 0.778690 0.562521 0.296741 0.004117 0.289835 0.559045 0.779220 0.930076 0.997265 0.973839 0.861048 0.668428 0.413095 0.118321 0.188528 0.478488 0.723743 0.900318 0.990493 0.984673 0.882511 0.693152 0.434532 0.131793 0.185100 0.484277 0.735160 0.911651 0.994891 0.975400 0.854258 0.643230 0.363745 0.044835 0.279805 0.575356 0.809617 0.956562 0.999328 0.932278 0.761850 0.506101 0.192928 0.142889 0.463473 0.732134 0.917601 0.997740 0.962335 0.814512 0.570654 0.258729 0.084796 0.419153 0.704085 0.904738 0.996007 0.965807 0.816822 0.566467 0.245017 0.107939 0.448282 0.732881 0.925086 0.999556 0.945745 0.769552 0.492876 0.151050 0.211521
1.000000 1.000000 1.000000 1.000000 1.000000 1.000000 1.000000 1.000000 1.000000 1.000000 1.000000 1.000000 1.000000 1.000000 1.000000 1.000000 1.000000 1.000000 1.000000 1.000000 1.000000 1.000000 1.000000 1.000000 1.000000 1.000000 1.000000 1.000000 1.000000 1.000000 1.000000 1.000000 1.000000 1.000000 1.000000 1.000000 1.000000 1.000000 1.000000 1.000000 1.000000 1.000000 1.000000 1.000000 1.000000 1.000000 1.000000 1.000000 1.000000 1.000000 1.000000 1.000000 0.914357 0.914357 0.914357 0.911667 0.911667 0.911667 0.911667 0.911667 0.911667 0.911667 0.911667 0.911667 0.911667 0.911667 0.911667 0.911667 0.911667 0.911667 0.911667 0.911667 0.911667 0.911667 0.911667 0.911667 0.911667 0.911667 0.911667 0.911667 0.911667 0.911667 0.911667 0.911667 0.911667 0.911667 0.911667 0.911667 0.911667 0.911667 0.911667 0.911667 0.911667 0.911667 0.911667 0.911667 0.940008 0.941410 0.949802 0.949287 0.948752 0.946813 0.945530 0.945332 0.945253 0.945609 0.946345 0.947337 0.953531 0.954465 0.958846 0.961581 0.961557 0.963322 0.965324 0.964982 0.956812 0.956551 0.955092 0.954396 0.956519 0.955211 0.954029 0.954522 0.952223 0.956386 0.955984 0.954817 0.953224 0.951676 0.948153 0.947734 0.947485 0.948296 0.948385 0.949964 0.952989 0.951318 0.951430 0.948764 0.948325 0.949539 0.949198 0.950908 0.938922 0.938048 0.936395 0.936337 0.938925 0.938712 0.938608 0.939560 0.939272 0.939197 0.939215 0.933464 0.933362 0.926681 0.922102 0.921136 0.915151 0.911012 0.913787 0.916827 0.917865 0.918287 0.907926 0.905131 0.906212 0.904887 0.906177 0.907570 0.908818 0.909170 0.909105 0.904102 0.895269 0.893849 0.882781 0.885466 0.880618 0.877849 0.875126 0.867328 0.859079 0.870549 0.857642 0.811914 0.815474 0.820099 0.813114 0.809015 0.813135 0.813991 0.818935 0.813470 0.812696 0.805845 0.791025 0.789312 0.784198 0.769276 0.763172 0.753282 0.742823 0.736822 0.759751 0.753429 0.765523 0.769110 0.768447 0.764052 0.753388 0.741022 0.741726 0.742553 0.737942 0.713709 0.705920 0.705428 0.704812 0.690198 0.692316 0.681498 0.681915 0.667102 0.672773 0.678917 0.682439 0.676882 0.669379 0.660938 0.655758 0.669998 0.682355 0.672853 0.669606 0.683726 0.675164 0.670952 0.661505 0.663906 0.654558 0.655036 0.652988 0.688928 0.663621 0.653542 0.659842 0.661434 0.656577 0.654322 0.631997 0.626576 0.602041 0.619980 0.624540 0.639590 0.643777 0.649081 0.660393 0.667555 0.677919 0.683411 0.678720 0.637582 0.643713 0.663718 0.671840 0.663745 0.654499 0.644213 0.627109 0.663951 0.642545 0.604801 0.598787 0.603633 0.560347 0.543169 0.540660 0.539121 0.567970 0.568525 0.554665 0.531001 0.532885 0.529531 0.520755 0.519726 0.506445 0.510716 0.493838 0.473129 0.489293 0.496983 0.495969 0.479937 0.471175 0.483845 0.468593 0.486342 0.471169 0.458200 0.473643 0.473912 0.466128 0.392817 0.400374 0.396552 0.377675 0.337371 0.345456 0.356122 0.333709 0.259943 0.255896 0.256624 0.252324 0.224364 0.198715 0.184502 0.177678 0.156888 0.092161 0.040908 0.044756 0.048028 0.074463 0.037606 0.096174 0.168738 0.160849 0.160849 0.160849 0.160849 0.160849 0.160849 0.160849 0.160849 0.140694 0.140694 0.140694 0.140694 0.140694 0.140694 0.140694 0.140694 0.140694 0.160849 0.160849 0.160849 0.160849 0.160849 0.160849 0.160849 0.160849 0.160849 0.160849 0.160849 0.160849 0.160849 0.160849
0.000000 0.000000 0.000000 0.000000 0.000000 0.000000 0.000000 0.000000 0.000000 0.000000 0.000000 0.000000 0.000000 0.000000 0.000000 0.000000 0.000000 0.000000 0.000000 0.000000 0.000000 0.000000 0.000000 0.000000 0.000000 0.000000 0.000000 0.000000 0.000000 0.000000 0.000000 0.000000 0.000000 0.000000 0.000000 0.000000 0.000000 0.000000 0.000000 0.000000 0.000000 0.000000 0.000000 0.000000 0.000000 0.000000 0.000000 0.000000 0.000000 0.000000 0.000000 0.000000 0.180334 0.180334 0.180334 0.199007 0.199007 0.199007 0.199007 0.199007 0.199007 0.199007 0.199007 0.199007 0.199007 0.199007 0.199007 0.199007 0.199007 0.199007 0.199007 0.199007 0.199007 0.199007 0.199007 0.199007 0.199007 0.199007 0.199007 0.199007 0.199007 0.199007 0.199007 0.199007 0.199007 0.199007 0.199007 0.199007 0.199007 0.199007 0.199007 0.199007 0.199007 0.199007 0.199007 0.199007 0.225018 0.225018 0.225018 0.225018 0.225018 0.225018 0.225018 0.225018 0.225018 0.225018 0.225018 0.225018 0.225018 0.225018 0.225018 0.225018 0.225018 0.225018 0.225018 0.225018 0.225018 0.225018 0.225018 0.225018 0.225018 0.225018 0.225018 0.225018 0.225018 0.244339 0.244339 0.244339 0.244339 0.244339 0.244339 0.244339 0.244339 0.244339 0.244339 0.244339 0.244339 0.244339 0.244339 0.244339 0.244339 0.244339 0.244339 0.244339 0.244339 0.244339 0.244339 0.244339 0.256074 0.256074 0.256074 0.256074 0.256074 0.256074 0.256074 0.256074 0.256074 0.256074 0.256074 0.256074 0.256074 0.256074 0.256074 0.256074 0.256074 0.256074 0.256074 0.256074 0.256074 0.256074 0.256074 0.256074 0.256074 0.256074 0.256074 0.256074 0.256074 0.256074 0.256074 0.256074 0.256074 0.256074 0.256074 0.256074 0.256074 0.264906 0.264906 0.264906 0.264906 0.264906 0.264906 0.264906 0.264906 0.264906 0.264906 0.264906 0.264906 0.264906 0.264906 0.264906 0.264906 0.264906 0.264906 0.264906 0.264906 0.264906 0.264906 0.264906 0.264906 0.264906 0.264906 0.264906 0.264906 0.264906 0.264906 0.264906 0.264906 0.264906 0.264906 0.264906 0.264906 0.264906 0.264906 0.264906 0.264906 0.264906 0.264906 0.264906 0.264906 0.264906 0.264906 0.264906 0.264906 0.264906 0.264906 0.264906 0.264906 0.264906 0.264906 0.264906 0.264906 0.264906 0.264906 0.260378 0.260378 0.260378 0.260378 0.260378 0.260378 0.260378 0.260378 0.260378 0.260378 0.260378 0.260378 0.260378 0.264906 0.264906 0.264906 0.264906 0.264906 0.264906 0.264906 0.264906 0.264906 0.264906 0.264906 0.264906 0.269680 0.269680 0.269680 0.269680 0.269680 0.269680 0.269680 0.269680 0.269680 0.269680 0.269680 0.264906 0.264906 0.264906 0.264906 0.264906 0.264906 0.264906 0.264906 0.264906 0.264906 0.264906 0.256074 0.256074 0.256074 0.256074 0.256074 0.256074 0.256074 0.256074 0.256074 0.256074 0.256074 0.264906 0.264906 0.264906 0.264906 0.264906 0.264906 0.264906 0.264906 0.264906 0.264906 0.260378 0.260378 0.260378 0.260378 0.260378 0.260378 0.260378 0.260378 0.260378 0.260378 0.264906 0.264906 0.264906 0.264906 0.264906 0.264906 0.264906 0.264906 0.264906 0.251976 0.251976 0.251976 0.251976 0.251976 0.251976 0.251976 0.251976 0.251976 0.251976 0.256074 0.256074 0.256074 0.256074 0.256074 0.256074 0.256074 0.256074 0.256074 0.251976 0.251976 0.251976 0.251976 0.251976 0.251976 0.251976 0.251976 0.251976 0.251976 0.251976 0.251976 0.251976 0.251976
