# Output from CTFFind version 4.1.9, run on 2019-11-03 19:32:08
# Input file: stack1_bm3d_averaged_1_4.25_0_250_half.mrc ; Number of micrographs: 1
# Pixel size: 3.000 Angstroms ; acceleration voltage: 300.0 keV ; spherical aberration: 0.00 mm ; amplitude contrast: 0.07
# Box size: 512 pixels ; min. res.: 30.0 Angstroms ; max. res.: 5.0 Angstroms ; min. def.: 5000.0 um; max. def. 50000.0 um; num. frames averaged: 1
# 6 lines per micrograph: #1 - spatial frequency (1/Angstroms); #2 - 1D rotational average of spectrum (assuming no astigmatism); #3 - 1D rotational average of spectrum; #4 - CTF fit; #5 - cross-correlation between spectrum and CTF fit; #6 - 2sigma of expected cross correlation of noise
0.000000 0.000651 0.001302 0.001953 0.002604 0.003255 0.003906 0.004557 0.005208 0.005859 0.006510 0.007161 0.007812 0.008464 0.009115 0.009766 0.010417 0.011068 0.011719 0.012370 0.013021 0.013672 0.014323 0.014974 0.015625 0.016276 0.016927 0.017578 0.018229 0.018880 0.019531 0.020182 0.020833 0.021484 0.022135 0.022786 0.023438 0.024089 0.024740 0.025391 0.026042 0.026693 0.027344 0.027995 0.028646 0.029297 0.029948 0.030599 0.031250 0.031901 0.032552 0.033203 0.033854 0.034505 0.035156 0.035807 0.036458 0.037109 0.037760 0.038411 0.039062 0.039714 0.040365 0.041016 0.041667 0.042318 0.042969 0.043620 0.044271 0.044922 0.045573 0.046224 0.046875 0.047526 0.048177 0.048828 0.049479 0.050130 0.050781 0.051432 0.052083 0.052734 0.053385 0.054036 0.054688 0.055339 0.055990 0.056641 0.057292 0.057943 0.058594 0.059245 0.059896 0.060547 0.061198 0.061849 0.062500 0.063151 0.063802 0.064453 0.065104 0.065755 0.066406 0.067057 0.067708 0.068359 0.069010 0.069661 0.070312 0.070964 0.071615 0.072266 0.072917 0.073568 0.074219 0.074870 0.075521 0.076172 0.076823 0.077474 0.078125 0.078776 0.079427 0.080078 0.080729 0.081380 0.082031 0.082682 0.083333 0.083984 0.084635 0.085286 0.085938 0.086589 0.087240 0.087891 0.088542 0.089193 0.089844 0.090495 0.091146 0.091797 0.092448 0.093099 0.093750 0.094401 0.095052 0.095703 0.096354 0.097005 0.097656 0.098307 0.098958 0.099609 0.100260 0.100911 0.101562 0.102214 0.102865 0.103516 0.104167 0.104818 0.105469 0.106120 0.106771 0.107422 0.108073 0.108724 0.109375 0.110026 0.110677 0.111328 0.111979 0.112630 0.113281 0.113932 0.114583 0.115234 0.115885 0.116536 0.117188 0.117839 0.118490 0.119141 0.119792 0.120443 0.121094 0.121745 0.122396 0.123047 0.123698 0.124349 0.125000 0.125651 0.126302 0.126953 0.127604 0.128255 0.128906 0.129557 0.130208 0.130859 0.131510 0.132161 0.132812 0.133464 0.134115 0.134766 0.135417 0.136068 0.136719 0.137370 0.138021 0.138672 0.139323 0.139974 0.140625 0.141276 0.141927 0.142578 0.143229 0.143880 0.144531 0.145182 0.145833 0.146484 0.147135 0.147786 0.148438 0.149089 0.149740 0.150391 0.151042 0.151693 0.152344 0.152995 0.153646 0.154297 0.154948 0.155599 0.156250 0.156901 0.157552 0.158203 0.158854 0.159505 0.160156 0.160807 0.161458 0.162109 0.162760 0.163411 0.164062 0.164714 0.165365 0.166016 0.166667 0.167318 0.167969 0.168620 0.169271 0.169922 0.170573 0.171224 0.171875 0.172526 0.173177 0.173828 0.174479 0.175130 0.175781 0.176432 0.177083 0.177734 0.178385 0.179036 0.179688 0.180339 0.180990 0.181641 0.182292 0.182943 0.183594 0.184245 0.184896 0.185547 0.186198 0.186849 0.187500 0.188151 0.188802 0.189453 0.190104 0.190755 0.191406 0.192057 0.192708 0.193359 0.194010 0.194661 0.195312 0.195964 0.196615 0.197266 0.197917 0.198568 0.199219 0.199870 0.200521 0.201172 0.201823 0.202474 0.203125 0.203776 0.204427 0.205078 0.205729 0.206380 0.207031 0.207682 0.208333 0.208984 0.209635 0.210286 0.210938 0.211589 0.212240 0.212891 0.213542 0.214193 0.214844 0.215495 0.216146 0.216797 0.217448 0.218099 0.218750 0.219401 0.220052 0.220703 0.221354 0.222005 0.222656 0.223307 0.223958 0.224609 0.225260 0.225911 0.226562 0.227214 0.227865 0.228516 0.229167 0.229818 0.230469 0.231120 0.231771 0.232422 0.233073 0.233724 0.234375 0.235026 0.235677
       0.33916        0.33916        0.33916        0.33916        0.33916        0.33916        0.33916        0.33916        0.33916        0.33916        0.33916        0.33916        0.33916        0.33916        0.33916        0.33916        0.33916        0.33916        0.33916        0.33916        0.33916        0.33916        0.33916        0.33916        0.33916        0.33916        0.33916        0.33916        0.33916        0.33916        0.33916        0.33916        0.33916        0.33916        0.33916        0.33916        0.33916        0.33916        0.33916        0.33916        0.33916        0.33916        0.33916        0.33916        0.33916        0.33916        0.33916        0.33916        0.33916        0.33916        0.33916        0.45095        0.66181        0.34039        0.16780       -0.03913       -0.25412       -0.06427       -0.15559       -0.14583        0.00196       -0.12243       -0.12395       -0.05824       -0.04939       -0.13856       -0.16626       -0.31367       -0.46619       -0.55076       -0.51531       -0.42452       -0.32419       -0.49078       -0.38175       -0.49958       -0.40990       -0.44566       -0.30097       -0.28500       -0.28785       -0.17461       -0.11316       -0.08671        0.05188        0.01650        0.18240        0.16657        0.31157        0.37935        0.49574        0.51923        0.55583        0.58717        0.71174        0.61426        0.59559        0.52790        0.52214        0.59675        0.49177        0.46544        0.39508        0.30548        0.27316        0.28063        0.25543        0.14114        0.13596        0.01564        0.08007        0.07545        0.05370        0.08712        0.11943        0.20768        0.29262        0.27686        0.32458        0.47611        0.48903        0.50502        0.63251        0.62718        0.58393        0.60216        0.59635        0.46811        0.48104        0.38716        0.34271        0.27932        0.21425        0.19159        0.17126        0.12607        0.18031        0.20283        0.22637        0.23809        0.32538        0.36637        0.38808        0.47412        0.51603        0.51504        0.48603        0.57725        0.49277        0.48676        0.48167        0.38222        0.31829        0.27443        0.27962        0.20105        0.22400        0.21859        0.21142        0.21774        0.29758        0.36340        0.40802        0.43707        0.44238        0.48010        0.44343        0.47235        0.40658        0.38335        0.34856        0.36954        0.35585        0.34853        0.25405        0.29751        0.25903        0.26457        0.28167        0.34942        0.37790        0.40600        0.42825        0.45263        0.42959        0.41498        0.45384        0.37667        0.34425        0.35082        0.30698        0.33802        0.27618        0.31497        0.30939        0.32274        0.35620        0.38426        0.40085        0.42416        0.38624        0.39652        0.36936        0.39144        0.29895        0.30742        0.28944        0.24029        0.31620        0.31141        0.33239        0.35189        0.36004        0.36792        0.36606        0.44253        0.37999        0.36011        0.34281        0.29995        0.28807        0.30944        0.31187        0.34236        0.32490        0.33994        0.32773        0.38818        0.35915        0.36701        0.38200        0.37299        0.33644        0.31471        0.33437        0.31231        0.34040        0.30783        0.35450        0.35422        0.33596        0.32041        0.34830        0.32342        0.28466        0.28260        0.28571        0.31719        0.32103        0.34512        0.31863        0.31611        0.32809        0.32220        0.29925        0.28298        0.32043        0.33196        0.31113        0.29819        0.31709        0.31932        0.33885        0.31552        0.33997        0.35256        0.33225        0.33205        0.29283        0.24908        0.29005        0.33435        0.32888        0.29910        0.35142        0.31407        0.28658        0.32444        0.33477        0.31343        0.30719        0.26469        0.31524        0.34725        0.35423        0.29036        0.28947        0.28955        0.26215        0.25948        0.31595        0.30767        0.31608        0.30227        0.29541        0.28254        0.34199        0.33439        0.32997        0.30549        0.29615        0.32570        0.34389        0.38879        0.30128        0.32000        0.33073        0.34299        0.29034        0.31008        0.31087        0.24161        0.31459        0.35293        0.31937        0.33619        0.30348        0.25744        0.23697        0.28802        0.30674        0.34018        0.30983        0.26509        0.22498        0.31227        0.31904        0.28130        0.24284        0.23510        0.26701        0.25491        0.30571        0.26228        0.31331        0.31482        0.25380        0.31046        0.28218        0.18619        0.19882        0.27246        0.20870        0.23962        0.20850        0.22940        0.37687        0.26958        0.25814        0.26339        0.17619        0.27153        0.35237        0.21908        0.11630        0.22207        0.20025        0.17942        0.31516        0.14341       -0.02671       -0.47986       -0.65295
2.941505 2.909669 2.878006 2.846518 2.815205 2.784066 2.753102 2.722312 2.691697 2.661256 2.630989 2.600898 2.570980 2.541237 2.511669 2.482275 2.453056 2.424011 2.395140 2.366445 2.337923 2.309576 2.281404 2.253406 2.225583 2.197934 2.170459 2.143159 2.116034 2.089083 2.062306 2.035705 2.009277 1.983024 1.956946 1.931042 1.905312 1.879757 1.854377 1.829171 1.804140 1.779283 1.754600 1.730092 1.705759 1.681600 1.657615 1.633805 1.610170 1.586709 1.563422 1.575306 1.949765 1.489979 1.288417 0.997275 0.534007 0.966854 0.600617 0.776302 0.906358 0.696985 0.626592 0.795598 0.747648 0.620269 0.587027 0.367036 0.059999 0.009043 -0.014450 -0.031371 0.357479 -0.060646 0.065555 -0.054040 0.008334 -0.037580 0.117138 0.118607 0.108968 0.211271 0.310196 0.289417 0.470552 0.392775 0.652377 0.533864 0.787651 0.766832 0.945078 1.043532 0.969837 1.066204 1.213005 1.005469 1.047296 0.897425 0.904147 0.982137 0.833304 0.817898 0.669857 0.559744 0.499685 0.470108 0.462710 0.257271 0.280026 0.111693 0.085703 0.162441 0.063529 0.075404 0.148341 0.191278 0.342064 0.324097 0.388889 0.425689 0.622279 0.442362 0.738706 0.763709 0.589009 0.685512 0.690723 0.511064 0.420141 0.415315 0.264613 0.247062 0.063754 0.088939 -0.013092 -0.017523 -0.059640 0.015576 0.065776 0.037162 0.084628 0.219592 0.237609 0.282565 0.396331 0.387388 0.368702 0.405258 0.385257 0.331182 0.320145 0.280396 0.090793 0.068271 0.009597 -0.049875 -0.072867 -0.060924 -0.066993 -0.084109 -0.068769 0.054188 0.182738 0.199923 0.197136 0.210070 0.281150 0.189098 0.219436 0.187974 0.091242 0.071053 0.151545 0.047848 0.011313 -0.036596 0.029980 -0.070418 -0.000824 -0.003322 0.124938 0.090015 0.137826 0.218170 0.215121 0.108523 0.178194 0.164222 0.098358 0.035321 0.029547 0.047254 -0.015466 -0.015339 -0.009279 -0.001346 0.041335 0.069411 0.115255 0.130438 0.121662 0.084614 0.077363 0.117509 0.061140 -0.047102 -0.013625 -0.060722 -0.077585 0.006112 0.001140 0.058615 0.010225 0.092209 0.094017 0.120446 0.183989 0.059205 0.090390 0.068359 -0.058184 0.009350 0.030025 0.022176 0.064614 0.060979 0.039170 0.003975 0.105286 0.087882 0.100873 0.117644 0.052579 0.054034 0.039755 0.028230 0.018542 0.083081 0.012570 0.098515 0.051176 0.054002 0.030001 0.071322 0.028704 -0.039804 -0.009700 -0.006259 0.016033 0.043255 0.081674 0.035207 0.028529 0.079564 -0.016967 0.029559 0.004207 0.039000 0.045734 0.036775 0.011429 0.036903 0.028926 0.072010 0.053697 0.097915 0.083247 0.100290 0.049899 0.013190 -0.056594 0.047717 0.071483 0.078364 0.012971 0.108955 -0.010752 -0.016526 0.037345 0.043381 0.043971 -0.026017 -0.037080 0.067021 0.067878 0.053255 -0.027002 -0.027921 0.000354 -0.105241 -0.022562 -0.010709 0.045022 0.016490 0.000219 0.001245 -0.013064 0.042817 0.049973 -0.012534 0.032865 -0.029802 0.056865 0.058084 0.108345 -0.036992 -0.003190 0.092031 0.017697 -0.058926 0.001490 0.011365 -0.079645 0.027628 0.095963 0.014563 0.059091 -0.055597 0.051980 -0.041003 0.065315 -0.011655 0.160421 0.022423 0.020216 -0.017296 0.013110 0.108367 0.021058 0.063698 -0.080774 0.100725 0.006035 0.094920 0.012157 0.097633 0.147031 -0.020486 0.151552 0.068993 -0.079233 -0.018645 0.043539 -0.040503 -0.019046 0.002828 -0.006322 0.237595 0.011744 0.052179 0.045576 -0.136142 0.095179 0.338931 0.245974 0.059316 0.295185 0.314432 0.157195 0.425460 0.099696 -0.027635 -0.868114
0.072396 0.072911 0.074456 0.077030 0.080632 0.085263 0.090920 0.097601 0.105305 0.114029 0.123768 0.134519 0.146276 0.159031 0.172777 0.187504 0.203200 0.219851 0.237442 0.255953 0.275364 0.295649 0.316782 0.338730 0.361458 0.384927 0.409092 0.433904 0.459308 0.485245 0.511649 0.538449 0.565567 0.592919 0.620412 0.647951 0.675429 0.702735 0.729749 0.756345 0.782389 0.807741 0.832254 0.855773 0.878140 0.899187 0.918744 0.936636 0.952684 0.966705 0.978516 0.987932 0.994768 0.998842 0.999975 0.997992 0.992726 0.984017 0.971718 0.955690 0.935813 0.911982 0.884111 0.852137 0.816018 0.775742 0.731322 0.682804 0.630267 0.573825 0.513627 0.449863 0.382763 0.312597 0.239678 0.164361 0.087043 0.008164 0.071796 0.152317 0.232843 0.312781 0.391509 0.468380 0.542721 0.613846 0.681057 0.743654 0.800942 0.852237 0.896878 0.934234 0.963714 0.984778 0.996947 0.999812 0.993044 0.976405 0.949758 0.913073 0.866436 0.810056 0.744273 0.669555 0.586509 0.495874 0.398525 0.295465 0.187822 0.076837 0.036142 0.149681 0.262271 0.372346 0.478309 0.578554 0.671486 0.755557 0.829285 0.891291 0.940321 0.975282 0.995265 0.999576 0.987754 0.959603 0.915200 0.854915 0.779419 0.689687 0.586996 0.472915 0.349294 0.218235 0.082069 0.056685 0.195360 0.331192 0.461372 0.583107 0.693681 0.790522 0.871260 0.933804 0.976391 0.997653 0.996663 0.972983 0.926693 0.858422 0.769348 0.661204 0.536253 0.397261 0.247438 0.090384 0.069996 0.229580 0.384135 0.529431 0.661352 0.776027 0.869949 0.940087 0.984006 0.999957 0.986963 0.944881 0.874439 0.777258 0.655829 0.513477 0.354286 0.183000 0.004892 0.174391 0.348994 0.513056 0.660900 0.787244 0.887397 0.957452 0.994456 0.996550 0.963085 0.894687 0.793291 0.662106 0.505554 0.329138 0.139269 0.056946 0.251962 0.438089 0.607785 0.753978 0.870373 0.951739 0.994172 0.995305 0.954465 0.872764 0.753111 0.600150 0.420111 0.220584 0.010224 0.201603 0.405245 0.591188 0.750521 0.875370 0.959319 0.997770 0.988219 0.930461 0.826665 0.681354 0.501240 0.294968 0.072714 0.154278 0.374266 0.575606 0.747386 0.880029 0.965865 0.999603 0.978706 0.903609 0.777797 0.607693 0.402384 0.173176 0.066995 0.304273 0.524680 0.714938 0.863297 0.960286 0.999371 0.977433 0.895070 0.756665 0.570220 0.346950 0.100658 0.153089 0.397919 0.617715 0.797688 0.925405 0.991690 0.991339 0.923589 0.792292 0.605778 0.376389 0.119727 0.146367 0.403043 0.631757 0.815637 0.940762 0.997274 0.980214 0.890025 0.732664 0.519294 0.265562 0.009483 0.284787 0.538893 0.751602 0.905641 0.988092 0.991563 0.914920 0.763540 0.549042 0.288462 0.002993 0.283717 0.547490 0.765673 0.919122 0.993938 0.982814 0.885829 0.710629 0.471924 0.190349 0.109251 0.399972 0.655268 0.851386 0.969636 0.998255 0.933669 0.781029 0.553921 0.273266 0.034516 0.339953 0.613310 0.827508 0.960862 0.999360 0.938243 0.782691 0.547526 0.255924 0.062792 0.376025 0.651232 0.859321 0.977803 0.993313 0.903238 0.716234 0.451544 0.137129 0.193178 0.503282 0.758767 0.930757 0.999270 0.955661 0.803849 0.560134 0.251593 0.086820 0.416157 0.697955 0.898741 0.994117 0.971836 0.833522 0.594762 0.283513 0.063051 0.402892 0.694187 0.900507 0.995473 0.966254 0.815462 0.561133 0.234733 0.122588 0.465121 0.748419 0.935126 0.999998 0.933483 0.743287 0.453686 0.102621 0.263193 0.594386 0.845607 0.981841 0.983412
1.000000 1.000000 1.000000 1.000000 1.000000 1.000000 1.000000 1.000000 1.000000 1.000000 1.000000 1.000000 1.000000 1.000000 1.000000 1.000000 1.000000 1.000000 1.000000 1.000000 1.000000 1.000000 1.000000 1.000000 1.000000 1.000000 1.000000 1.000000 1.000000 1.000000 1.000000 1.000000 1.000000 1.000000 1.000000 1.000000 1.000000 1.000000 1.000000 1.000000 1.000000 1.000000 1.000000 1.000000 1.000000 1.000000 1.000000 1.000000 1.000000 1.000000 1.000000 1.000000 0.893114 0.893114 0.890661 0.890661 0.890661 0.890661 0.890661 0.890661 0.890661 0.890661 0.890661 0.890661 0.890661 0.890661 0.890661 0.890661 0.890661 0.890661 0.890661 0.890661 0.890661 0.890661 0.890661 0.890661 0.890661 0.890661 0.890661 0.890661 0.890661 0.890661 0.890661 0.890661 0.890661 0.890661 0.890661 0.890661 0.890661 0.890661 0.890661 0.890661 0.890661 0.890661 0.890661 0.876017 0.882999 0.887096 0.889281 0.891369 0.892997 0.891083 0.889450 0.889259 0.889712 0.891364 0.901919 0.916315 0.935171 0.946286 0.953168 0.954355 0.957651 0.957790 0.964562 0.973071 0.971952 0.971561 0.972064 0.973006 0.969280 0.969381 0.962096 0.976677 0.971305 0.971261 0.961872 0.961099 0.960369 0.960066 0.959825 0.960731 0.960640 0.961207 0.958975 0.958452 0.958084 0.956450 0.954764 0.948907 0.950582 0.952924 0.950354 0.931409 0.920552 0.923144 0.921323 0.921216 0.917948 0.918477 0.919088 0.909152 0.909746 0.909698 0.897159 0.895164 0.892870 0.891431 0.891419 0.893926 0.893849 0.893172 0.882994 0.863388 0.834239 0.813636 0.841913 0.813380 0.790265 0.771823 0.775171 0.778092 0.778547 0.775367 0.770912 0.755329 0.741979 0.745082 0.739720 0.746570 0.744135 0.743618 0.736767 0.733855 0.711042 0.690384 0.694200 0.692880 0.693168 0.692855 0.689057 0.680366 0.692433 0.688532 0.682274 0.671782 0.665970 0.655073 0.638704 0.583850 0.593436 0.609937 0.601125 0.561172 0.563268 0.587290 0.589996 0.600228 0.598580 0.593078 0.547338 0.551981 0.546329 0.543043 0.546465 0.542723 0.543838 0.554298 0.552964 0.548067 0.544095 0.526041 0.522557 0.530759 0.540662 0.569303 0.535924 0.522132 0.505530 0.484129 0.447591 0.428092 0.442504 0.452710 0.436928 0.446207 0.431221 0.436165 0.443570 0.443727 0.435723 0.448055 0.449257 0.479009 0.456671 0.449002 0.454641 0.450701 0.434492 0.386952 0.352833 0.351687 0.349244 0.371688 0.396682 0.401218 0.458799 0.451515 0.434822 0.423652 0.437948 0.414689 0.410965 0.381799 0.305375 0.301311 0.325606 0.318767 0.312085 0.257110 0.250194 0.243070 0.226980 0.204675 0.208402 0.169538 0.158272 0.127688 0.119996 0.135265 0.134238 0.129356 0.105055 0.142193 0.193930 0.193567 0.195973 0.217102 0.203403 0.211487 0.169612 0.148531 0.130614 0.104057 0.117500 0.067368 0.074189 0.043256 0.041599 0.012219 0.024256 0.027282 0.057085 0.015219 -0.013876 0.010298 0.025481 0.072768 0.060871 0.058826 0.060980 0.065571 0.045475 0.051701 0.027569 0.002442 -0.004416 -0.016248 -0.009713 -0.019195 -0.011211 -0.020728 0.011818 0.074141 0.088666 0.080007 0.067624 0.090137 0.064656 0.087512 0.083508 0.042210 0.026645 -0.026503 -0.034152 -0.034152 -0.024698 -0.024698 -0.024698 -0.024698 -0.024698 -0.024698 -0.024698 -0.024698 -0.024698 -0.009079 -0.009079 -0.009079 -0.009079 -0.009079 -0.009079 -0.009079 -0.009079 -0.023002 -0.023002 -0.023002 -0.023002 -0.023002 -0.023002 -0.023002 -0.023002 -0.023002 -0.023002
0.000000 0.000000 0.000000 0.000000 0.000000 0.000000 0.000000 0.000000 0.000000 0.000000 0.000000 0.000000 0.000000 0.000000 0.000000 0.000000 0.000000 0.000000 0.000000 0.000000 0.000000 0.000000 0.000000 0.000000 0.000000 0.000000 0.000000 0.000000 0.000000 0.000000 0.000000 0.000000 0.000000 0.000000 0.000000 0.000000 0.000000 0.000000 0.000000 0.000000 0.000000 0.000000 0.000000 0.000000 0.000000 0.000000 0.000000 0.000000 0.000000 0.000000 0.000000 0.000000 0.181818 0.181818 0.199007 0.199007 0.199007 0.199007 0.199007 0.199007 0.199007 0.199007 0.199007 0.199007 0.199007 0.199007 0.199007 0.199007 0.199007 0.199007 0.199007 0.199007 0.199007 0.199007 0.199007 0.199007 0.199007 0.199007 0.199007 0.199007 0.199007 0.199007 0.199007 0.199007 0.199007 0.199007 0.199007 0.199007 0.199007 0.199007 0.199007 0.199007 0.199007 0.199007 0.199007 0.230940 0.230940 0.230940 0.230940 0.230940 0.230940 0.230940 0.230940 0.230940 0.230940 0.230940 0.230940 0.230940 0.230940 0.230940 0.230940 0.230940 0.230940 0.230940 0.230940 0.230940 0.230940 0.230940 0.230940 0.230940 0.230940 0.230940 0.230940 0.244339 0.244339 0.244339 0.244339 0.244339 0.244339 0.244339 0.244339 0.244339 0.244339 0.244339 0.244339 0.244339 0.244339 0.244339 0.244339 0.244339 0.244339 0.244339 0.244339 0.244339 0.244339 0.244339 0.251976 0.251976 0.251976 0.251976 0.251976 0.251976 0.251976 0.251976 0.251976 0.251976 0.251976 0.251976 0.251976 0.251976 0.251976 0.251976 0.251976 0.251976 0.251976 0.251976 0.264906 0.264906 0.264906 0.264906 0.264906 0.264906 0.264906 0.264906 0.264906 0.264906 0.264906 0.264906 0.264906 0.264906 0.264906 0.264906 0.264906 0.264906 0.264906 0.264906 0.264906 0.264906 0.264906 0.264906 0.264906 0.264906 0.264906 0.264906 0.264906 0.264906 0.264906 0.264906 0.264906 0.264906 0.264906 0.264906 0.264906 0.264906 0.264906 0.264906 0.264906 0.264906 0.264906 0.264906 0.264906 0.264906 0.264906 0.264906 0.264906 0.264906 0.264906 0.264906 0.264906 0.264906 0.264906 0.264906 0.264906 0.264906 0.264906 0.264906 0.264906 0.264906 0.264906 0.264906 0.264906 0.264906 0.264906 0.264906 0.264906 0.264906 0.264906 0.264906 0.264906 0.264906 0.264906 0.269680 0.269680 0.269680 0.269680 0.269680 0.269680 0.269680 0.269680 0.269680 0.269680 0.269680 0.269680 0.264906 0.264906 0.264906 0.264906 0.264906 0.264906 0.264906 0.264906 0.264906 0.264906 0.264906 0.264906 0.269680 0.269680 0.269680 0.269680 0.269680 0.269680 0.269680 0.269680 0.269680 0.269680 0.269680 0.264906 0.264906 0.264906 0.264906 0.264906 0.264906 0.264906 0.264906 0.264906 0.264906 0.264906 0.269680 0.269680 0.269680 0.269680 0.269680 0.269680 0.269680 0.269680 0.269680 0.269680 0.264906 0.264906 0.264906 0.264906 0.264906 0.264906 0.264906 0.264906 0.264906 0.264906 0.260378 0.260378 0.260378 0.260378 0.260378 0.260378 0.260378 0.260378 0.260378 0.260378 0.256074 0.256074 0.256074 0.256074 0.256074 0.256074 0.256074 0.256074 0.256074 0.256074 0.260378 0.260378 0.260378 0.260378 0.260378 0.260378 0.260378 0.260378 0.260378 0.256074 0.256074 0.256074 0.256074 0.256074 0.256074 0.256074 0.256074 0.256074 0.269680 0.269680 0.269680 0.269680 0.269680 0.269680 0.269680 0.269680 0.248069 0.248069 0.248069 0.248069 0.248069 0.248069 0.248069 0.248069 0.248069 0.248069
