# Output from CTFFind version 4.1.9, run on 2019-11-03 19:31:46
# Input file: stack11_bm3d_averaged_1_4.25_0_50_half.mrc ; Number of micrographs: 1
# Pixel size: 3.000 Angstroms ; acceleration voltage: 300.0 keV ; spherical aberration: 0.00 mm ; amplitude contrast: 0.07
# Box size: 512 pixels ; min. res.: 30.0 Angstroms ; max. res.: 5.0 Angstroms ; min. def.: 5000.0 um; max. def. 50000.0 um; num. frames averaged: 1
# 6 lines per micrograph: #1 - spatial frequency (1/Angstroms); #2 - 1D rotational average of spectrum (assuming no astigmatism); #3 - 1D rotational average of spectrum; #4 - CTF fit; #5 - cross-correlation between spectrum and CTF fit; #6 - 2sigma of expected cross correlation of noise
0.000000 0.000651 0.001302 0.001953 0.002604 0.003255 0.003906 0.004557 0.005208 0.005859 0.006510 0.007161 0.007812 0.008464 0.009115 0.009766 0.010417 0.011068 0.011719 0.012370 0.013021 0.013672 0.014323 0.014974 0.015625 0.016276 0.016927 0.017578 0.018229 0.018880 0.019531 0.020182 0.020833 0.021484 0.022135 0.022786 0.023438 0.024089 0.024740 0.025391 0.026042 0.026693 0.027344 0.027995 0.028646 0.029297 0.029948 0.030599 0.031250 0.031901 0.032552 0.033203 0.033854 0.034505 0.035156 0.035807 0.036458 0.037109 0.037760 0.038411 0.039062 0.039714 0.040365 0.041016 0.041667 0.042318 0.042969 0.043620 0.044271 0.044922 0.045573 0.046224 0.046875 0.047526 0.048177 0.048828 0.049479 0.050130 0.050781 0.051432 0.052083 0.052734 0.053385 0.054036 0.054688 0.055339 0.055990 0.056641 0.057292 0.057943 0.058594 0.059245 0.059896 0.060547 0.061198 0.061849 0.062500 0.063151 0.063802 0.064453 0.065104 0.065755 0.066406 0.067057 0.067708 0.068359 0.069010 0.069661 0.070312 0.070964 0.071615 0.072266 0.072917 0.073568 0.074219 0.074870 0.075521 0.076172 0.076823 0.077474 0.078125 0.078776 0.079427 0.080078 0.080729 0.081380 0.082031 0.082682 0.083333 0.083984 0.084635 0.085286 0.085938 0.086589 0.087240 0.087891 0.088542 0.089193 0.089844 0.090495 0.091146 0.091797 0.092448 0.093099 0.093750 0.094401 0.095052 0.095703 0.096354 0.097005 0.097656 0.098307 0.098958 0.099609 0.100260 0.100911 0.101562 0.102214 0.102865 0.103516 0.104167 0.104818 0.105469 0.106120 0.106771 0.107422 0.108073 0.108724 0.109375 0.110026 0.110677 0.111328 0.111979 0.112630 0.113281 0.113932 0.114583 0.115234 0.115885 0.116536 0.117188 0.117839 0.118490 0.119141 0.119792 0.120443 0.121094 0.121745 0.122396 0.123047 0.123698 0.124349 0.125000 0.125651 0.126302 0.126953 0.127604 0.128255 0.128906 0.129557 0.130208 0.130859 0.131510 0.132161 0.132812 0.133464 0.134115 0.134766 0.135417 0.136068 0.136719 0.137370 0.138021 0.138672 0.139323 0.139974 0.140625 0.141276 0.141927 0.142578 0.143229 0.143880 0.144531 0.145182 0.145833 0.146484 0.147135 0.147786 0.148438 0.149089 0.149740 0.150391 0.151042 0.151693 0.152344 0.152995 0.153646 0.154297 0.154948 0.155599 0.156250 0.156901 0.157552 0.158203 0.158854 0.159505 0.160156 0.160807 0.161458 0.162109 0.162760 0.163411 0.164062 0.164714 0.165365 0.166016 0.166667 0.167318 0.167969 0.168620 0.169271 0.169922 0.170573 0.171224 0.171875 0.172526 0.173177 0.173828 0.174479 0.175130 0.175781 0.176432 0.177083 0.177734 0.178385 0.179036 0.179688 0.180339 0.180990 0.181641 0.182292 0.182943 0.183594 0.184245 0.184896 0.185547 0.186198 0.186849 0.187500 0.188151 0.188802 0.189453 0.190104 0.190755 0.191406 0.192057 0.192708 0.193359 0.194010 0.194661 0.195312 0.195964 0.196615 0.197266 0.197917 0.198568 0.199219 0.199870 0.200521 0.201172 0.201823 0.202474 0.203125 0.203776 0.204427 0.205078 0.205729 0.206380 0.207031 0.207682 0.208333 0.208984 0.209635 0.210286 0.210938 0.211589 0.212240 0.212891 0.213542 0.214193 0.214844 0.215495 0.216146 0.216797 0.217448 0.218099 0.218750 0.219401 0.220052 0.220703 0.221354 0.222005 0.222656 0.223307 0.223958 0.224609 0.225260 0.225911 0.226562 0.227214 0.227865 0.228516 0.229167 0.229818 0.230469 0.231120 0.231771 0.232422 0.233073 0.233724 0.234375 0.235026 0.235677
       0.33493        0.33493        0.33493        0.33493        0.33493        0.33493        0.33493        0.33493        0.33493        0.33493        0.33493        0.33493        0.33493        0.33493        0.33493        0.33493        0.33493        0.33493        0.33493        0.33493        0.33493        0.33493        0.33493        0.33493        0.33493        0.33493        0.33493        0.33493        0.33493        0.33493        0.33493        0.33493        0.33493        0.33493        0.33493        0.33493        0.33493        0.33493        0.33493        0.33493        0.33493        0.33493        0.33493        0.33493        0.33493        0.33493        0.33493        0.33493        0.33493        0.33493        0.33493        0.69115        0.86069        0.53303        0.10260       -0.03799       -0.40096       -0.18674       -0.29098       -0.11113       -0.05814       -0.11030       -0.05487       -0.17765       -0.21245       -0.22749       -0.31384       -0.32423       -0.45520       -0.36827       -0.43480       -0.42781       -0.40502       -0.43099       -0.47576       -0.52499       -0.56714       -0.57469       -0.54487       -0.37369       -0.34799       -0.30657       -0.28384       -0.19074       -0.18450        0.04609        0.12497        0.15386        0.25147        0.37660        0.45410        0.51892        0.58676        0.58420        0.57424        0.69473        0.80472        0.71224        0.73907        0.63142        0.56777        0.48462        0.42679        0.50799        0.39186        0.24960        0.10370        0.08913        0.06987       -0.03050        0.01718        0.03282       -0.01569        0.01793        0.01005        0.23353        0.26431        0.29302        0.43089        0.45331        0.41084        0.58063        0.62463        0.65466        0.73312        0.68205        0.64951        0.67147        0.56323        0.46920        0.41717        0.30232        0.24608        0.17098        0.12567        0.05228        0.04387        0.04684        0.08511        0.14119        0.22891        0.28102        0.40798        0.45569        0.48518        0.58540        0.61585        0.63930        0.61846        0.55929        0.45404        0.46610        0.37386        0.25888        0.20166        0.15743        0.15675        0.14414        0.13639        0.16195        0.29653        0.30608        0.38235        0.42375        0.43113        0.49840        0.55467        0.55279        0.49242        0.45307        0.40321        0.35204        0.32551        0.29028        0.23787        0.23537        0.22371        0.23655        0.21403        0.30050        0.36045        0.38341        0.44056        0.45155        0.46990        0.42144        0.39799        0.40350        0.36213        0.30726        0.26921        0.25398        0.25413        0.22082        0.27206        0.27002        0.33961        0.37552        0.40827        0.47618        0.41847        0.42941        0.43380        0.40669        0.34303        0.31895        0.29186        0.30614        0.26627        0.30596        0.29972        0.31753        0.32749        0.34989        0.31988        0.39931        0.41713        0.38069        0.34486        0.37101        0.30513        0.28971        0.28751        0.31184        0.29637        0.30671        0.32604        0.33893        0.34161        0.36660        0.36748        0.39285        0.37403        0.32536        0.33038        0.29144        0.27719        0.32473        0.31418        0.32081        0.32873        0.32782        0.36810        0.32904        0.33045        0.32100        0.33027        0.29282        0.30360        0.27179        0.29745        0.31587        0.29927        0.32018        0.34284        0.34723        0.27912        0.31708        0.28639        0.30489        0.27755        0.24133        0.29318        0.29390        0.33838        0.33042        0.32745        0.32219        0.34022        0.30383        0.33821        0.32313        0.30059        0.27724        0.32330        0.30935        0.35298        0.32497        0.32814        0.33379        0.29073        0.27609        0.30639        0.24704        0.22301        0.32239        0.31758        0.33704        0.33013        0.34435        0.31552        0.34201        0.33903        0.26654        0.24844        0.30765        0.29352        0.30627        0.31929        0.33764        0.33730        0.30204        0.28926        0.33172        0.31257        0.29263        0.27726        0.31866        0.34749        0.39114        0.33213        0.30498        0.27976        0.30730        0.27319        0.29090        0.26784        0.24298        0.30457        0.32288        0.33314        0.33867        0.30658        0.27854        0.28995        0.26223        0.26201        0.24817        0.32112        0.28112        0.22787        0.32788        0.31826        0.25689        0.28236        0.20867        0.21724        0.25977        0.17976        0.25080        0.30844        0.23511        0.22100        0.30475        0.32170        0.32729        0.32683        0.25196        0.22426        0.16792        0.20649        0.18849        0.19965        0.19612        0.23609        0.28265        0.25682        0.21013        0.13785        0.10706       -0.01581       -0.12186       -0.62518
2.712455 2.683757 2.655215 2.626830 2.598602 2.570530 2.542615 2.514857 2.487255 2.459810 2.432522 2.405390 2.378415 2.351597 2.324935 2.298430 2.272081 2.245889 2.219854 2.193975 2.168254 2.142688 2.117280 2.092028 2.066932 2.041994 2.017212 1.992586 1.968117 1.943805 1.919650 1.895651 1.871809 1.848123 1.824594 1.801222 1.778006 1.754947 1.732045 1.709299 1.686710 1.664278 1.642002 1.619883 1.597921 1.576115 1.554466 1.532973 1.511637 1.490458 1.469435 1.683003 2.101111 1.667307 1.167130 1.030010 0.441116 0.837124 0.560820 0.845339 0.800968 0.812997 0.755944 0.738920 0.589082 0.547436 0.496015 0.432752 0.241279 0.371308 0.207352 0.327923 0.225453 0.198629 0.169496 0.034547 0.021805 0.012144 -0.066181 0.127703 0.222798 0.188681 0.171502 0.334704 0.185186 0.505900 0.612330 0.609270 0.625143 0.869075 0.825330 0.935974 0.913765 1.010568 0.972799 1.069450 1.154979 1.042375 1.143078 0.911900 0.922974 0.788050 0.652535 0.791466 0.697709 0.478557 0.325584 0.248393 0.255825 0.148075 0.119685 0.155395 0.098957 0.133480 0.070261 0.256042 0.359514 0.342464 0.475500 0.549943 0.424809 0.579861 0.717008 0.679051 0.741669 0.703384 0.720602 0.661764 0.598292 0.512225 0.381218 0.279576 0.223674 0.083435 0.116863 -0.083766 -0.045214 -0.063834 -0.070922 -0.028413 0.139538 0.064068 0.246583 0.303615 0.339187 0.406882 0.503934 0.485656 0.482606 0.492147 0.306589 0.292358 0.280237 0.087720 0.044273 -0.057641 -0.014722 -0.056426 -0.087919 -0.087257 0.032082 0.078349 0.113668 0.201692 0.229179 0.251364 0.300847 0.426269 0.391093 0.265940 0.240882 0.212051 0.154419 0.136502 0.110197 0.001461 0.020670 0.056756 -0.007514 0.063990 0.147117 0.142832 0.233883 0.247818 0.283226 0.179743 0.215085 0.139758 0.176395 0.113394 0.048302 -0.009534 0.010208 -0.006735 -0.047047 0.054811 0.017316 0.128860 0.147649 0.184941 0.201682 0.155317 0.165602 0.179032 0.131380 0.058450 0.005426 0.055577 0.017870 -0.013101 0.032673 0.039838 0.056547 0.051530 0.061784 0.083612 0.130925 0.154874 0.057841 0.059987 0.056706 0.013130 -0.023227 0.013237 0.015599 0.005770 0.011886 0.041231 0.057127 0.056896 0.091113 0.055356 0.134437 0.059743 0.021361 0.035102 -0.035160 0.002150 0.048819 -0.001754 0.037121 0.046990 0.019776 0.114237 0.035481 0.010417 0.049214 0.004640 0.007046 0.006182 -0.021864 0.032058 0.005622 0.006784 0.056848 0.058553 0.045780 0.024190 0.033830 0.035109 0.026938 -0.014731 -0.023283 0.032973 0.049738 0.080675 0.081938 0.062457 0.077290 0.103719 0.058614 0.109018 0.093789 0.033193 0.039519 0.096643 0.074244 0.115430 0.099371 0.049067 0.131031 0.058727 0.021752 0.091492 -0.023583 -0.001903 0.102486 0.065970 0.129702 0.089839 0.097977 0.045706 0.103179 0.086125 -0.002473 -0.027111 0.059755 0.059565 0.040747 0.048014 0.096659 0.085333 0.003316 0.047682 0.064024 0.053754 0.042784 -0.018334 0.075249 0.085528 0.134108 0.026814 0.021054 -0.017505 0.027013 -0.025156 0.006749 -0.032972 -0.045111 0.005557 0.048911 0.002573 0.035517 -0.020276 -0.030220 -0.044877 -0.021133 -0.063384 -0.064092 0.017605 0.017670 -0.090670 0.037734 -0.013074 -0.074041 0.010642 -0.120410 -0.068970 -0.060515 -0.176635 -0.025417 0.033495 -0.030109 -0.135251 0.043344 0.094268 -0.023035 0.095487 -0.038836 0.243613 0.125715 0.216371 0.241736 0.229760 0.206879 0.264300 0.265361 0.293262 0.193172 0.247477 0.145532 -0.020843 -0.672636
0.072396 0.072899 0.074406 0.076919 0.080435 0.084955 0.090477 0.096999 0.104519 0.113035 0.122543 0.133038 0.144516 0.156970 0.170392 0.184773 0.200103 0.216367 0.233552 0.251640 0.270611 0.290441 0.311106 0.332575 0.354816 0.377791 0.401459 0.425773 0.450685 0.476136 0.502066 0.528409 0.555091 0.582034 0.609151 0.636352 0.663538 0.690605 0.717439 0.743922 0.769929 0.795327 0.819978 0.843736 0.866450 0.887962 0.908112 0.926731 0.943649 0.958692 0.971684 0.982447 0.990801 0.996572 0.999582 0.999662 0.996644 0.990369 0.980688 0.967460 0.950557 0.929867 0.905293 0.876758 0.844205 0.807603 0.766942 0.722244 0.673558 0.620966 0.564585 0.504565 0.441094 0.374399 0.304747 0.232443 0.157834 0.081308 0.003290 0.075752 0.155317 0.234865 0.313824 0.391595 0.467552 0.541047 0.611418 0.677994 0.740098 0.797059 0.848217 0.892933 0.930596 0.960630 0.982510 0.995765 0.999991 0.994859 0.980124 0.955637 0.921349 0.877320 0.823727 0.760868 0.689166 0.609174 0.521572 0.427167 0.326894 0.221804 0.113064 0.001940 0.110209 0.221952 0.331794 0.438207 0.539639 0.634546 0.721414 0.798784 0.865279 0.919636 0.960725 0.987586 0.999447 0.995752 0.976181 0.940673 0.889436 0.822961 0.742026 0.647703 0.541344 0.424578 0.299291 0.167600 0.031828 0.105540 0.241891 0.374539 0.500774 0.617920 0.723393 0.814763 0.889817 0.946618 0.983560 0.999424 0.993426 0.965252 0.915091 0.843655 0.752182 0.642435 0.516680 0.377651 0.228502 0.072748 0.085816 0.243200 0.395318 0.538093 0.667569 0.780029 0.872108 0.940902 0.984073 0.999940 0.987559 0.946778 0.878277 0.783581 0.665053 0.525849 0.369855 0.201594 0.026107 0.151191 0.324671 0.488669 0.637670 0.766507 0.870544 0.945862 0.989416 0.999187 0.974283 0.915018 0.822950 0.700864 0.552717 0.383542 0.199285 0.006618 0.187286 0.375024 0.549241 0.702920 0.829685 0.924071 0.981789 0.999940 0.977186 0.913860 0.812016 0.675390 0.509311 0.320508 0.116871 0.092862 0.299470 0.493656 0.666457 0.809682 0.916317 0.980886 0.999772 0.971444 0.896603 0.778219 0.621459 0.433502 0.223242 0.000896 0.222479 0.435520 0.627146 0.787141 0.906720 0.979048 0.999656 0.966764 0.881457 0.747717 0.572283 0.364364 0.135188 0.102570 0.335477 0.550098 0.733773 0.875390 0.966091 0.999860 0.973973 0.889263 0.750162 0.564539 0.343307 0.099821 0.150889 0.393037 0.611063 0.790657 0.919720 0.989225 0.993893 0.932659 0.808852 0.630093 0.407885 0.156942 0.105754 0.362093 0.594044 0.784972 0.920840 0.991304 0.990546 0.917827 0.777676 0.579683 0.337925 0.070019 0.204122 0.463747 0.688835 0.861668 0.968272 0.999605 0.952395 0.829550 0.640074 0.398499 0.123837 0.161857 0.435246 0.673591 0.856686 0.968608 0.999178 0.944962 0.809730 0.604307 0.345806 0.056261 0.239185 0.514437 0.744765 0.909059 0.991829 0.984739 0.887553 0.708332 0.462892 0.173487 0.133130 0.428136 0.683348 0.873942 0.980929 0.993126 0.908440 0.734268 0.486979 0.190493 0.125974 0.430721 0.692738 0.884898 0.986823 0.987148 0.884901 0.689830 0.421610 0.107964 0.218111 0.521778 0.770104 0.935644 0.999590 0.954011 0.802959 0.562277 0.258070 0.076026 0.402482 0.684097 0.888245 0.990748 0.978851 0.852945 0.626788 0.326161 0.013955 0.353354 0.651351 0.871659 0.986908 0.982148 0.856949 0.625734 0.316290 0.033440 0.379926 0.679435 0.893590 0.994363 0.967895 0.816546 0.558926 0.227747 0.134165
1.000000 1.000000 1.000000 1.000000 1.000000 1.000000 1.000000 1.000000 1.000000 1.000000 1.000000 1.000000 1.000000 1.000000 1.000000 1.000000 1.000000 1.000000 1.000000 1.000000 1.000000 1.000000 1.000000 1.000000 1.000000 1.000000 1.000000 1.000000 1.000000 1.000000 1.000000 1.000000 1.000000 1.000000 1.000000 1.000000 1.000000 1.000000 1.000000 1.000000 1.000000 1.000000 1.000000 1.000000 1.000000 1.000000 1.000000 1.000000 1.000000 1.000000 1.000000 1.000000 0.919844 0.919844 0.919844 0.912051 0.912051 0.912051 0.912051 0.912051 0.912051 0.912051 0.912051 0.912051 0.912051 0.912051 0.912051 0.912051 0.912051 0.912051 0.912051 0.912051 0.912051 0.912051 0.912051 0.912051 0.912051 0.912051 0.912051 0.912051 0.912051 0.912051 0.912051 0.912051 0.912051 0.912051 0.912051 0.912051 0.912051 0.912051 0.912051 0.912051 0.912051 0.912051 0.912051 0.912051 0.938644 0.940178 0.950649 0.950512 0.949904 0.947784 0.946624 0.946255 0.946143 0.946467 0.947173 0.948137 0.956942 0.958118 0.960941 0.962585 0.963321 0.963956 0.964599 0.965200 0.956041 0.955868 0.954540 0.953948 0.956481 0.955746 0.955705 0.956685 0.956560 0.957551 0.957420 0.956726 0.955660 0.954722 0.953812 0.953269 0.953064 0.953779 0.954173 0.955627 0.958923 0.959481 0.959598 0.959754 0.959855 0.961154 0.959921 0.959455 0.955522 0.955811 0.955466 0.953278 0.959422 0.956751 0.957208 0.957767 0.959340 0.959627 0.951938 0.949960 0.940242 0.938460 0.934511 0.928905 0.924377 0.926169 0.927698 0.928523 0.929043 0.923981 0.924043 0.921517 0.915715 0.918596 0.917915 0.918563 0.919992 0.916825 0.915617 0.914979 0.912591 0.902643 0.890008 0.889377 0.891777 0.896695 0.898306 0.896886 0.897677 0.884698 0.866228 0.852926 0.855059 0.858939 0.850430 0.848502 0.849120 0.849892 0.853604 0.847091 0.845323 0.841353 0.830941 0.822228 0.815173 0.811016 0.815661 0.811193 0.801589 0.800588 0.810909 0.804056 0.818627 0.828576 0.820294 0.819423 0.817209 0.812036 0.790254 0.788969 0.779928 0.761910 0.762269 0.760572 0.760314 0.757088 0.763790 0.752479 0.749447 0.734695 0.735585 0.738378 0.740371 0.736831 0.728931 0.733162 0.737997 0.718582 0.706765 0.694861 0.700321 0.705506 0.706623 0.703899 0.683997 0.653640 0.621304 0.641307 0.658066 0.616975 0.641215 0.653133 0.634560 0.632113 0.622292 0.625931 0.609915 0.613655 0.616136 0.619307 0.619704 0.636375 0.620165 0.614638 0.624040 0.624740 0.635832 0.632318 0.632326 0.604138 0.602752 0.628903 0.632285 0.616007 0.633527 0.621194 0.634619 0.669228 0.678085 0.648243 0.641469 0.621417 0.579715 0.571085 0.565195 0.577495 0.609532 0.594933 0.566429 0.544829 0.554690 0.572333 0.578677 0.581608 0.555777 0.556498 0.546732 0.520839 0.527375 0.542813 0.540999 0.529945 0.508009 0.518035 0.520299 0.543818 0.530594 0.487533 0.501518 0.498424 0.499037 0.448116 0.466786 0.448419 0.437326 0.392207 0.400328 0.412532 0.398589 0.333463 0.316157 0.315917 0.316451 0.320577 0.315681 0.289062 0.270038 0.231724 0.231138 0.220664 0.196777 0.190308 0.172814 0.163510 0.164804 0.123602 0.170174 0.232357 0.233737 0.233737 0.233737 0.233737 0.233737 0.233737 0.234270 0.234270 0.234270 0.234270 0.234270 0.234270 0.234270 0.234270 0.234270 0.256277 0.256277 0.256277 0.256277 0.256277 0.256277 0.256277 0.256277 0.256277 0.256277 0.256277 0.256277 0.256277 0.256277
0.000000 0.000000 0.000000 0.000000 0.000000 0.000000 0.000000 0.000000 0.000000 0.000000 0.000000 0.000000 0.000000 0.000000 0.000000 0.000000 0.000000 0.000000 0.000000 0.000000 0.000000 0.000000 0.000000 0.000000 0.000000 0.000000 0.000000 0.000000 0.000000 0.000000 0.000000 0.000000 0.000000 0.000000 0.000000 0.000000 0.000000 0.000000 0.000000 0.000000 0.000000 0.000000 0.000000 0.000000 0.000000 0.000000 0.000000 0.000000 0.000000 0.000000 0.000000 0.000000 0.180334 0.180334 0.180334 0.199007 0.199007 0.199007 0.199007 0.199007 0.199007 0.199007 0.199007 0.199007 0.199007 0.199007 0.199007 0.199007 0.199007 0.199007 0.199007 0.199007 0.199007 0.199007 0.199007 0.199007 0.199007 0.199007 0.199007 0.199007 0.199007 0.199007 0.199007 0.199007 0.199007 0.199007 0.199007 0.199007 0.199007 0.199007 0.199007 0.199007 0.199007 0.199007 0.199007 0.199007 0.225018 0.225018 0.225018 0.225018 0.225018 0.225018 0.225018 0.225018 0.225018 0.225018 0.225018 0.225018 0.225018 0.225018 0.225018 0.225018 0.225018 0.225018 0.225018 0.225018 0.225018 0.225018 0.225018 0.225018 0.225018 0.225018 0.225018 0.225018 0.225018 0.244339 0.244339 0.244339 0.244339 0.244339 0.244339 0.244339 0.244339 0.244339 0.244339 0.244339 0.244339 0.244339 0.244339 0.244339 0.244339 0.244339 0.244339 0.244339 0.244339 0.244339 0.244339 0.244339 0.251976 0.251976 0.251976 0.251976 0.251976 0.251976 0.251976 0.251976 0.251976 0.251976 0.251976 0.251976 0.251976 0.251976 0.251976 0.251976 0.251976 0.251976 0.251976 0.251976 0.264906 0.264906 0.264906 0.264906 0.264906 0.264906 0.264906 0.264906 0.264906 0.264906 0.264906 0.264906 0.264906 0.264906 0.264906 0.264906 0.264906 0.264906 0.264906 0.264906 0.264906 0.264906 0.264906 0.264906 0.264906 0.264906 0.264906 0.264906 0.264906 0.264906 0.264906 0.264906 0.264906 0.264906 0.264906 0.264906 0.264906 0.264906 0.264906 0.264906 0.264906 0.264906 0.264906 0.264906 0.264906 0.264906 0.264906 0.264906 0.264906 0.264906 0.264906 0.264906 0.264906 0.264906 0.264906 0.264906 0.264906 0.264906 0.264906 0.264906 0.264906 0.264906 0.256074 0.256074 0.256074 0.256074 0.256074 0.256074 0.256074 0.256074 0.256074 0.256074 0.256074 0.256074 0.256074 0.256074 0.269680 0.269680 0.269680 0.269680 0.269680 0.269680 0.269680 0.269680 0.269680 0.269680 0.269680 0.269680 0.264906 0.264906 0.264906 0.264906 0.264906 0.264906 0.264906 0.264906 0.264906 0.264906 0.264906 0.264906 0.269680 0.269680 0.269680 0.269680 0.269680 0.269680 0.269680 0.269680 0.269680 0.269680 0.269680 0.264906 0.264906 0.264906 0.264906 0.264906 0.264906 0.264906 0.264906 0.264906 0.264906 0.264906 0.256074 0.256074 0.256074 0.256074 0.256074 0.256074 0.256074 0.256074 0.256074 0.256074 0.256074 0.264906 0.264906 0.264906 0.264906 0.264906 0.264906 0.264906 0.264906 0.264906 0.264906 0.260378 0.260378 0.260378 0.260378 0.260378 0.260378 0.260378 0.260378 0.260378 0.260378 0.256074 0.256074 0.256074 0.256074 0.256074 0.256074 0.256074 0.256074 0.256074 0.256074 0.260378 0.260378 0.260378 0.260378 0.260378 0.260378 0.260378 0.260378 0.260378 0.256074 0.256074 0.256074 0.256074 0.256074 0.256074 0.256074 0.256074 0.256074 0.251976 0.251976 0.251976 0.251976 0.251976 0.251976 0.251976 0.251976 0.251976 0.251976 0.251976 0.251976 0.251976 0.251976
