# Output from CTFFind version 4.1.9, run on 2019-11-03 19:01:35
# Input file: stack11_bm3d_averaged_1_2.75_0_3000_half.mrc ; Number of micrographs: 1
# Pixel size: 3.000 Angstroms ; acceleration voltage: 300.0 keV ; spherical aberration: 0.00 mm ; amplitude contrast: 0.07
# Box size: 512 pixels ; min. res.: 30.0 Angstroms ; max. res.: 5.0 Angstroms ; min. def.: 5000.0 um; max. def. 50000.0 um; num. frames averaged: 1
# 6 lines per micrograph: #1 - spatial frequency (1/Angstroms); #2 - 1D rotational average of spectrum (assuming no astigmatism); #3 - 1D rotational average of spectrum; #4 - CTF fit; #5 - cross-correlation between spectrum and CTF fit; #6 - 2sigma of expected cross correlation of noise
0.000000 0.000651 0.001302 0.001953 0.002604 0.003255 0.003906 0.004557 0.005208 0.005859 0.006510 0.007161 0.007812 0.008464 0.009115 0.009766 0.010417 0.011068 0.011719 0.012370 0.013021 0.013672 0.014323 0.014974 0.015625 0.016276 0.016927 0.017578 0.018229 0.018880 0.019531 0.020182 0.020833 0.021484 0.022135 0.022786 0.023438 0.024089 0.024740 0.025391 0.026042 0.026693 0.027344 0.027995 0.028646 0.029297 0.029948 0.030599 0.031250 0.031901 0.032552 0.033203 0.033854 0.034505 0.035156 0.035807 0.036458 0.037109 0.037760 0.038411 0.039062 0.039714 0.040365 0.041016 0.041667 0.042318 0.042969 0.043620 0.044271 0.044922 0.045573 0.046224 0.046875 0.047526 0.048177 0.048828 0.049479 0.050130 0.050781 0.051432 0.052083 0.052734 0.053385 0.054036 0.054688 0.055339 0.055990 0.056641 0.057292 0.057943 0.058594 0.059245 0.059896 0.060547 0.061198 0.061849 0.062500 0.063151 0.063802 0.064453 0.065104 0.065755 0.066406 0.067057 0.067708 0.068359 0.069010 0.069661 0.070312 0.070964 0.071615 0.072266 0.072917 0.073568 0.074219 0.074870 0.075521 0.076172 0.076823 0.077474 0.078125 0.078776 0.079427 0.080078 0.080729 0.081380 0.082031 0.082682 0.083333 0.083984 0.084635 0.085286 0.085938 0.086589 0.087240 0.087891 0.088542 0.089193 0.089844 0.090495 0.091146 0.091797 0.092448 0.093099 0.093750 0.094401 0.095052 0.095703 0.096354 0.097005 0.097656 0.098307 0.098958 0.099609 0.100260 0.100911 0.101562 0.102214 0.102865 0.103516 0.104167 0.104818 0.105469 0.106120 0.106771 0.107422 0.108073 0.108724 0.109375 0.110026 0.110677 0.111328 0.111979 0.112630 0.113281 0.113932 0.114583 0.115234 0.115885 0.116536 0.117188 0.117839 0.118490 0.119141 0.119792 0.120443 0.121094 0.121745 0.122396 0.123047 0.123698 0.124349 0.125000 0.125651 0.126302 0.126953 0.127604 0.128255 0.128906 0.129557 0.130208 0.130859 0.131510 0.132161 0.132812 0.133464 0.134115 0.134766 0.135417 0.136068 0.136719 0.137370 0.138021 0.138672 0.139323 0.139974 0.140625 0.141276 0.141927 0.142578 0.143229 0.143880 0.144531 0.145182 0.145833 0.146484 0.147135 0.147786 0.148438 0.149089 0.149740 0.150391 0.151042 0.151693 0.152344 0.152995 0.153646 0.154297 0.154948 0.155599 0.156250 0.156901 0.157552 0.158203 0.158854 0.159505 0.160156 0.160807 0.161458 0.162109 0.162760 0.163411 0.164062 0.164714 0.165365 0.166016 0.166667 0.167318 0.167969 0.168620 0.169271 0.169922 0.170573 0.171224 0.171875 0.172526 0.173177 0.173828 0.174479 0.175130 0.175781 0.176432 0.177083 0.177734 0.178385 0.179036 0.179688 0.180339 0.180990 0.181641 0.182292 0.182943 0.183594 0.184245 0.184896 0.185547 0.186198 0.186849 0.187500 0.188151 0.188802 0.189453 0.190104 0.190755 0.191406 0.192057 0.192708 0.193359 0.194010 0.194661 0.195312 0.195964 0.196615 0.197266 0.197917 0.198568 0.199219 0.199870 0.200521 0.201172 0.201823 0.202474 0.203125 0.203776 0.204427 0.205078 0.205729 0.206380 0.207031 0.207682 0.208333 0.208984 0.209635 0.210286 0.210938 0.211589 0.212240 0.212891 0.213542 0.214193 0.214844 0.215495 0.216146 0.216797 0.217448 0.218099 0.218750 0.219401 0.220052 0.220703 0.221354 0.222005 0.222656 0.223307 0.223958 0.224609 0.225260 0.225911 0.226562 0.227214 0.227865 0.228516 0.229167 0.229818 0.230469 0.231120 0.231771 0.232422 0.233073 0.233724 0.234375 0.235026 0.235677
       0.31846        0.31846        0.31846        0.31846        0.31846        0.31846        0.31846        0.31846        0.31846        0.31846        0.31846        0.31846        0.31846        0.31846        0.31846        0.31846        0.31847        0.31846        0.31846        0.31847        0.31846        0.31846        0.31846        0.31846        0.31846        0.31846        0.31846        0.31846        0.31846        0.31847        0.31846        0.31847        0.31847        0.31846        0.31846        0.31846        0.31847        0.31846        0.31847        0.31846        0.31846        0.31846        0.31847        0.31846        0.31846        0.31847        0.31846        0.31846        0.31846        0.31846        0.31847        0.68223        0.86208        0.52322        0.09028       -0.05673       -0.42495       -0.20104       -0.30047       -0.11735       -0.07333       -0.11817       -0.06845       -0.20522       -0.23202       -0.25099       -0.33172       -0.33875       -0.48108       -0.38073       -0.45909       -0.45003       -0.42136       -0.45864       -0.52163       -0.55201       -0.58261       -0.61052       -0.57088       -0.40508       -0.37525       -0.33066       -0.31224       -0.20642       -0.19840        0.02403        0.08649        0.12070        0.23054        0.36862        0.44231        0.51028        0.55995        0.55658        0.56701        0.69075        0.80648        0.73002        0.73250        0.65323        0.57013        0.48277        0.40604        0.49582        0.37983        0.21302        0.07908        0.05324        0.02468       -0.05656       -0.02467       -0.00364       -0.05647       -0.00801       -0.01889        0.22102        0.25425        0.28476        0.41841        0.44780        0.40280        0.54495        0.62314        0.68097        0.74979        0.68655        0.65255        0.68477        0.57110        0.48494        0.41435        0.28753        0.20613        0.15722        0.11165        0.04153        0.01620        0.01226        0.07552        0.12999        0.21022        0.26939        0.39461        0.42556        0.49364        0.59669        0.62710        0.62399        0.62350        0.55086        0.44401        0.45538        0.35440        0.23034        0.18403        0.14579        0.12439        0.13393        0.09246        0.12249        0.24429        0.26766        0.34923        0.37329        0.44112        0.50869        0.53888        0.54352        0.46944        0.43410        0.38597        0.35285        0.30486        0.25799        0.21453        0.20046        0.17826        0.20484        0.18684        0.27837        0.33739        0.37248        0.42694        0.45645        0.47728        0.42480        0.38362        0.40801        0.36628        0.27663        0.26085        0.22330        0.22500        0.19617        0.22739        0.23474        0.32662        0.37102        0.37624        0.46483        0.42743        0.43405        0.42819        0.39524        0.34037        0.31835        0.28078        0.26227        0.24424        0.27333        0.27771        0.30342        0.30569        0.32932        0.32051        0.40358        0.41602        0.37566        0.34415        0.36396        0.28338        0.28102        0.26414        0.28713        0.26561        0.28177        0.29564        0.31317        0.34280        0.36200        0.36797        0.35102        0.35365        0.29446        0.32464        0.27121        0.24521        0.29798        0.29350        0.31267        0.30834        0.31990        0.33211        0.31560        0.31887        0.29037        0.29531        0.27112        0.28795        0.26473        0.29427        0.28619        0.27697        0.30642        0.31214        0.31766        0.27370        0.30403        0.27627        0.26987        0.25786        0.21743        0.27644        0.27888        0.33068        0.30560        0.31452        0.31544        0.31498        0.27873        0.30214        0.32667        0.26676        0.26029        0.29977        0.28331        0.33847        0.33084        0.33997        0.32866        0.29553        0.27942        0.27970        0.24454        0.22398        0.28176        0.30656        0.29867        0.28325        0.29845        0.27801        0.33382        0.33406        0.25498        0.22699        0.28156        0.31844        0.28268        0.31098        0.33352        0.32321        0.29891        0.30670        0.33564        0.29727        0.27713        0.25269        0.29598        0.34964        0.36562        0.27742        0.26577        0.25889        0.29138        0.22595        0.28720        0.24872        0.25147        0.32920        0.32647        0.34721        0.30333        0.24273        0.24877        0.24897        0.24222        0.21367        0.23174        0.29454        0.29351        0.22979        0.32061        0.31963        0.25335        0.25866        0.19628        0.17135        0.22649        0.20854        0.20424        0.22078        0.22711        0.18771        0.25186        0.35201        0.31498        0.33722        0.23604        0.21262        0.18804        0.25961        0.27433        0.15197        0.22756        0.24690        0.12779        0.17806        0.13025        0.11712        0.21240        0.16201       -0.09279       -0.60523
2.625185 2.597695 2.570355 2.543164 2.516122 2.489229 2.462486 2.435892 2.409446 2.383151 2.357004 2.331007 2.305158 2.279459 2.253910 2.228509 2.203258 2.178156 2.153203 2.128399 2.103745 2.079240 2.054884 2.030677 2.006620 1.982711 1.958952 1.935342 1.911882 1.888570 1.865408 1.842395 1.819531 1.796817 1.774251 1.751835 1.729568 1.707450 1.685482 1.663663 1.641993 1.620472 1.599100 1.577878 1.556805 1.535881 1.515106 1.494481 1.474004 1.453677 1.433499 1.653122 2.064627 1.634382 1.143434 1.006043 0.420420 0.826103 0.555122 0.841257 0.781413 0.799736 0.752954 0.716235 0.569348 0.527375 0.484874 0.437523 0.217749 0.377917 0.203999 0.311244 0.229967 0.187760 0.146630 0.016468 0.035332 -0.002700 -0.058923 0.112402 0.210421 0.187603 0.154402 0.336962 0.192875 0.499885 0.590959 0.573216 0.607236 0.875912 0.818749 0.940619 0.894188 0.985100 0.952186 1.079981 1.141850 1.065595 1.141939 0.940424 0.935311 0.792388 0.649762 0.780061 0.710633 0.466752 0.313504 0.246518 0.229519 0.147262 0.099569 0.137560 0.087255 0.142220 0.054249 0.263169 0.379062 0.357411 0.471902 0.564853 0.450695 0.561822 0.705527 0.733074 0.770143 0.724178 0.734294 0.697587 0.617988 0.553350 0.416962 0.279190 0.218796 0.082318 0.127819 -0.049421 -0.038202 -0.067654 -0.047052 -0.010996 0.152603 0.073147 0.282172 0.288853 0.349540 0.446001 0.522348 0.505211 0.513416 0.497702 0.327728 0.309379 0.282383 0.092051 0.047635 -0.026871 -0.024727 -0.039502 -0.080731 -0.094430 0.010520 0.054048 0.127347 0.161076 0.229023 0.311715 0.315747 0.403322 0.392390 0.280041 0.231727 0.229716 0.182010 0.109277 0.093771 0.015536 0.005410 0.023249 -0.010435 0.061830 0.150099 0.138390 0.243716 0.247199 0.305434 0.227323 0.213170 0.158680 0.213674 0.120005 0.037378 0.016604 -0.006756 -0.011019 -0.041177 0.024944 0.016449 0.150667 0.143297 0.173621 0.232528 0.189844 0.183470 0.188601 0.143209 0.083881 0.048763 0.059868 -0.016419 0.002360 0.020571 0.056953 0.056294 0.064902 0.081010 0.117888 0.130951 0.180801 0.079824 0.085498 0.069604 0.003828 -0.002107 0.010747 0.004155 0.008764 0.007856 0.028558 0.063514 0.074810 0.131033 0.058864 0.112973 0.059405 0.018763 0.057838 -0.034835 -0.009615 0.042009 0.007405 0.056980 0.050150 0.039464 0.077901 0.052499 0.036872 0.035139 0.004270 0.025877 0.012767 -0.004032 0.056900 -0.007624 0.024786 0.061434 0.054781 0.041349 0.049497 0.045219 0.031395 0.011428 -0.013681 -0.017910 0.031119 0.052194 0.092254 0.063724 0.072615 0.094205 0.085252 0.042676 0.093325 0.101803 0.019488 0.036278 0.078260 0.065924 0.107012 0.120970 0.090195 0.134485 0.081601 0.043167 0.071745 -0.006324 0.023013 0.076555 0.090973 0.069140 0.051940 0.048966 0.034619 0.126285 0.073694 -0.020910 -0.036418 0.044015 0.094404 0.024184 0.036698 0.091087 0.087524 0.029353 0.057835 0.082890 0.038785 0.029303 -0.033673 0.048613 0.115081 0.092753 -0.025988 -0.018614 -0.032911 0.043617 -0.096906 0.039752 -0.058203 -0.023383 0.049164 0.063308 0.030418 -0.013347 -0.063039 -0.041067 -0.075226 -0.035845 -0.089195 -0.076679 0.017869 0.074573 -0.074769 0.068027 0.016506 -0.056348 0.034617 -0.105900 -0.098168 -0.043378 -0.033859 -0.043715 -0.027041 -0.000532 -0.051567 0.021563 0.207015 -0.012137 0.172051 0.026887 0.223151 0.193981 0.302297 0.269187 0.133711 0.231099 0.290581 0.094346 0.191191 0.132514 0.099436 0.295041 0.168740 -0.635695
0.072396 0.072899 0.074405 0.076917 0.080432 0.084949 0.090469 0.096988 0.104505 0.113017 0.122520 0.133011 0.144484 0.156932 0.170349 0.184724 0.200046 0.216304 0.233481 0.251561 0.270524 0.290346 0.311002 0.332462 0.354694 0.377660 0.401319 0.425625 0.450527 0.475969 0.501891 0.528225 0.554899 0.581834 0.608944 0.636139 0.663320 0.690381 0.717212 0.743693 0.769699 0.795097 0.819750 0.843512 0.866231 0.887752 0.907912 0.926543 0.943477 0.958538 0.971551 0.982337 0.990719 0.996519 0.999563 0.999679 0.996701 0.990471 0.980836 0.967658 0.950809 0.930175 0.905661 0.877188 0.844701 0.808165 0.767572 0.722944 0.674329 0.621808 0.565497 0.505547 0.442144 0.375514 0.305924 0.233678 0.159121 0.082641 0.004663 0.074348 0.153890 0.233425 0.312383 0.390164 0.466144 0.539675 0.610097 0.676737 0.738921 0.795978 0.847248 0.892091 0.929895 0.960086 0.982137 0.995576 0.999998 0.995072 0.980552 0.956287 0.922224 0.878422 0.825056 0.762419 0.690933 0.611146 0.523734 0.429502 0.329381 0.224418 0.115777 0.004721 0.107395 0.219141 0.329026 0.435522 0.537079 0.632155 0.719234 0.796857 0.863646 0.918333 0.959788 0.987044 0.999325 0.996070 0.976952 0.941902 0.891120 0.825089 0.744578 0.650648 0.544646 0.428189 0.303155 0.171654 0.036000 0.101326 0.237718 0.370493 0.496941 0.614386 0.720243 0.812079 0.887672 0.945078 0.982680 0.999247 0.993980 0.966549 0.917127 0.846406 0.755608 0.646475 0.521255 0.382666 0.233846 0.078295 0.080202 0.237663 0.390005 0.533152 0.663147 0.776263 0.869121 0.938803 0.982948 0.999852 0.988541 0.948833 0.881377 0.787664 0.670024 0.531583 0.376195 0.208359 0.033094 0.144198 0.317900 0.482348 0.632021 0.761739 0.866842 0.943381 0.988279 0.999469 0.976012 0.918174 0.827456 0.706590 0.559489 0.391132 0.207431 0.015025 0.178934 0.367055 0.541974 0.696664 0.824713 0.920618 0.980034 0.999998 0.979100 0.917597 0.817461 0.682355 0.517529 0.329653 0.126562 0.083041 0.289960 0.484893 0.658860 0.803631 0.912129 0.978803 0.999941 0.973910 0.901300 0.784970 0.629980 0.443408 0.234071 0.012118 0.211425 0.425207 0.618125 0.779915 0.901710 0.976570 0.999898 0.969773 0.887129 0.755797 0.582373 0.375941 0.147633 0.089951 0.323408 0.539287 0.724878 0.868979 0.962594 0.999547 0.976931 0.895378 0.759122 0.575851 0.356310 0.113733 0.136931 0.379923 0.599656 0.781730 0.913908 0.986970 0.995417 0.937933 0.817594 0.641774 0.421769 0.172110 0.090337 0.347496 0.581319 0.775055 0.914496 0.989058 0.992639 0.924187 0.787914 0.593109 0.353592 0.086786 0.187509 0.448559 0.676270 0.852751 0.963766 0.999944 0.957640 0.839368 0.653759 0.415010 0.141879 0.143743 0.418553 0.659736 0.846880 0.963751 0.999768 0.951041 0.820871 0.619633 0.364043 0.075856 0.219938 0.497263 0.731241 0.900468 0.989033 0.988092 0.896846 0.722806 0.481279 0.194122 0.112156 0.408817 0.667563 0.863267 0.976482 0.995444 0.917403 0.749097 0.506291 0.212426 0.103586 0.410145 0.676099 0.873969 0.982820 0.990597 0.895557 0.706683 0.442970 0.131629 0.194641 0.501042 0.754390 0.926743 0.998584 0.961131 0.817536 0.582796 0.282310 0.050748 0.379030 0.665179 0.876107 0.986895 0.983854 0.866348 0.647136 0.351141 0.012751 0.328099 0.630614 0.858021 0.982131 0.986947 0.870868 0.647179 0.342693 0.005324 0.353616 0.658294 0.880387 0.990903 0.974759 0.832992 0.582933 0.256282 0.104807
1.000000 1.000000 1.000000 1.000000 1.000000 1.000000 1.000000 1.000000 1.000000 1.000000 1.000000 1.000000 1.000000 1.000000 1.000000 1.000000 1.000000 1.000000 1.000000 1.000000 1.000000 1.000000 1.000000 1.000000 1.000000 1.000000 1.000000 1.000000 1.000000 1.000000 1.000000 1.000000 1.000000 1.000000 1.000000 1.000000 1.000000 1.000000 1.000000 1.000000 1.000000 1.000000 1.000000 1.000000 1.000000 1.000000 1.000000 1.000000 1.000000 1.000000 1.000000 1.000000 0.923785 0.923785 0.923785 0.914790 0.914790 0.914790 0.914790 0.914790 0.914790 0.914790 0.914790 0.914790 0.914790 0.914790 0.914790 0.914790 0.914790 0.914790 0.914790 0.914790 0.914790 0.914790 0.914790 0.914790 0.914790 0.914790 0.914790 0.914790 0.914790 0.914790 0.914790 0.914790 0.914790 0.914790 0.914790 0.914790 0.914790 0.914790 0.914790 0.914790 0.914790 0.914790 0.914790 0.914790 0.942867 0.944318 0.952379 0.952211 0.951646 0.949427 0.948411 0.947938 0.947814 0.948119 0.948798 0.949732 0.958537 0.959717 0.962545 0.963401 0.964110 0.964713 0.965315 0.965921 0.962361 0.961401 0.960827 0.956704 0.959533 0.958804 0.958763 0.959760 0.959617 0.961201 0.961518 0.960822 0.959789 0.958892 0.958030 0.957515 0.957318 0.958008 0.958364 0.959780 0.963065 0.962484 0.962241 0.962397 0.962491 0.962691 0.963214 0.965060 0.961078 0.961585 0.961408 0.959200 0.965735 0.962830 0.963379 0.963905 0.965363 0.965610 0.961867 0.957584 0.948274 0.947341 0.942442 0.933397 0.930569 0.932094 0.934351 0.935316 0.935146 0.929227 0.929582 0.925472 0.923046 0.926350 0.923815 0.922095 0.923509 0.921940 0.919952 0.918991 0.915993 0.909738 0.905596 0.905190 0.908838 0.911859 0.913366 0.913006 0.908012 0.897814 0.879386 0.878483 0.873137 0.877049 0.868417 0.867216 0.867471 0.864138 0.867524 0.868010 0.869298 0.864487 0.848938 0.830165 0.821982 0.824648 0.830565 0.828828 0.827487 0.820613 0.834176 0.819144 0.832694 0.843961 0.835881 0.837426 0.837298 0.834278 0.822706 0.821483 0.824218 0.823769 0.823991 0.822085 0.815356 0.806032 0.809150 0.774811 0.759867 0.755796 0.760759 0.764966 0.762317 0.762169 0.767468 0.772378 0.775977 0.763372 0.753384 0.740344 0.745353 0.750992 0.757623 0.751462 0.735600 0.713933 0.663755 0.680682 0.720838 0.662953 0.684474 0.690498 0.679558 0.680271 0.671490 0.666556 0.655043 0.658616 0.669599 0.685616 0.697435 0.717258 0.710242 0.699317 0.703528 0.681339 0.671917 0.660284 0.666097 0.646171 0.639764 0.664065 0.663847 0.658229 0.656341 0.639983 0.628637 0.639072 0.645574 0.636740 0.635398 0.615303 0.589104 0.590612 0.605686 0.624290 0.643769 0.620608 0.603815 0.600555 0.585955 0.602521 0.558184 0.558973 0.579238 0.584084 0.563357 0.526637 0.528650 0.549622 0.552932 0.546636 0.519335 0.512745 0.521447 0.559192 0.548745 0.508706 0.520338 0.517456 0.520349 0.468156 0.473591 0.442847 0.423642 0.359753 0.342141 0.345196 0.332600 0.328775 0.296676 0.294027 0.300007 0.314116 0.320382 0.312530 0.295892 0.304688 0.295319 0.282412 0.222766 0.205556 0.193710 0.181379 0.183701 0.154145 0.173752 0.236843 0.239060 0.239060 0.239060 0.239060 0.239060 0.239060 0.248246 0.248246 0.248246 0.248246 0.248246 0.248246 0.248246 0.248246 0.248246 0.261241 0.261241 0.261241 0.261241 0.261241 0.261241 0.261241 0.261241 0.261241 0.261241 0.261241 0.261241 0.261241 0.261241
0.000000 0.000000 0.000000 0.000000 0.000000 0.000000 0.000000 0.000000 0.000000 0.000000 0.000000 0.000000 0.000000 0.000000 0.000000 0.000000 0.000000 0.000000 0.000000 0.000000 0.000000 0.000000 0.000000 0.000000 0.000000 7.000000 4.000000 0.000000 0.000000 0.000000 0.000000 0.000000 0.000000 0.000000 0.000000 0.000000 0.000000 0.000000 0.000000 0.000000 0.000000 0.000000 0.000000 0.000000 0.000000 0.000000 0.000000 0.000000 0.000000 0.000000 0.000000 0.000000 0.180334 0.180334 0.180334 0.199007 0.199007 0.199007 0.199007 0.199007 0.199007 0.199007 0.199007 0.199007 0.199007 0.199007 0.199007 0.199007 0.199007 0.199007 0.199007 0.199007 0.199007 0.199007 0.199007 0.199007 0.199007 0.199007 0.199007 0.199007 0.199007 0.199007 0.199007 0.199007 0.199007 0.199007 0.199007 0.199007 0.199007 0.199007 0.199007 0.199007 0.199007 0.199007 0.199007 0.199007 0.225018 0.225018 0.225018 0.225018 0.225018 0.225018 0.225018 0.225018 0.225018 0.225018 0.225018 0.225018 0.225018 0.225018 0.225018 0.225018 0.225018 0.225018 0.225018 0.225018 0.225018 0.225018 0.225018 0.225018 0.225018 0.225018 0.225018 0.225018 0.225018 0.244339 0.244339 0.244339 0.244339 0.244339 0.244339 0.244339 0.244339 0.244339 0.244339 0.244339 0.244339 0.244339 0.244339 0.244339 0.244339 0.244339 0.244339 0.244339 0.244339 0.244339 0.244339 0.244339 0.251976 0.251976 0.251976 0.251976 0.251976 0.251976 0.251976 0.251976 0.251976 0.251976 0.251976 0.251976 0.251976 0.251976 0.251976 0.251976 0.251976 0.251976 0.251976 0.251976 0.264906 0.264906 0.264906 0.264906 0.264906 0.264906 0.264906 0.264906 0.264906 0.264906 0.264906 0.264906 0.264906 0.264906 0.264906 0.264906 0.264906 0.264906 0.264906 0.264906 0.264906 0.264906 0.264906 0.264906 0.264906 0.264906 0.264906 0.264906 0.264906 0.264906 0.264906 0.264906 0.264906 0.264906 0.264906 0.264906 0.264906 0.264906 0.264906 0.264906 0.264906 0.264906 0.264906 0.264906 0.264906 0.264906 0.264906 0.264906 0.264906 0.264906 0.264906 0.264906 0.264906 0.264906 0.264906 0.264906 0.264906 0.264906 0.264906 0.264906 0.264906 0.264906 0.256074 0.256074 0.256074 0.256074 0.256074 0.256074 0.256074 0.256074 0.256074 0.256074 0.256074 0.256074 0.256074 0.256074 0.269680 0.269680 0.269680 0.269680 0.269680 0.269680 0.269680 0.269680 0.269680 0.269680 0.269680 0.269680 0.264906 0.264906 0.264906 0.264906 0.264906 0.264906 0.264906 0.264906 0.264906 0.264906 0.264906 0.264906 0.269680 0.269680 0.269680 0.269680 0.269680 0.269680 0.269680 0.269680 0.269680 0.269680 0.269680 0.264906 0.264906 0.264906 0.264906 0.264906 0.264906 0.264906 0.264906 0.264906 0.264906 0.264906 0.256074 0.256074 0.256074 0.256074 0.256074 0.256074 0.256074 0.256074 0.256074 0.256074 0.256074 0.264906 0.264906 0.264906 0.264906 0.264906 0.264906 0.264906 0.264906 0.264906 0.264906 0.260378 0.260378 0.260378 0.260378 0.260378 0.260378 0.260378 0.260378 0.260378 0.260378 0.256074 0.256074 0.256074 0.256074 0.256074 0.256074 0.256074 0.256074 0.256074 0.256074 0.260378 0.260378 0.260378 0.260378 0.260378 0.260378 0.260378 0.260378 0.260378 0.256074 0.256074 0.256074 0.256074 0.256074 0.256074 0.256074 0.256074 0.256074 0.251976 0.251976 0.251976 0.251976 0.251976 0.251976 0.251976 0.251976 0.251976 0.251976 0.251976 0.251976 0.251976 0.251976
