# Output from CTFFind version 4.1.9, run on 2019-11-03 20:08:34
# Input file: stack1_bm3d_averaged_1_10_0_2000_half.mrc ; Number of micrographs: 1
# Pixel size: 3.000 Angstroms ; acceleration voltage: 300.0 keV ; spherical aberration: 0.00 mm ; amplitude contrast: 0.07
# Box size: 512 pixels ; min. res.: 30.0 Angstroms ; max. res.: 5.0 Angstroms ; min. def.: 5000.0 um; max. def. 50000.0 um; num. frames averaged: 1
# 6 lines per micrograph: #1 - spatial frequency (1/Angstroms); #2 - 1D rotational average of spectrum (assuming no astigmatism); #3 - 1D rotational average of spectrum; #4 - CTF fit; #5 - cross-correlation between spectrum and CTF fit; #6 - 2sigma of expected cross correlation of noise
0.000000 0.000651 0.001302 0.001953 0.002604 0.003255 0.003906 0.004557 0.005208 0.005859 0.006510 0.007161 0.007812 0.008464 0.009115 0.009766 0.010417 0.011068 0.011719 0.012370 0.013021 0.013672 0.014323 0.014974 0.015625 0.016276 0.016927 0.017578 0.018229 0.018880 0.019531 0.020182 0.020833 0.021484 0.022135 0.022786 0.023438 0.024089 0.024740 0.025391 0.026042 0.026693 0.027344 0.027995 0.028646 0.029297 0.029948 0.030599 0.031250 0.031901 0.032552 0.033203 0.033854 0.034505 0.035156 0.035807 0.036458 0.037109 0.037760 0.038411 0.039062 0.039714 0.040365 0.041016 0.041667 0.042318 0.042969 0.043620 0.044271 0.044922 0.045573 0.046224 0.046875 0.047526 0.048177 0.048828 0.049479 0.050130 0.050781 0.051432 0.052083 0.052734 0.053385 0.054036 0.054688 0.055339 0.055990 0.056641 0.057292 0.057943 0.058594 0.059245 0.059896 0.060547 0.061198 0.061849 0.062500 0.063151 0.063802 0.064453 0.065104 0.065755 0.066406 0.067057 0.067708 0.068359 0.069010 0.069661 0.070312 0.070964 0.071615 0.072266 0.072917 0.073568 0.074219 0.074870 0.075521 0.076172 0.076823 0.077474 0.078125 0.078776 0.079427 0.080078 0.080729 0.081380 0.082031 0.082682 0.083333 0.083984 0.084635 0.085286 0.085938 0.086589 0.087240 0.087891 0.088542 0.089193 0.089844 0.090495 0.091146 0.091797 0.092448 0.093099 0.093750 0.094401 0.095052 0.095703 0.096354 0.097005 0.097656 0.098307 0.098958 0.099609 0.100260 0.100911 0.101562 0.102214 0.102865 0.103516 0.104167 0.104818 0.105469 0.106120 0.106771 0.107422 0.108073 0.108724 0.109375 0.110026 0.110677 0.111328 0.111979 0.112630 0.113281 0.113932 0.114583 0.115234 0.115885 0.116536 0.117188 0.117839 0.118490 0.119141 0.119792 0.120443 0.121094 0.121745 0.122396 0.123047 0.123698 0.124349 0.125000 0.125651 0.126302 0.126953 0.127604 0.128255 0.128906 0.129557 0.130208 0.130859 0.131510 0.132161 0.132812 0.133464 0.134115 0.134766 0.135417 0.136068 0.136719 0.137370 0.138021 0.138672 0.139323 0.139974 0.140625 0.141276 0.141927 0.142578 0.143229 0.143880 0.144531 0.145182 0.145833 0.146484 0.147135 0.147786 0.148438 0.149089 0.149740 0.150391 0.151042 0.151693 0.152344 0.152995 0.153646 0.154297 0.154948 0.155599 0.156250 0.156901 0.157552 0.158203 0.158854 0.159505 0.160156 0.160807 0.161458 0.162109 0.162760 0.163411 0.164062 0.164714 0.165365 0.166016 0.166667 0.167318 0.167969 0.168620 0.169271 0.169922 0.170573 0.171224 0.171875 0.172526 0.173177 0.173828 0.174479 0.175130 0.175781 0.176432 0.177083 0.177734 0.178385 0.179036 0.179688 0.180339 0.180990 0.181641 0.182292 0.182943 0.183594 0.184245 0.184896 0.185547 0.186198 0.186849 0.187500 0.188151 0.188802 0.189453 0.190104 0.190755 0.191406 0.192057 0.192708 0.193359 0.194010 0.194661 0.195312 0.195964 0.196615 0.197266 0.197917 0.198568 0.199219 0.199870 0.200521 0.201172 0.201823 0.202474 0.203125 0.203776 0.204427 0.205078 0.205729 0.206380 0.207031 0.207682 0.208333 0.208984 0.209635 0.210286 0.210938 0.211589 0.212240 0.212891 0.213542 0.214193 0.214844 0.215495 0.216146 0.216797 0.217448 0.218099 0.218750 0.219401 0.220052 0.220703 0.221354 0.222005 0.222656 0.223307 0.223958 0.224609 0.225260 0.225911 0.226562 0.227214 0.227865 0.228516 0.229167 0.229818 0.230469 0.231120 0.231771 0.232422 0.233073 0.233724 0.234375 0.235026 0.235677
       0.34988        0.34988        0.34988        0.34988        0.34988        0.34988        0.34988        0.34988        0.34988        0.34988        0.34988        0.34988        0.34988        0.34988        0.34988        0.34988        0.34988        0.34988        0.34988        0.34988        0.34988        0.34988        0.34988        0.34988        0.34988        0.34988        0.34988        0.34988        0.34988        0.34988        0.34988        0.34988        0.34988        0.34988        0.34988        0.34988        0.34988        0.34988        0.34988        0.34988        0.34988        0.34988        0.34988        0.34988        0.34988        0.34988        0.34988        0.34988        0.34988        0.34988        0.34988        0.31556        0.42003        0.21580        0.06902        0.01465       -0.24390       -0.10774       -0.11885       -0.20396        0.01128       -0.12972       -0.01185       -0.04629       -0.03011       -0.09630       -0.15474       -0.20895       -0.23637       -0.33917       -0.27110       -0.18316       -0.17891       -0.27710       -0.19404       -0.23087       -0.20134       -0.22704       -0.08737       -0.11097       -0.14709        0.00048        0.07253        0.01155        0.06747        0.07444        0.28007        0.26489        0.34605        0.36636        0.36669        0.40101        0.47724        0.52021        0.51839        0.49146        0.49984        0.52047        0.48954        0.49516        0.41671        0.41824        0.41137        0.37244        0.31370        0.32487        0.32342        0.21291        0.21194        0.15909        0.18192        0.17332        0.16658        0.17337        0.27037        0.34452        0.33430        0.28360        0.41637        0.48522        0.40284        0.49641        0.57681        0.51162        0.50421        0.58449        0.59186        0.43305        0.48504        0.42443        0.35852        0.32815        0.28914        0.26709        0.20816        0.21108        0.19645        0.22550        0.25539        0.28319        0.34529        0.32635        0.40927        0.40782        0.45580        0.51145        0.46070        0.47715        0.42814        0.43689        0.41032        0.35212        0.31265        0.32223        0.32023        0.25700        0.25883        0.26236        0.27039        0.28465        0.32322        0.42967        0.48579        0.42967        0.46368        0.46435        0.42044        0.45943        0.44788        0.41480        0.36743        0.37754        0.35482        0.32753        0.31053        0.29879        0.28136        0.30255        0.32033        0.34151        0.40338        0.37888        0.38341        0.39412        0.37041        0.42746        0.40605        0.36179        0.33381        0.34311        0.32209        0.29358        0.32415        0.33577        0.34273        0.34493        0.32781        0.41177        0.40152        0.40832        0.42699        0.45409        0.39973        0.37317        0.35209        0.34824        0.29719        0.28573        0.33200        0.39689        0.39967        0.35591        0.36604        0.40624        0.39508        0.45821        0.37247        0.39355        0.34868        0.31576        0.30880        0.30937        0.34916        0.35662        0.37471        0.37841        0.33228        0.42489        0.34067        0.34862        0.35894        0.39993        0.37407        0.30129        0.32199        0.27813        0.34409        0.32914        0.34273        0.34824        0.32523        0.36164        0.32869        0.35768        0.34968        0.31780        0.29156        0.31530        0.36063        0.30988        0.30377        0.33328        0.32363        0.33543        0.33665        0.31180        0.30347        0.28426        0.32346        0.33382        0.34388        0.29099        0.30967        0.34612        0.32550        0.30629        0.38799        0.34949        0.29951        0.32601        0.33902        0.32833        0.34209        0.30572        0.33636        0.27594        0.32699        0.38728        0.36380        0.30132        0.33668        0.33050        0.32879        0.34531        0.33943        0.30521        0.28529        0.29495        0.29867        0.36151        0.37145        0.32164        0.35971        0.31645        0.29096        0.27888        0.32858        0.36983        0.30939        0.27426        0.31695        0.35609        0.28443        0.31114        0.31822        0.28936        0.31730        0.33107        0.30383        0.33815        0.31608        0.31632        0.33709        0.35345        0.26513        0.30928        0.37863        0.32308        0.24421        0.29979        0.29530        0.31786        0.27735        0.21698        0.24005        0.32665        0.39674        0.33063        0.27248        0.21110        0.29029        0.29419        0.27114        0.32940        0.31308        0.27402        0.27079        0.26822        0.25888        0.34735        0.23507        0.31285        0.28432        0.26981        0.27082        0.34391        0.22867        0.27711        0.18576        0.30782        0.22565        0.27097        0.22979        0.31732        0.24356        0.28312        0.33968        0.33166        0.21197       -0.13851       -0.20870       -0.59230       -0.65055
2.764731 2.737159 2.709733 2.682453 2.655318 2.628330 2.601487 2.574790 2.548239 2.521834 2.495575 2.469461 2.443494 2.417672 2.391996 2.366466 2.341082 2.315843 2.290751 2.265804 2.241003 2.216348 2.191839 2.167476 2.143258 2.119186 2.095261 2.071481 2.047846 2.024358 2.001016 1.977819 1.954768 1.931864 1.909105 1.886491 1.864024 1.841702 1.819527 1.797497 1.775613 1.753875 1.732283 1.710836 1.689536 1.668381 1.647372 1.626509 1.605792 1.585220 1.564795 1.393458 1.759909 1.365792 0.845073 0.669955 -0.273904 0.432974 0.027043 0.146849 0.530262 0.179919 0.355001 0.346955 0.303452 0.281299 -0.049977 -0.107171 -0.240737 -0.479029 -0.457346 -0.241529 0.037742 -0.514223 -0.238632 -0.384565 -0.123695 -0.480338 -0.052673 -0.186900 -0.204781 0.039547 0.360867 0.095256 0.189019 0.174669 0.843007 0.596377 0.845071 0.982785 0.757300 1.070226 0.973990 1.369698 1.218665 1.093982 1.173086 1.218888 1.162328 1.011115 1.023402 0.880103 0.825746 0.735981 0.772596 0.486135 0.628673 0.426317 0.232066 0.222798 0.120507 0.151765 0.157194 0.071441 0.260575 0.557558 0.460889 0.454602 0.593094 0.760426 0.742122 0.544805 1.114343 0.946473 0.870750 0.959384 1.066250 0.816262 0.564140 0.798479 0.346977 0.455539 0.196056 0.232766 0.054721 0.017435 -0.034817 0.009915 0.160605 0.035364 0.208058 0.414316 0.302221 0.479723 0.483383 0.621096 0.675358 0.582393 0.521124 0.403847 0.449162 0.351523 0.189399 0.178940 0.143382 0.105243 0.085040 -0.073609 -0.024898 0.093854 0.017792 0.300624 0.539973 0.522647 0.365466 0.569555 0.478172 0.440721 0.509229 0.471980 0.315538 0.284845 0.350811 0.101975 0.161114 0.037374 0.163534 0.022107 0.193508 0.102750 0.341288 0.172909 0.276725 0.344713 0.185776 0.449323 0.216666 0.262895 0.157999 0.142282 0.114645 0.068785 0.028806 0.097694 0.161284 0.088633 0.101150 0.156293 0.368875 0.220655 0.294962 0.491330 0.202370 0.344629 0.088624 0.153752 0.099830 -0.079980 0.016985 0.102340 0.323859 0.184854 0.106013 0.229057 0.192998 0.376089 0.305626 0.202318 0.254518 0.031357 0.010786 0.034012 0.073574 0.123236 0.208648 0.183912 0.119337 0.081962 0.299264 0.015092 0.153421 0.148661 0.252415 0.074234 0.040961 -0.022180 -0.033536 0.124627 0.058774 0.125083 0.044833 0.076080 0.105604 0.000433 0.119128 0.079482 -0.077338 -0.016240 -0.037470 0.162539 -0.091363 0.001103 0.042108 -0.034876 0.025208 0.038167 -0.057969 -0.059999 -0.111113 0.040498 0.025353 0.075230 -0.104250 -0.037401 0.039737 0.006084 -0.077895 0.126161 -0.000082 -0.101145 -0.044016 0.079167 0.001976 -0.061591 -0.080000 0.070124 -0.237532 0.045018 0.166179 0.038263 -0.049609 0.039235 -0.043216 0.037149 0.061391 0.028390 -0.038452 -0.207961 -0.000446 -0.077794 0.123875 0.057601 -0.013183 0.131910 -0.058005 -0.082161 -0.100856 -0.011840 0.088933 -0.034393 -0.134644 0.073576 0.126507 -0.001555 -0.022370 0.034472 -0.045574 0.013191 0.088187 0.011490 0.111001 0.135885 0.090348 0.195954 0.153810 -0.029531 0.099135 0.200087 0.096817 -0.138558 0.165010 -0.065213 0.179254 -0.086758 -0.162062 -0.136922 0.225278 0.257964 0.093099 -0.248318 -0.305566 -0.036087 -0.208105 -0.159617 0.114075 0.048038 -0.131571 -0.038594 -0.188896 -0.055004 0.212885 -0.206575 0.208021 0.119446 0.176222 0.101838 0.416774 0.124222 0.521968 0.232133 0.511205 0.485493 0.436172 0.449403 0.807450 0.561042 0.710393 0.915463 0.686772 0.992250 -0.844966 -0.505126 -1.621925
0.072396 0.072904 0.074428 0.076966 0.080520 0.085087 0.090667 0.097258 0.104857 0.113462 0.123069 0.133675 0.145272 0.157856 0.171417 0.185947 0.201434 0.217865 0.235224 0.253494 0.272654 0.292680 0.313546 0.335222 0.357672 0.380860 0.404742 0.429271 0.454395 0.480056 0.506192 0.532733 0.559604 0.586724 0.614006 0.641354 0.668669 0.695841 0.722757 0.749292 0.775320 0.800704 0.825301 0.848963 0.871534 0.892854 0.912757 0.931072 0.947626 0.962239 0.974734 0.984928 0.992642 0.997694 0.999910 0.999115 0.995143 0.987835 0.977040 0.962620 0.944450 0.922420 0.896438 0.866433 0.832354 0.794176 0.751902 0.705562 0.655217 0.600963 0.542931 0.481287 0.416237 0.348026 0.276940 0.203306 0.127493 0.049908 0.028997 0.108734 0.188777 0.268564 0.347502 0.424970 0.500321 0.572891 0.642002 0.706968 0.767106 0.821736 0.870197 0.911851 0.946096 0.972368 0.990160 0.999025 0.998590 0.988563 0.968743 0.939029 0.899429 0.850064 0.791178 0.723143 0.646457 0.561753 0.469793 0.371469 0.267799 0.159916 0.049065 0.063412 0.176089 0.287474 0.396024 0.500170 0.598339 0.688977 0.770576 0.841704 0.901029 0.947351 0.979628 0.997003 0.998832 0.984702 0.954458 0.908217 0.846380 0.769642 0.678993 0.575718 0.461385 0.337830 0.207136 0.071603 0.066287 0.203914 0.338565 0.467488 0.587950 0.697293 0.793005 0.872773 0.934554 0.976628 0.997659 0.996741 0.973442 0.927837 0.860532 0.772671 0.665931 0.542514 0.405106 0.256833 0.101201 0.057981 0.216688 0.370777 0.516097 0.648605 0.764477 0.860234 0.932851 0.979864 0.999473 0.990615 0.953032 0.887312 0.794909 0.678127 0.540092 0.384681 0.216434 0.040430 0.137857 0.312720 0.478398 0.629277 0.760080 0.866060 0.943194 0.988347 0.999420 0.975464 0.916761 0.824859 0.702564 0.553878 0.383902 0.198672 0.004969 0.189921 0.378480 0.553235 0.707073 0.833535 0.927108 0.983482 0.999776 0.974712 0.908721 0.803988 0.664420 0.495530 0.304250 0.098680 0.112250 0.319152 0.512593 0.683528 0.823747 0.926277 0.985762 0.998775 0.964040 0.882576 0.757712 0.595001 0.402015 0.188023 0.036431 0.260022 0.471215 0.658867 0.812818 0.924473 0.987315 0.997317 0.953243 0.856803 0.712648 0.528196 0.313300 0.079755 0.159326 0.390221 0.599402 0.774329 0.904230 0.980798 0.998767 0.956322 0.855314 0.701246 0.503041 0.272573 0.023997 0.227089 0.464608 0.673041 0.838462 0.949493 0.998140 0.980424 0.896759 0.752043 0.555452 0.319911 0.061307 0.202548 0.453141 0.672537 0.844693 0.956679 0.999687 0.969798 0.868401 0.702220 0.482967 0.226562 0.047944 0.319776 0.567971 0.773031 0.918468 0.992197 0.987604 0.904217 0.747895 0.530517 0.269153 0.015199 0.299272 0.559414 0.773567 0.923166 0.994827 0.981612 0.883783 0.708963 0.471638 0.192049 0.105469 0.394570 0.649216 0.846046 0.966574 0.999000 0.939457 0.792561 0.571172 0.295377 0.009251 0.313965 0.589553 0.809125 0.950809 1.000000 0.950969 0.807631 0.583372 0.299921 0.014676 0.328752 0.610190 0.829741 0.964091 0.998456 0.928302 0.760059 0.510675 0.206034 0.121645 0.437159 0.706076 0.898557 0.992714 0.977236 0.852860 0.632550 0.340286 0.008587 0.325052 0.622347 0.848652 0.977050 0.991682 0.889833 0.682528 0.393494 0.056597 0.288052 0.598823 0.837607 0.974563 0.991964 0.886638 0.670656 0.370125 0.022174 0.329535 0.640244 0.869821 0.988025 0.978622 0.841782 0.594367 0.268040 0.094627 0.445673 0.737997
1.000000 1.000000 1.000000 1.000000 1.000000 1.000000 1.000000 1.000000 1.000000 1.000000 1.000000 1.000000 1.000000 1.000000 1.000000 1.000000 1.000000 1.000000 1.000000 1.000000 1.000000 1.000000 1.000000 1.000000 1.000000 1.000000 1.000000 1.000000 1.000000 1.000000 1.000000 1.000000 1.000000 1.000000 1.000000 1.000000 1.000000 1.000000 1.000000 1.000000 1.000000 1.000000 1.000000 1.000000 1.000000 1.000000 1.000000 1.000000 1.000000 1.000000 1.000000 1.000000 0.791434 0.791434 0.791434 0.751950 0.751950 0.751950 0.751950 0.751950 0.751950 0.751950 0.751950 0.751950 0.751950 0.751950 0.751950 0.751950 0.751950 0.751950 0.751950 0.751950 0.751950 0.751950 0.751950 0.751950 0.751950 0.751950 0.751950 0.751950 0.751950 0.751950 0.751950 0.751950 0.751950 0.751950 0.751950 0.751950 0.751950 0.751950 0.751950 0.751950 0.751950 0.751950 0.751950 0.751950 0.802251 0.811249 0.816005 0.824348 0.826193 0.824621 0.822164 0.820997 0.821456 0.822150 0.829525 0.851093 0.862431 0.865173 0.877162 0.880979 0.884308 0.883247 0.906372 0.905284 0.954200 0.953244 0.952970 0.953857 0.960841 0.961797 0.960835 0.959144 0.964319 0.965066 0.963525 0.960961 0.960177 0.957564 0.957101 0.954284 0.954336 0.954776 0.953734 0.954253 0.954248 0.953928 0.951700 0.949351 0.947115 0.946343 0.949443 0.936309 0.933200 0.923781 0.919917 0.928925 0.924217 0.921193 0.919832 0.921299 0.913993 0.880500 0.880459 0.860771 0.853429 0.839413 0.832553 0.832387 0.837338 0.846574 0.850643 0.852891 0.845335 0.833008 0.817436 0.826168 0.810149 0.796067 0.800866 0.787765 0.781283 0.782371 0.769176 0.764458 0.752831 0.747684 0.745734 0.755807 0.760070 0.761485 0.754548 0.753843 0.740406 0.729569 0.707328 0.707352 0.715816 0.710402 0.712109 0.707903 0.709281 0.716340 0.713357 0.705161 0.692298 0.684378 0.670835 0.644416 0.655654 0.628466 0.623957 0.626555 0.600326 0.628694 0.627753 0.669892 0.683692 0.686621 0.682588 0.676947 0.655199 0.670949 0.671462 0.661377 0.662704 0.664691 0.662061 0.659293 0.651413 0.551906 0.544839 0.543426 0.544978 0.532515 0.547407 0.548938 0.537677 0.525700 0.507670 0.467833 0.408480 0.344839 0.350196 0.346727 0.327617 0.318098 0.309537 0.341272 0.346392 0.350421 0.302309 0.268294 0.263333 0.236247 0.226045 0.192121 0.202828 0.231359 0.224547 0.195654 0.162596 0.153996 0.131627 0.137886 0.139179 0.107180 0.138025 0.101323 0.094169 0.066097 0.085459 0.071993 0.024258 -0.071527 -0.036825 -0.038432 -0.003184 -0.007398 -0.030030 0.012970 -0.007082 -0.038161 -0.041532 -0.064331 -0.103401 -0.047232 -0.048495 -0.069208 -0.053989 -0.073957 -0.050881 -0.057129 -0.075383 -0.090487 -0.110317 -0.086151 -0.073020 -0.018022 -0.019412 -0.016130 -0.059180 -0.050510 -0.050062 -0.088689 -0.062578 -0.007905 0.007569 0.006538 0.001318 0.018657 0.042245 0.041769 0.055999 0.041797 0.040034 0.020193 0.041893 0.032843 0.011112 0.014102 0.028569 0.032639 0.055235 0.045574 0.048239 0.069447 0.039066 0.055327 0.066572 0.053174 0.065445 0.060912 0.107603 0.069307 0.043420 0.039999 0.046600 0.028013 0.059318 0.115226 0.134824 0.108128 0.105559 0.105559 0.105559 0.105559 0.107862 0.107862 0.107862 0.107862 0.107862 0.107862 0.107862 0.107862 0.107862 0.083563 0.083563 0.083563 0.083563 0.083563 0.083563 0.083563 0.083563 0.083563 0.083563 0.083563 0.083563 0.083563 0.083563 0.083563 0.083563
0.000000 0.000000 0.000000 0.000000 0.000000 0.000000 0.000000 0.000000 0.000000 0.000000 0.000000 0.000000 0.000000 0.000000 0.000000 0.000000 0.000000 0.000000 0.000000 0.000000 0.000000 0.000000 0.000000 0.000000 0.000000 0.000000 0.000000 0.000000 0.000000 0.000000 0.000000 0.000000 0.000000 0.000000 0.000000 0.000000 0.000000 0.000000 0.000000 0.000000 0.000000 0.000000 0.000000 0.000000 0.000000 0.000000 0.000000 0.000000 0.000000 0.000000 0.000000 0.000000 0.180334 0.180334 0.180334 0.199007 0.199007 0.199007 0.199007 0.199007 0.199007 0.199007 0.199007 0.199007 0.199007 0.199007 0.199007 0.199007 0.199007 0.199007 0.199007 0.199007 0.199007 0.199007 0.199007 0.199007 0.199007 0.199007 0.199007 0.199007 0.199007 0.199007 0.199007 0.199007 0.199007 0.199007 0.199007 0.199007 0.199007 0.199007 0.199007 0.199007 0.199007 0.199007 0.199007 0.199007 0.230940 0.230940 0.230940 0.230940 0.230940 0.230940 0.230940 0.230940 0.230940 0.230940 0.230940 0.230940 0.230940 0.230940 0.230940 0.230940 0.230940 0.230940 0.230940 0.230940 0.230940 0.230940 0.230940 0.230940 0.230940 0.230940 0.230940 0.230940 0.244339 0.244339 0.244339 0.244339 0.244339 0.244339 0.244339 0.244339 0.244339 0.244339 0.244339 0.244339 0.244339 0.244339 0.244339 0.244339 0.244339 0.244339 0.244339 0.244339 0.244339 0.244339 0.244339 0.251976 0.251976 0.251976 0.251976 0.251976 0.251976 0.251976 0.251976 0.251976 0.251976 0.251976 0.251976 0.251976 0.251976 0.251976 0.251976 0.251976 0.251976 0.251976 0.251976 0.264906 0.264906 0.264906 0.264906 0.264906 0.264906 0.264906 0.264906 0.264906 0.264906 0.264906 0.264906 0.264906 0.264906 0.264906 0.264906 0.264906 0.264906 0.264906 0.264906 0.264906 0.264906 0.264906 0.264906 0.264906 0.264906 0.264906 0.264906 0.264906 0.264906 0.264906 0.264906 0.264906 0.264906 0.264906 0.264906 0.264906 0.264906 0.264906 0.264906 0.264906 0.264906 0.264906 0.264906 0.264906 0.264906 0.264906 0.264906 0.264906 0.264906 0.264906 0.264906 0.264906 0.264906 0.264906 0.264906 0.264906 0.264906 0.264906 0.264906 0.264906 0.264906 0.264906 0.264906 0.264906 0.264906 0.264906 0.264906 0.264906 0.264906 0.264906 0.264906 0.264906 0.264906 0.264906 0.260378 0.260378 0.260378 0.260378 0.260378 0.260378 0.260378 0.260378 0.260378 0.260378 0.260378 0.260378 0.260378 0.264906 0.264906 0.264906 0.264906 0.264906 0.264906 0.264906 0.264906 0.264906 0.264906 0.264906 0.264906 0.269680 0.269680 0.269680 0.269680 0.269680 0.269680 0.269680 0.269680 0.269680 0.269680 0.269680 0.264906 0.264906 0.264906 0.264906 0.264906 0.264906 0.264906 0.264906 0.264906 0.264906 0.264906 0.269680 0.269680 0.269680 0.269680 0.269680 0.269680 0.269680 0.269680 0.269680 0.269680 0.251976 0.251976 0.251976 0.251976 0.251976 0.251976 0.251976 0.251976 0.251976 0.251976 0.251976 0.269680 0.269680 0.269680 0.269680 0.269680 0.269680 0.269680 0.269680 0.269680 0.256074 0.256074 0.256074 0.256074 0.256074 0.256074 0.256074 0.256074 0.256074 0.256074 0.260378 0.260378 0.260378 0.260378 0.260378 0.260378 0.260378 0.260378 0.260378 0.256074 0.256074 0.256074 0.256074 0.256074 0.256074 0.256074 0.256074 0.256074 0.251976 0.251976 0.251976 0.251976 0.251976 0.251976 0.251976 0.251976 0.251976 0.251976 0.251976 0.251976 0.251976 0.251976 0.251976 0.251976
