# Output from CTFFind version 4.1.9, run on 2019-11-03 20:08:36
# Input file: stack6_bm3d_averaged_1_6.0_0_2000_half.mrc ; Number of micrographs: 1
# Pixel size: 3.000 Angstroms ; acceleration voltage: 300.0 keV ; spherical aberration: 0.00 mm ; amplitude contrast: 0.07
# Box size: 512 pixels ; min. res.: 30.0 Angstroms ; max. res.: 5.0 Angstroms ; min. def.: 5000.0 um; max. def. 50000.0 um; num. frames averaged: 1
# 6 lines per micrograph: #1 - spatial frequency (1/Angstroms); #2 - 1D rotational average of spectrum (assuming no astigmatism); #3 - 1D rotational average of spectrum; #4 - CTF fit; #5 - cross-correlation between spectrum and CTF fit; #6 - 2sigma of expected cross correlation of noise
0.000000 0.000651 0.001302 0.001953 0.002604 0.003255 0.003906 0.004557 0.005208 0.005859 0.006510 0.007161 0.007812 0.008464 0.009115 0.009766 0.010417 0.011068 0.011719 0.012370 0.013021 0.013672 0.014323 0.014974 0.015625 0.016276 0.016927 0.017578 0.018229 0.018880 0.019531 0.020182 0.020833 0.021484 0.022135 0.022786 0.023438 0.024089 0.024740 0.025391 0.026042 0.026693 0.027344 0.027995 0.028646 0.029297 0.029948 0.030599 0.031250 0.031901 0.032552 0.033203 0.033854 0.034505 0.035156 0.035807 0.036458 0.037109 0.037760 0.038411 0.039062 0.039714 0.040365 0.041016 0.041667 0.042318 0.042969 0.043620 0.044271 0.044922 0.045573 0.046224 0.046875 0.047526 0.048177 0.048828 0.049479 0.050130 0.050781 0.051432 0.052083 0.052734 0.053385 0.054036 0.054688 0.055339 0.055990 0.056641 0.057292 0.057943 0.058594 0.059245 0.059896 0.060547 0.061198 0.061849 0.062500 0.063151 0.063802 0.064453 0.065104 0.065755 0.066406 0.067057 0.067708 0.068359 0.069010 0.069661 0.070312 0.070964 0.071615 0.072266 0.072917 0.073568 0.074219 0.074870 0.075521 0.076172 0.076823 0.077474 0.078125 0.078776 0.079427 0.080078 0.080729 0.081380 0.082031 0.082682 0.083333 0.083984 0.084635 0.085286 0.085938 0.086589 0.087240 0.087891 0.088542 0.089193 0.089844 0.090495 0.091146 0.091797 0.092448 0.093099 0.093750 0.094401 0.095052 0.095703 0.096354 0.097005 0.097656 0.098307 0.098958 0.099609 0.100260 0.100911 0.101562 0.102214 0.102865 0.103516 0.104167 0.104818 0.105469 0.106120 0.106771 0.107422 0.108073 0.108724 0.109375 0.110026 0.110677 0.111328 0.111979 0.112630 0.113281 0.113932 0.114583 0.115234 0.115885 0.116536 0.117188 0.117839 0.118490 0.119141 0.119792 0.120443 0.121094 0.121745 0.122396 0.123047 0.123698 0.124349 0.125000 0.125651 0.126302 0.126953 0.127604 0.128255 0.128906 0.129557 0.130208 0.130859 0.131510 0.132161 0.132812 0.133464 0.134115 0.134766 0.135417 0.136068 0.136719 0.137370 0.138021 0.138672 0.139323 0.139974 0.140625 0.141276 0.141927 0.142578 0.143229 0.143880 0.144531 0.145182 0.145833 0.146484 0.147135 0.147786 0.148438 0.149089 0.149740 0.150391 0.151042 0.151693 0.152344 0.152995 0.153646 0.154297 0.154948 0.155599 0.156250 0.156901 0.157552 0.158203 0.158854 0.159505 0.160156 0.160807 0.161458 0.162109 0.162760 0.163411 0.164062 0.164714 0.165365 0.166016 0.166667 0.167318 0.167969 0.168620 0.169271 0.169922 0.170573 0.171224 0.171875 0.172526 0.173177 0.173828 0.174479 0.175130 0.175781 0.176432 0.177083 0.177734 0.178385 0.179036 0.179688 0.180339 0.180990 0.181641 0.182292 0.182943 0.183594 0.184245 0.184896 0.185547 0.186198 0.186849 0.187500 0.188151 0.188802 0.189453 0.190104 0.190755 0.191406 0.192057 0.192708 0.193359 0.194010 0.194661 0.195312 0.195964 0.196615 0.197266 0.197917 0.198568 0.199219 0.199870 0.200521 0.201172 0.201823 0.202474 0.203125 0.203776 0.204427 0.205078 0.205729 0.206380 0.207031 0.207682 0.208333 0.208984 0.209635 0.210286 0.210938 0.211589 0.212240 0.212891 0.213542 0.214193 0.214844 0.215495 0.216146 0.216797 0.217448 0.218099 0.218750 0.219401 0.220052 0.220703 0.221354 0.222005 0.222656 0.223307 0.223958 0.224609 0.225260 0.225911 0.226562 0.227214 0.227865 0.228516 0.229167 0.229818 0.230469 0.231120 0.231771 0.232422 0.233073 0.233724 0.234375 0.235026 0.235677
       0.31725        0.31725        0.31725        0.31725        0.31725        0.31725        0.31725        0.31725        0.31724        0.31725        0.31725        0.31724        0.31725        0.31725        0.31725        0.31724        0.31725        0.31724        0.31725        0.31725        0.31724        0.31725        0.31724        0.31725        0.31724        0.31725        0.31725        0.31725        0.31724        0.31725        0.31724        0.31725        0.31725        0.31725        0.31725        0.31724        0.31725        0.31725        0.31725        0.31725        0.31724        0.31725        0.31725        0.31724        0.31724        0.31725        0.31725        0.31725        0.31724        0.31724        0.31725        0.59790        0.71843        0.35824        0.17937        0.12984       -0.14298        0.10865        0.03255        0.03538        0.09021        0.30689        0.31908        0.24547        0.14447       -0.03911       -0.01307        0.04352       -0.11734       -0.12451       -0.07993       -0.09451       -0.20767       -0.13528       -0.24985       -0.26649       -0.26312       -0.32588       -0.40214       -0.33834       -0.24577       -0.21512       -0.31723       -0.23413       -0.28605       -0.22696       -0.15447       -0.09988       -0.06566       -0.00031        0.03839        0.13270        0.17527        0.21663        0.33838        0.40556        0.35628        0.46780        0.54577        0.55443        0.63584        0.56746        0.59941        0.59959        0.60858        0.60872        0.55389        0.57960        0.54635        0.39108        0.33435        0.36781        0.34408        0.19790        0.17350        0.14636        0.09321        0.09820        0.01669        0.07536        0.05526        0.01309        0.10679        0.16862        0.26325        0.35213        0.34851        0.37626        0.45213        0.48751        0.41771        0.64598        0.53911        0.48168        0.57206        0.49877        0.54006        0.50269        0.37180        0.30955        0.28572        0.23617        0.22596        0.20012        0.17958        0.14487        0.22497        0.20574        0.24197        0.21096        0.26756        0.32019        0.33471        0.44397        0.43677        0.41483        0.42325        0.47132        0.43833        0.42721        0.39366        0.40057        0.33611        0.28511        0.24999        0.25408        0.25011        0.19673        0.17236        0.22913        0.23756        0.27406        0.34511        0.36440        0.41616        0.39801        0.43041        0.46669        0.45785        0.42673        0.38843        0.41338        0.37108        0.32616        0.33315        0.31557        0.25846        0.27687        0.27450        0.23923        0.30534        0.28131        0.29604        0.32192        0.38095        0.41224        0.40452        0.42973        0.37610        0.41614        0.39147        0.30988        0.28762        0.25005        0.26522        0.22886        0.20374        0.29496        0.35336        0.32104        0.29319        0.34792        0.27211        0.33061        0.38310        0.37317        0.36062        0.38263        0.33013        0.34791        0.33013        0.29034        0.28155        0.24565        0.29772        0.31042        0.32436        0.34047        0.37939        0.37358        0.37224        0.32664        0.35001        0.34330        0.32706        0.32175        0.29068        0.28614        0.25662        0.32459        0.33056        0.32625        0.29700        0.33404        0.33936        0.33178        0.34692        0.32565        0.29252        0.29151        0.29494        0.26817        0.25071        0.24192        0.24659        0.26406        0.25096        0.29133        0.28214        0.32165        0.33178        0.26516        0.29935        0.27566        0.21907        0.27027        0.25184        0.24737        0.28310        0.30900        0.30674        0.30171        0.30208        0.29903        0.31721        0.33656        0.28535        0.31587        0.31217        0.36073        0.28321        0.26929        0.26613        0.31045        0.32037        0.33177        0.34796        0.30962        0.22963        0.28899        0.25396        0.24756        0.24825        0.25200        0.28900        0.22849        0.29851        0.31807        0.35336        0.31341        0.29191        0.25612        0.27688        0.28230        0.23902        0.26244        0.27767        0.30874        0.33581        0.31758        0.29328        0.28226        0.31635        0.26468        0.23321        0.19120        0.30000        0.33775        0.33049        0.31314        0.29731        0.23715        0.21249        0.24770        0.24826        0.24644        0.27090        0.28178        0.25056        0.25226        0.23499        0.28841        0.25354        0.25210        0.26287        0.25697        0.18547        0.23838        0.24472        0.23216        0.29201        0.24981        0.25115        0.21079        0.21643        0.26630        0.22404        0.23223        0.15328        0.15196        0.31902        0.20299        0.20843        0.28886        0.17203        0.16211        0.14069        0.25029        0.18121        0.15966       -0.05322       -0.59392       -0.92287
2.320386 2.300650 2.281003 2.261443 2.241971 2.222588 2.203292 2.184085 2.164965 2.145934 2.126991 2.108136 2.089369 2.070690 2.052100 2.033597 2.015183 1.996856 1.978618 1.960468 1.942406 1.924432 1.906546 1.888748 1.871039 1.853417 1.835884 1.818438 1.801081 1.783812 1.766631 1.749538 1.732533 1.715616 1.698787 1.682047 1.665394 1.648830 1.632353 1.615965 1.599665 1.583453 1.567329 1.551294 1.535346 1.519486 1.503715 1.488031 1.472436 1.456929 1.441510 1.801018 2.132405 1.475334 1.324025 1.076969 0.522172 0.910070 0.818173 0.829136 0.699918 1.373652 1.197901 1.212302 0.972645 0.625286 0.483882 0.745018 0.572862 0.253091 0.295377 0.478175 0.229041 0.254540 0.108784 0.002435 -0.016010 -0.010473 -0.302157 -0.168386 -0.004026 -0.033487 -0.096268 -0.017965 -0.129796 -0.111162 0.062407 0.167522 0.235350 0.272617 0.357420 0.600140 0.547024 0.625129 0.818446 1.016137 0.796281 1.204515 1.159762 1.226187 1.331746 1.231987 1.176650 1.321312 1.206105 1.335800 1.163509 1.124598 1.187501 0.949593 0.664702 0.725314 0.776426 0.479926 0.406933 0.355832 0.205430 0.192870 0.042314 0.189243 0.153454 0.020810 0.112359 0.227847 0.342745 0.602652 0.594151 0.570771 0.701965 0.873635 0.582004 1.015884 1.010020 0.756124 0.911250 0.754036 0.836836 0.872314 0.602609 0.392500 0.396250 0.336450 0.213020 0.188758 0.170635 -0.010955 0.200886 0.167390 0.235722 0.123906 0.261850 0.320644 0.282776 0.486990 0.590371 0.514382 0.362158 0.671924 0.552034 0.466752 0.505783 0.440565 0.302499 0.329791 0.123920 0.191695 0.042317 0.194445 -0.065355 0.052087 0.038531 0.239598 0.085468 0.375261 0.322902 0.378693 0.397880 0.398607 0.563765 0.400145 0.376057 0.426234 0.224098 0.328716 0.151242 0.264222 0.078526 0.119110 0.095824 0.083531 0.045138 0.157998 0.064536 0.146733 0.236453 0.277522 0.343912 0.269750 0.336789 0.256567 0.295878 0.180337 0.098140 0.037128 -0.009236 0.019758 -0.084323 -0.059640 0.108824 0.204923 0.068429 0.108838 0.108152 0.023531 0.175718 0.231827 0.183291 0.221146 0.139518 0.136526 0.111683 0.104782 0.053464 -0.074551 -0.023005 0.141004 0.009610 0.135819 0.103872 0.228644 0.212500 0.184154 0.132725 0.186516 0.101331 0.118059 0.114029 0.047259 -0.008408 0.016698 0.123863 0.133486 0.110384 0.051983 0.145491 0.116119 0.066509 0.130246 0.031383 -0.014994 0.023976 -0.003579 -0.043543 -0.075666 -0.100132 -0.035453 -0.059536 -0.079408 0.015087 0.004681 0.083075 0.075809 -0.058706 0.058143 -0.047454 -0.111614 0.025747 -0.066600 -0.079808 0.039814 0.069921 0.025370 0.057629 -0.030816 0.048202 0.130595 -0.014441 -0.013266 0.088357 0.039536 0.127242 -0.054289 -0.031592 -0.045551 0.100393 0.033202 0.069785 0.142531 0.014980 -0.095886 0.005997 -0.048803 -0.060476 -0.055553 -0.054888 0.021823 -0.136619 0.106740 0.076447 0.174566 0.041949 -0.004745 -0.009762 0.014341 0.056356 -0.070642 0.029579 0.019772 0.113562 0.110096 0.135046 0.080959 0.076886 0.169176 -0.025971 0.008347 -0.126925 0.165243 0.173416 0.156460 0.136011 0.064846 -0.031245 -0.072093 -0.026764 -0.000319 -0.009882 0.034928 0.083956 -0.015531 0.004365 0.029177 0.078659 0.058893 0.049798 0.075095 0.011935 -0.039311 0.030185 0.058203 0.018689 0.158805 0.055060 0.017853 0.054092 0.041067 0.109909 0.135143 0.075677 -0.058276 -0.161178 0.419944 0.441808 0.350382 0.553245 0.256888 0.295171 0.203063 0.539737 0.339179 0.310749 0.196749 -0.859548
0.072396 0.072838 0.074163 0.076371 0.079462 0.083435 0.088289 0.094022 0.100634 0.108122 0.116484 0.125716 0.135815 0.146776 0.158594 0.171262 0.184772 0.199116 0.214282 0.230259 0.247032 0.264586 0.282903 0.301961 0.321739 0.342209 0.363344 0.385111 0.407474 0.430396 0.453833 0.477738 0.502061 0.526747 0.551735 0.576960 0.602354 0.627843 0.653346 0.678779 0.704051 0.729069 0.753731 0.777931 0.801559 0.824499 0.846629 0.867825 0.887956 0.906890 0.924488 0.940610 0.955112 0.967851 0.978680 0.987451 0.994019 0.998237 0.999964 0.999060 0.995388 0.988821 0.979236 0.966518 0.950564 0.931282 0.908590 0.882425 0.852736 0.819493 0.782682 0.742313 0.698416 0.651047 0.600285 0.546238 0.489041 0.428857 0.365881 0.300336 0.232478 0.162594 0.091002 0.018050 0.055883 0.130388 0.205031 0.279348 0.352856 0.425047 0.495396 0.563366 0.628407 0.689964 0.747479 0.800402 0.848190 0.890315 0.926273 0.955588 0.977820 0.992569 0.999485 0.998277 0.988713 0.970632 0.943948 0.908657 0.864842 0.812675 0.752424 0.684454 0.609231 0.527317 0.439375 0.346165 0.248540 0.147440 0.043885 0.061028 0.166143 0.270251 0.372106 0.470437 0.563965 0.651424 0.731572 0.803218 0.865233 0.916578 0.956321 0.983654 0.997916 0.998607 0.985407 0.958192 0.917039 0.862242 0.794319 0.714007 0.622269 0.520285 0.409446 0.291336 0.167716 0.040506 0.088250 0.216406 0.341757 0.462066 0.575119 0.678750 0.770902 0.849658 0.913296 0.960323 0.989521 0.999980 0.991137 0.962795 0.915150 0.848800 0.764752 0.664419 0.549605 0.422480 0.285552 0.141622 0.006269 0.154897 0.300927 0.440980 0.571721 0.689935 0.792613 0.877034 0.940842 0.982127 0.999484 0.992074 0.959665 0.902665 0.822136 0.719788 0.597962 0.459586 0.308120 0.147478 0.018066 0.183983 0.345614 0.498297 0.637510 0.759000 0.858929 0.934004 0.981593 0.999836 0.987727 0.945176 0.873050 0.773168 0.648289 0.502048 0.338864 0.163824 0.017463 0.199040 0.374797 0.538674 0.684877 0.808085 0.903659 0.967832 0.997874 0.992225 0.950588 0.873990 0.764777 0.626575 0.464192 0.283467 0.091080 0.105682 0.299199 0.481803 0.646095 0.785242 0.893285 0.965408 0.998170 0.989698 0.939809 0.850073 0.723801 0.565943 0.382939 0.182460 0.026882 0.235900 0.435226 0.615737 0.768976 0.887568 0.965597 0.998919 0.985421 0.925170 0.820481 0.675864 0.497862 0.294798 0.076395 0.146661 0.363236 0.562304 0.733521 0.867767 0.957665 0.998014 0.986118 0.922006 0.808499 0.651135 0.457938 0.239048 0.006209 0.227834 0.450029 0.647754 0.809529 0.925727 0.989163 0.995583 0.943987 0.836772 0.679681 0.481538 0.253798 0.009912 0.235431 0.467203 0.670938 0.833664 0.944749 0.996643 0.985427 0.911160 0.777971 0.593885 0.370404 0.121820 0.135662 0.384967 0.609279 0.793179 0.923751 0.991510 0.991152 0.922021 0.788260 0.598637 0.366026 0.106581 0.161341 0.418481 0.646035 0.827068 0.947796 0.998685 0.975268 0.878586 0.715243 0.497021 0.240102 0.036101 0.310362 0.561273 0.768927 0.916516 0.991754 0.987952 0.904681 0.747947 0.529842 0.267673 0.017345 0.301778 0.561874 0.775578 0.924413 0.995148 0.981031 0.882517 0.707374 0.470168 0.191118 0.105567 0.393759 0.647693 0.844311 0.965377 0.999256 0.942097 0.798357 0.580554 0.308267 0.006448 0.296823 0.572914 0.795383 0.942524 0.999570 0.960250 0.827572 0.613716 0.339009 0.030078 0.282680 0.568056 0.797160 0.946401 0.999962
1.000000 1.000000 1.000000 1.000000 1.000000 1.000000 1.000000 1.000000 1.000000 1.000000 1.000000 1.000000 1.000000 1.000000 1.000000 1.000000 1.000000 1.000000 1.000000 1.000000 1.000000 1.000000 1.000000 1.000000 1.000000 1.000000 1.000000 1.000000 1.000000 1.000000 1.000000 1.000000 1.000000 1.000000 1.000000 1.000000 1.000000 1.000000 1.000000 1.000000 1.000000 1.000000 1.000000 1.000000 1.000000 1.000000 1.000000 1.000000 1.000000 1.000000 1.000000 1.000000 0.781327 0.781327 0.781327 0.781327 0.781327 0.781327 0.781327 0.766525 0.766525 0.766525 0.766525 0.766525 0.766525 0.766525 0.766525 0.766525 0.766525 0.766525 0.766525 0.766525 0.766525 0.766525 0.766525 0.766525 0.766525 0.766525 0.766525 0.766525 0.766525 0.766525 0.766525 0.766525 0.766525 0.766525 0.766525 0.766525 0.766525 0.766525 0.766525 0.766525 0.766525 0.766525 0.766525 0.766525 0.766525 0.766525 0.766525 0.766525 0.766525 0.766525 0.766525 0.911582 0.912884 0.915600 0.910517 0.912336 0.910279 0.903827 0.906792 0.906089 0.905936 0.906892 0.908159 0.910008 0.915043 0.921487 0.923284 0.931010 0.934346 0.935624 0.935678 0.932770 0.940302 0.937928 0.936185 0.924301 0.927577 0.927205 0.927357 0.926171 0.926290 0.927567 0.927486 0.925370 0.923538 0.921335 0.919538 0.921280 0.920877 0.921064 0.921228 0.921409 0.921315 0.921898 0.918041 0.920300 0.919180 0.915606 0.912253 0.911800 0.912915 0.906046 0.902675 0.893359 0.894569 0.893502 0.898736 0.893687 0.893427 0.894656 0.895419 0.896080 0.894011 0.894064 0.891620 0.893409 0.890007 0.885742 0.882049 0.882453 0.884175 0.891516 0.894182 0.893283 0.889725 0.882972 0.873517 0.871089 0.857681 0.828996 0.830009 0.833187 0.835010 0.835914 0.835261 0.833462 0.829118 0.820393 0.811653 0.816297 0.815974 0.807957 0.798137 0.798594 0.795673 0.803275 0.806506 0.798052 0.800728 0.798536 0.796758 0.797533 0.797340 0.796745 0.791401 0.793428 0.802123 0.802739 0.792653 0.787113 0.782915 0.762857 0.765931 0.772438 0.780296 0.781511 0.776682 0.762716 0.771312 0.766097 0.781799 0.794947 0.793338 0.789516 0.768954 0.726918 0.714508 0.703687 0.706355 0.708095 0.693485 0.686792 0.687693 0.692329 0.642746 0.629246 0.617849 0.616763 0.625198 0.629732 0.623464 0.587946 0.606122 0.603539 0.586491 0.582988 0.548958 0.531092 0.486209 0.488741 0.485755 0.461886 0.446099 0.436060 0.450956 0.461721 0.459921 0.458606 0.429439 0.412477 0.414199 0.413440 0.418037 0.417730 0.424474 0.379193 0.357875 0.344460 0.366166 0.368163 0.368010 0.378235 0.379798 0.378424 0.359497 0.342833 0.333424 0.347679 0.366003 0.374992 0.376862 0.343419 0.326179 0.304353 0.310791 0.352654 0.343071 0.346705 0.340557 0.345910 0.367794 0.352314 0.330715 0.309877 0.348553 0.345102 0.336353 0.310461 0.311281 0.330355 0.332705 0.328240 0.317880 0.352311 0.381991 0.373824 0.380052 0.365557 0.398869 0.447891 0.434496 0.431255 0.454754 0.447162 0.441568 0.415415 0.402796 0.400465 0.375769 0.367898 0.346701 0.331067 0.318691 0.324893 0.350273 0.356266 0.390852 0.367413 0.335180 0.236219 0.312712 0.225709 0.230226 0.230226 0.230226 0.230226 0.230226 0.230226 0.230226 0.230226 0.248851 0.248851 0.248851 0.248851 0.248851 0.248851 0.248851 0.248851 0.248851 0.248851 0.248851 0.248851 0.248851 0.248851 0.248851 0.248851 0.248851 0.248851 0.248851 0.248851 0.248851
0.000000 0.000000 0.000000 0.000000 0.000000 0.000000 0.000000 0.000000 0.000000 0.000000 0.000000 0.000000 0.000000 0.000000 0.000000 0.000000 0.000000 0.000000 0.000000 0.000000 0.000000 0.000000 0.000000 0.000000 0.000000 0.000000 0.000000 0.000000 0.000000 0.000000 0.000000 0.000000 0.000000 0.000000 0.000000 0.000000 0.000000 0.000000 0.000000 0.000000 0.000000 0.000000 0.000000 0.000000 0.000000 0.000000 0.000000 0.000000 0.000000 0.000000 0.000000 0.000000 0.173422 0.173422 0.173422 0.173422 0.173422 0.173422 0.173422 0.191565 0.191565 0.191565 0.191565 0.191565 0.191565 0.191565 0.191565 0.191565 0.191565 0.191565 0.191565 0.191565 0.191565 0.191565 0.191565 0.191565 0.191565 0.191565 0.191565 0.191565 0.191565 0.191565 0.191565 0.191565 0.191565 0.191565 0.191565 0.191565 0.191565 0.191565 0.191565 0.191565 0.191565 0.191565 0.191565 0.191565 0.191565 0.191565 0.191565 0.191565 0.191565 0.191565 0.191565 0.222222 0.222222 0.222222 0.222222 0.222222 0.222222 0.222222 0.222222 0.222222 0.222222 0.222222 0.222222 0.222222 0.222222 0.222222 0.222222 0.222222 0.222222 0.222222 0.222222 0.222222 0.222222 0.222222 0.222222 0.222222 0.222222 0.222222 0.222222 0.222222 0.222222 0.234082 0.234082 0.234082 0.234082 0.234082 0.234082 0.234082 0.234082 0.234082 0.234082 0.234082 0.234082 0.234082 0.234082 0.234082 0.234082 0.234082 0.234082 0.234082 0.234082 0.234082 0.234082 0.234082 0.234082 0.234082 0.244339 0.244339 0.244339 0.244339 0.244339 0.244339 0.244339 0.244339 0.244339 0.244339 0.244339 0.244339 0.244339 0.244339 0.244339 0.244339 0.244339 0.244339 0.244339 0.244339 0.244339 0.248069 0.248069 0.248069 0.248069 0.248069 0.248069 0.248069 0.248069 0.248069 0.248069 0.248069 0.248069 0.248069 0.248069 0.248069 0.248069 0.248069 0.248069 0.248069 0.256074 0.256074 0.256074 0.256074 0.256074 0.256074 0.256074 0.256074 0.256074 0.256074 0.256074 0.256074 0.256074 0.256074 0.256074 0.256074 0.256074 0.256074 0.256074 0.256074 0.256074 0.256074 0.256074 0.256074 0.256074 0.256074 0.256074 0.256074 0.256074 0.256074 0.256074 0.256074 0.256074 0.256074 0.256074 0.256074 0.256074 0.256074 0.256074 0.256074 0.256074 0.256074 0.256074 0.256074 0.256074 0.256074 0.256074 0.256074 0.256074 0.256074 0.256074 0.256074 0.256074 0.256074 0.256074 0.256074 0.256074 0.256074 0.256074 0.256074 0.256074 0.256074 0.260378 0.260378 0.260378 0.260378 0.260378 0.260378 0.260378 0.260378 0.260378 0.260378 0.260378 0.260378 0.260378 0.256074 0.256074 0.256074 0.256074 0.256074 0.256074 0.256074 0.256074 0.256074 0.256074 0.256074 0.256074 0.256074 0.260378 0.260378 0.260378 0.260378 0.260378 0.260378 0.260378 0.260378 0.260378 0.260378 0.260378 0.260378 0.251976 0.251976 0.251976 0.251976 0.251976 0.251976 0.251976 0.251976 0.251976 0.251976 0.251976 0.251976 0.256074 0.256074 0.256074 0.256074 0.256074 0.256074 0.256074 0.256074 0.256074 0.256074 0.256074 0.251976 0.251976 0.251976 0.251976 0.251976 0.251976 0.251976 0.251976 0.251976 0.251976 0.251976 0.260378 0.260378 0.260378 0.260378 0.260378 0.260378 0.260378 0.260378 0.260378 0.260378 0.244339 0.244339 0.244339 0.244339 0.244339 0.244339 0.244339 0.244339 0.244339 0.244339 0.244339 0.244339 0.244339 0.244339 0.244339 0.244339 0.244339 0.244339 0.244339 0.244339 0.244339
