# Output from CTFFind version 4.1.9, run on 2019-11-03 19:00:08
# Input file: stack1_bm3d_averaged_1_2.75_0_3000_half.mrc ; Number of micrographs: 1
# Pixel size: 3.000 Angstroms ; acceleration voltage: 300.0 keV ; spherical aberration: 0.00 mm ; amplitude contrast: 0.07
# Box size: 512 pixels ; min. res.: 30.0 Angstroms ; max. res.: 5.0 Angstroms ; min. def.: 5000.0 um; max. def. 50000.0 um; num. frames averaged: 1
# 6 lines per micrograph: #1 - spatial frequency (1/Angstroms); #2 - 1D rotational average of spectrum (assuming no astigmatism); #3 - 1D rotational average of spectrum; #4 - CTF fit; #5 - cross-correlation between spectrum and CTF fit; #6 - 2sigma of expected cross correlation of noise
0.000000 0.000651 0.001302 0.001953 0.002604 0.003255 0.003906 0.004557 0.005208 0.005859 0.006510 0.007161 0.007812 0.008464 0.009115 0.009766 0.010417 0.011068 0.011719 0.012370 0.013021 0.013672 0.014323 0.014974 0.015625 0.016276 0.016927 0.017578 0.018229 0.018880 0.019531 0.020182 0.020833 0.021484 0.022135 0.022786 0.023438 0.024089 0.024740 0.025391 0.026042 0.026693 0.027344 0.027995 0.028646 0.029297 0.029948 0.030599 0.031250 0.031901 0.032552 0.033203 0.033854 0.034505 0.035156 0.035807 0.036458 0.037109 0.037760 0.038411 0.039062 0.039714 0.040365 0.041016 0.041667 0.042318 0.042969 0.043620 0.044271 0.044922 0.045573 0.046224 0.046875 0.047526 0.048177 0.048828 0.049479 0.050130 0.050781 0.051432 0.052083 0.052734 0.053385 0.054036 0.054688 0.055339 0.055990 0.056641 0.057292 0.057943 0.058594 0.059245 0.059896 0.060547 0.061198 0.061849 0.062500 0.063151 0.063802 0.064453 0.065104 0.065755 0.066406 0.067057 0.067708 0.068359 0.069010 0.069661 0.070312 0.070964 0.071615 0.072266 0.072917 0.073568 0.074219 0.074870 0.075521 0.076172 0.076823 0.077474 0.078125 0.078776 0.079427 0.080078 0.080729 0.081380 0.082031 0.082682 0.083333 0.083984 0.084635 0.085286 0.085938 0.086589 0.087240 0.087891 0.088542 0.089193 0.089844 0.090495 0.091146 0.091797 0.092448 0.093099 0.093750 0.094401 0.095052 0.095703 0.096354 0.097005 0.097656 0.098307 0.098958 0.099609 0.100260 0.100911 0.101562 0.102214 0.102865 0.103516 0.104167 0.104818 0.105469 0.106120 0.106771 0.107422 0.108073 0.108724 0.109375 0.110026 0.110677 0.111328 0.111979 0.112630 0.113281 0.113932 0.114583 0.115234 0.115885 0.116536 0.117188 0.117839 0.118490 0.119141 0.119792 0.120443 0.121094 0.121745 0.122396 0.123047 0.123698 0.124349 0.125000 0.125651 0.126302 0.126953 0.127604 0.128255 0.128906 0.129557 0.130208 0.130859 0.131510 0.132161 0.132812 0.133464 0.134115 0.134766 0.135417 0.136068 0.136719 0.137370 0.138021 0.138672 0.139323 0.139974 0.140625 0.141276 0.141927 0.142578 0.143229 0.143880 0.144531 0.145182 0.145833 0.146484 0.147135 0.147786 0.148438 0.149089 0.149740 0.150391 0.151042 0.151693 0.152344 0.152995 0.153646 0.154297 0.154948 0.155599 0.156250 0.156901 0.157552 0.158203 0.158854 0.159505 0.160156 0.160807 0.161458 0.162109 0.162760 0.163411 0.164062 0.164714 0.165365 0.166016 0.166667 0.167318 0.167969 0.168620 0.169271 0.169922 0.170573 0.171224 0.171875 0.172526 0.173177 0.173828 0.174479 0.175130 0.175781 0.176432 0.177083 0.177734 0.178385 0.179036 0.179688 0.180339 0.180990 0.181641 0.182292 0.182943 0.183594 0.184245 0.184896 0.185547 0.186198 0.186849 0.187500 0.188151 0.188802 0.189453 0.190104 0.190755 0.191406 0.192057 0.192708 0.193359 0.194010 0.194661 0.195312 0.195964 0.196615 0.197266 0.197917 0.198568 0.199219 0.199870 0.200521 0.201172 0.201823 0.202474 0.203125 0.203776 0.204427 0.205078 0.205729 0.206380 0.207031 0.207682 0.208333 0.208984 0.209635 0.210286 0.210938 0.211589 0.212240 0.212891 0.213542 0.214193 0.214844 0.215495 0.216146 0.216797 0.217448 0.218099 0.218750 0.219401 0.220052 0.220703 0.221354 0.222005 0.222656 0.223307 0.223958 0.224609 0.225260 0.225911 0.226562 0.227214 0.227865 0.228516 0.229167 0.229818 0.230469 0.231120 0.231771 0.232422 0.233073 0.233724 0.234375 0.235026 0.235677
       0.35144        0.35144        0.35144        0.35144        0.35144        0.35144        0.35144        0.35144        0.35144        0.35144        0.35144        0.35144        0.35144        0.35144        0.35144        0.35144        0.35144        0.35144        0.35144        0.35144        0.35144        0.35144        0.35144        0.35144        0.35144        0.35144        0.35144        0.35144        0.35144        0.35144        0.35144        0.35144        0.35144        0.35144        0.35144        0.35144        0.35144        0.35144        0.35144        0.35144        0.35144        0.35144        0.35144        0.35144        0.35144        0.35144        0.35144        0.35144        0.35144        0.35144        0.35144        0.50337        0.71515        0.42802        0.21797       -0.04317       -0.23093       -0.04497       -0.10302       -0.06130        0.02026       -0.11404       -0.09093       -0.02946       -0.00856       -0.12551       -0.15483       -0.28520       -0.45855       -0.56595       -0.49964       -0.44856       -0.35306       -0.55169       -0.41229       -0.55857       -0.45694       -0.46535       -0.36425       -0.33406       -0.29700       -0.20816       -0.12083       -0.11972        0.02716        0.00686        0.15887        0.19872        0.33828        0.43452        0.51445        0.55715        0.56909        0.59124        0.71376        0.66516        0.68866        0.58976        0.55550        0.64568        0.51453        0.46959        0.42613        0.31771        0.27768        0.30744        0.26898        0.11861        0.09906       -0.00415        0.02099        0.05466        0.01552        0.10722        0.13517        0.21987        0.29413        0.30743        0.43104        0.57187        0.57125        0.57377        0.66893        0.65098        0.63132        0.68569        0.65470        0.55088        0.55908        0.41758        0.36185        0.27605        0.19120        0.11775        0.15620        0.13294        0.14758        0.14536        0.23175        0.23716        0.32295        0.36780        0.42274        0.51800        0.53517        0.56109        0.57549        0.60730        0.56547        0.49777        0.49315        0.35748        0.28701        0.28069        0.26440        0.18759        0.17575        0.19491        0.24493        0.28323        0.36601        0.40235        0.42329        0.45635        0.46233        0.48429        0.44990        0.49496        0.45086        0.39270        0.35911        0.36431        0.33710        0.30908        0.23257        0.24798        0.24017        0.28433        0.28795        0.36891        0.41006        0.39044        0.43181        0.45482        0.45707        0.44808        0.45352        0.36836        0.37232        0.30324        0.26214        0.30165        0.29453        0.32726        0.34216        0.37590        0.36143        0.43391        0.42010        0.45681        0.40854        0.44405        0.39637        0.37289        0.32335        0.30354        0.30356        0.29086        0.30390        0.36066        0.37032        0.36470        0.37346        0.36672        0.36895        0.43182        0.41909        0.37574        0.35969        0.31959        0.30568        0.35057        0.32365        0.34679        0.31243        0.33617        0.36410        0.39685        0.36933        0.34285        0.34539        0.35892        0.33093        0.31350        0.34871        0.33553        0.34988        0.34414        0.35635        0.38729        0.33723        0.32856        0.35230        0.32013        0.29528        0.28815        0.29709        0.32386        0.34461        0.37254        0.32162        0.32126        0.34676        0.31758        0.34169        0.31536        0.31949        0.31188        0.30324        0.30028        0.34189        0.33805        0.34806        0.33879        0.37573        0.35796        0.33124        0.34271        0.34091        0.26516        0.29185        0.34991        0.29129        0.31561        0.36980        0.33820        0.33829        0.36145        0.33587        0.28194        0.27396        0.31460        0.35464        0.38484        0.36560        0.32088        0.31278        0.29759        0.31180        0.28427        0.31998        0.31343        0.34790        0.34059        0.32458        0.29977        0.34840        0.34375        0.33962        0.29852        0.30336        0.35458        0.40123        0.36421        0.36234        0.35088        0.31460        0.31421        0.30872        0.30603        0.30493        0.22260        0.27311        0.33406        0.31533        0.31152        0.31523        0.26306        0.23733        0.25073        0.30106        0.33427        0.30176        0.29969        0.31855        0.39197        0.31281        0.24200        0.33253        0.29425        0.27003        0.29995        0.36161        0.32297        0.32642        0.29515        0.26222        0.29541        0.30422        0.24093        0.19913        0.26958        0.28309        0.22103        0.31379        0.26877        0.36306        0.31671        0.25138        0.26872        0.25116        0.29971        0.32732        0.25547        0.13370        0.17994        0.28560        0.25763        0.29498        0.16653        0.16244       -0.55309       -1.15399
2.719069 2.690300 2.661688 2.633231 2.604929 2.576784 2.548794 2.520960 2.493281 2.465759 2.438392 2.411181 2.384125 2.357225 2.330481 2.303893 2.277460 2.251184 2.225062 2.199097 2.173287 2.147633 2.122135 2.096793 2.071606 2.046575 2.021699 1.996980 1.972416 1.948008 1.923755 1.899659 1.875718 1.851932 1.828303 1.804829 1.781511 1.758349 1.735342 1.712491 1.689796 1.667256 1.644873 1.622645 1.600572 1.578656 1.556895 1.535290 1.513841 1.492547 1.471409 1.518004 1.834160 1.505475 1.245502 0.944030 0.590579 0.927048 0.670134 0.851612 0.914707 0.644526 0.682378 0.803991 0.799532 0.626530 0.605764 0.416795 0.108174 0.051013 0.053526 0.051013 0.314663 -0.037323 0.070556 -0.061519 0.019588 -0.016789 0.094196 0.101906 0.147429 0.192174 0.325370 0.273885 0.461781 0.378563 0.584939 0.562587 0.785931 0.806298 0.913930 0.998736 0.954478 0.981085 1.129707 0.983726 1.132664 0.918732 0.867088 0.978693 0.822723 0.777888 0.676911 0.554730 0.493742 0.481850 0.501030 0.263816 0.215859 0.145716 0.022007 0.202391 0.010555 0.135305 0.217460 0.241026 0.312859 0.351390 0.463940 0.560072 0.692242 0.523368 0.719358 0.799284 0.595650 0.746937 0.695008 0.595968 0.501115 0.471608 0.302213 0.226177 0.097291 0.005972 -0.003568 0.029522 -0.046735 -0.021736 0.085304 0.055730 0.117321 0.203999 0.251433 0.348360 0.411494 0.403721 0.466186 0.423678 0.473815 0.344403 0.330646 0.245383 0.082125 0.064909 0.038365 -0.035583 -0.066644 -0.076759 -0.006654 -0.025000 0.102464 0.145776 0.160235 0.234559 0.227332 0.271523 0.254178 0.221441 0.238054 0.203128 0.111995 0.096220 0.092704 0.039466 0.009385 -0.090654 -0.018067 0.001370 0.017261 0.008127 0.126913 0.115020 0.131255 0.207171 0.256802 0.159691 0.237699 0.101898 0.158962 0.042767 -0.033244 0.022452 -0.001385 0.026997 0.025556 0.090302 0.082971 0.095974 0.180621 0.152446 0.140726 0.123270 0.168065 0.068401 0.066768 -0.008379 -0.015006 -0.008531 -0.035072 0.006891 0.071945 0.086243 0.035223 0.090939 0.087817 0.069268 0.173328 0.089270 0.092025 0.066591 -0.025379 0.040238 0.044612 0.008892 0.061665 0.019900 0.044955 0.045840 0.083755 0.065772 0.043745 0.003934 0.077284 -0.007311 0.026623 0.046510 0.015720 0.069468 0.050667 0.065880 0.077696 0.023685 0.023253 0.036910 0.002214 -0.035905 -0.011298 -0.003267 0.006184 0.045197 0.094957 -0.005981 0.029413 0.087106 -0.016123 0.068590 0.038241 0.023776 0.017681 0.031473 0.017397 0.065981 0.033403 0.094920 0.054695 0.129512 0.096348 0.080237 0.115614 0.053825 -0.018139 0.049023 0.102388 0.016872 0.074784 0.102963 0.036135 0.066403 0.072716 0.030932 -0.007623 -0.061188 0.054472 0.084396 0.117743 0.070899 0.020985 0.018449 0.017091 0.026847 -0.036494 0.051573 0.039225 0.065413 0.096198 0.002002 0.043539 0.013399 0.046360 0.011567 -0.019169 -0.030034 0.092801 0.102717 0.052459 0.040302 0.030125 0.015670 -0.046490 0.000624 -0.046299 -0.004252 -0.145596 -0.028982 0.017494 0.018334 -0.028285 0.007986 -0.027358 -0.065459 -0.023888 -0.022463 0.078739 0.013994 0.033588 0.022744 0.125862 0.070789 -0.013644 0.100130 0.035889 0.025639 0.040944 0.146147 0.080042 0.083323 0.042757 0.020014 0.041400 0.097842 -0.036529 -0.109455 0.026102 0.047699 -0.076706 0.059441 -0.029830 0.173375 0.029018 -0.010978 0.016071 -0.014093 0.014577 0.382147 0.305721 0.150012 0.224443 0.352414 0.292399 0.350582 0.088352 0.197611 -1.359472
0.072396 0.072911 0.074455 0.077027 0.080628 0.085255 0.090909 0.097587 0.105287 0.114006 0.123740 0.134485 0.146235 0.158983 0.172722 0.187440 0.203128 0.219770 0.237351 0.255852 0.275253 0.295528 0.316649 0.338586 0.361303 0.384761 0.408914 0.433714 0.459107 0.485033 0.511426 0.538216 0.565324 0.592666 0.620151 0.647682 0.675153 0.702454 0.729464 0.756058 0.782102 0.807455 0.831972 0.855497 0.877872 0.898931 0.918503 0.936413 0.952482 0.966528 0.978367 0.987815 0.994688 0.998803 0.999980 0.998047 0.992835 0.984184 0.971946 0.955985 0.936179 0.912422 0.884629 0.852735 0.816700 0.776510 0.732178 0.683749 0.631302 0.574949 0.514839 0.451161 0.384144 0.314057 0.241212 0.165961 0.088703 0.009874 0.070046 0.150538 0.231047 0.310983 0.389724 0.466623 0.541010 0.612199 0.679493 0.742193 0.799603 0.851040 0.895843 0.933379 0.963059 0.984341 0.996745 0.999859 0.993353 0.976987 0.950621 0.914222 0.867872 0.811778 0.746273 0.671825 0.589033 0.498633 0.401495 0.298618 0.191125 0.080253 0.032654 0.146167 0.258777 0.368925 0.475015 0.575439 0.668606 0.752965 0.827035 0.889431 0.938900 0.974340 0.994839 0.999693 0.988437 0.960861 0.917036 0.857319 0.782371 0.693155 0.590935 0.477271 0.353999 0.223211 0.087229 0.051437 0.190125 0.326079 0.456492 0.578571 0.689599 0.786997 0.868391 0.931678 0.975082 0.997220 0.997146 0.974403 0.929049 0.861689 0.773477 0.666123 0.541866 0.403447 0.254059 0.097282 0.062993 0.222655 0.377478 0.523231 0.655796 0.771291 0.866191 0.937447 0.982595 0.999854 0.988211 0.947483 0.878360 0.782414 0.662098 0.520695 0.362252 0.191479 0.013623 0.165686 0.340608 0.505279 0.654015 0.781512 0.883051 0.954683 0.993406 0.997305 0.965667 0.899053 0.799326 0.669631 0.514323 0.338847 0.149572 0.046437 0.241660 0.428406 0.599130 0.746729 0.864864 0.948245 0.992889 0.996345 0.957843 0.878392 0.760801 0.609614 0.430971 0.232388 0.022462 0.189484 0.393807 0.580981 0.742055 0.869090 0.955579 0.996811 0.990155 0.935262 0.834162 0.691231 0.513053 0.308156 0.086629 0.140346 0.361048 0.563818 0.737692 0.873001 0.961944 0.999075 0.981673 0.909984 0.787295 0.619843 0.416545 0.188575 0.051230 0.289064 0.510938 0.703519 0.854936 0.955559 0.998644 0.980834 0.902474 0.767689 0.584240 0.363133 0.118005 0.135679 0.381584 0.603554 0.786689 0.918367 0.989168 0.993594 0.930563 0.803594 0.620707 0.393966 0.138765 0.127205 0.385124 0.616407 0.804023 0.933811 0.995590 0.984022 0.899144 0.746502 0.536883 0.285624 0.011543 0.264422 0.520796 0.737253 0.896248 0.984501 0.994171 0.923628 0.777745 0.567665 0.310039 0.025764 0.261652 0.528014 0.750504 0.909641 0.991068 0.986922 0.896676 0.727370 0.493166 0.214265 0.084778 0.377161 0.636235 0.837953 0.963147 0.999434 0.942535 0.796870 0.575342 0.298306 0.008221 0.314936 0.592042 0.812147 0.953030 0.999963 0.947356 0.799532 0.570507 0.282788 0.034750 0.349697 0.629390 0.844335 0.971364 0.996242 0.915367 0.736405 0.477695 0.166504 0.163752 0.477056 0.738704 0.919188 0.997629 0.964286 0.821916 0.585719 0.281864 0.055300 0.387047 0.674698 0.884169 0.990091 0.978993 0.851168 0.620921 0.315133 0.029748 0.371978 0.669513 0.885237 0.991650 0.974526 0.834958 0.589532 0.268534 0.087655 0.433560 0.724385 0.921869 0.999417 0.945832 0.767106 0.485950 0.139108 0.227368 0.564090 0.825065 0.974018 0.989564
1.000000 1.000000 1.000000 1.000000 1.000000 1.000000 1.000000 1.000000 1.000000 1.000000 1.000000 1.000000 1.000000 1.000000 1.000000 1.000000 1.000000 1.000000 1.000000 1.000000 1.000000 1.000000 1.000000 1.000000 1.000000 1.000000 1.000000 1.000000 1.000000 1.000000 1.000000 1.000000 1.000000 1.000000 1.000000 1.000000 1.000000 1.000000 1.000000 1.000000 1.000000 1.000000 1.000000 1.000000 1.000000 1.000000 1.000000 1.000000 1.000000 1.000000 1.000000 1.000000 0.920389 0.920389 0.906403 0.906403 0.906403 0.906403 0.906403 0.906403 0.906403 0.906403 0.906403 0.906403 0.906403 0.906403 0.906403 0.906403 0.906403 0.906403 0.906403 0.906403 0.906403 0.906403 0.906403 0.906403 0.906403 0.906403 0.906403 0.906403 0.906403 0.906403 0.906403 0.906403 0.906403 0.906403 0.906403 0.906403 0.906403 0.906403 0.906403 0.906403 0.906403 0.906403 0.906403 0.898089 0.904989 0.908258 0.906972 0.910432 0.910781 0.908998 0.908367 0.908277 0.908669 0.909706 0.917368 0.931594 0.938835 0.942406 0.945985 0.952656 0.956075 0.955655 0.962263 0.970565 0.969343 0.968934 0.969524 0.970680 0.972578 0.971552 0.970731 0.974058 0.974559 0.973322 0.970747 0.970166 0.969611 0.969401 0.969088 0.969197 0.969832 0.970309 0.970053 0.970088 0.970229 0.970298 0.973389 0.973638 0.976158 0.977079 0.977023 0.976179 0.974663 0.976434 0.979867 0.977353 0.977038 0.976669 0.976867 0.965313 0.963111 0.963146 0.958557 0.955903 0.954283 0.950938 0.951034 0.951619 0.950827 0.951314 0.949395 0.940532 0.935217 0.922046 0.934039 0.930655 0.917931 0.903324 0.905333 0.906053 0.905645 0.904124 0.896498 0.893743 0.890630 0.892722 0.895865 0.898617 0.891667 0.885038 0.883764 0.880650 0.855677 0.838131 0.823925 0.815758 0.812326 0.812889 0.810282 0.805104 0.813407 0.806515 0.802143 0.790525 0.782705 0.756072 0.736481 0.734383 0.742152 0.744822 0.738179 0.713240 0.670556 0.685554 0.680734 0.674875 0.674174 0.668145 0.660915 0.666965 0.669289 0.653630 0.646664 0.649063 0.648734 0.662467 0.665552 0.654482 0.651317 0.639022 0.630810 0.605339 0.604240 0.619594 0.578843 0.568883 0.556580 0.547912 0.543863 0.538365 0.541821 0.540493 0.525557 0.517020 0.507870 0.513011 0.519531 0.520174 0.498295 0.515515 0.514488 0.552639 0.543956 0.530289 0.522611 0.529111 0.509907 0.501358 0.502306 0.504235 0.506260 0.545865 0.550074 0.557559 0.559581 0.550364 0.531719 0.514536 0.510517 0.535900 0.511522 0.488110 0.478325 0.476648 0.457961 0.440217 0.408289 0.397274 0.376548 0.373466 0.362440 0.343547 0.343115 0.255698 0.217593 0.207129 0.228376 0.242620 0.267587 0.276624 0.256268 0.278205 0.319714 0.311961 0.302548 0.276286 0.275248 0.266010 0.267123 0.230545 0.207526 0.190880 0.200840 0.152274 0.160076 0.160737 0.184151 0.123678 0.095800 0.102254 0.125097 0.151897 0.149774 0.152361 0.142429 0.173244 0.170743 0.169605 0.128113 0.092493 0.122387 0.128659 0.130435 0.084318 0.088322 0.069977 0.085695 0.113967 0.119407 0.105801 0.107349 0.136907 0.156368 0.152491 0.162667 0.193681 0.159560 0.157066 0.152553 0.100520 0.117783 0.033799 0.011189 0.011189 0.001662 0.001662 0.001662 0.001662 0.001662 0.001662 0.001662 0.001662 0.001662 -0.000012 -0.000012 -0.000012 -0.000012 -0.000012 -0.000012 -0.000012 -0.000012 -0.000012 0.035622 0.035622 0.035622 0.035622 0.035622 0.035622 0.035622 0.035622 0.035622
0.000000 0.000000 0.000000 0.000000 0.000000 0.000000 0.000000 0.000000 0.000000 0.000000 0.000000 0.000000 0.000000 0.000000 0.000000 0.000000 0.000000 0.000000 0.000000 0.000000 0.000000 0.000000 0.000000 0.000000 0.000000 0.000000 0.000000 0.000000 0.000000 0.000000 0.000000 0.000000 0.000000 0.000000 0.000000 0.000000 0.000000 0.000000 0.000000 0.000000 0.000000 0.000000 0.000000 0.000000 0.000000 0.000000 0.000000 0.000000 0.000000 0.000000 0.000000 0.000000 0.181818 0.181818 0.199007 0.199007 0.199007 0.199007 0.199007 0.199007 0.199007 0.199007 0.199007 0.199007 0.199007 0.199007 0.199007 0.199007 0.199007 0.199007 0.199007 0.199007 0.199007 0.199007 0.199007 0.199007 0.199007 0.199007 0.199007 0.199007 0.199007 0.199007 0.199007 0.199007 0.199007 0.199007 0.199007 0.199007 0.199007 0.199007 0.199007 0.199007 0.199007 0.199007 0.199007 0.230940 0.230940 0.230940 0.230940 0.230940 0.230940 0.230940 0.230940 0.230940 0.230940 0.230940 0.230940 0.230940 0.230940 0.230940 0.230940 0.230940 0.230940 0.230940 0.230940 0.230940 0.230940 0.230940 0.230940 0.230940 0.230940 0.230940 0.230940 0.244339 0.244339 0.244339 0.244339 0.244339 0.244339 0.244339 0.244339 0.244339 0.244339 0.244339 0.244339 0.244339 0.244339 0.244339 0.244339 0.244339 0.244339 0.244339 0.244339 0.244339 0.244339 0.244339 0.251976 0.251976 0.251976 0.251976 0.251976 0.251976 0.251976 0.251976 0.251976 0.251976 0.251976 0.251976 0.251976 0.251976 0.251976 0.251976 0.251976 0.251976 0.251976 0.251976 0.264906 0.264906 0.264906 0.264906 0.264906 0.264906 0.264906 0.264906 0.264906 0.264906 0.264906 0.264906 0.264906 0.264906 0.264906 0.264906 0.264906 0.264906 0.264906 0.264906 0.264906 0.264906 0.264906 0.264906 0.264906 0.264906 0.264906 0.264906 0.264906 0.264906 0.264906 0.264906 0.264906 0.264906 0.264906 0.264906 0.264906 0.264906 0.264906 0.264906 0.264906 0.264906 0.264906 0.264906 0.264906 0.264906 0.264906 0.264906 0.264906 0.264906 0.264906 0.264906 0.264906 0.264906 0.264906 0.264906 0.264906 0.264906 0.264906 0.264906 0.264906 0.264906 0.264906 0.264906 0.264906 0.264906 0.264906 0.264906 0.264906 0.264906 0.264906 0.264906 0.264906 0.264906 0.264906 0.269680 0.269680 0.269680 0.269680 0.269680 0.269680 0.269680 0.269680 0.269680 0.269680 0.269680 0.269680 0.264906 0.264906 0.264906 0.264906 0.264906 0.264906 0.264906 0.264906 0.264906 0.264906 0.264906 0.264906 0.269680 0.269680 0.269680 0.269680 0.269680 0.269680 0.269680 0.269680 0.269680 0.269680 0.269680 0.264906 0.264906 0.264906 0.264906 0.264906 0.264906 0.264906 0.264906 0.264906 0.264906 0.264906 0.269680 0.269680 0.269680 0.269680 0.269680 0.269680 0.269680 0.269680 0.269680 0.269680 0.264906 0.264906 0.264906 0.264906 0.264906 0.264906 0.264906 0.264906 0.264906 0.264906 0.260378 0.260378 0.260378 0.260378 0.260378 0.260378 0.260378 0.260378 0.260378 0.260378 0.256074 0.256074 0.256074 0.256074 0.256074 0.256074 0.256074 0.256074 0.256074 0.256074 0.260378 0.260378 0.260378 0.260378 0.260378 0.260378 0.260378 0.260378 0.260378 0.256074 0.256074 0.256074 0.256074 0.256074 0.256074 0.256074 0.256074 0.256074 0.251976 0.251976 0.251976 0.251976 0.251976 0.251976 0.251976 0.251976 0.251976 0.264906 0.264906 0.264906 0.264906 0.264906 0.264906 0.264906 0.264906 0.264906
