# Output from CTFFind version 4.1.9, run on 2019-11-03 19:49:38
# Input file: stack16_bm3d_averaged_1_5.25_0_2500_half.mrc ; Number of micrographs: 1
# Pixel size: 3.000 Angstroms ; acceleration voltage: 300.0 keV ; spherical aberration: 0.00 mm ; amplitude contrast: 0.07
# Box size: 512 pixels ; min. res.: 30.0 Angstroms ; max. res.: 5.0 Angstroms ; min. def.: 5000.0 um; max. def. 50000.0 um; num. frames averaged: 1
# 6 lines per micrograph: #1 - spatial frequency (1/Angstroms); #2 - 1D rotational average of spectrum (assuming no astigmatism); #3 - 1D rotational average of spectrum; #4 - CTF fit; #5 - cross-correlation between spectrum and CTF fit; #6 - 2sigma of expected cross correlation of noise
0.000000 0.000651 0.001302 0.001953 0.002604 0.003255 0.003906 0.004557 0.005208 0.005859 0.006510 0.007161 0.007812 0.008464 0.009115 0.009766 0.010417 0.011068 0.011719 0.012370 0.013021 0.013672 0.014323 0.014974 0.015625 0.016276 0.016927 0.017578 0.018229 0.018880 0.019531 0.020182 0.020833 0.021484 0.022135 0.022786 0.023438 0.024089 0.024740 0.025391 0.026042 0.026693 0.027344 0.027995 0.028646 0.029297 0.029948 0.030599 0.031250 0.031901 0.032552 0.033203 0.033854 0.034505 0.035156 0.035807 0.036458 0.037109 0.037760 0.038411 0.039062 0.039714 0.040365 0.041016 0.041667 0.042318 0.042969 0.043620 0.044271 0.044922 0.045573 0.046224 0.046875 0.047526 0.048177 0.048828 0.049479 0.050130 0.050781 0.051432 0.052083 0.052734 0.053385 0.054036 0.054688 0.055339 0.055990 0.056641 0.057292 0.057943 0.058594 0.059245 0.059896 0.060547 0.061198 0.061849 0.062500 0.063151 0.063802 0.064453 0.065104 0.065755 0.066406 0.067057 0.067708 0.068359 0.069010 0.069661 0.070312 0.070964 0.071615 0.072266 0.072917 0.073568 0.074219 0.074870 0.075521 0.076172 0.076823 0.077474 0.078125 0.078776 0.079427 0.080078 0.080729 0.081380 0.082031 0.082682 0.083333 0.083984 0.084635 0.085286 0.085938 0.086589 0.087240 0.087891 0.088542 0.089193 0.089844 0.090495 0.091146 0.091797 0.092448 0.093099 0.093750 0.094401 0.095052 0.095703 0.096354 0.097005 0.097656 0.098307 0.098958 0.099609 0.100260 0.100911 0.101562 0.102214 0.102865 0.103516 0.104167 0.104818 0.105469 0.106120 0.106771 0.107422 0.108073 0.108724 0.109375 0.110026 0.110677 0.111328 0.111979 0.112630 0.113281 0.113932 0.114583 0.115234 0.115885 0.116536 0.117188 0.117839 0.118490 0.119141 0.119792 0.120443 0.121094 0.121745 0.122396 0.123047 0.123698 0.124349 0.125000 0.125651 0.126302 0.126953 0.127604 0.128255 0.128906 0.129557 0.130208 0.130859 0.131510 0.132161 0.132812 0.133464 0.134115 0.134766 0.135417 0.136068 0.136719 0.137370 0.138021 0.138672 0.139323 0.139974 0.140625 0.141276 0.141927 0.142578 0.143229 0.143880 0.144531 0.145182 0.145833 0.146484 0.147135 0.147786 0.148438 0.149089 0.149740 0.150391 0.151042 0.151693 0.152344 0.152995 0.153646 0.154297 0.154948 0.155599 0.156250 0.156901 0.157552 0.158203 0.158854 0.159505 0.160156 0.160807 0.161458 0.162109 0.162760 0.163411 0.164062 0.164714 0.165365 0.166016 0.166667 0.167318 0.167969 0.168620 0.169271 0.169922 0.170573 0.171224 0.171875 0.172526 0.173177 0.173828 0.174479 0.175130 0.175781 0.176432 0.177083 0.177734 0.178385 0.179036 0.179688 0.180339 0.180990 0.181641 0.182292 0.182943 0.183594 0.184245 0.184896 0.185547 0.186198 0.186849 0.187500 0.188151 0.188802 0.189453 0.190104 0.190755 0.191406 0.192057 0.192708 0.193359 0.194010 0.194661 0.195312 0.195964 0.196615 0.197266 0.197917 0.198568 0.199219 0.199870 0.200521 0.201172 0.201823 0.202474 0.203125 0.203776 0.204427 0.205078 0.205729 0.206380 0.207031 0.207682 0.208333 0.208984 0.209635 0.210286 0.210938 0.211589 0.212240 0.212891 0.213542 0.214193 0.214844 0.215495 0.216146 0.216797 0.217448 0.218099 0.218750 0.219401 0.220052 0.220703 0.221354 0.222005 0.222656 0.223307 0.223958 0.224609 0.225260 0.225911 0.226562 0.227214 0.227865 0.228516 0.229167 0.229818 0.230469 0.231120 0.231771 0.232422 0.233073 0.233724 0.234375 0.235026 0.235677
       0.33499        0.33499        0.33499        0.33499        0.33499        0.33499        0.33499        0.33499        0.33499        0.33499        0.33499        0.33499        0.33499        0.33499        0.33499        0.33499        0.33499        0.33499        0.33499        0.33499        0.33499        0.33499        0.33499        0.33499        0.33499        0.33499        0.33499        0.33499        0.33499        0.33499        0.33499        0.33499        0.33499        0.33499        0.33499        0.33499        0.33500        0.33499        0.33499        0.33499        0.33499        0.33499        0.33499        0.33499        0.33499        0.33499        0.33499        0.33499        0.33499        0.33499        0.33499        0.41827        0.55630        0.34245       -0.20749       -0.45915       -0.55689       -0.65410       -0.72623       -0.73984       -0.84009       -0.90562       -0.70175       -0.86067       -0.83787       -0.98727       -1.02290       -0.90480       -0.86374       -0.81377       -0.73610       -0.66485       -0.57750       -0.48206       -0.41408       -0.18645       -0.08215        0.01336        0.23963        0.24505        0.30203        0.36570        0.39193        0.50206        0.53231        0.56860        0.52932        0.46792        0.50480        0.50882        0.42979        0.32130        0.19789        0.16826        0.10146       -0.01480       -0.03003       -0.03766        0.03749        0.00088        0.05674        0.03257        0.14716        0.18537        0.39865        0.45362        0.54694        0.65388        0.68877        0.71151        0.63149        0.60982        0.52751        0.43196        0.37865        0.26085        0.20463        0.19565        0.08564        0.08755        0.07420        0.06868        0.08420        0.29664        0.40519        0.50859        0.53125        0.57171        0.60797        0.58565        0.57573        0.57969        0.55941        0.45918        0.29077        0.25087        0.23261        0.12859        0.07565        0.14574        0.17585        0.26856        0.34534        0.41352        0.46597        0.52581        0.59751        0.54366        0.50540        0.48784        0.34876        0.25020        0.24069        0.16326        0.16383        0.20762        0.25457        0.26904        0.30831        0.41427        0.44460        0.49782        0.45032        0.44127        0.47312        0.37733        0.31953        0.27477        0.24197        0.21674        0.22029        0.22981        0.32543        0.42876        0.41977        0.48456        0.54665        0.43706        0.40753        0.35024        0.29668        0.25021        0.26349        0.26234        0.27901        0.32237        0.33511        0.41856        0.46552        0.43082        0.44642        0.35737        0.36915        0.34964        0.25204        0.23358        0.23259        0.30477        0.36543        0.36220        0.38461        0.42811        0.42983        0.36144        0.33230        0.31058        0.33880        0.29642        0.26625        0.26896        0.33696        0.35876        0.37218        0.38523        0.37526        0.40380        0.38522        0.30083        0.27793        0.30808        0.33574        0.35751        0.35194        0.39887        0.33336        0.36585        0.38446        0.32335        0.34397        0.30497        0.28783        0.33139        0.32755        0.31677        0.33430        0.35575        0.31720        0.33683        0.30489        0.30429        0.27877        0.30539        0.29849        0.32329        0.35941        0.35601        0.33766        0.29545        0.28126        0.27678        0.31763        0.29390        0.30451        0.35749        0.35576        0.33126        0.30289        0.29809        0.30435        0.26568        0.29140        0.30325        0.31821        0.35663        0.33123        0.28641        0.32217        0.31640        0.30954        0.34910        0.33575        0.30150        0.32658        0.28448        0.31640        0.28107        0.30058        0.28689        0.31204        0.35845        0.32571        0.34526        0.29725        0.30872        0.32965        0.32381        0.29790        0.29411        0.32888        0.31787        0.31390        0.30695        0.30738        0.29411        0.29963        0.31344        0.31623        0.33249        0.33412        0.33016        0.28568        0.27107        0.26298        0.26093        0.35201        0.30410        0.35028        0.28885        0.25635        0.28019        0.35137        0.29774        0.27653        0.27876        0.30583        0.28421        0.26738        0.30744        0.26773        0.26566        0.29651        0.31029        0.32814        0.31940        0.29184        0.26307        0.25473        0.25221        0.25961        0.28240        0.34495        0.27696        0.19889        0.29223        0.26612        0.30216        0.22886        0.30117        0.30426        0.31807        0.28005        0.26386        0.26553        0.22938        0.28515        0.33747        0.35552        0.23462        0.26661        0.21134        0.21443        0.19915        0.33064        0.24121        0.21634        0.13597        0.23303        0.27729        0.21091        0.16820        0.05073       -0.58966       -0.77719
3.107902 3.068836 3.030023 2.991461 2.953153 2.915096 2.877292 2.839740 2.802441 2.765394 2.728599 2.692057 2.655767 2.619730 2.583945 2.548412 2.513132 2.478104 2.443328 2.408805 2.374534 2.340516 2.306750 2.273236 2.239975 2.206966 2.174210 2.141706 2.109454 2.077454 2.045708 2.014213 1.982971 1.951981 1.921244 1.890758 1.860526 1.830545 1.800818 1.771342 1.742119 1.713148 1.684430 1.655964 1.627750 1.599789 1.572080 1.544623 1.517419 1.490468 1.463768 1.498018 1.590574 1.530024 0.848273 0.587238 0.446674 0.379533 0.285550 0.205703 0.166804 -0.056251 0.193481 0.057712 -0.039112 -0.122694 -0.244122 -0.152755 -0.067958 -0.094739 -0.083912 0.028884 0.023639 0.217657 0.102966 0.349016 0.458159 0.478565 0.757061 0.685794 0.686051 0.830322 0.797978 0.831862 0.920311 0.863068 0.895392 0.729102 0.803692 0.845547 0.677400 0.605254 0.441169 0.424436 0.351119 0.183946 0.180866 0.117086 0.211755 0.118833 0.212545 0.107623 0.225148 0.235353 0.454951 0.412987 0.589069 0.627466 0.667757 0.730527 0.622664 0.603057 0.470895 0.419178 0.304988 0.272756 0.105211 0.165295 -0.019750 0.039499 -0.034555 -0.037887 -0.038566 0.038585 0.286959 0.302632 0.380926 0.326061 0.406159 0.418150 0.445969 0.426693 0.368086 0.352113 0.138854 0.090503 0.067717 -0.005117 -0.149974 -0.036149 -0.068623 0.044137 0.093627 0.168876 0.237366 0.244948 0.336641 0.423662 0.313587 0.373836 0.257893 0.142049 0.069449 0.052442 0.006544 0.042661 0.074511 0.108821 0.119679 0.189111 0.245183 0.310799 0.299002 0.231527 0.264343 0.232553 0.114399 0.082406 0.047072 0.036851 0.008651 0.000582 0.041929 0.175323 0.191840 0.199728 0.313355 0.195608 0.209081 0.089383 0.077778 -0.004201 -0.004854 0.005911 0.002770 0.042528 0.052718 0.094591 0.159542 0.151767 0.216662 0.127621 0.078834 0.105046 0.049445 -0.063452 -0.025616 0.015636 0.055165 0.074952 0.082101 0.157143 0.129077 0.151835 0.038859 0.058093 0.047494 0.050557 0.021993 -0.021376 0.037489 0.044598 0.085769 0.110641 0.094408 0.106856 0.127401 0.070943 0.010606 0.000819 0.034142 0.081887 0.062009 0.102682 0.097302 0.053558 0.112808 0.069927 0.041457 0.080228 -0.021696 0.023006 0.060835 0.038236 0.042311 0.048932 0.068875 0.053184 0.057384 0.010926 0.019152 -0.006271 0.040259 0.001253 0.050031 0.069316 0.068724 0.037175 -0.014142 -0.011565 -0.015409 0.029901 -0.003502 0.014664 0.068551 0.058992 -0.011312 0.010462 -0.011009 0.010401 -0.044810 -0.011854 -0.004764 0.028961 0.044137 0.015928 -0.022539 0.007126 -0.001223 0.001435 0.043545 0.013432 -0.013331 0.045471 -0.039459 -0.013868 -0.047954 -0.013645 -0.033369 0.016389 0.050189 0.002879 0.007920 -0.006149 0.006961 0.018163 0.026487 -0.010806 -0.004519 0.019238 0.042581 0.009615 0.011003 0.045355 -0.011230 0.000050 0.026030 0.005293 0.072063 0.056594 0.029264 0.003618 -0.007531 -0.033495 -0.000581 0.076029 -0.002974 0.074338 -0.019300 -0.023570 -0.017486 0.090878 -0.008090 -0.009064 0.007750 0.039146 0.005775 0.005563 0.030816 0.004741 0.005170 0.020405 0.063804 0.083630 0.052539 0.030602 0.006364 -0.011398 0.001029 -0.020604 0.001995 0.106202 -0.026889 -0.091136 0.057531 -0.017521 0.042956 -0.060601 0.019064 0.016042 0.016221 -0.004557 -0.022771 -0.010433 -0.075098 0.020312 0.051507 0.072974 -0.121802 0.000466 -0.046562 -0.016976 -0.115876 0.115044 0.016756 0.034798 -0.062815 0.146957 0.262740 0.159522 0.123881 0.055842 -0.735687
0.072396 0.073047 0.074998 0.078250 0.082802 0.088651 0.095796 0.104233 0.113959 0.124969 0.137256 0.150811 0.165625 0.181685 0.198975 0.217477 0.237169 0.258024 0.280013 0.303099 0.327241 0.352394 0.378501 0.405504 0.433334 0.461914 0.491159 0.520975 0.551256 0.581890 0.612751 0.643703 0.674600 0.705284 0.735584 0.765319 0.794298 0.822316 0.849160 0.874605 0.898418 0.920356 0.940171 0.957607 0.972405 0.984304 0.993040 0.998354 0.999990 0.997699 0.991243 0.980400 0.964960 0.944740 0.919577 0.889340 0.853932 0.813290 0.767395 0.716274 0.660004 0.598714 0.532592 0.461887 0.386910 0.308039 0.225717 0.140455 0.052835 0.036498 0.126835 0.217403 0.307375 0.395872 0.481975 0.564726 0.643146 0.716242 0.783022 0.842508 0.893751 0.935849 0.967963 0.989335 0.999307 0.997337 0.983020 0.956104 0.916504 0.864318 0.799840 0.723571 0.636220 0.538716 0.432199 0.318023 0.197741 0.073092 0.054016 0.181535 0.307302 0.429077 0.544581 0.651540 0.747732 0.831039 0.899494 0.951339 0.985073 0.999506 0.993801 0.967520 0.920658 0.853671 0.767493 0.663541 0.543716 0.410380 0.266325 0.114728 0.040909 0.196833 0.349126 0.493799 0.626904 0.744642 0.843479 0.920267 0.972352 0.997685 0.994914 0.963464 0.903597 0.816447 0.704035 0.569250 0.415796 0.248119 0.071292 0.109119 0.287227 0.457009 0.612510 0.748065 0.858508 0.939398 0.987211 0.999519 0.975138 0.914232 0.818369 0.690531 0.535056 0.357528 0.164609 0.036194 0.236799 0.428870 0.604166 0.754900 0.874104 0.955979 0.996207 0.992213 0.943359 0.851061 0.718810 0.552092 0.358208 0.145997 0.074543 0.292699 0.497566 0.678588 0.826121 0.931983 0.989936 0.996107 0.949285 0.851102 0.706048 0.521338 0.306611 0.073472 0.165099 0.395452 0.604045 0.778252 0.907163 0.982308 0.998269 0.953132 0.848736 0.690697 0.488185 0.253466 0.001209 0.252389 0.490628 0.697410 0.858352 0.961833 0.999898 0.968939 0.870104 0.709381 0.497332 0.248487 0.019589 0.287488 0.535349 0.744336 0.898116 0.984182 0.994960 0.928561 0.789119 0.586656 0.336473 0.058079 0.226275 0.493335 0.720755 0.889006 0.983111 0.994082 0.919876 0.765788 0.544227 0.273821 0.022046 0.317186 0.584920 0.800485 0.943398 0.999484 0.962397 0.834460 0.626694 0.358027 0.053670 0.257142 0.543941 0.778014 0.935323 0.999091 0.961705 0.825773 0.604132 0.318817 0.001020 0.321988 0.609903 0.833467 0.967734 0.997014 0.916869 0.734906 0.470265 0.151760 0.185128 0.502124 0.762526 0.935501 0.999849 0.946781 0.781277 0.521857 0.198711 0.149681 0.481042 0.754400 0.935242 0.999980 0.939212 0.759284 0.481873 0.141584 0.218199 0.550784 0.812217 0.967181 0.993918 0.887505 0.660917 0.343722 0.021588 0.385142 0.696452 0.911461 0.998929 0.945163 0.756402 0.458402 0.093157 0.286830 0.626013 0.873941 0.992878 0.963770 0.789540 0.495160 0.124355 0.266700 0.617781 0.873902 0.994059 0.958014 0.769989 0.458539 0.072508 0.326421 0.673477 0.911367 0.999884 0.922960 0.691884 0.344010 0.062989 0.460493 0.780448 0.967084 0.986883 0.834877 0.536148 0.142037 0.278405 0.650384 0.906682 0.999976 0.911865 0.656847 0.280342 0.149084 0.551975 0.852696 0.993738 0.947001 0.719762 0.354002 0.080981 0.501465 0.825348 0.988296 0.956806 0.735476 0.366853 0.076351 0.505343 0.832961 0.991511 0.947051 0.707069 0.319752 0.135298 0.563157 0.873327 0.999045 0.911988 0.629104 0.209820 0.256039 0.667273
1.000000 1.000000 1.000000 1.000000 1.000000 1.000000 1.000000 1.000000 1.000000 1.000000 1.000000 1.000000 1.000000 1.000000 1.000000 1.000000 1.000000 1.000000 1.000000 1.000000 1.000000 1.000000 1.000000 1.000000 1.000000 1.000000 1.000000 1.000000 1.000000 1.000000 1.000000 1.000000 1.000000 1.000000 1.000000 1.000000 1.000000 1.000000 1.000000 1.000000 1.000000 1.000000 1.000000 1.000000 1.000000 1.000000 1.000000 1.000000 1.000000 1.000000 1.000000 1.000000 0.928617 0.928617 0.928617 0.928617 0.928617 0.928617 0.928617 0.928617 0.928617 0.928617 0.928617 0.928617 0.928617 0.928617 0.928617 0.928617 0.928617 0.928617 0.928617 0.928617 0.928617 0.928617 0.928617 0.928617 0.928617 0.928617 0.928617 0.928617 0.928617 0.928617 0.928617 0.928617 0.928617 0.916530 0.914575 0.915675 0.916818 0.916731 0.916202 0.915858 0.916889 0.918401 0.920369 0.941965 0.944942 0.946049 0.947316 0.948776 0.951320 0.949414 0.957259 0.963977 0.963065 0.963982 0.957811 0.959031 0.958429 0.957715 0.959455 0.959469 0.957917 0.956103 0.954698 0.954234 0.953959 0.955660 0.956089 0.956346 0.956828 0.956758 0.956594 0.956534 0.956821 0.959017 0.958106 0.957193 0.962866 0.961393 0.963288 0.963253 0.963966 0.964679 0.964895 0.965083 0.961503 0.961232 0.960589 0.949721 0.942803 0.940597 0.942863 0.945878 0.943157 0.939119 0.940666 0.943346 0.942666 0.942184 0.932982 0.929764 0.908837 0.898139 0.886102 0.886487 0.888889 0.890734 0.888473 0.880147 0.870429 0.866582 0.867995 0.863146 0.857890 0.874489 0.869723 0.869612 0.873647 0.876386 0.881603 0.876843 0.872551 0.868173 0.864341 0.859897 0.862209 0.866695 0.870150 0.857843 0.850455 0.853703 0.843014 0.835540 0.842698 0.844732 0.841579 0.840344 0.841185 0.839804 0.832830 0.828503 0.830912 0.840199 0.839538 0.828492 0.824266 0.818909 0.818834 0.813219 0.815470 0.814931 0.811408 0.804919 0.819246 0.787394 0.811520 0.809686 0.796413 0.781479 0.769388 0.777451 0.789175 0.792221 0.785652 0.777059 0.776017 0.771513 0.745922 0.750639 0.757995 0.756414 0.745393 0.721725 0.729008 0.736694 0.729810 0.724174 0.726334 0.727705 0.697824 0.710965 0.714373 0.698692 0.713617 0.714917 0.705846 0.705104 0.707510 0.709504 0.702973 0.664293 0.666194 0.667082 0.656730 0.605918 0.605171 0.605824 0.563253 0.566428 0.531489 0.514508 0.514157 0.512691 0.556068 0.529371 0.511737 0.541231 0.487474 0.398832 0.412762 0.406258 0.415347 0.425979 0.401170 0.399961 0.390370 0.361723 0.370553 0.386295 0.399290 0.374839 0.374414 0.369695 0.339381 0.313531 0.324190 0.327835 0.349022 0.351345 0.327412 0.359971 0.393102 0.337336 0.311187 0.298001 0.271844 0.286460 0.290863 0.280968 0.242386 0.246243 0.204581 0.228956 0.213543 0.207343 0.221276 0.254275 0.247514 0.254093 0.267855 0.227866 0.241270 0.243125 0.232455 0.234462 0.246291 0.243975 0.230537 0.247099 0.212981 0.226334 0.204143 0.183304 0.245236 0.230291 0.199961 0.199050 0.204928 0.218968 0.188467 0.145530 0.122814 0.133894 0.069729 0.049502 0.048731 0.042258 -0.003814 -0.031707 -0.048456 -0.085391 -0.084805 -0.083560 -0.047742 -0.078129 -0.049685 -0.036676 -0.036676 -0.036676 -0.036676 -0.036676 -0.036676 -0.036676 -0.036676 -0.036676 -0.036676 -0.036676 -0.036676 -0.036676 -0.036676 -0.014171 -0.014171 -0.014171 -0.014171 -0.014171 -0.014171 -0.014171 -0.014171 -0.014171 -0.014171 -0.014171 -0.014171
0.000000 0.000000 0.000000 0.000000 0.000000 0.000000 0.000000 0.000000 0.000000 0.000000 0.000000 0.000000 0.000000 0.000000 0.000000 0.000000 0.000000 0.000000 0.000000 0.000000 0.000000 0.000000 0.000000 0.000000 0.000000 7.000000 4.000000 0.000000 0.000000 0.000000 0.000000 0.000000 0.000000 0.000000 0.000000 0.000000 0.000000 0.000000 0.000000 0.000000 0.000000 0.000000 0.000000 0.000000 0.000000 0.000000 0.000000 0.000000 0.000000 0.000000 0.000000 0.000000 0.209657 0.209657 0.209657 0.209657 0.209657 0.209657 0.209657 0.209657 0.209657 0.209657 0.209657 0.209657 0.209657 0.209657 0.209657 0.209657 0.209657 0.209657 0.209657 0.209657 0.209657 0.209657 0.209657 0.209657 0.209657 0.209657 0.209657 0.209657 0.209657 0.209657 0.209657 0.209657 0.209657 0.244339 0.244339 0.244339 0.244339 0.244339 0.244339 0.244339 0.244339 0.244339 0.244339 0.244339 0.244339 0.244339 0.244339 0.244339 0.244339 0.244339 0.244339 0.244339 0.244339 0.244339 0.244339 0.244339 0.244339 0.244339 0.260378 0.260378 0.260378 0.260378 0.260378 0.260378 0.260378 0.260378 0.260378 0.260378 0.260378 0.260378 0.260378 0.260378 0.260378 0.260378 0.260378 0.260378 0.260378 0.260378 0.269680 0.269680 0.269680 0.269680 0.269680 0.269680 0.269680 0.269680 0.269680 0.269680 0.269680 0.269680 0.269680 0.269680 0.269680 0.269680 0.269680 0.269680 0.269680 0.269680 0.269680 0.269680 0.269680 0.269680 0.269680 0.269680 0.269680 0.269680 0.269680 0.269680 0.269680 0.269680 0.269680 0.280056 0.280056 0.280056 0.280056 0.280056 0.280056 0.280056 0.280056 0.280056 0.280056 0.280056 0.280056 0.280056 0.280056 0.280056 0.280056 0.280056 0.280056 0.280056 0.280056 0.280056 0.280056 0.280056 0.280056 0.280056 0.280056 0.280056 0.274721 0.274721 0.274721 0.274721 0.274721 0.274721 0.274721 0.274721 0.274721 0.274721 0.274721 0.274721 0.274721 0.285714 0.285714 0.285714 0.285714 0.285714 0.285714 0.285714 0.285714 0.285714 0.285714 0.285714 0.280056 0.280056 0.280056 0.280056 0.280056 0.280056 0.280056 0.280056 0.280056 0.280056 0.280056 0.274721 0.274721 0.274721 0.274721 0.274721 0.274721 0.274721 0.274721 0.274721 0.274721 0.274721 0.280056 0.280056 0.280056 0.280056 0.280056 0.280056 0.280056 0.280056 0.280056 0.280056 0.285714 0.285714 0.285714 0.285714 0.285714 0.285714 0.285714 0.285714 0.285714 0.269680 0.269680 0.269680 0.269680 0.269680 0.269680 0.269680 0.269680 0.269680 0.269680 0.274721 0.274721 0.274721 0.274721 0.274721 0.274721 0.274721 0.274721 0.274721 0.285714 0.285714 0.285714 0.285714 0.285714 0.285714 0.285714 0.285714 0.264906 0.264906 0.264906 0.264906 0.264906 0.264906 0.264906 0.264906 0.264906 0.274721 0.274721 0.274721 0.274721 0.274721 0.274721 0.274721 0.274721 0.269680 0.269680 0.269680 0.269680 0.269680 0.269680 0.269680 0.269680 0.269680 0.269680 0.269680 0.269680 0.269680 0.269680 0.269680 0.269680 0.280056 0.280056 0.280056 0.280056 0.280056 0.280056 0.280056 0.260378 0.260378 0.260378 0.260378 0.260378 0.260378 0.260378 0.260378 0.269680 0.269680 0.269680 0.269680 0.269680 0.269680 0.269680 0.264906 0.264906 0.264906 0.264906 0.264906 0.264906 0.264906 0.264906 0.264906 0.264906 0.264906 0.264906 0.264906 0.264906 0.260378 0.260378 0.260378 0.260378 0.260378 0.260378 0.260378 0.260378 0.260378 0.260378 0.260378 0.260378
