# Output from CTFFind version 4.1.9, run on 2019-11-03 19:40:47
# Input file: stack6_bm3d_averaged_1_4.75_0_1250_half.mrc ; Number of micrographs: 1
# Pixel size: 3.000 Angstroms ; acceleration voltage: 300.0 keV ; spherical aberration: 0.00 mm ; amplitude contrast: 0.07
# Box size: 512 pixels ; min. res.: 30.0 Angstroms ; max. res.: 5.0 Angstroms ; min. def.: 5000.0 um; max. def. 50000.0 um; num. frames averaged: 1
# 6 lines per micrograph: #1 - spatial frequency (1/Angstroms); #2 - 1D rotational average of spectrum (assuming no astigmatism); #3 - 1D rotational average of spectrum; #4 - CTF fit; #5 - cross-correlation between spectrum and CTF fit; #6 - 2sigma of expected cross correlation of noise
0.000000 0.000651 0.001302 0.001953 0.002604 0.003255 0.003906 0.004557 0.005208 0.005859 0.006510 0.007161 0.007812 0.008464 0.009115 0.009766 0.010417 0.011068 0.011719 0.012370 0.013021 0.013672 0.014323 0.014974 0.015625 0.016276 0.016927 0.017578 0.018229 0.018880 0.019531 0.020182 0.020833 0.021484 0.022135 0.022786 0.023438 0.024089 0.024740 0.025391 0.026042 0.026693 0.027344 0.027995 0.028646 0.029297 0.029948 0.030599 0.031250 0.031901 0.032552 0.033203 0.033854 0.034505 0.035156 0.035807 0.036458 0.037109 0.037760 0.038411 0.039062 0.039714 0.040365 0.041016 0.041667 0.042318 0.042969 0.043620 0.044271 0.044922 0.045573 0.046224 0.046875 0.047526 0.048177 0.048828 0.049479 0.050130 0.050781 0.051432 0.052083 0.052734 0.053385 0.054036 0.054688 0.055339 0.055990 0.056641 0.057292 0.057943 0.058594 0.059245 0.059896 0.060547 0.061198 0.061849 0.062500 0.063151 0.063802 0.064453 0.065104 0.065755 0.066406 0.067057 0.067708 0.068359 0.069010 0.069661 0.070312 0.070964 0.071615 0.072266 0.072917 0.073568 0.074219 0.074870 0.075521 0.076172 0.076823 0.077474 0.078125 0.078776 0.079427 0.080078 0.080729 0.081380 0.082031 0.082682 0.083333 0.083984 0.084635 0.085286 0.085938 0.086589 0.087240 0.087891 0.088542 0.089193 0.089844 0.090495 0.091146 0.091797 0.092448 0.093099 0.093750 0.094401 0.095052 0.095703 0.096354 0.097005 0.097656 0.098307 0.098958 0.099609 0.100260 0.100911 0.101562 0.102214 0.102865 0.103516 0.104167 0.104818 0.105469 0.106120 0.106771 0.107422 0.108073 0.108724 0.109375 0.110026 0.110677 0.111328 0.111979 0.112630 0.113281 0.113932 0.114583 0.115234 0.115885 0.116536 0.117188 0.117839 0.118490 0.119141 0.119792 0.120443 0.121094 0.121745 0.122396 0.123047 0.123698 0.124349 0.125000 0.125651 0.126302 0.126953 0.127604 0.128255 0.128906 0.129557 0.130208 0.130859 0.131510 0.132161 0.132812 0.133464 0.134115 0.134766 0.135417 0.136068 0.136719 0.137370 0.138021 0.138672 0.139323 0.139974 0.140625 0.141276 0.141927 0.142578 0.143229 0.143880 0.144531 0.145182 0.145833 0.146484 0.147135 0.147786 0.148438 0.149089 0.149740 0.150391 0.151042 0.151693 0.152344 0.152995 0.153646 0.154297 0.154948 0.155599 0.156250 0.156901 0.157552 0.158203 0.158854 0.159505 0.160156 0.160807 0.161458 0.162109 0.162760 0.163411 0.164062 0.164714 0.165365 0.166016 0.166667 0.167318 0.167969 0.168620 0.169271 0.169922 0.170573 0.171224 0.171875 0.172526 0.173177 0.173828 0.174479 0.175130 0.175781 0.176432 0.177083 0.177734 0.178385 0.179036 0.179688 0.180339 0.180990 0.181641 0.182292 0.182943 0.183594 0.184245 0.184896 0.185547 0.186198 0.186849 0.187500 0.188151 0.188802 0.189453 0.190104 0.190755 0.191406 0.192057 0.192708 0.193359 0.194010 0.194661 0.195312 0.195964 0.196615 0.197266 0.197917 0.198568 0.199219 0.199870 0.200521 0.201172 0.201823 0.202474 0.203125 0.203776 0.204427 0.205078 0.205729 0.206380 0.207031 0.207682 0.208333 0.208984 0.209635 0.210286 0.210938 0.211589 0.212240 0.212891 0.213542 0.214193 0.214844 0.215495 0.216146 0.216797 0.217448 0.218099 0.218750 0.219401 0.220052 0.220703 0.221354 0.222005 0.222656 0.223307 0.223958 0.224609 0.225260 0.225911 0.226562 0.227214 0.227865 0.228516 0.229167 0.229818 0.230469 0.231120 0.231771 0.232422 0.233073 0.233724 0.234375 0.235026 0.235677
       0.30212        0.30212        0.30212        0.30212        0.30212        0.30212        0.30212        0.30212        0.30212        0.30212        0.30212        0.30212        0.30212        0.30212        0.30212        0.30212        0.30212        0.30212        0.30212        0.30212        0.30212        0.30212        0.30212        0.30212        0.30212        0.30212        0.30212        0.30212        0.30212        0.30212        0.30212        0.30212        0.30212        0.30212        0.30212        0.30212        0.30212        0.30212        0.30212        0.30212        0.30212        0.30212        0.30212        0.30212        0.30212        0.30212        0.30212        0.30212        0.30212        0.30212        0.30212        0.60124        0.73373        0.35470        0.19204        0.12500       -0.15435        0.10657        0.02165        0.02902        0.08702        0.30928        0.33917        0.26775        0.15718       -0.03904       -0.00922        0.03925       -0.14939       -0.15973       -0.09241       -0.11620       -0.24828       -0.15928       -0.28555       -0.29348       -0.29611       -0.36296       -0.44118       -0.39179       -0.30170       -0.27042       -0.36791       -0.27594       -0.33828       -0.27381       -0.19821       -0.14904       -0.11047       -0.03249       -0.00433        0.10605        0.14882        0.21045        0.33002        0.39304        0.35599        0.46137        0.55449        0.56391        0.64686        0.59500        0.63292        0.59831        0.62031        0.62150        0.55599        0.56765        0.55992        0.39416        0.32554        0.35521        0.34312        0.18448        0.14034        0.10576        0.07111        0.07745       -0.01907        0.03996        0.01018       -0.03528        0.08200        0.15672        0.25370        0.34455        0.33312        0.36335        0.46865        0.50107        0.43140        0.64831        0.52707        0.48198        0.56217        0.50007        0.51879        0.47569        0.36157        0.31065        0.25182        0.20697        0.18683        0.17514        0.15091        0.09681        0.16242        0.16130        0.20591        0.18466        0.25487        0.28902        0.32255        0.44561        0.42235        0.41152        0.44877        0.48885        0.47002        0.44947        0.37981        0.40075        0.34151        0.27832        0.22502        0.23614        0.21838        0.17229        0.14892        0.19431        0.19087        0.24414        0.31590        0.34127        0.40140        0.38571        0.44741        0.45703        0.44698        0.42300        0.39073        0.40331        0.37599        0.33717        0.31552        0.29767        0.24716        0.26285        0.25917        0.21037        0.26574        0.25097        0.26066        0.31207        0.35850        0.39530        0.39235        0.40670        0.38440        0.40194        0.38854        0.29064        0.27984        0.24104        0.25543        0.21401        0.18968        0.27007        0.31491        0.29618        0.26775        0.32585        0.25975        0.33658        0.35445        0.35627        0.36064        0.37960        0.31266        0.31864        0.30276        0.27219        0.26866        0.24327        0.27198        0.29416        0.29302        0.31310        0.35736        0.37130        0.35348        0.33266        0.34869        0.31860        0.30566        0.30086        0.27160        0.27847        0.25327        0.29691        0.31195        0.29687        0.28970        0.31143        0.31735        0.32683        0.32965        0.28882        0.25752        0.28335        0.27516        0.26176        0.24445        0.22487        0.24201        0.25392        0.24164        0.26540        0.27703        0.32046        0.30631        0.28107        0.29756        0.24136        0.20925        0.26462        0.23979        0.20703        0.26251        0.30512        0.27136        0.29498        0.29432        0.29099        0.29781        0.29942        0.26677        0.29719        0.28060        0.31707        0.26122        0.26338        0.24926        0.29364        0.29763        0.31345        0.32149        0.30549        0.20692        0.26988        0.26315        0.22878        0.24467        0.24401        0.28616        0.26388        0.30397        0.29815        0.34762        0.29935        0.27097        0.23243        0.23030        0.24489        0.24460        0.27088        0.28500        0.30010        0.31742        0.28010        0.27825        0.25358        0.26484        0.27519        0.23638        0.21166        0.23186        0.31364        0.29551        0.28737        0.28238        0.22307        0.26274        0.24816        0.20501        0.21860        0.26686        0.27963        0.27924        0.21212        0.19393        0.25140        0.24584        0.25873        0.24841        0.24500        0.18878        0.21686        0.25334        0.22716        0.27405        0.23653        0.23285        0.16954        0.27499        0.30027        0.17272        0.16592        0.12023        0.13715        0.27734        0.15236        0.12052        0.31990        0.20652        0.13288        0.09964        0.15985        0.12480        0.16025       -0.08319       -0.70230       -1.04688
3.079019 3.047618 3.016383 2.985311 2.954405 2.923663 2.893085 2.862672 2.832424 2.802340 2.772421 2.742666 2.713076 2.683651 2.654390 2.625293 2.596362 2.567594 2.538992 2.510554 2.482280 2.454171 2.426227 2.398447 2.370832 2.343381 2.316095 2.288974 2.262017 2.235224 2.208596 2.182133 2.155835 2.129700 2.103731 2.077926 2.052286 2.026810 2.001499 1.976352 1.951370 1.926552 1.901899 1.877411 1.853087 1.828928 1.804933 1.781103 1.757437 1.733937 1.710600 2.050020 2.362867 1.730454 1.625998 1.354093 0.812979 1.216530 1.084216 1.100859 0.962540 1.569543 1.451369 1.450682 1.205685 0.880028 0.725635 0.963068 0.745728 0.424169 0.519295 0.648850 0.392494 0.429688 0.273679 0.187639 0.138601 0.135262 -0.131319 -0.045175 0.091272 0.052905 0.005608 0.093696 -0.047467 -0.019831 0.143125 0.214286 0.268924 0.325992 0.372823 0.618035 0.563504 0.641681 0.858189 0.968697 0.834839 1.152260 1.140012 1.225015 1.286870 1.158625 1.319817 1.173491 1.129697 1.298430 1.083055 1.042179 1.126360 0.895676 0.611307 0.656688 0.713044 0.424902 0.333910 0.264258 0.134528 0.134798 -0.010461 0.096461 0.047477 -0.089603 0.042679 0.160875 0.264222 0.493459 0.490512 0.448700 0.626265 0.764093 0.500589 0.906403 0.750864 0.707224 0.774952 0.615145 0.689806 0.690069 0.418137 0.331310 0.233522 0.163774 0.109259 0.012876 0.044003 -0.125473 -0.000285 -0.024703 0.077435 -0.035751 0.163081 0.169207 0.137581 0.360040 0.443431 0.348323 0.290962 0.501209 0.496888 0.383102 0.338031 0.311405 0.244077 0.173428 0.015739 0.034174 -0.031564 0.011755 -0.155924 -0.074437 -0.115942 0.072664 0.000508 0.194968 0.206090 0.236636 0.313999 0.314880 0.367078 0.328982 0.368957 0.364711 0.228952 0.268573 0.140231 0.196720 0.055804 0.111472 0.046625 0.052101 -0.029538 0.093480 0.004126 0.107742 0.202406 0.214698 0.288658 0.276712 0.286270 0.273174 0.281571 0.175577 0.083593 0.074331 0.015081 0.012028 -0.068158 -0.042300 0.078311 0.155855 0.066579 0.087914 0.085621 0.095359 0.188355 0.163460 0.198908 0.246330 0.147824 0.106987 0.104931 0.083495 0.058716 -0.031778 0.014923 0.132267 0.005949 0.120094 0.113529 0.220537 0.217607 0.199484 0.183602 0.200490 0.104116 0.126251 0.128009 0.060314 0.025490 0.081266 0.104375 0.127432 0.109435 0.097748 0.118100 0.151292 0.138502 0.118578 0.033657 -0.007175 0.067662 0.007953 0.035488 -0.042085 -0.053197 0.007930 -0.018818 -0.027452 0.037736 0.031814 0.105511 0.096094 0.013442 0.066716 -0.065538 -0.046766 0.037865 -0.062750 -0.067042 0.050584 0.069093 0.006405 0.055275 0.056403 0.054313 0.128981 -0.004849 0.028630 0.116381 0.000923 0.103283 -0.008111 0.033668 -0.032730 0.125831 0.035136 0.092275 0.125175 0.070972 -0.084760 0.038305 0.024858 -0.037976 -0.011947 0.002774 0.035667 0.030223 0.146971 0.052958 0.155429 0.098534 -0.017301 0.000142 -0.040260 0.006797 0.033349 0.034079 0.062162 0.094272 0.136490 0.064781 0.076279 0.054190 0.084436 0.073692 0.040088 -0.053919 0.047242 0.137588 0.106311 0.116461 0.112060 0.003160 0.076572 0.027421 -0.045832 0.009969 0.067041 0.121718 0.075174 -0.025505 -0.037468 0.059443 0.055459 0.042311 0.053346 0.011597 -0.005839 -0.005857 0.072524 0.011369 0.126920 -0.028065 0.097106 -0.071235 0.143939 0.160041 -0.108272 -0.025408 -0.170936 -0.235561 0.191214 -0.098046 0.093405 0.525289 0.293750 0.212940 0.106157 0.398813 0.175884 0.258004 -0.126806 -1.724157
0.072396 0.072835 0.074151 0.076345 0.079415 0.083361 0.088183 0.093878 0.100446 0.107885 0.116191 0.125362 0.135394 0.146283 0.158024 0.170608 0.184031 0.198281 0.213349 0.229223 0.245890 0.263333 0.281534 0.300475 0.320131 0.340478 0.361487 0.383127 0.405363 0.428158 0.451468 0.475249 0.499449 0.524016 0.548890 0.574008 0.599301 0.624698 0.650118 0.675480 0.700695 0.725669 0.750304 0.774496 0.798135 0.821107 0.843294 0.864572 0.884813 0.903886 0.921654 0.937980 0.952721 0.965736 0.976879 0.986004 0.992967 0.997624 0.999831 0.999452 0.996350 0.990397 0.981469 0.969453 0.954243 0.935745 0.913877 0.888571 0.859774 0.827452 0.791588 0.752185 0.709268 0.662886 0.613113 0.560047 0.503817 0.444575 0.382507 0.317827 0.250780 0.181641 0.110716 0.038343 0.035111 0.109250 0.183651 0.257863 0.331412 0.403803 0.474522 0.543038 0.608811 0.671292 0.729930 0.784177 0.833493 0.877349 0.915238 0.946679 0.971224 0.988462 0.998032 0.999623 0.992985 0.977934 0.954359 0.922225 0.881585 0.832575 0.775428 0.710469 0.638122 0.558909 0.473449 0.382457 0.286745 0.187209 0.084831 0.019333 0.124160 0.228472 0.331048 0.430639 0.525980 0.615810 0.698887 0.774007 0.840026 0.895875 0.940583 0.973294 0.993289 1.000000 0.993031 0.972170 0.937403 0.888925 0.827145 0.752693 0.666421 0.569398 0.462905 0.348421 0.227608 0.102298 0.025544 0.153837 0.280423 0.403097 0.519651 0.627910 0.725780 0.811288 0.882624 0.938188 0.976630 0.996888 0.998220 0.980239 0.942930 0.886673 0.812249 0.720841 0.614028 0.493763 0.362351 0.222412 0.076830 0.071295 0.218714 0.362098 0.498111 0.623491 0.735131 0.830164 0.906036 0.960592 0.992136 0.999502 0.982097 0.939945 0.873706 0.784685 0.674827 0.546676 0.403345 0.248441 0.085985 0.079683 0.244018 0.402390 0.550218 0.683103 0.796970 0.888195 0.953734 0.991237 0.999147 0.976772 0.924339 0.843025 0.734944 0.603121 0.451414 0.284430 0.107388 0.074035 0.253870 0.426063 0.584670 0.724074 0.839187 0.925655 0.980032 0.999935 0.984169 0.932807 0.847230 0.730116 0.585385 0.418088 0.234248 0.040658 0.155354 0.346203 0.524337 0.682539 0.814232 0.913767 0.976677 0.999908 0.981984 0.923118 0.825258 0.692050 0.528736 0.341975 0.139585 0.069755 0.276879 0.472529 0.647768 0.794403 0.905381 0.975153 0.999973 0.978131 0.910091 0.798531 0.648276 0.466124 0.260570 0.041429 0.180614 0.394517 0.589431 0.755257 0.883189 0.966203 0.999475 0.980694 0.910251 0.791292 0.629622 0.433467 0.213080 0.019764 0.252377 0.471848 0.665764 0.822918 0.933988 0.992122 0.993390 0.937100 0.825912 0.665772 0.465640 0.237031 0.006621 0.250724 0.480408 0.681409 0.841004 0.948816 0.997542 0.983490 0.906899 0.772021 0.586949 0.363179 0.114938 0.141699 0.389810 0.612764 0.795335 0.924776 0.991745 0.991027 0.921996 0.788765 0.600008 0.368453 0.110073 0.156977 0.413628 0.641247 0.823009 0.945176 0.998180 0.977429 0.883761 0.723513 0.508144 0.253510 0.021298 0.295314 0.547313 0.757449 0.908851 0.989028 0.990953 0.913750 0.762892 0.549903 0.291548 0.008564 0.275973 0.538491 0.756909 0.912507 0.991595 0.986773 0.897704 0.731288 0.501216 0.226928 0.067988 0.357775 0.616749 0.821598 0.953515 0.999989 0.956073 0.824984 0.617982 0.353482 0.055499 0.248482 0.530029 0.762415 0.923197 0.996447 0.974408 0.858406 0.658898 0.394634 0.090984 0.222454 0.514693 0.756438 0.923048
1.000000 1.000000 1.000000 1.000000 1.000000 1.000000 1.000000 1.000000 1.000000 1.000000 1.000000 1.000000 1.000000 1.000000 1.000000 1.000000 1.000000 1.000000 1.000000 1.000000 1.000000 1.000000 1.000000 1.000000 1.000000 1.000000 1.000000 1.000000 1.000000 1.000000 1.000000 1.000000 1.000000 1.000000 1.000000 1.000000 1.000000 1.000000 1.000000 1.000000 1.000000 1.000000 1.000000 1.000000 1.000000 1.000000 1.000000 1.000000 1.000000 1.000000 1.000000 1.000000 0.806980 0.806980 0.806980 0.806980 0.806980 0.806980 0.806980 0.785241 0.785241 0.785241 0.785241 0.785241 0.785241 0.785241 0.785241 0.785241 0.785241 0.785241 0.785241 0.785241 0.785241 0.785241 0.785241 0.785241 0.785241 0.785241 0.785241 0.785241 0.785241 0.785241 0.785241 0.785241 0.785241 0.785241 0.785241 0.785241 0.785241 0.785241 0.785241 0.785241 0.785241 0.785241 0.785241 0.785241 0.785241 0.785241 0.785241 0.785241 0.785241 0.785241 0.785241 0.933678 0.932841 0.934262 0.932684 0.934866 0.933628 0.932674 0.934036 0.932961 0.930744 0.930904 0.931390 0.932636 0.932774 0.937830 0.939161 0.947929 0.952031 0.952982 0.952728 0.951351 0.961464 0.959375 0.957596 0.951159 0.952315 0.953422 0.954267 0.953206 0.952600 0.953842 0.954742 0.953244 0.951366 0.950529 0.949713 0.948964 0.948699 0.948996 0.949058 0.948861 0.949705 0.950449 0.949559 0.951646 0.950458 0.950314 0.946760 0.945165 0.946789 0.944987 0.945388 0.941966 0.937844 0.937057 0.936481 0.936069 0.937125 0.938150 0.938832 0.939410 0.940046 0.940181 0.940036 0.940494 0.937697 0.931181 0.927579 0.925052 0.926249 0.929255 0.932036 0.929944 0.925634 0.925654 0.921130 0.918359 0.904881 0.892441 0.889516 0.886395 0.888554 0.891219 0.889896 0.887381 0.886028 0.886001 0.884363 0.888473 0.889323 0.880900 0.871228 0.869745 0.865455 0.870070 0.874709 0.876393 0.885318 0.880059 0.866881 0.862168 0.863385 0.865672 0.872879 0.868644 0.864537 0.860127 0.857206 0.847973 0.840228 0.838032 0.839388 0.841420 0.841120 0.845195 0.835583 0.805904 0.805090 0.800756 0.799899 0.810754 0.819494 0.821153 0.813309 0.789817 0.779380 0.763328 0.764060 0.767227 0.758266 0.761465 0.743460 0.742714 0.717648 0.718560 0.715415 0.710137 0.716140 0.711089 0.715035 0.714360 0.715822 0.716038 0.697094 0.690055 0.659195 0.663297 0.602847 0.611024 0.611408 0.590809 0.575070 0.551399 0.567677 0.576383 0.578666 0.556347 0.548927 0.525444 0.510508 0.509895 0.515704 0.516126 0.518768 0.511558 0.502136 0.495051 0.514569 0.525568 0.509687 0.510760 0.528376 0.525601 0.518343 0.502566 0.492413 0.508318 0.526104 0.534293 0.534483 0.540365 0.511780 0.482301 0.506841 0.522036 0.518305 0.506845 0.493324 0.488479 0.507277 0.481234 0.498972 0.490560 0.501140 0.477216 0.421063 0.377437 0.321862 0.330642 0.328668 0.326698 0.319936 0.325392 0.344325 0.350909 0.356657 0.355671 0.380411 0.420668 0.365303 0.373336 0.373401 0.372237 0.374530 0.372081 0.347771 0.357326 0.379196 0.383146 0.332174 0.319503 0.288134 0.276465 0.286447 0.299732 0.317051 0.304424 0.287664 0.162186 0.186690 0.204707 0.204707 0.204707 0.204707 0.204707 0.204707 0.204707 0.204707 0.204707 0.204707 0.204707 0.152061 0.152061 0.152061 0.152061 0.152061 0.152061 0.152061 0.152061 0.152061 0.152061 0.152061 0.152061 0.152061 0.152061 0.152061 0.152061 0.152061 0.152061 0.152061
0.000000 0.000000 0.000000 0.000000 0.000000 0.000000 0.000000 0.000000 0.000000 0.000000 0.000000 0.000000 0.000000 0.000000 0.000000 0.000000 0.000000 0.000000 0.000000 0.000000 0.000000 0.000000 0.000000 0.000000 0.000000 0.000000 0.000000 0.000000 0.000000 0.000000 0.000000 0.000000 0.000000 0.000000 0.000000 0.000000 0.000000 0.000000 0.000000 0.000000 0.000000 0.000000 0.000000 0.000000 0.000000 0.000000 0.000000 0.000000 0.000000 0.000000 0.000000 0.000000 0.173422 0.173422 0.173422 0.173422 0.173422 0.173422 0.173422 0.191565 0.191565 0.191565 0.191565 0.191565 0.191565 0.191565 0.191565 0.191565 0.191565 0.191565 0.191565 0.191565 0.191565 0.191565 0.191565 0.191565 0.191565 0.191565 0.191565 0.191565 0.191565 0.191565 0.191565 0.191565 0.191565 0.191565 0.191565 0.191565 0.191565 0.191565 0.191565 0.191565 0.191565 0.191565 0.191565 0.191565 0.191565 0.191565 0.191565 0.191565 0.191565 0.191565 0.191565 0.222222 0.222222 0.222222 0.222222 0.222222 0.222222 0.222222 0.222222 0.222222 0.222222 0.222222 0.222222 0.222222 0.222222 0.222222 0.222222 0.222222 0.222222 0.222222 0.222222 0.222222 0.222222 0.222222 0.222222 0.222222 0.222222 0.222222 0.222222 0.222222 0.222222 0.234082 0.234082 0.234082 0.234082 0.234082 0.234082 0.234082 0.234082 0.234082 0.234082 0.234082 0.234082 0.234082 0.234082 0.234082 0.234082 0.234082 0.234082 0.234082 0.234082 0.234082 0.234082 0.234082 0.234082 0.234082 0.244339 0.244339 0.244339 0.244339 0.244339 0.244339 0.244339 0.244339 0.244339 0.244339 0.244339 0.244339 0.244339 0.244339 0.244339 0.244339 0.244339 0.244339 0.244339 0.244339 0.244339 0.248069 0.248069 0.248069 0.248069 0.248069 0.248069 0.248069 0.248069 0.248069 0.248069 0.248069 0.248069 0.248069 0.248069 0.248069 0.248069 0.248069 0.248069 0.248069 0.248069 0.248069 0.248069 0.248069 0.248069 0.248069 0.248069 0.248069 0.248069 0.248069 0.248069 0.248069 0.248069 0.248069 0.248069 0.248069 0.248069 0.248069 0.256074 0.256074 0.256074 0.256074 0.256074 0.256074 0.256074 0.256074 0.256074 0.256074 0.256074 0.256074 0.256074 0.256074 0.256074 0.256074 0.256074 0.256074 0.256074 0.256074 0.256074 0.256074 0.256074 0.256074 0.256074 0.256074 0.256074 0.256074 0.256074 0.256074 0.256074 0.256074 0.256074 0.256074 0.256074 0.256074 0.256074 0.256074 0.256074 0.256074 0.256074 0.256074 0.256074 0.256074 0.256074 0.260378 0.260378 0.260378 0.260378 0.260378 0.260378 0.260378 0.260378 0.260378 0.260378 0.260378 0.260378 0.260378 0.256074 0.256074 0.256074 0.256074 0.256074 0.256074 0.256074 0.256074 0.256074 0.256074 0.256074 0.256074 0.256074 0.260378 0.260378 0.260378 0.260378 0.260378 0.260378 0.260378 0.260378 0.260378 0.260378 0.260378 0.260378 0.251976 0.251976 0.251976 0.251976 0.251976 0.251976 0.251976 0.251976 0.251976 0.251976 0.251976 0.251976 0.256074 0.256074 0.256074 0.256074 0.256074 0.256074 0.256074 0.256074 0.256074 0.256074 0.256074 0.251976 0.251976 0.251976 0.251976 0.251976 0.251976 0.251976 0.251976 0.251976 0.251976 0.251976 0.248069 0.248069 0.248069 0.248069 0.248069 0.248069 0.248069 0.248069 0.248069 0.248069 0.248069 0.256074 0.256074 0.256074 0.256074 0.256074 0.256074 0.256074 0.256074 0.256074 0.256074 0.256074 0.256074 0.256074 0.256074 0.256074 0.256074 0.256074 0.256074 0.256074
