# Output from CTFFind version 4.1.9, run on 2019-11-02 17:49:03
# Input file: stack1_bm3d_averaged_1_0.75_0_2500_half.mrc ; Number of micrographs: 1
# Pixel size: 3.000 Angstroms ; acceleration voltage: 300.0 keV ; spherical aberration: 0.00 mm ; amplitude contrast: 0.07
# Box size: 512 pixels ; min. res.: 30.0 Angstroms ; max. res.: 5.0 Angstroms ; min. def.: 5000.0 um; max. def. 50000.0 um; num. frames averaged: 1
# 6 lines per micrograph: #1 - spatial frequency (1/Angstroms); #2 - 1D rotational average of spectrum (assuming no astigmatism); #3 - 1D rotational average of spectrum; #4 - CTF fit; #5 - cross-correlation between spectrum and CTF fit; #6 - 2sigma of expected cross correlation of noise
0.000000 0.000651 0.001302 0.001953 0.002604 0.003255 0.003906 0.004557 0.005208 0.005859 0.006510 0.007161 0.007812 0.008464 0.009115 0.009766 0.010417 0.011068 0.011719 0.012370 0.013021 0.013672 0.014323 0.014974 0.015625 0.016276 0.016927 0.017578 0.018229 0.018880 0.019531 0.020182 0.020833 0.021484 0.022135 0.022786 0.023438 0.024089 0.024740 0.025391 0.026042 0.026693 0.027344 0.027995 0.028646 0.029297 0.029948 0.030599 0.031250 0.031901 0.032552 0.033203 0.033854 0.034505 0.035156 0.035807 0.036458 0.037109 0.037760 0.038411 0.039062 0.039714 0.040365 0.041016 0.041667 0.042318 0.042969 0.043620 0.044271 0.044922 0.045573 0.046224 0.046875 0.047526 0.048177 0.048828 0.049479 0.050130 0.050781 0.051432 0.052083 0.052734 0.053385 0.054036 0.054688 0.055339 0.055990 0.056641 0.057292 0.057943 0.058594 0.059245 0.059896 0.060547 0.061198 0.061849 0.062500 0.063151 0.063802 0.064453 0.065104 0.065755 0.066406 0.067057 0.067708 0.068359 0.069010 0.069661 0.070312 0.070964 0.071615 0.072266 0.072917 0.073568 0.074219 0.074870 0.075521 0.076172 0.076823 0.077474 0.078125 0.078776 0.079427 0.080078 0.080729 0.081380 0.082031 0.082682 0.083333 0.083984 0.084635 0.085286 0.085938 0.086589 0.087240 0.087891 0.088542 0.089193 0.089844 0.090495 0.091146 0.091797 0.092448 0.093099 0.093750 0.094401 0.095052 0.095703 0.096354 0.097005 0.097656 0.098307 0.098958 0.099609 0.100260 0.100911 0.101562 0.102214 0.102865 0.103516 0.104167 0.104818 0.105469 0.106120 0.106771 0.107422 0.108073 0.108724 0.109375 0.110026 0.110677 0.111328 0.111979 0.112630 0.113281 0.113932 0.114583 0.115234 0.115885 0.116536 0.117188 0.117839 0.118490 0.119141 0.119792 0.120443 0.121094 0.121745 0.122396 0.123047 0.123698 0.124349 0.125000 0.125651 0.126302 0.126953 0.127604 0.128255 0.128906 0.129557 0.130208 0.130859 0.131510 0.132161 0.132812 0.133464 0.134115 0.134766 0.135417 0.136068 0.136719 0.137370 0.138021 0.138672 0.139323 0.139974 0.140625 0.141276 0.141927 0.142578 0.143229 0.143880 0.144531 0.145182 0.145833 0.146484 0.147135 0.147786 0.148438 0.149089 0.149740 0.150391 0.151042 0.151693 0.152344 0.152995 0.153646 0.154297 0.154948 0.155599 0.156250 0.156901 0.157552 0.158203 0.158854 0.159505 0.160156 0.160807 0.161458 0.162109 0.162760 0.163411 0.164062 0.164714 0.165365 0.166016 0.166667 0.167318 0.167969 0.168620 0.169271 0.169922 0.170573 0.171224 0.171875 0.172526 0.173177 0.173828 0.174479 0.175130 0.175781 0.176432 0.177083 0.177734 0.178385 0.179036 0.179688 0.180339 0.180990 0.181641 0.182292 0.182943 0.183594 0.184245 0.184896 0.185547 0.186198 0.186849 0.187500 0.188151 0.188802 0.189453 0.190104 0.190755 0.191406 0.192057 0.192708 0.193359 0.194010 0.194661 0.195312 0.195964 0.196615 0.197266 0.197917 0.198568 0.199219 0.199870 0.200521 0.201172 0.201823 0.202474 0.203125 0.203776 0.204427 0.205078 0.205729 0.206380 0.207031 0.207682 0.208333 0.208984 0.209635 0.210286 0.210938 0.211589 0.212240 0.212891 0.213542 0.214193 0.214844 0.215495 0.216146 0.216797 0.217448 0.218099 0.218750 0.219401 0.220052 0.220703 0.221354 0.222005 0.222656 0.223307 0.223958 0.224609 0.225260 0.225911 0.226562 0.227214 0.227865 0.228516 0.229167 0.229818 0.230469 0.231120 0.231771 0.232422 0.233073 0.233724 0.234375 0.235026 0.235677
       0.33590        0.33590        0.33590        0.33590        0.33590        0.33590        0.33590        0.33590        0.33590        0.33590        0.33590        0.33590        0.33590        0.33590        0.33590        0.33590        0.33590        0.33590        0.33590        0.33590        0.33590        0.33590        0.33590        0.33590        0.33590        0.33590        0.33590        0.33590        0.33590        0.33590        0.33590        0.33590        0.33590        0.33590        0.33590        0.33590        0.33590        0.33590        0.33590        0.33590        0.33590        0.33590        0.33590        0.33590        0.33590        0.33590        0.33590        0.33590        0.33590        0.33590        0.33590        0.50425        0.72039        0.43138        0.19223       -0.07912       -0.26236       -0.06795       -0.13098       -0.05173        0.00020       -0.14358       -0.08955       -0.04657        0.00083       -0.14867       -0.21676       -0.34361       -0.46074       -0.55709       -0.51588       -0.44715       -0.37017       -0.54459       -0.44521       -0.61831       -0.49870       -0.47283       -0.38778       -0.38098       -0.33956       -0.24797       -0.15715       -0.13338        0.03558       -0.00892        0.12225        0.17225        0.30610        0.41037        0.46633        0.49673        0.54222        0.55227        0.69778        0.64863        0.68127        0.59291        0.55843        0.65767        0.53112        0.43082        0.38694        0.32456        0.23116        0.26836        0.25482        0.10933        0.08752        0.00236       -0.00391        0.03835       -0.00067        0.07871        0.09982        0.23424        0.28431        0.30884        0.38381        0.56106        0.53966        0.58169        0.67371        0.70072        0.63283        0.63761        0.63487        0.55457        0.57695        0.39703        0.34823        0.26953        0.18769        0.07461        0.14766        0.12229        0.09273        0.10826        0.21144        0.21524        0.31901        0.36116        0.41577        0.49795        0.58818        0.54524        0.55800        0.61119        0.54635        0.46732        0.47938        0.32640        0.25528        0.25961        0.24579        0.14764        0.14975        0.15589        0.22320        0.25284        0.33121        0.36482        0.39195        0.47030        0.45102        0.48102        0.45664        0.47016        0.44701        0.40997        0.38353        0.35510        0.31205        0.28763        0.20629        0.20135        0.22406        0.27225        0.27163        0.35312        0.37862        0.36186        0.41479        0.46193        0.45348        0.42576        0.43932        0.37083        0.33990        0.28690        0.26675        0.29212        0.27330        0.29836        0.30302        0.35268        0.34439        0.40405        0.40954        0.42960        0.41342        0.43079        0.40579        0.36815        0.28686        0.29574        0.31298        0.27849        0.25917        0.33536        0.37492        0.34412        0.35603        0.36232        0.35754        0.40886        0.40264        0.36011        0.34222        0.31441        0.31241        0.31773        0.31755        0.30174        0.28978        0.33868        0.36076        0.38119        0.33562        0.32941        0.33754        0.34699        0.30816        0.28418        0.30936        0.31865        0.33819        0.32554        0.33620        0.36040        0.33366        0.31729        0.33234        0.30711        0.26794        0.25518        0.26771        0.30778        0.32492        0.35117        0.30270        0.31831        0.34206        0.29753        0.32007        0.29114        0.28695        0.29657        0.30296        0.31117        0.34718        0.32443        0.33047        0.33785        0.31525        0.33739        0.31988        0.32209        0.31211        0.28555        0.29700        0.31954        0.29586        0.33196        0.34230        0.33623        0.31857        0.34030        0.31937        0.27599        0.25680        0.27499        0.33468        0.36303        0.35056        0.31885        0.29711        0.29768        0.31720        0.25012        0.29910        0.30301        0.32889        0.30117        0.32325        0.28891        0.33881        0.34607        0.34846        0.33115        0.29646        0.31861        0.39814        0.33161        0.32002        0.31502        0.29485        0.28864        0.30088        0.26603        0.31175        0.24211        0.28139        0.29878        0.31658        0.29760        0.28191        0.30366        0.24194        0.23404        0.26326        0.30864        0.30603        0.29012        0.28961        0.33790        0.25737        0.21410        0.31726        0.27752        0.25843        0.28169        0.39654        0.30206        0.28859        0.25255        0.25275        0.26506        0.23639        0.23444        0.16307        0.25432        0.23389        0.25065        0.32086        0.28151        0.34580        0.28399        0.26626        0.24583        0.22255        0.23947        0.29540        0.22976        0.11931        0.14864        0.24710        0.24252        0.33303        0.30585        0.03808       -0.42585       -0.92068
2.730081 2.701091 2.672258 2.643581 2.615061 2.586697 2.558491 2.530440 2.502547 2.474810 2.447230 2.419806 2.392539 2.365428 2.338475 2.311677 2.285037 2.258553 2.232226 2.206055 2.180041 2.154184 2.128483 2.102939 2.077551 2.052321 2.027247 2.002329 1.977568 1.952964 1.928516 1.904225 1.880091 1.856113 1.832292 1.808627 1.785120 1.761768 1.738574 1.715536 1.692655 1.669930 1.647362 1.624950 1.602696 1.580598 1.558656 1.536871 1.515243 1.493771 1.472456 1.541607 1.841358 1.527426 1.206766 0.950617 0.549969 0.920654 0.642104 0.883579 0.936579 0.600267 0.718386 0.792960 0.829259 0.638010 0.547666 0.352707 0.109130 0.083595 0.048354 0.084969 0.305325 -0.030224 0.088272 -0.131763 -0.007213 -0.016181 0.085791 0.068319 0.099987 0.179522 0.287207 0.255992 0.486634 0.401487 0.552469 0.530715 0.771492 0.790472 0.883441 0.919934 0.943438 0.946829 1.118996 0.943459 1.147103 0.950508 0.852717 1.019672 0.850945 0.763439 0.617796 0.597815 0.455847 0.421401 0.512274 0.264691 0.201089 0.157547 0.009964 0.207375 -0.005735 0.121999 0.179888 0.256324 0.329500 0.350481 0.427374 0.534551 0.664683 0.539707 0.742403 0.857811 0.639460 0.697585 0.665559 0.590706 0.539314 0.458648 0.297687 0.214676 0.115725 -0.045526 -0.019144 0.056555 -0.100703 -0.060186 0.044708 0.052075 0.113891 0.216890 0.237841 0.309983 0.447224 0.441963 0.436557 0.481317 0.453536 0.337446 0.329854 0.239955 0.056493 0.061628 0.016004 -0.041544 -0.095858 -0.096643 -0.012993 -0.049043 0.073591 0.120859 0.115700 0.263120 0.231981 0.231989 0.285693 0.244901 0.230990 0.211943 0.163814 0.106740 0.098000 0.020689 0.000700 -0.119837 -0.054066 -0.000284 -0.001624 0.025304 0.094803 0.084907 0.132060 0.200595 0.267182 0.184796 0.179538 0.110196 0.140393 0.031533 -0.030507 0.028643 -0.021758 0.015881 -0.003874 0.041586 0.090757 0.057359 0.166670 0.106796 0.184388 0.072921 0.157498 0.103085 0.005425 -0.051116 0.001241 -0.021011 -0.055622 -0.055930 0.072865 0.075966 0.000234 0.086038 0.076330 0.085492 0.155815 0.078228 0.072176 0.067473 -0.010742 0.035015 0.012125 0.024561 0.012484 0.008373 0.054784 0.077289 0.084785 0.041742 0.055627 0.037471 0.070380 0.001949 -0.006243 0.035178 0.025899 0.071009 0.048528 0.068305 0.070634 0.053660 0.030385 0.040615 0.009173 -0.038071 -0.025174 -0.018216 0.030211 0.044503 0.102795 -0.001007 0.073019 0.046832 -0.011499 0.061116 0.008026 0.005724 0.033744 0.047871 0.029603 0.088521 0.039467 0.062717 0.073119 0.069900 0.067625 0.064505 0.085307 0.034048 -0.008389 0.050514 0.048525 0.044752 0.075199 0.089879 0.011208 0.054996 0.076178 0.005229 -0.002760 -0.058712 -0.020519 0.110548 0.083619 0.049972 0.038694 -0.023211 0.052720 0.021985 -0.069995 0.052314 0.024062 0.061372 0.037094 0.014702 0.001601 0.075513 0.034892 0.027158 0.035594 -0.044223 0.068870 0.113013 0.000468 -0.000750 -0.002811 0.000341 -0.035027 -0.021217 -0.056194 -0.012230 -0.090187 -0.018930 -0.036382 0.017547 -0.030170 -0.043422 0.028644 -0.073065 -0.049143 -0.081422 0.050143 0.012499 0.014950 -0.009551 0.072106 -0.033125 -0.076233 0.061781 -0.005964 0.003715 0.000416 0.200012 -0.021274 0.032541 -0.015285 -0.016265 -0.011499 -0.048166 -0.020291 -0.186620 0.013071 -0.042899 -0.021064 0.040086 0.008262 0.105484 -0.015841 0.003852 -0.028915 -0.021117 -0.072444 0.037052 0.276173 0.144692 0.193432 0.252349 0.327387 0.361546 0.369511 0.047066 -1.082352
0.072396 0.072910 0.074452 0.077022 0.080619 0.085242 0.090890 0.097560 0.105252 0.113962 0.123685 0.134419 0.146157 0.158892 0.172616 0.187319 0.202990 0.219615 0.237178 0.255661 0.275042 0.295296 0.316397 0.338313 0.361009 0.384444 0.408575 0.433354 0.458725 0.484629 0.511002 0.537771 0.564860 0.592184 0.619653 0.647170 0.674629 0.701919 0.728922 0.755511 0.781554 0.806911 0.831435 0.854972 0.877363 0.898444 0.918043 0.935987 0.952096 0.966189 0.978082 0.987592 0.994534 0.998726 0.999989 0.998149 0.993039 0.984498 0.972379 0.956544 0.936871 0.913255 0.885610 0.853871 0.817995 0.777968 0.733804 0.685544 0.633267 0.577084 0.517142 0.453628 0.386769 0.316831 0.244126 0.169004 0.091858 0.013126 0.066716 0.147152 0.227629 0.307560 0.386324 0.463277 0.537751 0.609060 0.676511 0.739404 0.797045 0.848750 0.893859 0.931739 0.961799 0.983494 0.996342 0.999930 0.993922 0.978075 0.952243 0.916387 0.870584 0.815033 0.750060 0.676124 0.593817 0.503867 0.407133 0.304607 0.197402 0.086749 0.026019 0.139477 0.252124 0.362405 0.468728 0.569490 0.663098 0.748002 0.822716 0.885854 0.936151 0.972501 0.993977 0.999864 0.989681 0.963201 0.920475 0.861841 0.787938 0.699706 0.598389 0.485523 0.362922 0.232660 0.097038 0.041449 0.180154 0.316328 0.447172 0.569893 0.681772 0.780221 0.862853 0.927544 0.972495 0.996294 0.997961 0.976999 0.933428 0.867805 0.781242 0.675400 0.552475 0.415165 0.266621 0.110391 0.049663 0.209452 0.364760 0.511361 0.645128 0.762162 0.858907 0.932273 0.979747 0.999487 0.990413 0.952266 0.885655 0.792076 0.673896 0.534323 0.377332 0.207568 0.030228 0.149095 0.324583 0.490374 0.640768 0.770425 0.874569 0.949180 0.991159 0.998485 0.970325 0.907115 0.810586 0.683754 0.530854 0.357220 0.169122 0.026437 0.221987 0.409853 0.582472 0.732692 0.854093 0.941269 0.990100 0.997966 0.963916 0.888769 0.775138 0.627378 0.451459 0.254749 0.045729 0.166352 0.371881 0.561311 0.725621 0.856750 0.948023 0.994516 0.993358 0.943937 0.848003 0.709666 0.535256 0.333078 0.113048 0.113769 0.335704 0.541080 0.718831 0.859121 0.953911 0.997460 0.986708 0.921535 0.804856 0.642546 0.443205 0.217736 0.021212 0.259931 0.484438 0.681288 0.838406 0.945853 0.996500 0.986544 0.915846 0.788042 0.610433 0.393613 0.150904 0.102448 0.350183 0.576091 0.765064 0.904144 0.983454 0.996949 0.942936 0.824311 0.648489 0.427005 0.174830 0.090622 0.350645 0.586556 0.781067 0.919565 0.991276 0.990149 0.915450 0.771949 0.569703 0.323431 0.051514 0.225362 0.485727 0.709018 0.877224 0.976380 0.997808 0.938939 0.803688 0.602295 0.350631 0.069032 0.219308 0.490203 0.720536 0.890233 0.984089 0.993196 0.915884 0.758038 0.532765 0.259394 0.038091 0.333137 0.598949 0.810954 0.949110 0.999891 0.957688 0.825531 0.615010 0.345360 0.041804 0.266754 0.550439 0.781327 0.936222 0.999071 0.962730 0.829884 0.612995 0.333259 0.018644 0.298864 0.586456 0.813931 0.956897 0.999501 0.936285 0.773008 0.526267 0.221949 0.107404 0.425999 0.698680 0.894838 0.991924 0.978156 0.854085 0.632789 0.338646 0.004776 0.330616 0.628574 0.853942 0.979576 0.989736 0.882199 0.668799 0.374304 0.033661 0.312046 0.620504 0.853392 0.981196 0.987084 0.869276 0.641566 0.331895 0.020944 0.372068 0.676171 0.893421 0.994751 0.965899 0.809591 0.545499 0.207948 0.158392 0.504344 0.782842 0.955352 0.997358
1.000000 1.000000 1.000000 1.000000 1.000000 1.000000 1.000000 1.000000 1.000000 1.000000 1.000000 1.000000 1.000000 1.000000 1.000000 1.000000 1.000000 1.000000 1.000000 1.000000 1.000000 1.000000 1.000000 1.000000 1.000000 1.000000 1.000000 1.000000 1.000000 1.000000 1.000000 1.000000 1.000000 1.000000 1.000000 1.000000 1.000000 1.000000 1.000000 1.000000 1.000000 1.000000 1.000000 1.000000 1.000000 1.000000 1.000000 1.000000 1.000000 1.000000 1.000000 1.000000 0.918338 0.918338 0.905495 0.905495 0.905495 0.905495 0.905495 0.905495 0.905495 0.905495 0.905495 0.905495 0.905495 0.905495 0.905495 0.905495 0.905495 0.905495 0.905495 0.905495 0.905495 0.905495 0.905495 0.905495 0.905495 0.905495 0.905495 0.905495 0.905495 0.905495 0.905495 0.905495 0.905495 0.905495 0.905495 0.905495 0.905495 0.905495 0.905495 0.905495 0.905495 0.905495 0.905495 0.901053 0.905981 0.907873 0.906356 0.909908 0.909975 0.909332 0.909669 0.909329 0.909662 0.911055 0.921549 0.932557 0.943576 0.944111 0.949282 0.953595 0.956987 0.957911 0.959509 0.969557 0.968241 0.967771 0.968430 0.969814 0.971900 0.970643 0.970182 0.973412 0.974038 0.972464 0.970211 0.969627 0.968231 0.967630 0.967263 0.967148 0.967017 0.967529 0.967732 0.967882 0.968028 0.968082 0.969097 0.970253 0.972660 0.973666 0.973530 0.972452 0.970562 0.974576 0.975455 0.975204 0.975159 0.974703 0.974963 0.960953 0.956926 0.956838 0.953759 0.952283 0.948934 0.947627 0.946496 0.946803 0.945290 0.945053 0.942470 0.928473 0.914831 0.904016 0.924210 0.909028 0.898003 0.872490 0.873036 0.866816 0.867320 0.857911 0.852729 0.848557 0.845668 0.847263 0.844036 0.847573 0.844605 0.829591 0.833009 0.829661 0.797423 0.780635 0.765795 0.767221 0.764311 0.765474 0.767384 0.760764 0.769351 0.762548 0.760703 0.751953 0.730918 0.698833 0.686282 0.697047 0.707069 0.705439 0.701828 0.686578 0.655227 0.667976 0.688847 0.685244 0.687323 0.680173 0.673979 0.680559 0.681393 0.678286 0.672347 0.671482 0.671203 0.679830 0.685224 0.680039 0.672478 0.658424 0.646585 0.631500 0.646744 0.650045 0.619383 0.613479 0.605411 0.599150 0.586260 0.553902 0.554207 0.531790 0.518433 0.520550 0.523007 0.522840 0.533587 0.534476 0.512200 0.538101 0.542968 0.569916 0.543443 0.538122 0.539342 0.549813 0.533498 0.509248 0.499558 0.500524 0.514357 0.549830 0.590056 0.580548 0.569394 0.556783 0.572444 0.546795 0.555667 0.572944 0.551298 0.477655 0.440475 0.437528 0.402648 0.392152 0.384785 0.377361 0.389141 0.379538 0.373436 0.360453 0.348011 0.286848 0.251326 0.235608 0.213585 0.222344 0.238018 0.223764 0.225913 0.261150 0.307621 0.307136 0.298739 0.288548 0.290004 0.262408 0.273791 0.299081 0.256924 0.254001 0.249714 0.224743 0.212519 0.173344 0.203213 0.119464 0.103146 0.106753 0.122242 0.132135 0.131821 0.139927 0.115990 0.135125 0.126073 0.090038 0.074847 0.090917 0.082652 0.051394 0.061062 0.075348 0.060706 0.046094 0.071726 0.065136 0.073300 0.064560 0.063131 0.108418 0.140019 0.126487 0.127099 0.111817 0.113196 0.087845 0.077701 0.067752 0.060771 0.006018 -0.021678 -0.021678 -0.019580 -0.019580 -0.019580 -0.019580 -0.019580 -0.019580 -0.019580 -0.019580 -0.019580 -0.020835 -0.020835 -0.020835 -0.020835 -0.020835 -0.020835 -0.020835 -0.020835 -0.020835 0.003978 0.003978 0.003978 0.003978 0.003978 0.003978 0.003978 0.003978 0.003978
0.000000 0.000000 0.000000 0.000000 0.000000 0.000000 0.000000 0.000000 0.000000 0.000000 0.000000 0.000000 0.000000 0.000000 0.000000 0.000000 0.000000 0.000000 0.000000 0.000000 0.000000 0.000000 0.000000 0.000000 0.000000 0.000000 0.000000 0.000000 0.000000 0.000000 0.000000 0.000000 0.000000 0.000000 0.000000 0.000000 0.000000 0.000000 0.000000 0.000000 0.000000 0.000000 0.000000 0.000000 0.000000 0.000000 0.000000 0.000000 0.000000 0.000000 0.000000 0.000000 0.181818 0.181818 0.199007 0.199007 0.199007 0.199007 0.199007 0.199007 0.199007 0.199007 0.199007 0.199007 0.199007 0.199007 0.199007 0.199007 0.199007 0.199007 0.199007 0.199007 0.199007 0.199007 0.199007 0.199007 0.199007 0.199007 0.199007 0.199007 0.199007 0.199007 0.199007 0.199007 0.199007 0.199007 0.199007 0.199007 0.199007 0.199007 0.199007 0.199007 0.199007 0.199007 0.199007 0.230940 0.230940 0.230940 0.230940 0.230940 0.230940 0.230940 0.230940 0.230940 0.230940 0.230940 0.230940 0.230940 0.230940 0.230940 0.230940 0.230940 0.230940 0.230940 0.230940 0.230940 0.230940 0.230940 0.230940 0.230940 0.230940 0.230940 0.230940 0.244339 0.244339 0.244339 0.244339 0.244339 0.244339 0.244339 0.244339 0.244339 0.244339 0.244339 0.244339 0.244339 0.244339 0.244339 0.244339 0.244339 0.244339 0.244339 0.244339 0.244339 0.244339 0.244339 0.251976 0.251976 0.251976 0.251976 0.251976 0.251976 0.251976 0.251976 0.251976 0.251976 0.251976 0.251976 0.251976 0.251976 0.251976 0.251976 0.251976 0.251976 0.251976 0.251976 0.264906 0.264906 0.264906 0.264906 0.264906 0.264906 0.264906 0.264906 0.264906 0.264906 0.264906 0.264906 0.264906 0.264906 0.264906 0.264906 0.264906 0.264906 0.264906 0.264906 0.264906 0.264906 0.264906 0.264906 0.264906 0.264906 0.264906 0.264906 0.264906 0.264906 0.264906 0.264906 0.264906 0.264906 0.264906 0.264906 0.264906 0.264906 0.264906 0.264906 0.264906 0.264906 0.264906 0.264906 0.264906 0.264906 0.264906 0.264906 0.264906 0.264906 0.264906 0.264906 0.264906 0.264906 0.264906 0.264906 0.264906 0.264906 0.264906 0.264906 0.264906 0.264906 0.264906 0.264906 0.264906 0.264906 0.264906 0.264906 0.264906 0.264906 0.264906 0.264906 0.264906 0.264906 0.264906 0.269680 0.269680 0.269680 0.269680 0.269680 0.269680 0.269680 0.269680 0.269680 0.269680 0.269680 0.269680 0.264906 0.264906 0.264906 0.264906 0.264906 0.264906 0.264906 0.264906 0.264906 0.264906 0.264906 0.264906 0.269680 0.269680 0.269680 0.269680 0.269680 0.269680 0.269680 0.269680 0.269680 0.269680 0.269680 0.264906 0.264906 0.264906 0.264906 0.264906 0.264906 0.264906 0.264906 0.264906 0.264906 0.264906 0.256074 0.256074 0.256074 0.256074 0.256074 0.256074 0.256074 0.256074 0.256074 0.256074 0.256074 0.264906 0.264906 0.264906 0.264906 0.264906 0.264906 0.264906 0.264906 0.264906 0.264906 0.269680 0.269680 0.269680 0.269680 0.269680 0.269680 0.269680 0.269680 0.269680 0.256074 0.256074 0.256074 0.256074 0.256074 0.256074 0.256074 0.256074 0.256074 0.256074 0.260378 0.260378 0.260378 0.260378 0.260378 0.260378 0.260378 0.260378 0.260378 0.256074 0.256074 0.256074 0.256074 0.256074 0.256074 0.256074 0.256074 0.256074 0.251976 0.251976 0.251976 0.251976 0.251976 0.251976 0.251976 0.251976 0.251976 0.264906 0.264906 0.264906 0.264906 0.264906 0.264906 0.264906 0.264906 0.264906
