# Output from CTFFind version 4.1.9, run on 2019-11-03 10:44:55
# Input file: stack1_pure_bm3d_averaged_1_1.25_0_1500_half.mrc ; Number of micrographs: 1
# Pixel size: 3.000 Angstroms ; acceleration voltage: 300.0 keV ; spherical aberration: 0.00 mm ; amplitude contrast: 0.07
# Box size: 512 pixels ; min. res.: 30.0 Angstroms ; max. res.: 5.0 Angstroms ; min. def.: 5000.0 um; max. def. 50000.0 um; num. frames averaged: 1
# 6 lines per micrograph: #1 - spatial frequency (1/Angstroms); #2 - 1D rotational average of spectrum (assuming no astigmatism); #3 - 1D rotational average of spectrum; #4 - CTF fit; #5 - cross-correlation between spectrum and CTF fit; #6 - 2sigma of expected cross correlation of noise
0.000000 0.000651 0.001302 0.001953 0.002604 0.003255 0.003906 0.004557 0.005208 0.005859 0.006510 0.007161 0.007812 0.008464 0.009115 0.009766 0.010417 0.011068 0.011719 0.012370 0.013021 0.013672 0.014323 0.014974 0.015625 0.016276 0.016927 0.017578 0.018229 0.018880 0.019531 0.020182 0.020833 0.021484 0.022135 0.022786 0.023438 0.024089 0.024740 0.025391 0.026042 0.026693 0.027344 0.027995 0.028646 0.029297 0.029948 0.030599 0.031250 0.031901 0.032552 0.033203 0.033854 0.034505 0.035156 0.035807 0.036458 0.037109 0.037760 0.038411 0.039062 0.039714 0.040365 0.041016 0.041667 0.042318 0.042969 0.043620 0.044271 0.044922 0.045573 0.046224 0.046875 0.047526 0.048177 0.048828 0.049479 0.050130 0.050781 0.051432 0.052083 0.052734 0.053385 0.054036 0.054688 0.055339 0.055990 0.056641 0.057292 0.057943 0.058594 0.059245 0.059896 0.060547 0.061198 0.061849 0.062500 0.063151 0.063802 0.064453 0.065104 0.065755 0.066406 0.067057 0.067708 0.068359 0.069010 0.069661 0.070312 0.070964 0.071615 0.072266 0.072917 0.073568 0.074219 0.074870 0.075521 0.076172 0.076823 0.077474 0.078125 0.078776 0.079427 0.080078 0.080729 0.081380 0.082031 0.082682 0.083333 0.083984 0.084635 0.085286 0.085938 0.086589 0.087240 0.087891 0.088542 0.089193 0.089844 0.090495 0.091146 0.091797 0.092448 0.093099 0.093750 0.094401 0.095052 0.095703 0.096354 0.097005 0.097656 0.098307 0.098958 0.099609 0.100260 0.100911 0.101562 0.102214 0.102865 0.103516 0.104167 0.104818 0.105469 0.106120 0.106771 0.107422 0.108073 0.108724 0.109375 0.110026 0.110677 0.111328 0.111979 0.112630 0.113281 0.113932 0.114583 0.115234 0.115885 0.116536 0.117188 0.117839 0.118490 0.119141 0.119792 0.120443 0.121094 0.121745 0.122396 0.123047 0.123698 0.124349 0.125000 0.125651 0.126302 0.126953 0.127604 0.128255 0.128906 0.129557 0.130208 0.130859 0.131510 0.132161 0.132812 0.133464 0.134115 0.134766 0.135417 0.136068 0.136719 0.137370 0.138021 0.138672 0.139323 0.139974 0.140625 0.141276 0.141927 0.142578 0.143229 0.143880 0.144531 0.145182 0.145833 0.146484 0.147135 0.147786 0.148438 0.149089 0.149740 0.150391 0.151042 0.151693 0.152344 0.152995 0.153646 0.154297 0.154948 0.155599 0.156250 0.156901 0.157552 0.158203 0.158854 0.159505 0.160156 0.160807 0.161458 0.162109 0.162760 0.163411 0.164062 0.164714 0.165365 0.166016 0.166667 0.167318 0.167969 0.168620 0.169271 0.169922 0.170573 0.171224 0.171875 0.172526 0.173177 0.173828 0.174479 0.175130 0.175781 0.176432 0.177083 0.177734 0.178385 0.179036 0.179688 0.180339 0.180990 0.181641 0.182292 0.182943 0.183594 0.184245 0.184896 0.185547 0.186198 0.186849 0.187500 0.188151 0.188802 0.189453 0.190104 0.190755 0.191406 0.192057 0.192708 0.193359 0.194010 0.194661 0.195312 0.195964 0.196615 0.197266 0.197917 0.198568 0.199219 0.199870 0.200521 0.201172 0.201823 0.202474 0.203125 0.203776 0.204427 0.205078 0.205729 0.206380 0.207031 0.207682 0.208333 0.208984 0.209635 0.210286 0.210938 0.211589 0.212240 0.212891 0.213542 0.214193 0.214844 0.215495 0.216146 0.216797 0.217448 0.218099 0.218750 0.219401 0.220052 0.220703 0.221354 0.222005 0.222656 0.223307 0.223958 0.224609 0.225260 0.225911 0.226562 0.227214 0.227865 0.228516 0.229167 0.229818 0.230469 0.231120 0.231771 0.232422 0.233073 0.233724 0.234375 0.235026 0.235677
       0.31694        0.31694        0.31694        0.31694        0.31694        0.31694        0.31694        0.31694        0.31694        0.31694        0.31694        0.31694        0.31694        0.31694        0.31694        0.31694        0.31694        0.31694        0.31694        0.31694        0.31694        0.31694        0.31694        0.31694        0.31694        0.31694        0.31694        0.31694        0.31694        0.31694        0.31694        0.31694        0.31694        0.31694        0.31694        0.31694        0.31694        0.31694        0.31694        0.31694        0.31694        0.31694        0.31694        0.31694        0.31694        0.31694        0.31694        0.31694        0.31694        0.31694        0.31694        0.48136        0.70311        0.43700        0.17178       -0.12591       -0.29431       -0.14727       -0.20310       -0.11862       -0.08487       -0.18526       -0.16167       -0.06290       -0.05283       -0.19618       -0.27894       -0.45622       -0.54577       -0.61855       -0.56516       -0.46683       -0.38879       -0.62148       -0.53212       -0.65209       -0.52511       -0.49768       -0.44495       -0.40850       -0.38778       -0.28362       -0.20695       -0.15694        0.01781       -0.04912        0.12140        0.17994        0.30265        0.39749        0.44407        0.47675        0.50386        0.57257        0.66579        0.62661        0.67065        0.57354        0.49577        0.60351        0.51466        0.43043        0.39562        0.31643        0.22998        0.25686        0.20883        0.10640        0.06907        0.00601       -0.01952        0.02487       -0.00624        0.05338        0.05759        0.19909        0.27067        0.27819        0.34077        0.53137        0.52935        0.58025        0.67126        0.67712        0.61918        0.62149        0.61007        0.51365        0.57032        0.41165        0.33826        0.23324        0.16098        0.06421        0.15335        0.11446        0.08783        0.09634        0.18545        0.18448        0.30037        0.34361        0.39584        0.48432        0.56105        0.52669        0.54065        0.59049        0.52273        0.44793        0.46084        0.31873        0.24649        0.23137        0.24886        0.13635        0.11817        0.14200        0.19509        0.23723        0.32773        0.35751        0.39031        0.45764        0.42087        0.46403        0.43112        0.46070        0.41704        0.38975        0.36240        0.32864        0.30814        0.25863        0.19756        0.17033        0.20294        0.23829        0.25791        0.34576        0.35956        0.34497        0.40490        0.44756        0.41608        0.41206        0.43578        0.36853        0.31133        0.27965        0.24527        0.28458        0.26364        0.27585        0.29763        0.33739        0.33458        0.38376        0.40624        0.40732        0.38805        0.41065        0.39420        0.35599        0.27362        0.28434        0.29142        0.25774        0.23816        0.30737        0.35629        0.34074        0.34201        0.36190        0.34518        0.40203        0.38245        0.35907        0.33420        0.28768        0.29597        0.29724        0.28175        0.30447        0.28851        0.34134        0.35443        0.35743        0.30478        0.28897        0.29319        0.32711        0.28724        0.28688        0.27824        0.28057        0.30513        0.31058        0.32688        0.33501        0.32242        0.29772        0.30937        0.29682        0.24796        0.24552        0.24673        0.27899        0.29014        0.31351        0.28659        0.29308        0.31218        0.27652        0.31164        0.27785        0.26963        0.27930        0.28359        0.30082        0.32577        0.31898        0.31705        0.27996        0.31369        0.33593        0.31535        0.31552        0.30792        0.27016        0.29053        0.28681        0.27973        0.28534        0.29191        0.30297        0.29869        0.34369        0.29282        0.26291        0.23705        0.25096        0.28308        0.34985        0.30617        0.28357        0.25398        0.28065        0.26667        0.25826        0.29830        0.27411        0.29861        0.24957        0.27111        0.26403        0.31025        0.30436        0.28856        0.28855        0.27864        0.30156        0.36610        0.28786        0.26308        0.27517        0.28396        0.27042        0.29967        0.26139        0.28401        0.23139        0.27895        0.30388        0.28495        0.27897        0.26123        0.28282        0.26031        0.22624        0.22549        0.27008        0.27131        0.27370        0.30468        0.28967        0.24121        0.21641        0.23167        0.26704        0.27524        0.27590        0.28639        0.22963        0.24747        0.21680        0.21982        0.23115        0.19781        0.21870        0.20931        0.23951        0.22931        0.21253        0.23561        0.25731        0.25069        0.23036        0.15448        0.19340        0.16765        0.19549        0.20561        0.21737        0.09812        0.10013        0.13978        0.23038        0.17153        0.03298       -0.05154       -0.31557       -0.49298
2.947854 2.916043 2.884406 2.852944 2.821655 2.790541 2.759601 2.728835 2.698243 2.667825 2.637582 2.607512 2.577617 2.547896 2.518348 2.488975 2.459777 2.430752 2.401901 2.373225 2.344722 2.316394 2.288240 2.260260 2.232454 2.204822 2.177365 2.150081 2.122972 2.096037 2.069276 2.042689 2.016276 1.990037 1.963973 1.938082 1.912366 1.886824 1.861456 1.836262 1.811242 1.786396 1.761725 1.737227 1.712904 1.688755 1.664780 1.640979 1.617352 1.593899 1.570621 1.634840 1.958729 1.939838 1.203517 1.108705 0.568932 0.930925 0.622597 0.896893 0.896609 0.638001 0.672195 0.873487 0.842716 0.644797 0.553752 0.265045 0.035433 0.059901 0.010900 0.100870 0.345133 -0.092268 -0.004496 -0.144011 0.002120 -0.024182 0.057847 0.059290 0.088216 0.156875 0.259841 0.268192 0.526029 0.383784 0.589520 0.610136 0.797321 0.856809 0.926701 0.967634 0.954659 1.003980 1.163347 1.026448 1.163930 0.982434 0.838542 1.004913 0.890016 0.806214 0.672673 0.642309 0.473472 0.461470 0.478191 0.300692 0.205080 0.175906 0.013091 0.199712 0.016793 0.101922 0.144940 0.227950 0.360368 0.340541 0.394351 0.541364 0.675475 0.572203 0.827023 0.786443 0.724279 0.723702 0.674473 0.577142 0.557115 0.515937 0.316970 0.184486 0.100679 -0.071028 -0.012328 0.085366 -0.111503 -0.079182 0.027454 0.027401 0.089044 0.240361 0.213813 0.311838 0.434995 0.448331 0.440302 0.498558 0.460000 0.335167 0.328383 0.237148 0.086912 0.038177 0.013741 -0.021680 -0.127961 -0.114455 -0.024447 -0.066767 0.079089 0.138297 0.147819 0.262900 0.233025 0.266109 0.304552 0.245250 0.272812 0.201734 0.196819 0.121178 0.103222 0.039504 -0.000227 -0.111015 -0.077815 0.021691 -0.014684 0.042946 0.122251 0.091796 0.134548 0.214005 0.257221 0.194438 0.213394 0.171977 0.145646 0.050695 -0.020703 0.045166 0.010093 0.018709 0.021256 0.062899 0.102955 0.086250 0.174165 0.138158 0.150318 0.078658 0.145926 0.112994 -0.002543 -0.053569 -0.001968 -0.041172 -0.060019 -0.086442 0.036716 0.087567 0.018951 0.055179 0.060915 0.098598 0.135248 0.080764 0.061614 0.055809 -0.039532 0.029283 -0.028400 0.006041 0.024206 0.016410 0.052307 0.065272 0.066235 0.012039 0.025289 0.004391 0.065759 -0.006257 0.007480 -0.010955 -0.008545 0.049416 0.039580 0.058155 0.057116 0.019296 0.025121 0.014098 -0.000810 -0.065114 -0.049013 -0.044993 -0.026282 0.014563 0.050861 -0.017907 -0.000130 0.063491 -0.007416 0.036515 -0.013231 -0.010883 0.009830 0.011425 0.040094 0.052757 0.047688 0.032539 0.016418 0.084294 0.056695 0.059922 0.050283 0.017251 -0.036119 0.047991 -0.016141 0.012449 0.002375 0.025405 0.011144 0.015787 0.071248 -0.037566 -0.018467 -0.097441 -0.047094 0.013299 0.054944 -0.012975 -0.015328 -0.060138 -0.020349 -0.062994 -0.072365 0.020950 -0.020974 -0.002443 -0.069449 -0.056500 -0.037133 0.012637 0.001090 -0.039954 -0.004939 -0.053790 0.053155 0.056776 -0.013304 -0.081533 -0.020117 0.002886 -0.082414 -0.007187 -0.059953 -0.059408 -0.117897 -0.020398 -0.009111 -0.022184 -0.043815 -0.050479 -0.006720 -0.091726 -0.075109 -0.103022 -0.013699 -0.005216 -0.015256 0.015280 0.013971 -0.052391 -0.006965 -0.022831 0.030123 0.072936 0.038550 0.094978 -0.034617 0.029600 0.016220 -0.025103 0.017653 -0.047952 0.014348 -0.028506 0.047184 0.024782 -0.070220 0.095215 0.001932 0.031182 0.080604 -0.055318 -0.059271 -0.036155 -0.040026 0.008614 0.211111 0.086244 0.126105 0.168852 0.315191 0.227669 0.003368 -0.060638 -0.606510
0.072396 0.072908 0.074445 0.077006 0.080590 0.085197 0.090826 0.097473 0.105138 0.113818 0.123508 0.134205 0.145902 0.158594 0.172271 0.186925 0.202543 0.219112 0.236617 0.255038 0.274356 0.294545 0.315578 0.337425 0.360050 0.383415 0.407475 0.432181 0.457482 0.483317 0.509621 0.536325 0.563352 0.590618 0.618034 0.645502 0.672921 0.700178 0.727156 0.753731 0.779771 0.805136 0.829682 0.853257 0.875701 0.896852 0.916541 0.934593 0.950831 0.965076 0.977144 0.986853 0.994019 0.998461 1.000000 0.998463 0.993682 0.985498 0.973762 0.958336 0.939097 0.915939 0.888774 0.857534 0.822176 0.782681 0.739060 0.691352 0.639629 0.583998 0.524602 0.461622 0.395279 0.325832 0.253586 0.178884 0.102112 0.023700 0.055885 0.136133 0.216499 0.296404 0.375235 0.452353 0.527098 0.598789 0.666737 0.730247 0.788627 0.841195 0.887288 0.926274 0.957556 0.980586 0.994872 0.999991 0.995598 0.981433 0.957334 0.923245 0.879221 0.825440 0.762204 0.689945 0.609228 0.520754 0.425355 0.323992 0.217753 0.107840 0.004440 0.117683 0.230411 0.341086 0.448128 0.549943 0.644944 0.731575 0.808346 0.873853 0.926813 0.966088 0.990718 0.999945 0.993238 0.970317 0.931170 0.876073 0.805593 0.720601 0.622265 0.512050 0.391701 0.263225 0.128859 0.008954 0.147612 0.284399 0.416537 0.541242 0.655785 0.757554 0.844120 0.913299 0.963217 0.992369 0.999666 0.984491 0.946729 0.886796 0.805658 0.704825 0.586346 0.452777 0.307140 0.152867 0.006276 0.166273 0.322954 0.472104 0.609580 0.731427 0.834002 0.914089 0.969017 0.996755 0.996003 0.966267 0.907899 0.822131 0.711069 0.577663 0.425650 0.259468 0.084135 0.094886 0.271855 0.440934 0.596381 0.732752 0.845103 0.929179 0.981595 0.999989 0.983150 0.931103 0.845157 0.727909 0.583188 0.415964 0.232191 0.038620 0.157440 0.348391 0.526634 0.684885 0.816478 0.915661 0.977873 0.999977 0.980440 0.919464 0.819026 0.682871 0.516388 0.326450 0.121138 0.090577 0.299212 0.495194 0.669308 0.813139 0.919497 0.982808 0.999434 0.967918 0.889123 0.766269 0.604850 0.412422 0.198296 0.026897 0.251710 0.464457 0.653820 0.809471 0.922655 0.986712 0.997515 0.953774 0.857189 0.712457 0.527091 0.311077 0.076378 0.163710 0.395285 0.604658 0.779156 0.907935 0.982673 0.998162 0.952720 0.848395 0.690946 0.489592 0.256521 0.006192 0.245529 0.482362 0.688675 0.850534 0.956677 0.999351 0.974932 0.884288 0.732844 0.530328 0.290221 0.028897 0.235453 0.484064 0.698956 0.864221 0.967284 0.999884 0.958823 0.846327 0.670033 0.442532 0.180568 0.096172 0.366489 0.609294 0.805274 0.938456 0.997576 0.977103 0.877831 0.706975 0.477740 0.208387 0.079180 0.361125 0.613681 0.815146 0.947803 0.999544 0.965053 0.846444 0.653250 0.401760 0.113734 0.185428 0.468875 0.710745 0.888528 0.985231 0.991096 0.904670 0.733139 0.491857 0.203068 0.106066 0.405982 0.667514 0.864776 0.977775 0.994527 0.912438 0.738775 0.490164 0.191088 0.128403 0.435702 0.698933 0.890306 0.989121 0.984106 0.874824 0.671960 0.396408 0.077248 0.251260 0.553291 0.795401 0.950256 0.999826 0.937607 0.769598 0.513894 0.198861 0.139894 0.463494 0.734233 0.920034 0.998320 0.958894 0.805409 0.555218 0.237562 0.109720 0.444632 0.726086 0.918982 0.998679 0.954286 0.790304 0.526364 0.195047 0.162020 0.499314 0.773219 0.947725 0.999263 0.920062 0.719468 0.423044 0.069482 0.294324 0.619462 0.861595 0.987063
1.000000 1.000000 1.000000 1.000000 1.000000 1.000000 1.000000 1.000000 1.000000 1.000000 1.000000 1.000000 1.000000 1.000000 1.000000 1.000000 1.000000 1.000000 1.000000 1.000000 1.000000 1.000000 1.000000 1.000000 1.000000 1.000000 1.000000 1.000000 1.000000 1.000000 1.000000 1.000000 1.000000 1.000000 1.000000 1.000000 1.000000 1.000000 1.000000 1.000000 1.000000 1.000000 1.000000 1.000000 1.000000 1.000000 1.000000 1.000000 1.000000 1.000000 1.000000 1.000000 0.910587 0.910587 0.910587 0.890942 0.890942 0.890942 0.890942 0.890942 0.890942 0.890942 0.890942 0.890942 0.890942 0.890942 0.890942 0.890942 0.890942 0.890942 0.890942 0.890942 0.890942 0.890942 0.890942 0.890942 0.890942 0.890942 0.890942 0.890942 0.890942 0.890942 0.890942 0.890942 0.890942 0.890942 0.890942 0.890942 0.890942 0.890942 0.890942 0.890942 0.890942 0.890942 0.890942 0.890942 0.898954 0.900964 0.891995 0.895583 0.895889 0.895506 0.895386 0.895098 0.894664 0.896303 0.914382 0.922755 0.931304 0.931680 0.939379 0.943992 0.943533 0.944278 0.950408 0.957893 0.955861 0.955001 0.955675 0.957861 0.959036 0.957207 0.957221 0.957175 0.957563 0.958367 0.955540 0.953629 0.952555 0.951462 0.950913 0.952775 0.952968 0.953097 0.953920 0.953692 0.954027 0.957060 0.956648 0.958124 0.957382 0.956862 0.956931 0.955316 0.964726 0.960780 0.961042 0.960335 0.961213 0.961232 0.961127 0.961510 0.959319 0.959511 0.957082 0.956466 0.955663 0.954756 0.952865 0.950539 0.947736 0.949344 0.948109 0.940641 0.933371 0.928865 0.937745 0.919226 0.916751 0.918274 0.920343 0.918376 0.917563 0.913590 0.912366 0.911934 0.904828 0.904775 0.903489 0.888306 0.886434 0.886546 0.874573 0.869864 0.868666 0.855206 0.839774 0.845438 0.844268 0.845611 0.846057 0.842012 0.847525 0.831281 0.831758 0.827184 0.820029 0.803869 0.795600 0.801058 0.799879 0.799478 0.756763 0.739446 0.724704 0.717124 0.725823 0.730993 0.742287 0.739657 0.728930 0.722613 0.718823 0.722433 0.731101 0.730919 0.731108 0.729588 0.733298 0.727011 0.728360 0.711032 0.694323 0.687260 0.686354 0.696666 0.662624 0.658658 0.627779 0.614801 0.613310 0.607442 0.586731 0.569649 0.562282 0.566524 0.550441 0.553642 0.559286 0.563100 0.558375 0.576699 0.542767 0.546893 0.549103 0.534314 0.525147 0.521237 0.526380 0.538082 0.517528 0.524775 0.528851 0.527105 0.501030 0.509514 0.535787 0.529475 0.533621 0.544554 0.528351 0.471865 0.442097 0.402559 0.396031 0.333046 0.312454 0.306605 0.311892 0.306173 0.274326 0.263735 0.255748 0.200272 0.143903 0.135790 0.108006 0.063307 0.065895 0.087735 0.080664 0.100266 0.070864 0.099155 0.130785 0.108630 0.087440 0.077101 0.064043 0.076331 0.082324 0.109038 0.097420 0.066063 0.073746 0.026021 -0.001695 -0.006361 0.026752 -0.049608 -0.039736 -0.064956 -0.067041 -0.089479 -0.095502 -0.109733 -0.126554 -0.153204 -0.133987 -0.123026 -0.120020 -0.177651 -0.186339 -0.193094 -0.188649 -0.208479 -0.176248 -0.161185 -0.149811 -0.151056 -0.140840 -0.097338 -0.033728 -0.039513 -0.044583 -0.054189 -0.083785 -0.060464 -0.038076 -0.046131 -0.071246 -0.109968 -0.114110 -0.114110 -0.114110 -0.114110 -0.114110 -0.110806 -0.110806 -0.110806 -0.110806 -0.110806 -0.110806 -0.110806 -0.110806 -0.110806 -0.045037 -0.045037 -0.045037 -0.045037 -0.045037 -0.045037 -0.045037 -0.045037 -0.045037 -0.045037 -0.045037 -0.045037 -0.045037 -0.045037 -0.045037 -0.045037 -0.045037
0.000000 0.000000 0.000000 0.000000 0.000000 0.000000 0.000000 0.000000 0.000000 0.000000 0.000000 0.000000 0.000000 0.000000 0.000000 0.000000 0.000000 0.000000 0.000000 0.000000 0.000000 0.000000 0.000000 0.000000 0.000000 0.000000 0.000000 0.000000 0.000000 0.000000 0.000000 7.000000 0.000000 0.000000 0.000000 0.000000 0.000000 0.000000 0.000000 0.000000 0.000000 0.000000 0.000000 0.000000 0.000000 0.000000 0.000000 0.000000 0.000000 0.000000 0.000000 0.000000 0.180334 0.180334 0.180334 0.199007 0.199007 0.199007 0.199007 0.199007 0.199007 0.199007 0.199007 0.199007 0.199007 0.199007 0.199007 0.199007 0.199007 0.199007 0.199007 0.199007 0.199007 0.199007 0.199007 0.199007 0.199007 0.199007 0.199007 0.199007 0.199007 0.199007 0.199007 0.199007 0.199007 0.199007 0.199007 0.199007 0.199007 0.199007 0.199007 0.199007 0.199007 0.199007 0.199007 0.199007 0.230940 0.230940 0.230940 0.230940 0.230940 0.230940 0.230940 0.230940 0.230940 0.230940 0.230940 0.230940 0.230940 0.230940 0.230940 0.230940 0.230940 0.230940 0.230940 0.230940 0.230940 0.230940 0.230940 0.230940 0.230940 0.230940 0.230940 0.230940 0.248069 0.248069 0.248069 0.248069 0.248069 0.248069 0.248069 0.248069 0.248069 0.248069 0.248069 0.248069 0.248069 0.248069 0.248069 0.248069 0.248069 0.248069 0.248069 0.248069 0.248069 0.248069 0.251976 0.251976 0.251976 0.251976 0.251976 0.251976 0.251976 0.251976 0.251976 0.251976 0.251976 0.251976 0.251976 0.251976 0.251976 0.251976 0.251976 0.251976 0.251976 0.251976 0.256074 0.256074 0.256074 0.256074 0.256074 0.256074 0.256074 0.256074 0.256074 0.256074 0.256074 0.256074 0.256074 0.256074 0.256074 0.256074 0.256074 0.256074 0.264906 0.264906 0.264906 0.264906 0.264906 0.264906 0.264906 0.264906 0.264906 0.264906 0.264906 0.264906 0.264906 0.264906 0.264906 0.264906 0.269680 0.269680 0.269680 0.269680 0.269680 0.269680 0.269680 0.269680 0.269680 0.269680 0.269680 0.269680 0.269680 0.269680 0.264906 0.264906 0.264906 0.264906 0.264906 0.264906 0.264906 0.264906 0.264906 0.264906 0.264906 0.264906 0.264906 0.264906 0.264906 0.264906 0.264906 0.264906 0.264906 0.264906 0.264906 0.264906 0.264906 0.264906 0.264906 0.264906 0.264906 0.260378 0.260378 0.260378 0.260378 0.260378 0.260378 0.260378 0.260378 0.260378 0.260378 0.260378 0.260378 0.260378 0.274721 0.274721 0.274721 0.274721 0.274721 0.274721 0.274721 0.274721 0.274721 0.274721 0.274721 0.260378 0.260378 0.260378 0.260378 0.260378 0.260378 0.260378 0.260378 0.260378 0.260378 0.260378 0.260378 0.264906 0.264906 0.264906 0.264906 0.264906 0.264906 0.264906 0.264906 0.264906 0.264906 0.264906 0.269680 0.269680 0.269680 0.269680 0.269680 0.269680 0.269680 0.269680 0.269680 0.269680 0.264906 0.264906 0.264906 0.264906 0.264906 0.264906 0.264906 0.264906 0.264906 0.264906 0.260378 0.260378 0.260378 0.260378 0.260378 0.260378 0.260378 0.260378 0.260378 0.260378 0.264906 0.264906 0.264906 0.264906 0.264906 0.264906 0.264906 0.264906 0.264906 0.251976 0.251976 0.251976 0.251976 0.251976 0.251976 0.251976 0.251976 0.251976 0.251976 0.256074 0.256074 0.256074 0.256074 0.256074 0.256074 0.256074 0.256074 0.256074 0.269680 0.269680 0.269680 0.269680 0.269680 0.269680 0.269680 0.269680 0.269680 0.269680 0.269680 0.269680 0.269680 0.269680 0.269680 0.269680 0.269680
