# Output from CTFFind version 4.1.9, run on 2019-11-03 19:01:41
# Input file: stack11_bm3d_averaged_1_2.75_0_2000_half.mrc ; Number of micrographs: 1
# Pixel size: 3.000 Angstroms ; acceleration voltage: 300.0 keV ; spherical aberration: 0.00 mm ; amplitude contrast: 0.07
# Box size: 512 pixels ; min. res.: 30.0 Angstroms ; max. res.: 5.0 Angstroms ; min. def.: 5000.0 um; max. def. 50000.0 um; num. frames averaged: 1
# 6 lines per micrograph: #1 - spatial frequency (1/Angstroms); #2 - 1D rotational average of spectrum (assuming no astigmatism); #3 - 1D rotational average of spectrum; #4 - CTF fit; #5 - cross-correlation between spectrum and CTF fit; #6 - 2sigma of expected cross correlation of noise
0.000000 0.000651 0.001302 0.001953 0.002604 0.003255 0.003906 0.004557 0.005208 0.005859 0.006510 0.007161 0.007812 0.008464 0.009115 0.009766 0.010417 0.011068 0.011719 0.012370 0.013021 0.013672 0.014323 0.014974 0.015625 0.016276 0.016927 0.017578 0.018229 0.018880 0.019531 0.020182 0.020833 0.021484 0.022135 0.022786 0.023438 0.024089 0.024740 0.025391 0.026042 0.026693 0.027344 0.027995 0.028646 0.029297 0.029948 0.030599 0.031250 0.031901 0.032552 0.033203 0.033854 0.034505 0.035156 0.035807 0.036458 0.037109 0.037760 0.038411 0.039062 0.039714 0.040365 0.041016 0.041667 0.042318 0.042969 0.043620 0.044271 0.044922 0.045573 0.046224 0.046875 0.047526 0.048177 0.048828 0.049479 0.050130 0.050781 0.051432 0.052083 0.052734 0.053385 0.054036 0.054688 0.055339 0.055990 0.056641 0.057292 0.057943 0.058594 0.059245 0.059896 0.060547 0.061198 0.061849 0.062500 0.063151 0.063802 0.064453 0.065104 0.065755 0.066406 0.067057 0.067708 0.068359 0.069010 0.069661 0.070312 0.070964 0.071615 0.072266 0.072917 0.073568 0.074219 0.074870 0.075521 0.076172 0.076823 0.077474 0.078125 0.078776 0.079427 0.080078 0.080729 0.081380 0.082031 0.082682 0.083333 0.083984 0.084635 0.085286 0.085938 0.086589 0.087240 0.087891 0.088542 0.089193 0.089844 0.090495 0.091146 0.091797 0.092448 0.093099 0.093750 0.094401 0.095052 0.095703 0.096354 0.097005 0.097656 0.098307 0.098958 0.099609 0.100260 0.100911 0.101562 0.102214 0.102865 0.103516 0.104167 0.104818 0.105469 0.106120 0.106771 0.107422 0.108073 0.108724 0.109375 0.110026 0.110677 0.111328 0.111979 0.112630 0.113281 0.113932 0.114583 0.115234 0.115885 0.116536 0.117188 0.117839 0.118490 0.119141 0.119792 0.120443 0.121094 0.121745 0.122396 0.123047 0.123698 0.124349 0.125000 0.125651 0.126302 0.126953 0.127604 0.128255 0.128906 0.129557 0.130208 0.130859 0.131510 0.132161 0.132812 0.133464 0.134115 0.134766 0.135417 0.136068 0.136719 0.137370 0.138021 0.138672 0.139323 0.139974 0.140625 0.141276 0.141927 0.142578 0.143229 0.143880 0.144531 0.145182 0.145833 0.146484 0.147135 0.147786 0.148438 0.149089 0.149740 0.150391 0.151042 0.151693 0.152344 0.152995 0.153646 0.154297 0.154948 0.155599 0.156250 0.156901 0.157552 0.158203 0.158854 0.159505 0.160156 0.160807 0.161458 0.162109 0.162760 0.163411 0.164062 0.164714 0.165365 0.166016 0.166667 0.167318 0.167969 0.168620 0.169271 0.169922 0.170573 0.171224 0.171875 0.172526 0.173177 0.173828 0.174479 0.175130 0.175781 0.176432 0.177083 0.177734 0.178385 0.179036 0.179688 0.180339 0.180990 0.181641 0.182292 0.182943 0.183594 0.184245 0.184896 0.185547 0.186198 0.186849 0.187500 0.188151 0.188802 0.189453 0.190104 0.190755 0.191406 0.192057 0.192708 0.193359 0.194010 0.194661 0.195312 0.195964 0.196615 0.197266 0.197917 0.198568 0.199219 0.199870 0.200521 0.201172 0.201823 0.202474 0.203125 0.203776 0.204427 0.205078 0.205729 0.206380 0.207031 0.207682 0.208333 0.208984 0.209635 0.210286 0.210938 0.211589 0.212240 0.212891 0.213542 0.214193 0.214844 0.215495 0.216146 0.216797 0.217448 0.218099 0.218750 0.219401 0.220052 0.220703 0.221354 0.222005 0.222656 0.223307 0.223958 0.224609 0.225260 0.225911 0.226562 0.227214 0.227865 0.228516 0.229167 0.229818 0.230469 0.231120 0.231771 0.232422 0.233073 0.233724 0.234375 0.235026 0.235677
       0.31892        0.31892        0.31892        0.31892        0.31892        0.31892        0.31892        0.31892        0.31892        0.31892        0.31892        0.31892        0.31892        0.31892        0.31892        0.31892        0.31892        0.31892        0.31892        0.31892        0.31892        0.31892        0.31892        0.31892        0.31892        0.31892        0.31892        0.31892        0.31892        0.31892        0.31892        0.31892        0.31892        0.31892        0.31892        0.31892        0.31892        0.31892        0.31892        0.31892        0.31892        0.31892        0.31892        0.31892        0.31892        0.31892        0.31892        0.31892        0.31892        0.31892        0.31892        0.68223        0.86192        0.52387        0.09070       -0.05600       -0.42355       -0.20106       -0.30001       -0.11719       -0.07283       -0.11809       -0.06751       -0.20394       -0.23105       -0.25012       -0.33082       -0.33838       -0.47983       -0.38029       -0.45817       -0.44895       -0.42040       -0.45777       -0.51988       -0.55130       -0.58202       -0.60969       -0.57058       -0.40432       -0.37480       -0.32950       -0.31074       -0.20588       -0.19854        0.02437        0.08849        0.12187        0.23160        0.36875        0.44228        0.51027        0.56089        0.55764        0.56637        0.69042        0.80625        0.72845        0.73249        0.65171        0.56944        0.48242        0.40731        0.49646        0.38087        0.21500        0.07983        0.05470        0.02694       -0.05639       -0.02335       -0.00223       -0.05521       -0.00698       -0.01797        0.22092        0.25434        0.28480        0.41949        0.44828        0.40304        0.54731        0.62286        0.67982        0.74887        0.68609        0.65162        0.68395        0.57078        0.48421        0.41439        0.28825        0.20746        0.15715        0.11151        0.04205        0.01627        0.01234        0.07543        0.13001        0.21110        0.26985        0.39452        0.42729        0.49379        0.59634        0.62586        0.62548        0.62294        0.55188        0.44489        0.45609        0.35494        0.23131        0.18382        0.14557        0.12578        0.13369        0.09414        0.12371        0.24754        0.26917        0.35035        0.37527        0.44017        0.50888        0.53893        0.54392        0.47006        0.43523        0.38592        0.35130        0.30488        0.25898        0.21445        0.20166        0.17929        0.20555        0.18766        0.27930        0.33826        0.37250        0.42799        0.45548        0.47678        0.42441        0.38443        0.40833        0.36589        0.27700        0.26058        0.22316        0.22577        0.19664        0.22931        0.23623        0.32727        0.37002        0.37694        0.46588        0.42732        0.43311        0.42832        0.39584        0.34100        0.31773        0.28020        0.26448        0.24513        0.27518        0.27800        0.30378        0.30690        0.32927        0.32038        0.40328        0.41626        0.37604        0.34463        0.36432        0.28398        0.28144        0.26430        0.28778        0.26647        0.28223        0.29585        0.31345        0.34286        0.36297        0.36835        0.35219        0.35446        0.29581        0.32438        0.27226        0.24553        0.29932        0.29393        0.31215        0.30844        0.32000        0.33404        0.31669        0.31892        0.29130        0.29731        0.27184        0.28787        0.26335        0.29339        0.28762        0.27824        0.30690        0.31357        0.31947        0.27240        0.30363        0.27512        0.27097        0.25795        0.21819        0.27749        0.28036        0.33271        0.30671        0.31394        0.31601        0.31579        0.27894        0.30407        0.32673        0.26729        0.26082        0.30138        0.28508        0.33771        0.32954        0.33762        0.32810        0.29455        0.27767        0.28149        0.24485        0.22401        0.28428        0.30759        0.29942        0.28441        0.30027        0.27886        0.33407        0.33189        0.25534        0.22713        0.28287        0.31555        0.28112        0.31126        0.33366        0.32531        0.30148        0.30658        0.33489        0.29945        0.27704        0.25330        0.29774        0.35027        0.36760        0.27846        0.26504        0.26104        0.29366        0.22781        0.28623        0.24977        0.25090        0.32840        0.32692        0.34461        0.30248        0.24670        0.24937        0.24826        0.24150        0.21556        0.23368        0.29875        0.29312        0.22836        0.32038        0.32060        0.25479        0.25847        0.19597        0.17239        0.23006        0.20521        0.20778        0.22291        0.22615        0.18817        0.25418        0.35100        0.31839        0.33773        0.23612        0.20913        0.18783        0.25746        0.27163        0.15062        0.21954        0.24782        0.12939        0.17521        0.13124        0.11406        0.20951        0.14446       -0.09370       -0.59835
2.594308 2.567327 2.540492 2.513803 2.487259 2.460862 2.434610 2.408503 2.382543 2.356729 2.331060 2.305537 2.280159 2.254928 2.229842 2.204903 2.180109 2.155460 2.130958 2.106601 2.082390 2.058325 2.034406 2.010632 1.987004 1.963522 1.940186 1.916996 1.893951 1.871052 1.848299 1.825692 1.803231 1.780915 1.758745 1.736721 1.714843 1.693110 1.671523 1.650083 1.628787 1.607638 1.586634 1.565777 1.545065 1.524498 1.504078 1.483803 1.463674 1.443691 1.423854 1.643495 2.056210 1.626732 1.134774 0.997382 0.412773 0.817010 0.547462 0.833124 0.774593 0.792781 0.746422 0.710511 0.564115 0.522080 0.479636 0.431602 0.213459 0.372889 0.199470 0.307409 0.226330 0.184160 0.143801 0.013402 0.032117 -0.005749 -0.062783 0.110490 0.208336 0.186288 0.154195 0.335748 0.191545 0.498751 0.592450 0.574822 0.608656 0.876196 0.819636 0.941684 0.896080 0.988226 0.954442 1.081381 1.144646 1.066367 1.144853 0.941681 0.937644 0.794770 0.654021 0.784649 0.714271 0.471851 0.317798 0.250667 0.235659 0.150542 0.104449 0.142921 0.092224 0.146442 0.059944 0.267696 0.383877 0.361396 0.478741 0.570619 0.455591 0.569793 0.712522 0.737632 0.775989 0.729491 0.739979 0.702630 0.624323 0.558613 0.422396 0.286589 0.225824 0.089017 0.133864 -0.043943 -0.032019 -0.061546 -0.041159 -0.005067 0.159644 0.080547 0.287252 0.297515 0.357448 0.453170 0.528582 0.504364 0.535095 0.511889 0.339528 0.322327 0.294594 0.104677 0.059627 -0.017006 -0.012016 -0.028397 -0.068814 -0.083248 0.024202 0.068416 0.137723 0.174548 0.240415 0.320807 0.327691 0.419058 0.403368 0.292971 0.245124 0.239863 0.192938 0.123003 0.106079 0.026336 0.017938 0.035487 0.000889 0.073953 0.161863 0.149180 0.254979 0.260155 0.319963 0.221147 0.222417 0.165943 0.221364 0.125854 0.045493 0.021607 -0.000299 -0.003612 -0.035086 0.032695 0.022911 0.156019 0.148519 0.180047 0.249116 0.212965 0.181456 0.185929 0.139946 0.079305 0.042195 0.055261 -0.019070 -0.002596 0.016287 0.050843 0.052025 0.059652 0.073610 0.109712 0.134785 0.182378 0.080033 0.085357 0.069108 0.005221 -0.002759 0.010616 0.004857 0.009506 0.007640 0.028468 0.063271 0.081984 0.120314 0.059169 0.114395 0.060464 0.019493 0.057811 -0.034425 -0.009115 0.043882 0.006674 0.056662 0.049802 0.038038 0.087310 0.057309 0.039794 0.040585 0.009346 0.028975 0.014757 -0.003043 0.058977 -0.003944 0.026583 0.062916 0.058051 0.036326 0.045771 0.040464 0.027678 0.008464 -0.018039 -0.021369 0.028260 0.049381 0.089597 0.058809 0.070948 0.082984 0.078608 0.034497 0.086512 0.093840 0.011247 0.028364 0.072072 0.058564 0.097865 0.110988 0.074315 0.127649 0.070591 0.030801 0.063925 -0.016749 0.012979 0.069634 0.080807 0.060874 0.048325 0.047588 0.013070 0.116738 0.063408 -0.028309 -0.044342 0.035365 0.083717 0.015115 0.026903 0.086621 0.086392 0.026355 0.054707 0.077775 0.038217 0.025343 -0.035610 0.048193 0.112474 0.087111 -0.009834 -0.023132 -0.027453 0.050341 -0.090447 0.040703 -0.050509 -0.020243 0.057882 0.055536 0.040159 -0.011507 -0.057451 -0.039047 -0.075020 -0.034333 -0.086328 -0.073570 0.025024 0.063619 -0.069856 0.069191 0.019706 -0.052395 0.035503 -0.104646 -0.095534 -0.037135 -0.043574 -0.031449 -0.024198 0.000606 -0.055160 0.024617 0.206241 -0.008276 0.173170 0.026419 0.219952 0.194000 0.296855 0.274223 0.134701 0.222833 0.293669 0.100189 0.187392 0.132483 0.100752 0.296797 0.150385 -0.629480
0.072396 0.072898 0.074405 0.076916 0.080430 0.084947 0.090465 0.096983 0.104498 0.113008 0.122510 0.132998 0.144469 0.156915 0.170328 0.184700 0.200020 0.216274 0.233448 0.251524 0.270483 0.290301 0.310953 0.332410 0.354637 0.377599 0.401253 0.425555 0.450453 0.475891 0.501809 0.528139 0.554809 0.581740 0.608847 0.636039 0.663217 0.690277 0.717105 0.743585 0.769591 0.794990 0.819643 0.843407 0.866129 0.887654 0.907818 0.926456 0.943396 0.958466 0.971488 0.982285 0.990680 0.996494 0.999554 0.999687 0.996728 0.990518 0.980905 0.967751 0.950927 0.930319 0.905833 0.877389 0.844932 0.808427 0.767867 0.723271 0.674689 0.622202 0.565924 0.506005 0.442634 0.376035 0.306474 0.234255 0.159723 0.083265 0.005305 0.073691 0.153223 0.232752 0.311709 0.389495 0.465484 0.539033 0.609478 0.676149 0.738370 0.795472 0.846793 0.891695 0.929566 0.959830 0.981961 0.995486 0.999999 0.995170 0.980751 0.956589 0.922631 0.878936 0.825676 0.763143 0.691758 0.612066 0.524743 0.430593 0.330542 0.225640 0.117045 0.006021 0.106079 0.217826 0.327731 0.434265 0.535881 0.631035 0.718213 0.795953 0.862879 0.917720 0.959346 0.986787 0.999264 0.996215 0.977309 0.942473 0.891903 0.826079 0.745767 0.652023 0.546187 0.429876 0.304960 0.173549 0.037950 0.099356 0.235766 0.368598 0.495145 0.612729 0.718765 0.810817 0.886663 0.944350 0.982261 0.999156 0.994231 0.967147 0.918071 0.847685 0.757203 0.648358 0.523389 0.385007 0.236342 0.080889 0.077575 0.235070 0.387516 0.530836 0.661071 0.774492 0.867714 0.937809 0.982409 0.999797 0.988986 0.949781 0.882813 0.789562 0.672339 0.534254 0.379153 0.211519 0.036362 0.140927 0.314728 0.479383 0.629368 0.759494 0.865093 0.942203 0.987727 0.999580 0.976801 0.919630 0.829544 0.709254 0.562642 0.394673 0.211234 0.018956 0.175026 0.363319 0.538564 0.693719 0.822366 0.918978 0.979186 0.999997 0.979967 0.919317 0.819983 0.685590 0.521356 0.333919 0.131090 0.078446 0.285503 0.480777 0.655284 0.800773 0.910137 0.977792 0.999983 0.975026 0.903462 0.788096 0.633939 0.448023 0.239124 0.017365 0.206247 0.420366 0.613879 0.776500 0.899325 0.975363 0.999962 0.971132 0.889736 0.759535 0.587061 0.381336 0.153442 0.084047 0.317746 0.534200 0.720678 0.865930 0.960901 0.999341 0.978253 0.898180 0.763265 0.581101 0.362367 0.120231 0.130395 0.373766 0.594279 0.777499 0.911123 0.985842 0.996054 0.940328 0.821619 0.647187 0.428226 0.179185 0.083120 0.340644 0.575319 0.770350 0.911450 0.987920 0.993528 0.927077 0.792626 0.599331 0.360885 0.094619 0.179720 0.441413 0.670327 0.848493 0.961558 0.999997 0.959990 0.843869 0.660087 0.422683 0.150298 0.135255 0.410698 0.653178 0.842192 0.961361 0.999919 0.953765 0.825977 0.626716 0.372523 0.085012 0.210912 0.489167 0.724818 0.896325 0.987585 0.989518 0.901062 0.729467 0.489803 0.203744 0.102333 0.399722 0.660074 0.858138 0.974246 0.996365 0.921443 0.755905 0.515238 0.222646 0.093101 0.400450 0.668200 0.868700 0.980769 0.992026 0.900371 0.714429 0.452875 0.142671 0.183628 0.491245 0.746886 0.922392 0.997907 0.964259 0.824181 0.592264 0.293584 0.038915 0.367979 0.656182 0.870231 0.984866 0.985964 0.872411 0.656495 0.362740 0.025238 0.316207 0.620758 0.851425 0.979646 0.988936 0.877150 0.657034 0.354945 0.007829 0.341214 0.648226 0.873966 0.989003 0.977690 0.840441 0.593993 0.269554 0.091041
1.000000 1.000000 1.000000 1.000000 1.000000 1.000000 1.000000 1.000000 1.000000 1.000000 1.000000 1.000000 1.000000 1.000000 1.000000 1.000000 1.000000 1.000000 1.000000 1.000000 1.000000 1.000000 1.000000 1.000000 1.000000 1.000000 1.000000 1.000000 1.000000 1.000000 1.000000 1.000000 1.000000 1.000000 1.000000 1.000000 1.000000 1.000000 1.000000 1.000000 1.000000 1.000000 1.000000 1.000000 1.000000 1.000000 1.000000 1.000000 1.000000 1.000000 1.000000 1.000000 0.928070 0.928070 0.928070 0.914964 0.914964 0.914964 0.914964 0.914964 0.914964 0.914964 0.914964 0.914964 0.914964 0.914964 0.914964 0.914964 0.914964 0.914964 0.914964 0.914964 0.914964 0.914964 0.914964 0.914964 0.914964 0.914964 0.914964 0.914964 0.914964 0.914964 0.914964 0.914964 0.914964 0.914964 0.914964 0.914964 0.914964 0.914964 0.914964 0.914964 0.914964 0.914964 0.914964 0.914964 0.942616 0.944089 0.952151 0.951975 0.951399 0.949137 0.948133 0.947648 0.947517 0.947817 0.948496 0.949433 0.958334 0.959512 0.962357 0.963284 0.964116 0.964891 0.965693 0.966606 0.965379 0.962637 0.961823 0.961597 0.964399 0.964057 0.964342 0.965460 0.965364 0.966244 0.966587 0.966374 0.965753 0.965166 0.964498 0.964076 0.963906 0.964550 0.964850 0.966184 0.969405 0.969880 0.969947 0.970103 0.970197 0.970362 0.970770 0.972448 0.968566 0.969277 0.969334 0.967206 0.974144 0.971115 0.971715 0.972205 0.973546 0.973737 0.967886 0.963477 0.953758 0.952814 0.947575 0.938452 0.935227 0.936544 0.938554 0.939482 0.939390 0.933674 0.934031 0.929975 0.928486 0.931898 0.929180 0.927401 0.928691 0.929720 0.929256 0.928792 0.926887 0.921613 0.917584 0.916968 0.920148 0.922887 0.924614 0.925140 0.920201 0.894104 0.892206 0.898749 0.886688 0.876887 0.872259 0.868038 0.873268 0.876913 0.881213 0.879455 0.866618 0.848757 0.834308 0.832854 0.833983 0.830677 0.830925 0.833059 0.824529 0.837163 0.834908 0.841190 0.838404 0.845804 0.845725 0.833185 0.830155 0.826810 0.822506 0.815639 0.822178 0.818482 0.818449 0.816118 0.811674 0.805383 0.809706 0.781171 0.766863 0.761387 0.765243 0.769450 0.764967 0.762285 0.769453 0.772745 0.777272 0.764598 0.755449 0.742568 0.746962 0.753102 0.760144 0.754297 0.738235 0.716394 0.667093 0.683096 0.721366 0.664070 0.685396 0.691172 0.678356 0.678936 0.670416 0.665553 0.651081 0.654466 0.664116 0.678648 0.690467 0.710296 0.698803 0.687712 0.689425 0.670869 0.664517 0.646358 0.654993 0.635314 0.629469 0.656788 0.655736 0.647451 0.643154 0.626597 0.616451 0.630272 0.638385 0.630375 0.628055 0.606567 0.576951 0.580175 0.592517 0.609881 0.630717 0.615757 0.595218 0.594146 0.579139 0.596214 0.552162 0.553370 0.573174 0.580852 0.561229 0.525099 0.526591 0.548008 0.550445 0.545726 0.517992 0.515199 0.523170 0.561201 0.550933 0.513362 0.526480 0.522617 0.524357 0.467623 0.477798 0.448666 0.433344 0.370798 0.354188 0.356315 0.343382 0.337032 0.305039 0.303348 0.309409 0.321807 0.324695 0.317344 0.305046 0.315524 0.307725 0.294119 0.234950 0.215957 0.202547 0.189523 0.192657 0.163519 0.184372 0.247906 0.250047 0.250047 0.250047 0.250047 0.250047 0.250047 0.258626 0.258626 0.258626 0.258626 0.258626 0.258626 0.258626 0.258626 0.258626 0.270270 0.270270 0.270270 0.270270 0.270270 0.270270 0.270270 0.270270 0.270270 0.270270 0.270270 0.270270 0.270270 0.270270
0.000000 0.000000 0.000000 0.000000 0.000000 0.000000 0.000000 0.000000 0.000000 0.000000 0.000000 0.000000 0.000000 0.000000 0.000000 0.000000 0.000000 0.000000 0.000000 0.000000 0.000000 0.000000 0.000000 0.000000 0.000000 7.000000 4.000000 0.000000 0.000000 0.000000 0.000000 0.000000 0.000000 0.000000 0.000000 0.000000 0.000000 0.000000 0.000000 0.000000 0.000000 0.000000 0.000000 0.000000 0.000000 0.000000 0.000000 0.000000 0.000000 0.000000 0.000000 0.000000 0.180334 0.180334 0.180334 0.199007 0.199007 0.199007 0.199007 0.199007 0.199007 0.199007 0.199007 0.199007 0.199007 0.199007 0.199007 0.199007 0.199007 0.199007 0.199007 0.199007 0.199007 0.199007 0.199007 0.199007 0.199007 0.199007 0.199007 0.199007 0.199007 0.199007 0.199007 0.199007 0.199007 0.199007 0.199007 0.199007 0.199007 0.199007 0.199007 0.199007 0.199007 0.199007 0.199007 0.199007 0.225018 0.225018 0.225018 0.225018 0.225018 0.225018 0.225018 0.225018 0.225018 0.225018 0.225018 0.225018 0.225018 0.225018 0.225018 0.225018 0.225018 0.225018 0.225018 0.225018 0.225018 0.225018 0.225018 0.225018 0.225018 0.225018 0.225018 0.225018 0.225018 0.244339 0.244339 0.244339 0.244339 0.244339 0.244339 0.244339 0.244339 0.244339 0.244339 0.244339 0.244339 0.244339 0.244339 0.244339 0.244339 0.244339 0.244339 0.244339 0.244339 0.244339 0.244339 0.244339 0.251976 0.251976 0.251976 0.251976 0.251976 0.251976 0.251976 0.251976 0.251976 0.251976 0.251976 0.251976 0.251976 0.251976 0.251976 0.251976 0.251976 0.251976 0.251976 0.251976 0.264906 0.264906 0.264906 0.264906 0.264906 0.264906 0.264906 0.264906 0.264906 0.264906 0.264906 0.264906 0.264906 0.264906 0.264906 0.264906 0.264906 0.256074 0.256074 0.256074 0.256074 0.256074 0.256074 0.256074 0.256074 0.256074 0.256074 0.256074 0.256074 0.256074 0.256074 0.256074 0.256074 0.256074 0.269680 0.269680 0.269680 0.269680 0.269680 0.269680 0.269680 0.269680 0.269680 0.269680 0.269680 0.269680 0.269680 0.269680 0.264906 0.264906 0.264906 0.264906 0.264906 0.264906 0.264906 0.264906 0.264906 0.264906 0.264906 0.264906 0.264906 0.264906 0.256074 0.256074 0.256074 0.256074 0.256074 0.256074 0.256074 0.256074 0.256074 0.256074 0.256074 0.256074 0.256074 0.256074 0.269680 0.269680 0.269680 0.269680 0.269680 0.269680 0.269680 0.269680 0.269680 0.269680 0.269680 0.269680 0.264906 0.264906 0.264906 0.264906 0.264906 0.264906 0.264906 0.264906 0.264906 0.264906 0.264906 0.264906 0.269680 0.269680 0.269680 0.269680 0.269680 0.269680 0.269680 0.269680 0.269680 0.269680 0.269680 0.264906 0.264906 0.264906 0.264906 0.264906 0.264906 0.264906 0.264906 0.264906 0.264906 0.264906 0.256074 0.256074 0.256074 0.256074 0.256074 0.256074 0.256074 0.256074 0.256074 0.256074 0.256074 0.264906 0.264906 0.264906 0.264906 0.264906 0.264906 0.264906 0.264906 0.264906 0.264906 0.260378 0.260378 0.260378 0.260378 0.260378 0.260378 0.260378 0.260378 0.260378 0.260378 0.256074 0.256074 0.256074 0.256074 0.256074 0.256074 0.256074 0.256074 0.256074 0.256074 0.260378 0.260378 0.260378 0.260378 0.260378 0.260378 0.260378 0.260378 0.260378 0.256074 0.256074 0.256074 0.256074 0.256074 0.256074 0.256074 0.256074 0.256074 0.251976 0.251976 0.251976 0.251976 0.251976 0.251976 0.251976 0.251976 0.251976 0.251976 0.251976 0.251976 0.251976 0.251976
