# Output from CTFFind version 4.1.9, run on 2019-11-02 17:44:45
# Input file: stack1_bm3d_averaged_1_1.0_0_750_half.mrc ; Number of micrographs: 1
# Pixel size: 3.000 Angstroms ; acceleration voltage: 300.0 keV ; spherical aberration: 0.00 mm ; amplitude contrast: 0.07
# Box size: 512 pixels ; min. res.: 30.0 Angstroms ; max. res.: 5.0 Angstroms ; min. def.: 5000.0 um; max. def. 50000.0 um; num. frames averaged: 1
# 6 lines per micrograph: #1 - spatial frequency (1/Angstroms); #2 - 1D rotational average of spectrum (assuming no astigmatism); #3 - 1D rotational average of spectrum; #4 - CTF fit; #5 - cross-correlation between spectrum and CTF fit; #6 - 2sigma of expected cross correlation of noise
0.000000 0.000651 0.001302 0.001953 0.002604 0.003255 0.003906 0.004557 0.005208 0.005859 0.006510 0.007161 0.007812 0.008464 0.009115 0.009766 0.010417 0.011068 0.011719 0.012370 0.013021 0.013672 0.014323 0.014974 0.015625 0.016276 0.016927 0.017578 0.018229 0.018880 0.019531 0.020182 0.020833 0.021484 0.022135 0.022786 0.023438 0.024089 0.024740 0.025391 0.026042 0.026693 0.027344 0.027995 0.028646 0.029297 0.029948 0.030599 0.031250 0.031901 0.032552 0.033203 0.033854 0.034505 0.035156 0.035807 0.036458 0.037109 0.037760 0.038411 0.039062 0.039714 0.040365 0.041016 0.041667 0.042318 0.042969 0.043620 0.044271 0.044922 0.045573 0.046224 0.046875 0.047526 0.048177 0.048828 0.049479 0.050130 0.050781 0.051432 0.052083 0.052734 0.053385 0.054036 0.054688 0.055339 0.055990 0.056641 0.057292 0.057943 0.058594 0.059245 0.059896 0.060547 0.061198 0.061849 0.062500 0.063151 0.063802 0.064453 0.065104 0.065755 0.066406 0.067057 0.067708 0.068359 0.069010 0.069661 0.070312 0.070964 0.071615 0.072266 0.072917 0.073568 0.074219 0.074870 0.075521 0.076172 0.076823 0.077474 0.078125 0.078776 0.079427 0.080078 0.080729 0.081380 0.082031 0.082682 0.083333 0.083984 0.084635 0.085286 0.085938 0.086589 0.087240 0.087891 0.088542 0.089193 0.089844 0.090495 0.091146 0.091797 0.092448 0.093099 0.093750 0.094401 0.095052 0.095703 0.096354 0.097005 0.097656 0.098307 0.098958 0.099609 0.100260 0.100911 0.101562 0.102214 0.102865 0.103516 0.104167 0.104818 0.105469 0.106120 0.106771 0.107422 0.108073 0.108724 0.109375 0.110026 0.110677 0.111328 0.111979 0.112630 0.113281 0.113932 0.114583 0.115234 0.115885 0.116536 0.117188 0.117839 0.118490 0.119141 0.119792 0.120443 0.121094 0.121745 0.122396 0.123047 0.123698 0.124349 0.125000 0.125651 0.126302 0.126953 0.127604 0.128255 0.128906 0.129557 0.130208 0.130859 0.131510 0.132161 0.132812 0.133464 0.134115 0.134766 0.135417 0.136068 0.136719 0.137370 0.138021 0.138672 0.139323 0.139974 0.140625 0.141276 0.141927 0.142578 0.143229 0.143880 0.144531 0.145182 0.145833 0.146484 0.147135 0.147786 0.148438 0.149089 0.149740 0.150391 0.151042 0.151693 0.152344 0.152995 0.153646 0.154297 0.154948 0.155599 0.156250 0.156901 0.157552 0.158203 0.158854 0.159505 0.160156 0.160807 0.161458 0.162109 0.162760 0.163411 0.164062 0.164714 0.165365 0.166016 0.166667 0.167318 0.167969 0.168620 0.169271 0.169922 0.170573 0.171224 0.171875 0.172526 0.173177 0.173828 0.174479 0.175130 0.175781 0.176432 0.177083 0.177734 0.178385 0.179036 0.179688 0.180339 0.180990 0.181641 0.182292 0.182943 0.183594 0.184245 0.184896 0.185547 0.186198 0.186849 0.187500 0.188151 0.188802 0.189453 0.190104 0.190755 0.191406 0.192057 0.192708 0.193359 0.194010 0.194661 0.195312 0.195964 0.196615 0.197266 0.197917 0.198568 0.199219 0.199870 0.200521 0.201172 0.201823 0.202474 0.203125 0.203776 0.204427 0.205078 0.205729 0.206380 0.207031 0.207682 0.208333 0.208984 0.209635 0.210286 0.210938 0.211589 0.212240 0.212891 0.213542 0.214193 0.214844 0.215495 0.216146 0.216797 0.217448 0.218099 0.218750 0.219401 0.220052 0.220703 0.221354 0.222005 0.222656 0.223307 0.223958 0.224609 0.225260 0.225911 0.226562 0.227214 0.227865 0.228516 0.229167 0.229818 0.230469 0.231120 0.231771 0.232422 0.233073 0.233724 0.234375 0.235026 0.235677
       0.33136        0.33136        0.33136        0.33136        0.33136        0.33136        0.33136        0.33136        0.33136        0.33136        0.33136        0.33136        0.33136        0.33136        0.33136        0.33136        0.33136        0.33136        0.33136        0.33136        0.33136        0.33136        0.33136        0.33136        0.33136        0.33136        0.33136        0.33136        0.33136        0.33136        0.33136        0.33136        0.33136        0.33136        0.33136        0.33136        0.33136        0.33136        0.33136        0.33136        0.33136        0.33136        0.33136        0.33136        0.33136        0.33136        0.33136        0.33136        0.33136        0.33136        0.33136        0.50133        0.71795        0.42691        0.18939       -0.08251       -0.26205       -0.06915       -0.13373       -0.05467       -0.00359       -0.14927       -0.09444       -0.05358       -0.00436       -0.15391       -0.22348       -0.34732       -0.46340       -0.56033       -0.51926       -0.44898       -0.37253       -0.54920       -0.45249       -0.62315       -0.50608       -0.47512       -0.39173       -0.38637       -0.34006       -0.25194       -0.16342       -0.13904        0.03069       -0.01398        0.11757        0.16655        0.30472        0.40995        0.46150        0.49746        0.54011        0.54918        0.68950        0.64326        0.67559        0.58982        0.55530        0.65202        0.52603        0.42641        0.38225        0.31839        0.22744        0.26046        0.24954        0.10408        0.08164        0.00011       -0.00666        0.03530       -0.00745        0.07152        0.09694        0.22947        0.28339        0.29955        0.38070        0.56175        0.53488        0.57705        0.66776        0.69957        0.62807        0.63438        0.63209        0.55326        0.57285        0.39699        0.34476        0.26404        0.18323        0.07161        0.14272        0.11700        0.09180        0.10571        0.20780        0.20994        0.31514        0.35731        0.41053        0.48984        0.57917        0.54200        0.55542        0.60570        0.53560        0.45990        0.48018        0.32361        0.24731        0.25655        0.24113        0.13900        0.14161        0.15114        0.21949        0.24459        0.32978        0.36559        0.39181        0.46580        0.44497        0.47729        0.44895        0.46788        0.44485        0.40436        0.38131        0.35401        0.31152        0.28726        0.20401        0.19586        0.22043        0.26887        0.26436        0.34743        0.37326        0.35575        0.41064        0.45200        0.44356        0.42365        0.43983        0.37102        0.33228        0.27941        0.26039        0.28891        0.26576        0.29248        0.29899        0.34394        0.33863        0.39465        0.39893        0.42456        0.40830        0.43204        0.40303        0.36260        0.28045        0.28978        0.30400        0.27188        0.25290        0.32592        0.36906        0.33974        0.35227        0.35954        0.35289        0.40754        0.40123        0.36080        0.33787        0.30716        0.31078        0.31620        0.31457        0.29940        0.28383        0.33583        0.35894        0.37565        0.33251        0.33013        0.33463        0.34460        0.30654        0.28157        0.30470        0.31405        0.33494        0.31727        0.32901        0.35515        0.32824        0.31290        0.32672        0.29981        0.26099        0.24990        0.26445        0.30511        0.32077        0.35240        0.30029        0.31005        0.33009        0.29165        0.31454        0.28753        0.27959        0.29056        0.29554        0.30744        0.34317        0.32713        0.32812        0.33475        0.31449        0.33314        0.31877        0.32022        0.31067        0.27783        0.28867        0.30556        0.28899        0.32418        0.33136        0.33518        0.32246        0.34292        0.31898        0.27783        0.24828        0.26891        0.32862        0.35548        0.34214        0.31479        0.29160        0.29705        0.31143        0.24989        0.29667        0.30430        0.33038        0.29635        0.30714        0.28029        0.33343        0.33883        0.34037        0.31853        0.29312        0.31188        0.39559        0.32818        0.31177        0.30624        0.29029        0.28274        0.29820        0.27402        0.31746        0.23297        0.27039        0.29686        0.31191        0.29307        0.26774        0.29464        0.23916        0.22294        0.26445        0.30324        0.30524        0.28002        0.28206        0.33019        0.25695        0.21968        0.30383        0.26419        0.25741        0.27936        0.38522        0.28585        0.28538        0.24752        0.24705        0.26807        0.24802        0.23298        0.17627        0.25293        0.22994        0.24784        0.31614        0.26671        0.35168        0.29621        0.24342        0.22549        0.21513        0.24285        0.30551        0.22273        0.12939        0.17142        0.23692        0.24187        0.31007        0.26579        0.03217       -0.44259       -0.94479
2.681089 2.652803 2.624669 2.596686 2.568855 2.541176 2.513648 2.486271 2.459047 2.431974 2.405052 2.378282 2.351664 2.325197 2.298882 2.272719 2.246707 2.220847 2.195138 2.169581 2.144176 2.118922 2.093820 2.068870 2.044071 2.019424 1.994928 1.970584 1.946392 1.922351 1.898462 1.874724 1.851138 1.827704 1.804421 1.781290 1.758310 1.735482 1.712806 1.690282 1.667908 1.645687 1.623617 1.601699 1.579932 1.558317 1.536854 1.515542 1.494382 1.473374 1.452517 1.522858 1.824890 1.508557 1.190531 0.935053 0.542223 0.908777 0.631587 0.870222 0.922712 0.586852 0.705826 0.774858 0.816803 0.625150 0.532187 0.346100 0.101260 0.076529 0.041695 0.080228 0.300230 -0.037703 0.077682 -0.136461 -0.017283 -0.018310 0.080583 0.058432 0.101949 0.174407 0.279502 0.247539 0.480350 0.395234 0.546636 0.525593 0.766870 0.788462 0.876525 0.922255 0.937653 0.944206 1.102781 0.947221 1.138278 0.944750 0.851025 1.013834 0.845860 0.757187 0.617611 0.592006 0.456942 0.414279 0.507223 0.264600 0.196668 0.158349 0.014032 0.207805 -0.005654 0.117869 0.178370 0.257497 0.334274 0.345723 0.425613 0.542208 0.662823 0.539718 0.743808 0.855850 0.637448 0.696401 0.667645 0.594124 0.536478 0.465032 0.300009 0.214190 0.117666 -0.041135 -0.019223 0.056706 -0.095351 -0.057333 0.051440 0.053330 0.109583 0.221950 0.237414 0.309145 0.430373 0.434656 0.449214 0.480384 0.446417 0.325028 0.335182 0.243317 0.048762 0.061652 0.020020 -0.049375 -0.099219 -0.098634 -0.013464 -0.052069 0.073661 0.124989 0.124638 0.261281 0.225273 0.247922 0.291149 0.244355 0.244863 0.211791 0.172668 0.113856 0.107040 0.028119 0.012784 -0.118092 -0.051375 0.007658 0.000288 0.018821 0.099336 0.084134 0.137282 0.184021 0.255061 0.171576 0.188360 0.109738 0.138881 0.018050 -0.034075 0.018734 -0.019839 -0.001185 -0.005711 0.033741 0.075331 0.053742 0.148692 0.100054 0.164082 0.064343 0.148329 0.092543 -0.010683 -0.060505 -0.018487 -0.036335 -0.072393 -0.069723 0.050624 0.061621 -0.009365 0.049612 0.062967 0.071594 0.144176 0.068732 0.063821 0.046474 -0.025203 0.028119 0.000329 0.010847 0.003523 -0.007706 0.035305 0.069444 0.066872 0.029743 0.045417 0.019956 0.057915 -0.011215 -0.019451 0.020185 0.009426 0.058253 0.032630 0.040386 0.059607 0.039129 0.015202 0.032660 -0.005238 -0.049430 -0.033288 -0.029112 0.023328 0.041272 0.098235 -0.004253 0.055479 0.055187 -0.004881 0.064506 0.017748 0.011599 0.041343 0.054450 0.042930 0.097917 0.060621 0.073863 0.088995 0.073394 0.066445 0.073113 0.089417 0.037558 -0.008026 0.048526 0.037682 0.050002 0.070567 0.094341 -0.000653 0.069644 0.079593 0.010232 0.010963 -0.068172 -0.020566 0.109410 0.077891 0.048799 0.040097 -0.020134 0.050693 0.025246 -0.058205 0.048500 0.040787 0.069974 0.035866 0.002092 0.004406 0.044004 0.051394 0.018877 0.038545 -0.032682 0.063523 0.117449 0.010376 -0.005564 -0.001826 -0.010507 -0.029926 -0.021327 -0.042861 0.003475 -0.100771 -0.024103 -0.028178 0.018519 -0.040392 -0.060556 0.032026 -0.072685 -0.055287 -0.074700 0.053325 0.010311 0.006912 -0.006520 0.080318 -0.046800 -0.043929 0.038484 -0.015850 0.017027 0.003834 0.188617 -0.030969 0.019308 0.017427 -0.022665 0.002324 -0.018163 -0.019987 -0.144774 0.019146 -0.039904 0.012072 0.019231 -0.004694 0.140689 0.025395 -0.013934 -0.046182 -0.027879 -0.049053 0.061707 0.267547 0.155738 0.218192 0.231501 0.326329 0.340389 0.310398 0.040044 -1.106637
0.072396 0.072910 0.074451 0.077019 0.080614 0.085234 0.090878 0.097545 0.105232 0.113936 0.123654 0.134381 0.146112 0.158839 0.172555 0.187250 0.202912 0.219527 0.237080 0.255552 0.274921 0.295165 0.316254 0.338158 0.360841 0.384264 0.408382 0.433148 0.458507 0.484399 0.510760 0.537518 0.564596 0.591910 0.619370 0.646878 0.674330 0.701614 0.728613 0.755200 0.781242 0.806600 0.831128 0.854672 0.877073 0.898166 0.917781 0.935744 0.951876 0.965995 0.977919 0.987464 0.994445 0.998681 0.999993 0.998206 0.993154 0.984676 0.972624 0.956860 0.937264 0.913729 0.886168 0.854516 0.818731 0.778798 0.734728 0.686566 0.634386 0.578299 0.518453 0.455032 0.388263 0.318412 0.245786 0.170737 0.093657 0.014980 0.064818 0.145222 0.225680 0.305607 0.384384 0.461367 0.535889 0.607267 0.674806 0.737808 0.795580 0.847438 0.892720 0.930796 0.961071 0.983001 0.996102 0.999959 0.994235 0.978684 0.953156 0.917610 0.872119 0.816878 0.752208 0.678565 0.596535 0.506841 0.410340 0.308015 0.200977 0.090449 0.022236 0.135660 0.248326 0.358680 0.465135 0.566085 0.659943 0.745154 0.820233 0.883790 0.934559 0.971425 0.993456 0.999931 0.990358 0.964502 0.922403 0.864388 0.791083 0.703415 0.602615 0.490207 0.367993 0.238036 0.102625 0.035754 0.174462 0.310755 0.441837 0.564918 0.677275 0.776317 0.859648 0.925135 0.970965 0.995707 0.998364 0.978418 0.935863 0.871234 0.785615 0.680641 0.558483 0.421813 0.273761 0.117855 0.042061 0.201908 0.357481 0.504551 0.638991 0.756889 0.854675 0.929236 0.978028 0.999178 0.991566 0.954892 0.889719 0.797496 0.680545 0.542031 0.385882 0.216715 0.039690 0.139619 0.315405 0.481813 0.633129 0.763999 0.869612 0.945906 0.989731 0.999006 0.972831 0.911568 0.816874 0.691693 0.540187 0.367630 0.180238 0.015031 0.210732 0.399200 0.572865 0.724549 0.847783 0.937102 0.988305 0.998679 0.967170 0.894489 0.783136 0.637361 0.463032 0.267435 0.058982 0.153125 0.359289 0.549956 0.716064 0.849487 0.943457 0.992932 0.994904 0.948610 0.855646 0.719964 0.547749 0.347181 0.128074 0.098582 0.321148 0.527937 0.707835 0.850911 0.948996 0.996182 0.989219 0.927779 0.814563 0.655243 0.458229 0.234273 0.004089 0.243218 0.469129 0.668326 0.828620 0.939905 0.994833 0.989351 0.923045 0.799276 0.625073 0.410800 0.169581 0.083452 0.332105 0.560135 0.752332 0.895552 0.979663 0.998312 0.949461 0.835651 0.663951 0.445592 0.195283 0.069713 0.330770 0.569172 0.767482 0.910852 0.988168 0.992985 0.924130 0.785927 0.588014 0.344759 0.074265 0.202930 0.465375 0.692394 0.865711 0.970999 0.999101 0.946923 0.817834 0.621545 0.373484 0.093638 0.194980 0.468224 0.702818 0.878378 0.979222 0.995866 0.925988 0.774813 0.554833 0.284876 0.011439 0.307710 0.577090 0.794732 0.940127 0.999104 0.965309 0.840984 0.636954 0.371807 0.070277 0.238975 0.526084 0.762843 0.925532 0.997367 0.970329 0.846170 0.636459 0.361620 0.049066 0.269489 0.561209 0.795516 0.947363 1.000000 0.946921 0.792799 0.553223 0.253248 0.075120 0.396263 0.674823 0.879608 0.987162 0.984559 0.871098 0.658631 0.370486 0.039030 0.297895 0.601232 0.835273 0.971917 0.994164 0.898362 0.694929 0.407378 0.069758 0.277298 0.591413 0.833642 0.973383 0.992362 0.887167 0.669985 0.367374 0.017144 0.336247 0.647293 0.875349 0.990008 0.975303 0.832087 0.578274 0.246757 0.118696 0.469146 0.756989 0.942522 0.999497
1.000000 1.000000 1.000000 1.000000 1.000000 1.000000 1.000000 1.000000 1.000000 1.000000 1.000000 1.000000 1.000000 1.000000 1.000000 1.000000 1.000000 1.000000 1.000000 1.000000 1.000000 1.000000 1.000000 1.000000 1.000000 1.000000 1.000000 1.000000 1.000000 1.000000 1.000000 1.000000 1.000000 1.000000 1.000000 1.000000 1.000000 1.000000 1.000000 1.000000 1.000000 1.000000 1.000000 1.000000 1.000000 1.000000 1.000000 1.000000 1.000000 1.000000 1.000000 1.000000 0.918042 0.918042 0.904449 0.904449 0.904449 0.904449 0.904449 0.904449 0.904449 0.904449 0.904449 0.904449 0.904449 0.904449 0.904449 0.904449 0.904449 0.904449 0.904449 0.904449 0.904449 0.904449 0.904449 0.904449 0.904449 0.904449 0.904449 0.904449 0.904449 0.904449 0.904449 0.904449 0.904449 0.904449 0.904449 0.904449 0.904449 0.904449 0.904449 0.904449 0.904449 0.904449 0.904449 0.900664 0.905389 0.907286 0.905638 0.909237 0.909319 0.908600 0.908899 0.908525 0.908824 0.910216 0.920773 0.931861 0.942971 0.943529 0.948658 0.953063 0.955378 0.956306 0.957768 0.967468 0.966208 0.965667 0.966380 0.967945 0.970160 0.968767 0.968513 0.971632 0.972348 0.970623 0.968527 0.967905 0.967283 0.967364 0.966963 0.966855 0.966748 0.967250 0.967468 0.967215 0.967357 0.967395 0.968418 0.969577 0.971870 0.972862 0.972665 0.971479 0.965878 0.969765 0.970357 0.970027 0.969952 0.969484 0.969811 0.958079 0.952991 0.952940 0.949271 0.948350 0.945486 0.943865 0.941759 0.941952 0.940826 0.941470 0.938117 0.925677 0.912455 0.900898 0.921236 0.906614 0.894702 0.871286 0.871485 0.867621 0.868254 0.860588 0.854535 0.850037 0.846856 0.848189 0.846638 0.850559 0.848082 0.834687 0.837541 0.834754 0.805680 0.788701 0.773270 0.773962 0.771497 0.772742 0.772363 0.769135 0.777444 0.767810 0.766438 0.758168 0.739108 0.706347 0.690146 0.700524 0.710403 0.708884 0.705362 0.690194 0.660051 0.672355 0.700778 0.694786 0.697628 0.690391 0.683546 0.683868 0.685524 0.680850 0.673088 0.672626 0.671611 0.679971 0.684062 0.679435 0.669638 0.654413 0.640938 0.627892 0.641529 0.646808 0.613570 0.608066 0.597521 0.590424 0.577622 0.546636 0.544796 0.520043 0.509917 0.511074 0.513800 0.512297 0.520510 0.521924 0.502458 0.524159 0.528994 0.555908 0.533171 0.531859 0.533359 0.540682 0.526745 0.504211 0.499045 0.500011 0.511130 0.540813 0.579901 0.569906 0.555707 0.544192 0.557368 0.524965 0.533941 0.551773 0.528197 0.462739 0.412474 0.409011 0.370390 0.368439 0.354117 0.345228 0.342045 0.336330 0.325022 0.311421 0.298540 0.243708 0.205167 0.188535 0.166114 0.171813 0.189895 0.180370 0.178952 0.202930 0.251162 0.249996 0.240866 0.212459 0.216203 0.186335 0.194969 0.222319 0.178604 0.173275 0.166110 0.138497 0.127929 0.081338 0.114811 0.022006 0.003507 0.001856 0.022883 0.037667 0.038318 0.044567 0.010388 0.029639 0.027350 0.009123 -0.001888 0.017109 0.003587 -0.025213 -0.011576 0.001190 -0.011693 -0.039791 -0.020528 -0.002424 0.015999 0.009411 0.006966 0.063295 0.094582 0.083043 0.084647 0.083438 0.086165 0.062195 0.052453 0.039846 0.031144 -0.012958 -0.042574 -0.042574 -0.038621 -0.038621 -0.038621 -0.038621 -0.038621 -0.038621 -0.038621 -0.038621 -0.038621 -0.041902 -0.041902 -0.041902 -0.041902 -0.041902 -0.041902 -0.041902 -0.041902 -0.041902 -0.014926 -0.014926 -0.014926 -0.014926 -0.014926 -0.014926 -0.014926 -0.014926 -0.014926
0.000000 0.000000 0.000000 0.000000 0.000000 0.000000 0.000000 0.000000 0.000000 0.000000 0.000000 0.000000 0.000000 0.000000 0.000000 0.000000 0.000000 0.000000 0.000000 0.000000 0.000000 0.000000 0.000000 0.000000 0.000000 0.000000 0.000000 0.000000 0.000000 0.000000 0.000000 0.000000 0.000000 0.000000 0.000000 0.000000 0.000000 0.000000 0.000000 0.000000 0.000000 0.000000 0.000000 0.000000 0.000000 0.000000 0.000000 0.000000 0.000000 0.000000 0.000000 0.000000 0.181818 0.181818 0.199007 0.199007 0.199007 0.199007 0.199007 0.199007 0.199007 0.199007 0.199007 0.199007 0.199007 0.199007 0.199007 0.199007 0.199007 0.199007 0.199007 0.199007 0.199007 0.199007 0.199007 0.199007 0.199007 0.199007 0.199007 0.199007 0.199007 0.199007 0.199007 0.199007 0.199007 0.199007 0.199007 0.199007 0.199007 0.199007 0.199007 0.199007 0.199007 0.199007 0.199007 0.230940 0.230940 0.230940 0.230940 0.230940 0.230940 0.230940 0.230940 0.230940 0.230940 0.230940 0.230940 0.230940 0.230940 0.230940 0.230940 0.230940 0.230940 0.230940 0.230940 0.230940 0.230940 0.230940 0.230940 0.230940 0.230940 0.230940 0.230940 0.244339 0.244339 0.244339 0.244339 0.244339 0.244339 0.244339 0.244339 0.244339 0.244339 0.244339 0.244339 0.244339 0.244339 0.244339 0.244339 0.244339 0.244339 0.244339 0.244339 0.244339 0.244339 0.244339 0.251976 0.251976 0.251976 0.251976 0.251976 0.251976 0.251976 0.251976 0.251976 0.251976 0.251976 0.251976 0.251976 0.251976 0.251976 0.251976 0.251976 0.251976 0.251976 0.251976 0.264906 0.264906 0.264906 0.264906 0.264906 0.264906 0.264906 0.264906 0.264906 0.264906 0.264906 0.264906 0.264906 0.264906 0.264906 0.264906 0.264906 0.264906 0.264906 0.264906 0.264906 0.264906 0.264906 0.264906 0.264906 0.264906 0.264906 0.264906 0.264906 0.264906 0.264906 0.264906 0.264906 0.264906 0.264906 0.264906 0.264906 0.264906 0.264906 0.264906 0.264906 0.264906 0.264906 0.264906 0.264906 0.264906 0.264906 0.264906 0.264906 0.264906 0.264906 0.264906 0.264906 0.264906 0.264906 0.264906 0.264906 0.264906 0.264906 0.264906 0.264906 0.264906 0.264906 0.264906 0.264906 0.264906 0.264906 0.264906 0.264906 0.264906 0.264906 0.264906 0.264906 0.264906 0.264906 0.269680 0.269680 0.269680 0.269680 0.269680 0.269680 0.269680 0.269680 0.269680 0.269680 0.269680 0.269680 0.264906 0.264906 0.264906 0.264906 0.264906 0.264906 0.264906 0.264906 0.264906 0.264906 0.264906 0.264906 0.269680 0.269680 0.269680 0.269680 0.269680 0.269680 0.269680 0.269680 0.269680 0.269680 0.269680 0.264906 0.264906 0.264906 0.264906 0.264906 0.264906 0.264906 0.264906 0.264906 0.264906 0.264906 0.256074 0.256074 0.256074 0.256074 0.256074 0.256074 0.256074 0.256074 0.256074 0.256074 0.256074 0.264906 0.264906 0.264906 0.264906 0.264906 0.264906 0.264906 0.264906 0.264906 0.264906 0.269680 0.269680 0.269680 0.269680 0.269680 0.269680 0.269680 0.269680 0.269680 0.256074 0.256074 0.256074 0.256074 0.256074 0.256074 0.256074 0.256074 0.256074 0.256074 0.260378 0.260378 0.260378 0.260378 0.260378 0.260378 0.260378 0.260378 0.260378 0.256074 0.256074 0.256074 0.256074 0.256074 0.256074 0.256074 0.256074 0.256074 0.251976 0.251976 0.251976 0.251976 0.251976 0.251976 0.251976 0.251976 0.251976 0.264906 0.264906 0.264906 0.264906 0.264906 0.264906 0.264906 0.264906 0.264906
