# Output from CTFFind version 4.1.9, run on 2019-11-03 19:35:30
# Input file: stack16_bm3d_averaged_1_4.25_0_1500_half.mrc ; Number of micrographs: 1
# Pixel size: 3.000 Angstroms ; acceleration voltage: 300.0 keV ; spherical aberration: 0.00 mm ; amplitude contrast: 0.07
# Box size: 512 pixels ; min. res.: 30.0 Angstroms ; max. res.: 5.0 Angstroms ; min. def.: 5000.0 um; max. def. 50000.0 um; num. frames averaged: 1
# 6 lines per micrograph: #1 - spatial frequency (1/Angstroms); #2 - 1D rotational average of spectrum (assuming no astigmatism); #3 - 1D rotational average of spectrum; #4 - CTF fit; #5 - cross-correlation between spectrum and CTF fit; #6 - 2sigma of expected cross correlation of noise
0.000000 0.000651 0.001302 0.001953 0.002604 0.003255 0.003906 0.004557 0.005208 0.005859 0.006510 0.007161 0.007812 0.008464 0.009115 0.009766 0.010417 0.011068 0.011719 0.012370 0.013021 0.013672 0.014323 0.014974 0.015625 0.016276 0.016927 0.017578 0.018229 0.018880 0.019531 0.020182 0.020833 0.021484 0.022135 0.022786 0.023438 0.024089 0.024740 0.025391 0.026042 0.026693 0.027344 0.027995 0.028646 0.029297 0.029948 0.030599 0.031250 0.031901 0.032552 0.033203 0.033854 0.034505 0.035156 0.035807 0.036458 0.037109 0.037760 0.038411 0.039062 0.039714 0.040365 0.041016 0.041667 0.042318 0.042969 0.043620 0.044271 0.044922 0.045573 0.046224 0.046875 0.047526 0.048177 0.048828 0.049479 0.050130 0.050781 0.051432 0.052083 0.052734 0.053385 0.054036 0.054688 0.055339 0.055990 0.056641 0.057292 0.057943 0.058594 0.059245 0.059896 0.060547 0.061198 0.061849 0.062500 0.063151 0.063802 0.064453 0.065104 0.065755 0.066406 0.067057 0.067708 0.068359 0.069010 0.069661 0.070312 0.070964 0.071615 0.072266 0.072917 0.073568 0.074219 0.074870 0.075521 0.076172 0.076823 0.077474 0.078125 0.078776 0.079427 0.080078 0.080729 0.081380 0.082031 0.082682 0.083333 0.083984 0.084635 0.085286 0.085938 0.086589 0.087240 0.087891 0.088542 0.089193 0.089844 0.090495 0.091146 0.091797 0.092448 0.093099 0.093750 0.094401 0.095052 0.095703 0.096354 0.097005 0.097656 0.098307 0.098958 0.099609 0.100260 0.100911 0.101562 0.102214 0.102865 0.103516 0.104167 0.104818 0.105469 0.106120 0.106771 0.107422 0.108073 0.108724 0.109375 0.110026 0.110677 0.111328 0.111979 0.112630 0.113281 0.113932 0.114583 0.115234 0.115885 0.116536 0.117188 0.117839 0.118490 0.119141 0.119792 0.120443 0.121094 0.121745 0.122396 0.123047 0.123698 0.124349 0.125000 0.125651 0.126302 0.126953 0.127604 0.128255 0.128906 0.129557 0.130208 0.130859 0.131510 0.132161 0.132812 0.133464 0.134115 0.134766 0.135417 0.136068 0.136719 0.137370 0.138021 0.138672 0.139323 0.139974 0.140625 0.141276 0.141927 0.142578 0.143229 0.143880 0.144531 0.145182 0.145833 0.146484 0.147135 0.147786 0.148438 0.149089 0.149740 0.150391 0.151042 0.151693 0.152344 0.152995 0.153646 0.154297 0.154948 0.155599 0.156250 0.156901 0.157552 0.158203 0.158854 0.159505 0.160156 0.160807 0.161458 0.162109 0.162760 0.163411 0.164062 0.164714 0.165365 0.166016 0.166667 0.167318 0.167969 0.168620 0.169271 0.169922 0.170573 0.171224 0.171875 0.172526 0.173177 0.173828 0.174479 0.175130 0.175781 0.176432 0.177083 0.177734 0.178385 0.179036 0.179688 0.180339 0.180990 0.181641 0.182292 0.182943 0.183594 0.184245 0.184896 0.185547 0.186198 0.186849 0.187500 0.188151 0.188802 0.189453 0.190104 0.190755 0.191406 0.192057 0.192708 0.193359 0.194010 0.194661 0.195312 0.195964 0.196615 0.197266 0.197917 0.198568 0.199219 0.199870 0.200521 0.201172 0.201823 0.202474 0.203125 0.203776 0.204427 0.205078 0.205729 0.206380 0.207031 0.207682 0.208333 0.208984 0.209635 0.210286 0.210938 0.211589 0.212240 0.212891 0.213542 0.214193 0.214844 0.215495 0.216146 0.216797 0.217448 0.218099 0.218750 0.219401 0.220052 0.220703 0.221354 0.222005 0.222656 0.223307 0.223958 0.224609 0.225260 0.225911 0.226562 0.227214 0.227865 0.228516 0.229167 0.229818 0.230469 0.231120 0.231771 0.232422 0.233073 0.233724 0.234375 0.235026 0.235677
       0.33151        0.33151        0.33151        0.33151        0.33151        0.33151        0.33151        0.33151        0.33151        0.33151        0.33151        0.33151        0.33151        0.33151        0.33151        0.33151        0.33151        0.33151        0.33151        0.33151        0.33151        0.33151        0.33151        0.33151        0.33151        0.33151        0.33151        0.33151        0.33151        0.33151        0.33151        0.33151        0.33151        0.33151        0.33151        0.33151        0.33151        0.33151        0.33151        0.33151        0.33151        0.33151        0.33151        0.33151        0.33151        0.33151        0.33151        0.33151        0.33151        0.33151        0.33151        0.42072        0.56820        0.35619       -0.18800       -0.45444       -0.56124       -0.65675       -0.73075       -0.75110       -0.86076       -0.91676       -0.71679       -0.88116       -0.85032       -1.00207       -1.03962       -0.92369       -0.88187       -0.82266       -0.75603       -0.67654       -0.59013       -0.49792       -0.42489       -0.20233       -0.09145        0.00028        0.22940        0.23997        0.30077        0.36673        0.39263        0.49548        0.53962        0.57331        0.53694        0.47519        0.51351        0.49772        0.41935        0.31638        0.18520        0.16495        0.10144       -0.03517       -0.04855       -0.05110        0.02727       -0.01133        0.04520        0.02591        0.14011        0.18515        0.40189        0.45785        0.55411        0.65819        0.70302        0.71921        0.64352        0.62175        0.52834        0.43944        0.37732        0.25691        0.20226        0.18870        0.07714        0.06398        0.04457        0.05901        0.08031        0.29082        0.40457        0.50438        0.54377        0.58340        0.62332        0.59724        0.59550        0.59116        0.56433        0.46492        0.28317        0.24587        0.21529        0.11636        0.06296        0.12145        0.14359        0.26191        0.34876        0.40643        0.47256        0.53794        0.61029        0.55660        0.51264        0.48934        0.35580        0.23058        0.22374        0.15506        0.13596        0.18414        0.23411        0.26269        0.30852        0.41362        0.43447        0.51025        0.46243        0.45335        0.46871        0.37101        0.31494        0.26972        0.22617        0.20632        0.21808        0.22872        0.31831        0.42158        0.41696        0.48425        0.54225        0.45041        0.41781        0.35472        0.29159        0.23935        0.24303        0.26419        0.27732        0.30410        0.32241        0.40803        0.46580        0.43780        0.44609        0.34863        0.36399        0.34862        0.22987        0.22524        0.23414        0.28561        0.35297        0.36620        0.39041        0.43483        0.43371        0.36179        0.34037        0.30713        0.32554        0.28794        0.26722        0.26661        0.32200        0.36067        0.37103        0.39634        0.37442        0.39892        0.36839        0.28507        0.27488        0.30106        0.32957        0.35346        0.35047        0.40461        0.33710        0.36850        0.37753        0.31794        0.33539        0.28779        0.28638        0.33504        0.32006        0.31707        0.32745        0.34969        0.31306        0.33330        0.29409        0.30481        0.27328        0.29027        0.28850        0.33510        0.37109        0.35225        0.33456        0.28870        0.27117        0.27477        0.31167        0.28196        0.30044        0.35399        0.37035        0.33002        0.30346        0.30425        0.29722        0.26804        0.27624        0.28044        0.31184        0.34051        0.31247        0.27653        0.32547        0.30075        0.29519        0.33989        0.33031        0.30912        0.33016        0.29031        0.31654        0.27366        0.29638        0.29618        0.30858        0.38497        0.32117        0.34001        0.30007        0.30238        0.30596        0.31164        0.28546        0.28037        0.30859        0.30606        0.31702        0.29911        0.30794        0.28806        0.29195        0.31091        0.32683        0.31841        0.32871        0.32659        0.29504        0.27013        0.27509        0.25769        0.33767        0.31511        0.34545        0.29514        0.26779        0.29691        0.33742        0.30290        0.28717        0.26631        0.30340        0.27886        0.25494        0.30327        0.27267        0.27199        0.30587        0.29792        0.32981        0.34069        0.29262        0.25932        0.24344        0.25660        0.27154        0.26999        0.30441        0.26808        0.22507        0.28251        0.26879        0.27608        0.23119        0.30813        0.29305        0.27874        0.25560        0.25287        0.26867        0.22473        0.27354        0.32254        0.36235        0.25859        0.26539        0.24309        0.24086        0.19948        0.30882        0.22556        0.22492        0.15239        0.24103        0.22907        0.22803        0.08233        0.05588       -0.58280       -1.00752
3.006743 2.969293 2.932084 2.895115 2.858388 2.821902 2.785657 2.749652 2.713889 2.678367 2.643086 2.608045 2.573246 2.538688 2.504371 2.470295 2.436459 2.402865 2.369512 2.336400 2.303529 2.270899 2.238509 2.206361 2.174454 2.142788 2.111363 2.080178 2.049235 2.018533 1.988072 1.957852 1.927873 1.898135 1.868637 1.839381 1.810366 1.781592 1.753059 1.724767 1.696716 1.668906 1.641336 1.614008 1.586921 1.560075 1.533470 1.507106 1.480983 1.455101 1.429460 1.464064 1.570987 1.512200 0.852502 0.580223 0.432949 0.367051 0.277288 0.192512 0.145457 -0.064873 0.177447 0.040859 -0.051367 -0.130043 -0.249013 -0.164437 -0.082594 -0.095678 -0.095711 0.023701 0.017500 0.204435 0.097348 0.336274 0.448657 0.464430 0.738911 0.683576 0.676311 0.827391 0.795274 0.818315 0.916426 0.868316 0.898317 0.729830 0.813132 0.840084 0.663986 0.596482 0.442965 0.416921 0.367633 0.177121 0.170774 0.118228 0.214793 0.120639 0.215377 0.105469 0.239586 0.239646 0.471296 0.420231 0.601638 0.634963 0.678679 0.735558 0.651821 0.626512 0.480587 0.432708 0.318114 0.285887 0.117260 0.181169 -0.008264 0.031378 -0.036970 -0.036051 -0.020432 0.047668 0.298318 0.318761 0.400010 0.349862 0.431164 0.473585 0.445179 0.453452 0.381217 0.377354 0.150735 0.105520 0.070567 0.008768 -0.144918 -0.029765 -0.079164 0.044960 0.118634 0.182496 0.260117 0.262086 0.354879 0.451280 0.342010 0.393032 0.286329 0.148336 0.065792 0.068640 0.013787 0.034811 0.076039 0.113761 0.126053 0.218352 0.257239 0.302853 0.343576 0.251018 0.276515 0.240200 0.117065 0.102308 0.040890 0.041911 0.012611 0.018457 0.051536 0.176592 0.198530 0.198151 0.331556 0.202215 0.234813 0.105639 0.090368 -0.011209 -0.006343 0.005791 0.019912 0.039267 0.039375 0.089049 0.162082 0.173156 0.206432 0.115228 0.078301 0.104924 0.038421 -0.080982 -0.021480 0.008215 0.042611 0.062911 0.094359 0.161581 0.128452 0.162590 0.045514 0.062530 0.041742 0.047227 0.017007 -0.012037 0.025799 0.044895 0.085489 0.113869 0.103318 0.106617 0.123121 0.056507 -0.002169 0.005821 0.024091 0.079644 0.056550 0.105853 0.116871 0.049341 0.101035 0.067353 0.036722 0.062059 -0.030707 0.027989 0.061308 0.029294 0.026567 0.102685 0.039852 0.047021 0.042377 0.008931 0.024719 -0.022615 0.012775 0.003880 0.078918 0.074188 0.051778 0.036602 -0.015750 -0.017296 -0.007292 0.022052 -0.005971 0.016431 0.075849 0.073328 -0.006139 0.024735 -0.003062 0.005791 -0.030560 -0.021443 -0.010933 0.036986 0.003653 0.016599 -0.013540 0.020563 -0.010357 0.003863 0.041999 0.026488 0.035004 -0.027334 0.005164 0.006908 -0.042710 -0.003810 -0.003781 0.037542 0.082526 0.010893 0.022220 0.006399 0.019170 -0.007245 0.032792 -0.013044 -0.016390 0.016942 0.010756 0.027161 0.004517 0.056523 -0.029128 -0.001440 0.029156 0.030672 0.025948 0.056047 0.017384 0.020507 -0.000690 -0.025299 -0.004320 0.054639 0.040916 0.049434 0.004681 -0.015682 0.002098 0.066449 0.003932 0.016273 -0.019285 0.016237 -0.015595 -0.023522 0.006889 0.002216 -0.025321 0.025246 0.022875 0.076863 0.052391 0.018997 -0.002872 -0.042581 -0.013668 0.010459 -0.015476 0.065097 -0.024479 -0.074416 0.034784 -0.015025 -0.087307 -0.067963 0.000696 -0.038063 -0.057047 -0.073774 -0.058166 -0.030611 -0.095970 -0.023462 0.012852 0.060637 -0.092196 -0.009079 0.025651 -0.025644 -0.087614 0.114306 0.023829 0.081075 -0.016085 0.267812 0.205809 0.237760 -0.010494 0.057239 -0.936721
0.072396 0.073048 0.075002 0.078258 0.082815 0.088671 0.095825 0.104273 0.114011 0.125035 0.137337 0.150910 0.165742 0.181822 0.199133 0.217658 0.237373 0.258254 0.280269 0.303382 0.327553 0.352733 0.378870 0.405902 0.433761 0.462370 0.491644 0.521487 0.551795 0.582453 0.613336 0.644309 0.675222 0.705919 0.736228 0.765968 0.794945 0.822957 0.849787 0.875211 0.898995 0.920896 0.940664 0.958044 0.972776 0.984596 0.993244 0.998456 0.999979 0.997563 0.990970 0.979976 0.964374 0.943979 0.918631 0.888199 0.852586 0.811731 0.765617 0.714272 0.657775 0.596258 0.529912 0.458987 0.383799 0.304729 0.222222 0.136796 0.049034 0.040414 0.130834 0.221451 0.311432 0.399896 0.485919 0.568540 0.646779 0.719639 0.786127 0.845264 0.896102 0.937739 0.969338 0.990145 0.999506 0.996886 0.981885 0.954260 0.913935 0.861020 0.795821 0.718849 0.630830 0.532705 0.425630 0.310972 0.190300 0.065367 0.061907 0.189462 0.315124 0.436646 0.551743 0.658139 0.753614 0.836052 0.903496 0.954200 0.986680 0.999765 0.992644 0.964907 0.916579 0.848151 0.760592 0.655358 0.534388 0.400080 0.255262 0.103142 0.052748 0.208633 0.360578 0.504588 0.636713 0.753164 0.850426 0.925380 0.975413 0.998523 0.993417 0.959585 0.897360 0.807954 0.693464 0.556854 0.401904 0.233124 0.055650 0.124912 0.302641 0.471501 0.625544 0.759127 0.867134 0.945190 0.989855 0.998809 0.970985 0.906676 0.807587 0.676837 0.518895 0.339469 0.145325 0.055946 0.256210 0.447109 0.620411 0.768382 0.884144 0.962021 0.997854 0.989252 0.935785 0.839083 0.702859 0.532810 0.336426 0.122702 0.098240 0.315625 0.518537 0.696472 0.839904 0.940823 0.993222 0.993502 0.940764 0.836963 0.686915 0.498142 0.280550 0.045959 0.192516 0.421165 0.626490 0.796001 0.919019 0.987389 0.996082 0.943619 0.832303 0.668205 0.460920 0.223071 0.030405 0.283163 0.518484 0.720395 0.874775 0.970399 0.999814 0.959996 0.852716 0.684583 0.466734 0.214179 0.055171 0.321729 0.565645 0.768302 0.913765 0.990110 0.990475 0.913771 0.764956 0.554838 0.299391 0.018636 0.264889 0.527894 0.748274 0.906997 0.989829 0.988695 0.902580 0.737836 0.507845 0.232066 0.065538 0.358517 0.620266 0.826457 0.957382 0.999911 0.948938 0.808101 0.589697 0.313748 0.006290 0.303025 0.583742 0.807616 0.951529 0.999977 0.946867 0.796424 0.563037 0.270056 0.052437 0.370625 0.650470 0.861409 0.979743 0.991455 0.894014 0.696974 0.421233 0.096982 0.239489 0.549797 0.797843 0.954088 0.999200 0.926606 0.743621 0.470937 0.140460 0.208269 0.532744 0.792675 0.955052 0.998488 0.916218 0.717333 0.426023 0.078828 0.279793 0.603091 0.848144 0.981640 0.984588 0.855224 0.609679 0.280221 0.088795 0.446774 0.743779 0.937566 0.999737 0.920124 0.708676 0.394515 0.022150 0.354655 0.680572 0.906892 0.998927 0.941552 0.741955 0.429061 0.049592 0.338695 0.675751 0.908524 0.999488 0.932913 0.717874 0.387357 0.006526 0.400552 0.730476 0.941559 0.997827 0.888486 0.630272 0.265261 0.145746 0.533138 0.830306 0.985163 0.969532 0.784594 0.461304 0.055554 0.361246 0.714630 0.940432 0.996623 0.871462 0.586273 0.192225 0.238581 0.626101 0.897243 0.999818 0.912886 0.651405 0.264095 0.175306 0.581845 0.875797 0.998415 0.924000 0.665676 0.273558 0.174631 0.588706 0.884158 0.999563 0.909684 0.631410 0.221071 0.236591 0.645687 0.919301 0.998129 0.863728 0.543272 0.104533 0.358055 0.743573
1.000000 1.000000 1.000000 1.000000 1.000000 1.000000 1.000000 1.000000 1.000000 1.000000 1.000000 1.000000 1.000000 1.000000 1.000000 1.000000 1.000000 1.000000 1.000000 1.000000 1.000000 1.000000 1.000000 1.000000 1.000000 1.000000 1.000000 1.000000 1.000000 1.000000 1.000000 1.000000 1.000000 1.000000 1.000000 1.000000 1.000000 1.000000 1.000000 1.000000 1.000000 1.000000 1.000000 1.000000 1.000000 1.000000 1.000000 1.000000 1.000000 1.000000 1.000000 1.000000 0.934660 0.934660 0.934660 0.934660 0.934660 0.934660 0.934660 0.934660 0.934660 0.934660 0.934660 0.934660 0.934660 0.934660 0.934660 0.934660 0.934660 0.934660 0.934660 0.934660 0.934660 0.934660 0.934660 0.934660 0.934660 0.934660 0.934660 0.934660 0.934660 0.934660 0.934660 0.934660 0.934660 0.922783 0.920737 0.923523 0.924475 0.924370 0.923905 0.923636 0.923937 0.925407 0.927202 0.948522 0.950797 0.951391 0.952529 0.952595 0.955219 0.953570 0.958293 0.968979 0.968346 0.969267 0.963761 0.964519 0.964197 0.963660 0.965503 0.965139 0.963910 0.962443 0.961328 0.961029 0.960821 0.962355 0.962798 0.963115 0.963460 0.963436 0.963353 0.961037 0.958715 0.961169 0.960609 0.959509 0.964963 0.963669 0.965681 0.965681 0.966359 0.967176 0.967392 0.967563 0.961860 0.960753 0.959066 0.945019 0.939418 0.936001 0.938707 0.941692 0.939131 0.934163 0.932302 0.934558 0.926550 0.926065 0.917259 0.916408 0.901548 0.894728 0.885011 0.886576 0.887839 0.888204 0.885458 0.874578 0.863900 0.860774 0.864428 0.857816 0.854534 0.870616 0.866513 0.868742 0.871568 0.873410 0.879193 0.870981 0.866054 0.861792 0.857708 0.856623 0.858890 0.862338 0.864446 0.858980 0.850992 0.854515 0.847263 0.847791 0.853142 0.852875 0.846750 0.843736 0.844459 0.845510 0.841016 0.846861 0.834248 0.830036 0.829944 0.825321 0.822903 0.815713 0.814963 0.815937 0.819161 0.807709 0.813480 0.780674 0.792158 0.786170 0.794458 0.793460 0.787446 0.788524 0.770094 0.760539 0.756907 0.768620 0.779494 0.760017 0.756840 0.752458 0.732710 0.739959 0.748227 0.741916 0.738124 0.725229 0.735363 0.734840 0.736721 0.728706 0.709228 0.714772 0.725716 0.733020 0.708960 0.702856 0.697409 0.702144 0.699463 0.690456 0.698925 0.667118 0.657164 0.625953 0.621957 0.636275 0.626536 0.602205 0.586410 0.540829 0.540427 0.539362 0.537965 0.519195 0.520761 0.506576 0.511510 0.539613 0.524649 0.539627 0.543147 0.537688 0.553134 0.444252 0.451630 0.429715 0.430608 0.438408 0.431857 0.400760 0.413421 0.415837 0.426506 0.416233 0.401357 0.418646 0.402583 0.403062 0.418542 0.397824 0.391076 0.402241 0.416856 0.417755 0.403958 0.397787 0.404366 0.417335 0.358373 0.349394 0.373788 0.325862 0.323966 0.299376 0.316976 0.301700 0.321531 0.309453 0.316430 0.325116 0.285400 0.301344 0.284601 0.309737 0.319854 0.315591 0.293889 0.289698 0.306969 0.237637 0.247044 0.276209 0.260625 0.327733 0.271871 0.269342 0.187208 0.246537 0.220467 0.232590 0.205943 0.160391 0.152831 0.151546 0.128782 0.125186 0.131490 0.118005 0.090062 0.045045 0.050010 0.040231 0.052724 0.066623 0.037894 0.034272 0.034272 0.034272 0.034272 0.013125 0.013125 0.013125 0.013125 0.013125 0.013125 0.013125 0.013125 0.013125 0.013125 0.013125 0.013125 0.013125 0.013125 -0.086020 -0.086020 -0.086020 -0.086020 -0.086020 -0.086020 -0.086020 -0.086020 -0.086020 -0.086020 -0.086020 -0.086020
0.000000 0.000000 0.000000 0.000000 0.000000 0.000000 0.000000 0.000000 0.000000 0.000000 0.000000 0.000000 0.000000 0.000000 0.000000 0.000000 0.000000 0.000000 0.000000 0.000000 0.000000 0.000000 0.000000 0.000000 0.000000 7.000000 4.000000 0.000000 0.000000 0.000000 0.000000 0.000000 0.000000 0.000000 0.000000 0.000000 0.000000 0.000000 0.000000 0.000000 0.000000 0.000000 0.000000 0.000000 0.000000 0.000000 0.000000 0.000000 0.000000 0.000000 0.000000 0.000000 0.209657 0.209657 0.209657 0.209657 0.209657 0.209657 0.209657 0.209657 0.209657 0.209657 0.209657 0.209657 0.209657 0.209657 0.209657 0.209657 0.209657 0.209657 0.209657 0.209657 0.209657 0.209657 0.209657 0.209657 0.209657 0.209657 0.209657 0.209657 0.209657 0.209657 0.209657 0.209657 0.209657 0.244339 0.244339 0.244339 0.244339 0.244339 0.244339 0.244339 0.244339 0.244339 0.244339 0.244339 0.244339 0.244339 0.244339 0.244339 0.244339 0.244339 0.244339 0.244339 0.244339 0.244339 0.244339 0.244339 0.244339 0.244339 0.260378 0.260378 0.260378 0.260378 0.260378 0.260378 0.260378 0.260378 0.260378 0.260378 0.260378 0.260378 0.260378 0.260378 0.260378 0.260378 0.260378 0.260378 0.260378 0.260378 0.269680 0.269680 0.269680 0.269680 0.269680 0.269680 0.269680 0.269680 0.269680 0.269680 0.269680 0.269680 0.269680 0.269680 0.269680 0.269680 0.269680 0.269680 0.269680 0.269680 0.269680 0.269680 0.269680 0.269680 0.269680 0.269680 0.269680 0.269680 0.269680 0.269680 0.269680 0.269680 0.269680 0.280056 0.280056 0.280056 0.280056 0.280056 0.280056 0.280056 0.280056 0.280056 0.280056 0.280056 0.280056 0.280056 0.280056 0.280056 0.280056 0.280056 0.280056 0.280056 0.280056 0.280056 0.280056 0.280056 0.280056 0.280056 0.280056 0.280056 0.285714 0.285714 0.285714 0.285714 0.285714 0.285714 0.285714 0.285714 0.285714 0.285714 0.285714 0.285714 0.274721 0.274721 0.274721 0.274721 0.274721 0.274721 0.274721 0.274721 0.274721 0.274721 0.274721 0.274721 0.280056 0.280056 0.280056 0.280056 0.280056 0.280056 0.280056 0.280056 0.280056 0.280056 0.280056 0.285714 0.285714 0.285714 0.285714 0.285714 0.285714 0.285714 0.285714 0.285714 0.285714 0.280056 0.280056 0.280056 0.280056 0.280056 0.280056 0.280056 0.280056 0.280056 0.280056 0.274721 0.274721 0.274721 0.274721 0.274721 0.274721 0.274721 0.274721 0.274721 0.274721 0.280056 0.280056 0.280056 0.280056 0.280056 0.280056 0.280056 0.280056 0.280056 0.274721 0.274721 0.274721 0.274721 0.274721 0.274721 0.274721 0.274721 0.274721 0.269680 0.269680 0.269680 0.269680 0.269680 0.269680 0.269680 0.269680 0.269680 0.280056 0.280056 0.280056 0.280056 0.280056 0.280056 0.280056 0.280056 0.260378 0.260378 0.260378 0.260378 0.260378 0.260378 0.260378 0.260378 0.260378 0.269680 0.269680 0.269680 0.269680 0.269680 0.269680 0.269680 0.269680 0.285714 0.285714 0.285714 0.285714 0.285714 0.285714 0.285714 0.264906 0.264906 0.264906 0.264906 0.264906 0.264906 0.264906 0.264906 0.274721 0.274721 0.274721 0.274721 0.274721 0.274721 0.274721 0.256074 0.256074 0.256074 0.256074 0.256074 0.256074 0.256074 0.256074 0.264906 0.264906 0.264906 0.264906 0.264906 0.264906 0.264906 0.264906 0.264906 0.264906 0.264906 0.264906 0.264906 0.264906 0.280056 0.280056 0.280056 0.280056 0.280056 0.280056 0.280056 0.280056 0.280056 0.280056 0.280056 0.280056
