# Output from CTFFind version 4.1.9, run on 2019-11-03 20:04:22
# Input file: stack16_bm3d_averaged_1_5.5_0_250_half.mrc ; Number of micrographs: 1
# Pixel size: 3.000 Angstroms ; acceleration voltage: 300.0 keV ; spherical aberration: 0.00 mm ; amplitude contrast: 0.07
# Box size: 512 pixels ; min. res.: 30.0 Angstroms ; max. res.: 5.0 Angstroms ; min. def.: 5000.0 um; max. def. 50000.0 um; num. frames averaged: 1
# 6 lines per micrograph: #1 - spatial frequency (1/Angstroms); #2 - 1D rotational average of spectrum (assuming no astigmatism); #3 - 1D rotational average of spectrum; #4 - CTF fit; #5 - cross-correlation between spectrum and CTF fit; #6 - 2sigma of expected cross correlation of noise
0.000000 0.000651 0.001302 0.001953 0.002604 0.003255 0.003906 0.004557 0.005208 0.005859 0.006510 0.007161 0.007812 0.008464 0.009115 0.009766 0.010417 0.011068 0.011719 0.012370 0.013021 0.013672 0.014323 0.014974 0.015625 0.016276 0.016927 0.017578 0.018229 0.018880 0.019531 0.020182 0.020833 0.021484 0.022135 0.022786 0.023438 0.024089 0.024740 0.025391 0.026042 0.026693 0.027344 0.027995 0.028646 0.029297 0.029948 0.030599 0.031250 0.031901 0.032552 0.033203 0.033854 0.034505 0.035156 0.035807 0.036458 0.037109 0.037760 0.038411 0.039062 0.039714 0.040365 0.041016 0.041667 0.042318 0.042969 0.043620 0.044271 0.044922 0.045573 0.046224 0.046875 0.047526 0.048177 0.048828 0.049479 0.050130 0.050781 0.051432 0.052083 0.052734 0.053385 0.054036 0.054688 0.055339 0.055990 0.056641 0.057292 0.057943 0.058594 0.059245 0.059896 0.060547 0.061198 0.061849 0.062500 0.063151 0.063802 0.064453 0.065104 0.065755 0.066406 0.067057 0.067708 0.068359 0.069010 0.069661 0.070312 0.070964 0.071615 0.072266 0.072917 0.073568 0.074219 0.074870 0.075521 0.076172 0.076823 0.077474 0.078125 0.078776 0.079427 0.080078 0.080729 0.081380 0.082031 0.082682 0.083333 0.083984 0.084635 0.085286 0.085938 0.086589 0.087240 0.087891 0.088542 0.089193 0.089844 0.090495 0.091146 0.091797 0.092448 0.093099 0.093750 0.094401 0.095052 0.095703 0.096354 0.097005 0.097656 0.098307 0.098958 0.099609 0.100260 0.100911 0.101562 0.102214 0.102865 0.103516 0.104167 0.104818 0.105469 0.106120 0.106771 0.107422 0.108073 0.108724 0.109375 0.110026 0.110677 0.111328 0.111979 0.112630 0.113281 0.113932 0.114583 0.115234 0.115885 0.116536 0.117188 0.117839 0.118490 0.119141 0.119792 0.120443 0.121094 0.121745 0.122396 0.123047 0.123698 0.124349 0.125000 0.125651 0.126302 0.126953 0.127604 0.128255 0.128906 0.129557 0.130208 0.130859 0.131510 0.132161 0.132812 0.133464 0.134115 0.134766 0.135417 0.136068 0.136719 0.137370 0.138021 0.138672 0.139323 0.139974 0.140625 0.141276 0.141927 0.142578 0.143229 0.143880 0.144531 0.145182 0.145833 0.146484 0.147135 0.147786 0.148438 0.149089 0.149740 0.150391 0.151042 0.151693 0.152344 0.152995 0.153646 0.154297 0.154948 0.155599 0.156250 0.156901 0.157552 0.158203 0.158854 0.159505 0.160156 0.160807 0.161458 0.162109 0.162760 0.163411 0.164062 0.164714 0.165365 0.166016 0.166667 0.167318 0.167969 0.168620 0.169271 0.169922 0.170573 0.171224 0.171875 0.172526 0.173177 0.173828 0.174479 0.175130 0.175781 0.176432 0.177083 0.177734 0.178385 0.179036 0.179688 0.180339 0.180990 0.181641 0.182292 0.182943 0.183594 0.184245 0.184896 0.185547 0.186198 0.186849 0.187500 0.188151 0.188802 0.189453 0.190104 0.190755 0.191406 0.192057 0.192708 0.193359 0.194010 0.194661 0.195312 0.195964 0.196615 0.197266 0.197917 0.198568 0.199219 0.199870 0.200521 0.201172 0.201823 0.202474 0.203125 0.203776 0.204427 0.205078 0.205729 0.206380 0.207031 0.207682 0.208333 0.208984 0.209635 0.210286 0.210938 0.211589 0.212240 0.212891 0.213542 0.214193 0.214844 0.215495 0.216146 0.216797 0.217448 0.218099 0.218750 0.219401 0.220052 0.220703 0.221354 0.222005 0.222656 0.223307 0.223958 0.224609 0.225260 0.225911 0.226562 0.227214 0.227865 0.228516 0.229167 0.229818 0.230469 0.231120 0.231771 0.232422 0.233073 0.233724 0.234375 0.235026 0.235677
       0.34446        0.34446        0.34446        0.34446        0.34446        0.34446        0.34446        0.34446        0.34446        0.34446        0.34446        0.34446        0.34446        0.34446        0.34446        0.34446        0.34446        0.34446        0.34446        0.34446        0.34446        0.34446        0.34446        0.34446        0.34446        0.34446        0.34446        0.34446        0.34446        0.34446        0.34446        0.34446        0.34446        0.34446        0.34446        0.34446        0.34446        0.34446        0.34446        0.34446        0.34446        0.34446        0.34446        0.34446        0.34446        0.34446        0.34446        0.34446        0.34446        0.34446        0.34446        0.42511        0.55663        0.34293       -0.21253       -0.45449       -0.54844       -0.64890       -0.71906       -0.72818       -0.82428       -0.89558       -0.68874       -0.84490       -0.82613       -0.97080       -1.00854       -0.89063       -0.84973       -0.80416       -0.71984       -0.65027       -0.56167       -0.46758       -0.40161       -0.17305       -0.07034        0.03018        0.25314        0.25411        0.31123        0.36968        0.39928        0.51569        0.53633        0.57210        0.53191        0.47215        0.50546        0.52198        0.44422        0.32877        0.21009        0.17770        0.10844        0.00362       -0.01281       -0.02175        0.05136        0.01676        0.07009        0.04386        0.15950        0.19329        0.40555        0.45761        0.54848        0.65692        0.68735        0.71332        0.63526        0.61063        0.53684        0.43804        0.38566        0.27218        0.21437        0.20914        0.09703        0.10461        0.09996        0.08195        0.09314        0.30323        0.41282        0.51887        0.53245        0.57042        0.60716        0.58687        0.57400        0.58256        0.56511        0.46540        0.30202        0.26149        0.24945        0.14449        0.08708        0.16262        0.19971        0.28114        0.35061        0.42273        0.47107        0.52957        0.60037        0.54480        0.50539        0.49862        0.35381        0.26875        0.25438        0.17243        0.18856        0.22872        0.26997        0.27874        0.32176        0.42437        0.45757        0.49797        0.45107        0.44251        0.48325        0.38990        0.32719        0.28387        0.25517        0.22862        0.22625        0.23597        0.33387        0.44007        0.42826        0.48841        0.55215        0.44434        0.40948        0.35421        0.31086        0.26563        0.27772        0.26831        0.28643        0.34270        0.35265        0.43164        0.47090        0.43612        0.45736        0.37124        0.37617        0.35261        0.26648        0.24708        0.24483        0.32399        0.37526        0.36450        0.38784        0.43194        0.43738        0.37261        0.33685        0.31850        0.34866        0.31037        0.27797        0.28061        0.35062        0.36925        0.38518        0.38791        0.38589        0.41516        0.40014        0.31839        0.28622        0.31333        0.34130        0.37225        0.35874        0.40255        0.34056        0.36885        0.39032        0.33428        0.35279        0.31714        0.29783        0.33589        0.33877        0.32541        0.34971        0.36837        0.32522        0.34388        0.31627        0.31317        0.29109        0.31695        0.31349        0.32527        0.36429        0.36837        0.35047        0.30543        0.29564        0.28431        0.32739        0.30851        0.31256        0.36698        0.35751        0.33974        0.31109        0.30230        0.30893        0.27265        0.30984        0.32343        0.33279        0.36642        0.34575        0.30516        0.33247        0.33965        0.32487        0.35499        0.34376        0.30993        0.33145        0.29053        0.31968        0.29270        0.31009        0.28643        0.31885        0.35313        0.33036        0.35265        0.30923        0.32467        0.34757        0.33655        0.31127        0.31421        0.35380        0.33668        0.33184        0.32211        0.31015        0.30904        0.31203        0.32154        0.32046        0.35026        0.33856        0.33636        0.28902        0.28141        0.26516        0.26805        0.36198        0.31008        0.34646        0.29567        0.26098        0.27732        0.36156        0.30618        0.28098        0.30420        0.31454        0.29297        0.26464        0.30519        0.26807        0.28464        0.30342        0.32986        0.33187        0.31944        0.30329        0.26517        0.26934        0.26257        0.27021        0.29287        0.35843        0.29101        0.19754        0.30198        0.28289        0.32081        0.24791        0.30026        0.30163        0.33318        0.28870        0.27637        0.26409        0.23935        0.29706        0.34269        0.34491        0.24551        0.28942        0.23487        0.22854        0.21094        0.33289        0.25018        0.18350        0.12505        0.21251        0.32244        0.22264        0.18811        0.10020       -0.49594       -0.61309
3.170971 3.130864 3.091016 3.051428 3.012100 2.973031 2.934223 2.895674 2.857386 2.819357 2.781588 2.744079 2.706829 2.669840 2.633110 2.596640 2.560430 2.524480 2.488790 2.453360 2.418189 2.383278 2.348627 2.314236 2.280105 2.246234 2.212622 2.179271 2.146179 2.113347 2.080775 2.048462 2.016410 1.984617 1.953085 1.921812 1.890799 1.860046 1.829552 1.799319 1.769345 1.739631 1.710177 1.680983 1.652049 1.623375 1.594960 1.566805 1.538910 1.511275 1.483900 1.519139 1.600346 1.540595 0.846275 0.594055 0.454892 0.385892 0.290428 0.214463 0.179744 -0.052121 0.202743 0.067884 -0.033066 -0.113303 -0.240139 -0.147591 -0.059631 -0.094135 -0.077365 0.033977 0.030813 0.225412 0.105846 0.354611 0.461521 0.489362 0.766209 0.685428 0.692585 0.827010 0.797606 0.839184 0.919454 0.860130 0.890993 0.727797 0.793504 0.845908 0.684808 0.605630 0.437604 0.426528 0.339556 0.188423 0.185295 0.115047 0.209633 0.119343 0.210084 0.105686 0.218445 0.231271 0.445401 0.405971 0.578345 0.617362 0.647043 0.724590 0.611041 0.586894 0.462344 0.413709 0.294389 0.264901 0.096868 0.157502 -0.025973 0.037247 -0.032824 -0.041438 -0.050793 0.030830 0.273213 0.294934 0.366060 0.308701 0.390749 0.401067 0.426512 0.407726 0.360623 0.336863 0.127897 0.079805 0.064945 -0.015857 -0.152900 -0.046843 -0.066394 0.039822 0.081848 0.155672 0.223181 0.230836 0.321930 0.412574 0.294626 0.365463 0.240265 0.140961 0.066128 0.040348 0.002077 0.048214 0.071186 0.099776 0.117695 0.177052 0.240862 0.309025 0.275974 0.218347 0.256812 0.228947 0.111201 0.068310 0.050349 0.029284 0.006858 -0.013958 0.033157 0.170307 0.190764 0.193175 0.304021 0.189100 0.198477 0.077105 0.069937 0.005393 -0.006479 0.001127 -0.006924 0.043190 0.063670 0.096384 0.157553 0.142762 0.222786 0.133029 0.077972 0.100812 0.045699 -0.055220 -0.023822 0.022814 0.061808 0.074406 0.071047 0.153530 0.122311 0.151922 0.037305 0.052571 0.046589 0.049355 0.026202 -0.020975 0.039687 0.046872 0.089854 0.105061 0.089790 0.110691 0.126184 0.078877 0.013423 -0.005416 0.029260 0.078965 0.067605 0.095711 0.092768 0.049904 0.108669 0.066682 0.042692 0.081468 -0.017477 0.018065 0.062745 0.038241 0.043331 0.060264 0.074446 0.050128 0.063122 0.012806 0.020214 0.001260 0.051083 0.005990 0.043069 0.068102 0.075743 0.040801 -0.008039 -0.005327 -0.018469 0.038178 0.000514 0.012710 0.070348 0.055570 -0.003183 0.008894 -0.014054 0.008931 -0.042912 0.000979 0.007510 0.035258 0.047039 0.023020 -0.012393 0.006089 0.018713 0.004197 0.042435 0.012705 -0.015682 0.032651 -0.045786 -0.022662 -0.051929 -0.013273 -0.053889 0.012426 0.030002 -0.003448 -0.002824 -0.004316 0.003258 0.026792 0.020868 -0.012147 0.003843 0.026920 0.039776 0.019068 0.009890 0.026165 -0.001731 0.000060 0.019541 -0.002182 0.082213 0.052182 0.032167 0.000625 -0.009657 -0.034636 0.000873 0.080238 -0.000583 0.067922 -0.017306 -0.024289 -0.020467 0.096781 -0.000696 -0.019370 0.042880 0.048260 0.009405 0.006599 0.025268 0.003335 0.026957 0.028312 0.084277 0.066079 0.050760 0.037991 -0.003108 0.006590 -0.008263 -0.010863 0.008918 0.104018 -0.020749 -0.094013 0.053159 -0.005740 0.056512 -0.058918 0.004923 0.011955 0.024227 0.001023 -0.018956 -0.022730 -0.073440 0.032031 0.049424 0.062197 -0.125401 0.006063 -0.018111 -0.013230 -0.114734 0.105638 0.015539 -0.024886 -0.093793 0.193075 0.270902 0.156736 0.143313 0.103384 -0.584503
0.072396 0.073047 0.074998 0.078250 0.082801 0.088649 0.095793 0.104230 0.113955 0.124964 0.137249 0.150803 0.165616 0.181674 0.198962 0.217463 0.237153 0.258006 0.279992 0.303076 0.327217 0.352367 0.378472 0.405473 0.433300 0.461878 0.491121 0.520934 0.551213 0.581845 0.612704 0.643655 0.674551 0.705233 0.735532 0.765268 0.794246 0.822265 0.849110 0.874557 0.898372 0.920313 0.940131 0.957572 0.972376 0.984280 0.993024 0.998345 0.999990 0.997709 0.991265 0.980433 0.965007 0.944800 0.919652 0.889431 0.854039 0.813413 0.767536 0.716433 0.660181 0.598909 0.532805 0.462118 0.387158 0.308302 0.225994 0.140747 0.053137 0.036187 0.126516 0.217080 0.307052 0.395552 0.481660 0.564422 0.642856 0.715971 0.782775 0.842288 0.893563 0.935698 0.967852 0.989269 0.999289 0.997371 0.983109 0.956249 0.916706 0.864578 0.800158 0.723945 0.636647 0.539193 0.432721 0.318584 0.198332 0.073707 0.053388 0.180904 0.306679 0.428473 0.544009 0.651013 0.747262 0.830637 0.899172 0.951107 0.984941 0.999481 0.993888 0.967724 0.920979 0.854106 0.768038 0.664189 0.544456 0.411197 0.267204 0.115649 0.039966 0.195892 0.348211 0.492937 0.626119 0.743959 0.842920 0.919853 0.972101 0.997611 0.995025 0.963765 0.904085 0.817115 0.704870 0.570230 0.416897 0.249309 0.072536 0.107861 0.285997 0.455850 0.611466 0.747175 0.857811 0.938925 0.986987 0.999562 0.975455 0.914820 0.819215 0.691611 0.536334 0.358959 0.166140 0.034622 0.235250 0.427412 0.602862 0.753813 0.873288 0.955480 0.996056 0.992428 0.943942 0.851996 0.720064 0.553615 0.359933 0.147848 0.072656 0.290868 0.495885 0.677146 0.825002 0.931253 0.989647 0.996285 0.949935 0.852201 0.707548 0.523168 0.308675 0.075659 0.162913 0.393393 0.602237 0.776813 0.906188 0.981868 0.998406 0.953852 0.850010 0.692459 0.490334 0.255873 0.003724 0.249930 0.488389 0.695550 0.857005 0.961106 0.999856 0.969603 0.871445 0.711318 0.499741 0.251203 0.016755 0.284747 0.532906 0.742387 0.896818 0.983652 0.995257 0.929681 0.790992 0.589151 0.339402 0.061213 0.223186 0.490551 0.718514 0.887510 0.982505 0.994437 0.921183 0.767955 0.547082 0.277122 0.018583 0.313870 0.582057 0.798349 0.942202 0.999361 0.963381 0.836481 0.629582 0.361515 0.057437 0.253464 0.540720 0.775578 0.933937 0.998915 0.962784 0.828019 0.607337 0.322665 0.003073 0.318078 0.606603 0.831143 0.966660 0.997333 0.918574 0.737833 0.474108 0.156098 0.180774 0.498259 0.759611 0.933890 0.999760 0.948251 0.784159 0.525834 0.203319 0.144995 0.476849 0.751234 0.933516 0.999937 0.940889 0.762497 0.486236 0.146560 0.213256 0.546523 0.809211 0.965853 0.994478 0.889909 0.664872 0.348714 0.016234 0.380159 0.692544 0.909197 0.998659 0.946960 0.760044 0.463392 0.098792 0.281366 0.621529 0.871117 0.992168 0.965315 0.793143 0.500308 0.130281 0.260901 0.613012 0.870925 0.993372 0.959765 0.773939 0.464086 0.078781 0.320425 0.668751 0.908708 0.999765 0.925442 0.696590 0.350178 0.056378 0.454570 0.776238 0.965344 0.987956 0.838620 0.541938 0.148884 0.271715 0.645048 0.903689 0.999902 0.914767 0.662238 0.287263 0.141898 0.545866 0.848831 0.992884 0.949364 0.724937 0.361034 0.073436 0.494863 0.820999 0.987091 0.959031 0.740731 0.374131 0.068490 0.498487 0.828523 0.990436 0.949610 0.712786 0.327476 0.127160 0.556316 0.869254 0.998645 0.915399 0.635647 0.218115 0.247777 0.660856
1.000000 1.000000 1.000000 1.000000 1.000000 1.000000 1.000000 1.000000 1.000000 1.000000 1.000000 1.000000 1.000000 1.000000 1.000000 1.000000 1.000000 1.000000 1.000000 1.000000 1.000000 1.000000 1.000000 1.000000 1.000000 1.000000 1.000000 1.000000 1.000000 1.000000 1.000000 1.000000 1.000000 1.000000 1.000000 1.000000 1.000000 1.000000 1.000000 1.000000 1.000000 1.000000 1.000000 1.000000 1.000000 1.000000 1.000000 1.000000 1.000000 1.000000 1.000000 1.000000 0.923236 0.923236 0.923236 0.923236 0.923236 0.923236 0.923236 0.923236 0.923236 0.923236 0.923236 0.923236 0.923236 0.923236 0.923236 0.923236 0.923236 0.923236 0.923236 0.923236 0.923236 0.923236 0.923236 0.923236 0.923236 0.923236 0.923236 0.923236 0.923236 0.923236 0.923236 0.923236 0.923236 0.913300 0.911396 0.912557 0.911113 0.909651 0.909063 0.908671 0.909712 0.911317 0.913391 0.935020 0.938127 0.939370 0.940692 0.942062 0.944342 0.942185 0.949774 0.956283 0.955229 0.956374 0.950231 0.951630 0.950982 0.950249 0.951590 0.951713 0.950024 0.948011 0.946440 0.945892 0.945582 0.949160 0.949755 0.949916 0.950509 0.950456 0.951174 0.951784 0.949948 0.952219 0.944365 0.943025 0.948290 0.946215 0.947594 0.947558 0.948246 0.949053 0.949372 0.949642 0.946803 0.946355 0.945482 0.937306 0.930620 0.930196 0.932632 0.935888 0.933344 0.929956 0.931174 0.933440 0.932714 0.936337 0.926857 0.922601 0.897699 0.885178 0.874529 0.874869 0.878335 0.880838 0.878486 0.871318 0.861898 0.858033 0.857947 0.853968 0.846355 0.862239 0.856520 0.854308 0.858133 0.861260 0.866670 0.864157 0.859766 0.855121 0.850532 0.842307 0.843960 0.848137 0.852268 0.835803 0.826378 0.843387 0.833503 0.824306 0.831895 0.833820 0.830704 0.829500 0.830062 0.827911 0.821526 0.815210 0.818878 0.827810 0.827427 0.816629 0.813701 0.810208 0.809974 0.802278 0.806624 0.807383 0.803567 0.796753 0.813461 0.778794 0.801412 0.801146 0.785893 0.769767 0.757902 0.766880 0.777789 0.779647 0.773047 0.772317 0.771744 0.763861 0.736908 0.735665 0.742783 0.741055 0.728349 0.711523 0.718764 0.722420 0.718549 0.714283 0.717307 0.718808 0.692972 0.706260 0.710456 0.697883 0.712564 0.714829 0.705576 0.707978 0.710878 0.713598 0.709233 0.669682 0.672827 0.657950 0.651816 0.601486 0.600274 0.597949 0.539302 0.543402 0.510466 0.492987 0.493070 0.481611 0.534355 0.475216 0.463014 0.494683 0.421479 0.355914 0.371896 0.371484 0.385082 0.392769 0.375572 0.376116 0.361956 0.343131 0.346561 0.369932 0.385839 0.351558 0.354607 0.345346 0.318995 0.288825 0.305269 0.308733 0.332101 0.333621 0.311134 0.337743 0.381173 0.321942 0.299229 0.278868 0.299196 0.312638 0.316312 0.304630 0.292763 0.268980 0.250578 0.274884 0.274639 0.285172 0.304856 0.335357 0.330624 0.337116 0.364930 0.314424 0.332516 0.335829 0.325027 0.335288 0.338687 0.338993 0.330421 0.354933 0.333131 0.343950 0.329559 0.320726 0.373059 0.352666 0.325015 0.315243 0.321297 0.322262 0.300291 0.247097 0.233243 0.232124 0.173284 0.143315 0.144737 0.144890 0.101007 0.078545 0.062276 0.023782 0.023363 0.027629 0.061025 0.030464 0.051768 0.059540 0.059540 0.059540 0.059540 0.059540 0.059540 0.059540 0.059540 0.059540 0.059540 0.059540 0.059540 0.059540 0.059540 0.082558 0.082558 0.082558 0.082558 0.082558 0.082558 0.082558 0.082558 0.082558 0.082558 0.082558 0.082558
0.000000 0.000000 0.000000 0.000000 0.000000 0.000000 0.000000 0.000000 0.000000 0.000000 0.000000 0.000000 0.000000 0.000000 0.000000 0.000000 0.000000 0.000000 0.000000 0.000000 0.000000 0.000000 0.000000 0.000000 0.000000 0.000000 0.000000 0.000000 0.000000 0.000000 0.000000 0.000000 0.000000 0.000000 0.000000 0.000000 0.000000 0.000000 0.000000 0.000000 0.000000 0.000000 0.000000 0.000000 0.000000 0.000000 0.000000 0.000000 0.000000 0.000000 0.000000 0.000000 0.209657 0.209657 0.209657 0.209657 0.209657 0.209657 0.209657 0.209657 0.209657 0.209657 0.209657 0.209657 0.209657 0.209657 0.209657 0.209657 0.209657 0.209657 0.209657 0.209657 0.209657 0.209657 0.209657 0.209657 0.209657 0.209657 0.209657 0.209657 0.209657 0.209657 0.209657 0.209657 0.209657 0.244339 0.244339 0.244339 0.244339 0.244339 0.244339 0.244339 0.244339 0.244339 0.244339 0.244339 0.244339 0.244339 0.244339 0.244339 0.244339 0.244339 0.244339 0.244339 0.244339 0.244339 0.244339 0.244339 0.244339 0.244339 0.260378 0.260378 0.260378 0.260378 0.260378 0.260378 0.260378 0.260378 0.260378 0.260378 0.260378 0.260378 0.260378 0.260378 0.260378 0.260378 0.260378 0.260378 0.260378 0.260378 0.269680 0.269680 0.269680 0.269680 0.269680 0.269680 0.269680 0.269680 0.269680 0.269680 0.269680 0.269680 0.269680 0.269680 0.269680 0.269680 0.269680 0.269680 0.269680 0.269680 0.269680 0.269680 0.269680 0.269680 0.269680 0.269680 0.269680 0.269680 0.269680 0.269680 0.269680 0.269680 0.269680 0.280056 0.280056 0.280056 0.280056 0.280056 0.280056 0.280056 0.280056 0.280056 0.280056 0.280056 0.280056 0.280056 0.280056 0.280056 0.280056 0.280056 0.280056 0.280056 0.280056 0.280056 0.280056 0.280056 0.280056 0.280056 0.280056 0.280056 0.274721 0.274721 0.274721 0.274721 0.274721 0.274721 0.274721 0.274721 0.274721 0.274721 0.274721 0.274721 0.274721 0.285714 0.285714 0.285714 0.285714 0.285714 0.285714 0.285714 0.285714 0.285714 0.285714 0.285714 0.280056 0.280056 0.280056 0.280056 0.280056 0.280056 0.280056 0.280056 0.280056 0.280056 0.280056 0.274721 0.274721 0.274721 0.274721 0.274721 0.274721 0.274721 0.274721 0.274721 0.274721 0.274721 0.280056 0.280056 0.280056 0.280056 0.280056 0.280056 0.280056 0.280056 0.280056 0.280056 0.285714 0.285714 0.285714 0.285714 0.285714 0.285714 0.285714 0.285714 0.285714 0.269680 0.269680 0.269680 0.269680 0.269680 0.269680 0.269680 0.269680 0.269680 0.269680 0.274721 0.274721 0.274721 0.274721 0.274721 0.274721 0.274721 0.274721 0.274721 0.285714 0.285714 0.285714 0.285714 0.285714 0.285714 0.285714 0.285714 0.264906 0.264906 0.264906 0.264906 0.264906 0.264906 0.264906 0.264906 0.264906 0.274721 0.274721 0.274721 0.274721 0.274721 0.274721 0.274721 0.274721 0.269680 0.269680 0.269680 0.269680 0.269680 0.269680 0.269680 0.269680 0.269680 0.269680 0.269680 0.269680 0.269680 0.269680 0.269680 0.269680 0.280056 0.280056 0.280056 0.280056 0.280056 0.280056 0.280056 0.260378 0.260378 0.260378 0.260378 0.260378 0.260378 0.260378 0.260378 0.269680 0.269680 0.269680 0.269680 0.269680 0.269680 0.269680 0.264906 0.264906 0.264906 0.264906 0.264906 0.264906 0.264906 0.264906 0.264906 0.264906 0.264906 0.264906 0.264906 0.264906 0.260378 0.260378 0.260378 0.260378 0.260378 0.260378 0.260378 0.260378 0.260378 0.260378 0.260378 0.260378
