# Output from CTFFind version 4.1.9, run on 2019-11-03 20:08:47
# Input file: stack6_bm3d_averaged_1_6.5_0_2000_half.mrc ; Number of micrographs: 1
# Pixel size: 3.000 Angstroms ; acceleration voltage: 300.0 keV ; spherical aberration: 0.00 mm ; amplitude contrast: 0.07
# Box size: 512 pixels ; min. res.: 30.0 Angstroms ; max. res.: 5.0 Angstroms ; min. def.: 5000.0 um; max. def. 50000.0 um; num. frames averaged: 1
# 6 lines per micrograph: #1 - spatial frequency (1/Angstroms); #2 - 1D rotational average of spectrum (assuming no astigmatism); #3 - 1D rotational average of spectrum; #4 - CTF fit; #5 - cross-correlation between spectrum and CTF fit; #6 - 2sigma of expected cross correlation of noise
0.000000 0.000651 0.001302 0.001953 0.002604 0.003255 0.003906 0.004557 0.005208 0.005859 0.006510 0.007161 0.007812 0.008464 0.009115 0.009766 0.010417 0.011068 0.011719 0.012370 0.013021 0.013672 0.014323 0.014974 0.015625 0.016276 0.016927 0.017578 0.018229 0.018880 0.019531 0.020182 0.020833 0.021484 0.022135 0.022786 0.023438 0.024089 0.024740 0.025391 0.026042 0.026693 0.027344 0.027995 0.028646 0.029297 0.029948 0.030599 0.031250 0.031901 0.032552 0.033203 0.033854 0.034505 0.035156 0.035807 0.036458 0.037109 0.037760 0.038411 0.039062 0.039714 0.040365 0.041016 0.041667 0.042318 0.042969 0.043620 0.044271 0.044922 0.045573 0.046224 0.046875 0.047526 0.048177 0.048828 0.049479 0.050130 0.050781 0.051432 0.052083 0.052734 0.053385 0.054036 0.054688 0.055339 0.055990 0.056641 0.057292 0.057943 0.058594 0.059245 0.059896 0.060547 0.061198 0.061849 0.062500 0.063151 0.063802 0.064453 0.065104 0.065755 0.066406 0.067057 0.067708 0.068359 0.069010 0.069661 0.070312 0.070964 0.071615 0.072266 0.072917 0.073568 0.074219 0.074870 0.075521 0.076172 0.076823 0.077474 0.078125 0.078776 0.079427 0.080078 0.080729 0.081380 0.082031 0.082682 0.083333 0.083984 0.084635 0.085286 0.085938 0.086589 0.087240 0.087891 0.088542 0.089193 0.089844 0.090495 0.091146 0.091797 0.092448 0.093099 0.093750 0.094401 0.095052 0.095703 0.096354 0.097005 0.097656 0.098307 0.098958 0.099609 0.100260 0.100911 0.101562 0.102214 0.102865 0.103516 0.104167 0.104818 0.105469 0.106120 0.106771 0.107422 0.108073 0.108724 0.109375 0.110026 0.110677 0.111328 0.111979 0.112630 0.113281 0.113932 0.114583 0.115234 0.115885 0.116536 0.117188 0.117839 0.118490 0.119141 0.119792 0.120443 0.121094 0.121745 0.122396 0.123047 0.123698 0.124349 0.125000 0.125651 0.126302 0.126953 0.127604 0.128255 0.128906 0.129557 0.130208 0.130859 0.131510 0.132161 0.132812 0.133464 0.134115 0.134766 0.135417 0.136068 0.136719 0.137370 0.138021 0.138672 0.139323 0.139974 0.140625 0.141276 0.141927 0.142578 0.143229 0.143880 0.144531 0.145182 0.145833 0.146484 0.147135 0.147786 0.148438 0.149089 0.149740 0.150391 0.151042 0.151693 0.152344 0.152995 0.153646 0.154297 0.154948 0.155599 0.156250 0.156901 0.157552 0.158203 0.158854 0.159505 0.160156 0.160807 0.161458 0.162109 0.162760 0.163411 0.164062 0.164714 0.165365 0.166016 0.166667 0.167318 0.167969 0.168620 0.169271 0.169922 0.170573 0.171224 0.171875 0.172526 0.173177 0.173828 0.174479 0.175130 0.175781 0.176432 0.177083 0.177734 0.178385 0.179036 0.179688 0.180339 0.180990 0.181641 0.182292 0.182943 0.183594 0.184245 0.184896 0.185547 0.186198 0.186849 0.187500 0.188151 0.188802 0.189453 0.190104 0.190755 0.191406 0.192057 0.192708 0.193359 0.194010 0.194661 0.195312 0.195964 0.196615 0.197266 0.197917 0.198568 0.199219 0.199870 0.200521 0.201172 0.201823 0.202474 0.203125 0.203776 0.204427 0.205078 0.205729 0.206380 0.207031 0.207682 0.208333 0.208984 0.209635 0.210286 0.210938 0.211589 0.212240 0.212891 0.213542 0.214193 0.214844 0.215495 0.216146 0.216797 0.217448 0.218099 0.218750 0.219401 0.220052 0.220703 0.221354 0.222005 0.222656 0.223307 0.223958 0.224609 0.225260 0.225911 0.226562 0.227214 0.227865 0.228516 0.229167 0.229818 0.230469 0.231120 0.231771 0.232422 0.233073 0.233724 0.234375 0.235026 0.235677
       0.32391        0.32391        0.32391        0.32391        0.32391        0.32391        0.32391        0.32391        0.32391        0.32391        0.32391        0.32391        0.32391        0.32391        0.32391        0.32391        0.32391        0.32391        0.32391        0.32391        0.32391        0.32391        0.32391        0.32391        0.32391        0.32391        0.32391        0.32391        0.32391        0.32391        0.32391        0.32391        0.32391        0.32391        0.32391        0.32391        0.32391        0.32391        0.32391        0.32391        0.32391        0.32391        0.32391        0.32391        0.32391        0.32391        0.32391        0.32391        0.32391        0.32391        0.32391        0.59747        0.71435        0.36120        0.17645        0.13442       -0.13691        0.11105        0.03641        0.03913        0.09231        0.30817        0.31385        0.24051        0.14340       -0.03854       -0.01187        0.04735       -0.10506       -0.11189       -0.07484       -0.08596       -0.19278       -0.12478       -0.23671       -0.25502       -0.25104       -0.31221       -0.38665       -0.31912       -0.22649       -0.19474       -0.29888       -0.21939       -0.26606       -0.20773       -0.14008       -0.08379       -0.05216        0.00904        0.05183        0.14112        0.18298        0.22394        0.34281        0.40906        0.35828        0.47382        0.54539        0.55408        0.63381        0.56159        0.59169        0.60078        0.60628        0.60396        0.55661        0.58709        0.54446        0.39301        0.34283        0.37258        0.34425        0.20426        0.18653        0.15863        0.10342        0.10569        0.02880        0.08918        0.07033        0.03141        0.11789        0.17662        0.26791        0.35222        0.35656        0.38385        0.44856        0.48481        0.41893        0.64377        0.54478        0.48169        0.57147        0.50019        0.54853        0.51093        0.38023        0.31791        0.29875        0.25037        0.24038        0.20724        0.18746        0.15943        0.24412        0.22291        0.25315        0.22173        0.27191        0.32953        0.33780        0.44786        0.44159        0.42244        0.41928        0.47506        0.43500        0.42221        0.39980        0.40051        0.33724        0.28524        0.26303        0.26117        0.25987        0.20601        0.18599        0.24027        0.25258        0.28178        0.34938        0.37549        0.42273        0.40564        0.42991        0.47645        0.46458        0.42887        0.38726        0.41626        0.37439        0.32732        0.33534        0.32221        0.26466        0.28001        0.27698        0.24745        0.31467        0.29008        0.30807        0.32976        0.38937        0.41579        0.40954        0.43724        0.38289        0.42410        0.39590        0.31875        0.29338        0.25914        0.27436        0.24050        0.21299        0.30468        0.36397        0.32900        0.30177        0.35658        0.27907        0.33760        0.39257        0.38125        0.36344        0.38205        0.33816        0.35710        0.33562        0.29750        0.28457        0.25474        0.30828        0.32139        0.33569        0.35350        0.38445        0.37230        0.37268        0.32500        0.35211        0.35337        0.33595        0.32626        0.29358        0.28788        0.26203        0.33393        0.33442        0.33607        0.30614        0.34146        0.35302        0.33535        0.35301        0.33801        0.30430        0.29947        0.30267        0.27355        0.26049        0.25132        0.24931        0.26849        0.25852        0.29921        0.28157        0.32018        0.34425        0.26314        0.29728        0.28045        0.23067        0.28375        0.26584        0.26535        0.29402        0.31867        0.31791        0.30979        0.30860        0.30517        0.33376        0.34791        0.29452        0.32295        0.31737        0.36692        0.28382        0.27428        0.28011        0.30854        0.32620        0.34759        0.35481        0.30218        0.23230        0.29518        0.25782        0.25194        0.25460        0.25997        0.29546        0.22834        0.30070        0.32325        0.36019        0.31546        0.30159        0.26647        0.28808        0.28915        0.24903        0.27201        0.27463        0.29997        0.34512        0.33413        0.29004        0.30332        0.32804        0.26322        0.23233        0.18650        0.31627        0.33540        0.34718        0.32698        0.29804        0.23306        0.21450        0.25813        0.25864        0.26175        0.28058        0.28894        0.24295        0.26298        0.25420        0.30247        0.26880        0.26345        0.26581        0.25349        0.20041        0.25840        0.24480        0.22242        0.28123        0.24982        0.25890        0.21843        0.20389        0.26999        0.26119        0.25305        0.17609        0.15019        0.31571        0.22128        0.22585        0.27858        0.17176        0.16227        0.17490        0.25307        0.23509        0.13167       -0.06997       -0.59196       -0.93961
2.368783 2.348649 2.328604 2.308649 2.288783 2.269008 2.249322 2.229726 2.210219 2.190803 2.171476 2.152239 2.133091 2.114034 2.095066 2.076188 2.057399 2.038700 2.020092 2.001572 1.983143 1.964803 1.946553 1.928393 1.910323 1.892342 1.874451 1.856650 1.838938 1.821316 1.803784 1.786342 1.768990 1.751727 1.734554 1.717471 1.700477 1.683573 1.666759 1.650035 1.633400 1.616856 1.600401 1.584035 1.567760 1.551574 1.535478 1.519471 1.503555 1.487728 1.471991 1.832051 2.167530 1.501168 1.328519 1.091705 0.521966 0.922385 0.814526 0.838041 0.702517 1.397561 1.198298 1.212920 0.979489 0.614380 0.478476 0.747476 0.587113 0.266728 0.285867 0.484138 0.236918 0.258693 0.109884 -0.000917 -0.014936 -0.008536 -0.310487 -0.158060 0.005848 -0.015701 -0.089431 -0.016508 -0.117737 -0.101182 0.065489 0.180801 0.247446 0.278018 0.371225 0.615331 0.554608 0.644450 0.824257 1.040248 0.799310 1.233229 1.175152 1.247440 1.350895 1.247372 1.169617 1.344387 1.219851 1.345103 1.184173 1.159922 1.204250 0.955992 0.684862 0.737660 0.785782 0.483379 0.423094 0.364773 0.219860 0.195614 0.039787 0.206883 0.163862 0.038769 0.121334 0.229538 0.348352 0.606657 0.603255 0.593519 0.696898 0.877661 0.585438 1.022549 1.033414 0.765386 0.921155 0.761381 0.858170 0.896417 0.628545 0.396112 0.415866 0.359665 0.217734 0.211853 0.168055 -0.011832 0.226003 0.194695 0.249887 0.137805 0.257641 0.329115 0.283640 0.497376 0.598187 0.533405 0.362178 0.662654 0.553699 0.447908 0.522432 0.440413 0.289975 0.327557 0.128356 0.204066 0.033612 0.209799 -0.062641 0.057317 0.053679 0.252075 0.069608 0.391698 0.338751 0.392957 0.390608 0.407889 0.575714 0.405747 0.367645 0.420102 0.212193 0.343028 0.131585 0.268588 0.072758 0.107380 0.091725 0.076164 0.049473 0.161255 0.067146 0.156245 0.242355 0.282100 0.338043 0.270645 0.346134 0.262910 0.295914 0.179109 0.102062 0.027670 -0.010015 0.021134 -0.078741 -0.063138 0.119748 0.212120 0.067256 0.112068 0.115689 0.016342 0.180626 0.247156 0.189500 0.206335 0.137315 0.154674 0.115433 0.107042 0.052694 -0.080758 -0.016201 0.141904 0.030072 0.143443 0.120685 0.226978 0.201122 0.177479 0.117499 0.190595 0.105553 0.131645 0.109716 0.039365 -0.009035 0.004739 0.133655 0.132819 0.119441 0.058028 0.151815 0.133079 0.059036 0.139151 0.045122 -0.009504 0.024383 0.003527 -0.053370 -0.067720 -0.108232 -0.041756 -0.057493 -0.086400 0.019006 -0.011516 0.068423 0.088645 -0.083241 0.047469 -0.045217 -0.108358 0.037427 -0.050390 -0.070197 0.038320 0.086981 0.029758 0.062353 -0.036152 0.041432 0.158699 -0.001667 -0.023670 0.089819 0.043091 0.125820 -0.073355 -0.040084 -0.024544 0.075002 0.047434 0.081927 0.144419 -0.014101 -0.097224 0.010270 -0.060088 -0.064946 -0.049941 -0.058311 0.029533 -0.167153 0.112027 0.090485 0.181645 0.040928 0.012147 0.001911 0.023098 0.072428 -0.058817 0.028264 0.009618 0.087926 0.120329 0.164110 0.059402 0.118051 0.176830 -0.037982 0.000448 -0.152493 0.197109 0.156280 0.190007 0.146023 0.053559 -0.048458 -0.083187 -0.016986 0.000239 -0.003925 0.035976 0.071101 -0.054433 -0.002280 0.055326 0.084005 0.053958 0.034189 0.061019 -0.038024 -0.043223 0.036008 0.013987 -0.050095 0.108501 0.017232 -0.004804 0.009368 -0.040607 0.093468 0.130912 0.033257 -0.076501 -0.254094 0.329239 0.496701 0.389280 0.557122 0.269088 0.307444 0.307552 0.537343 0.444508 0.198136 0.140293 -0.870557
0.072396 0.072838 0.074163 0.076371 0.079462 0.083435 0.088289 0.094022 0.100634 0.108122 0.116484 0.125716 0.135815 0.146776 0.158594 0.171262 0.184772 0.199116 0.214282 0.230259 0.247032 0.264586 0.282903 0.301961 0.321739 0.342209 0.363344 0.385111 0.407474 0.430396 0.453833 0.477738 0.502061 0.526747 0.551735 0.576960 0.602354 0.627843 0.653346 0.678779 0.704051 0.729069 0.753731 0.777931 0.801559 0.824499 0.846629 0.867825 0.887956 0.906890 0.924488 0.940610 0.955112 0.967851 0.978680 0.987451 0.994019 0.998237 0.999964 0.999060 0.995388 0.988821 0.979236 0.966518 0.950564 0.931282 0.908590 0.882425 0.852736 0.819493 0.782682 0.742313 0.698416 0.651047 0.600285 0.546238 0.489041 0.428857 0.365881 0.300336 0.232478 0.162594 0.091002 0.018050 0.055883 0.130388 0.205031 0.279348 0.352856 0.425047 0.495396 0.563366 0.628407 0.689964 0.747479 0.800402 0.848190 0.890315 0.926273 0.955588 0.977820 0.992569 0.999485 0.998277 0.988713 0.970632 0.943948 0.908657 0.864842 0.812675 0.752424 0.684454 0.609231 0.527317 0.439375 0.346165 0.248540 0.147440 0.043885 0.061028 0.166143 0.270251 0.372106 0.470437 0.563965 0.651424 0.731572 0.803218 0.865233 0.916578 0.956321 0.983654 0.997916 0.998607 0.985407 0.958192 0.917039 0.862242 0.794319 0.714007 0.622269 0.520285 0.409446 0.291336 0.167716 0.040506 0.088250 0.216406 0.341757 0.462066 0.575119 0.678750 0.770902 0.849658 0.913296 0.960323 0.989521 0.999980 0.991137 0.962795 0.915150 0.848800 0.764752 0.664419 0.549605 0.422480 0.285552 0.141622 0.006269 0.154897 0.300927 0.440980 0.571721 0.689935 0.792613 0.877034 0.940842 0.982127 0.999484 0.992074 0.959665 0.902665 0.822136 0.719788 0.597962 0.459586 0.308120 0.147478 0.018066 0.183983 0.345614 0.498297 0.637510 0.759000 0.858929 0.934004 0.981593 0.999836 0.987727 0.945176 0.873050 0.773168 0.648289 0.502048 0.338864 0.163824 0.017463 0.199040 0.374797 0.538674 0.684877 0.808085 0.903659 0.967832 0.997874 0.992225 0.950588 0.873990 0.764777 0.626575 0.464192 0.283467 0.091080 0.105682 0.299199 0.481803 0.646095 0.785242 0.893285 0.965408 0.998170 0.989698 0.939809 0.850073 0.723801 0.565943 0.382939 0.182460 0.026882 0.235900 0.435226 0.615737 0.768976 0.887568 0.965597 0.998919 0.985421 0.925170 0.820481 0.675864 0.497862 0.294798 0.076395 0.146661 0.363236 0.562304 0.733521 0.867767 0.957665 0.998014 0.986118 0.922006 0.808499 0.651135 0.457938 0.239048 0.006209 0.227834 0.450029 0.647754 0.809529 0.925727 0.989163 0.995583 0.943987 0.836772 0.679681 0.481538 0.253798 0.009912 0.235431 0.467203 0.670938 0.833664 0.944749 0.996643 0.985427 0.911160 0.777971 0.593885 0.370404 0.121820 0.135662 0.384967 0.609279 0.793179 0.923751 0.991510 0.991152 0.922021 0.788260 0.598637 0.366026 0.106581 0.161341 0.418481 0.646035 0.827068 0.947796 0.998685 0.975268 0.878586 0.715243 0.497021 0.240102 0.036101 0.310362 0.561273 0.768927 0.916516 0.991754 0.987952 0.904681 0.747947 0.529842 0.267673 0.017345 0.301778 0.561874 0.775578 0.924413 0.995148 0.981031 0.882517 0.707374 0.470168 0.191118 0.105567 0.393759 0.647693 0.844311 0.965377 0.999256 0.942097 0.798357 0.580554 0.308267 0.006448 0.296823 0.572914 0.795383 0.942524 0.999570 0.960250 0.827572 0.613716 0.339009 0.030078 0.282680 0.568056 0.797160 0.946401 0.999962
1.000000 1.000000 1.000000 1.000000 1.000000 1.000000 1.000000 1.000000 1.000000 1.000000 1.000000 1.000000 1.000000 1.000000 1.000000 1.000000 1.000000 1.000000 1.000000 1.000000 1.000000 1.000000 1.000000 1.000000 1.000000 1.000000 1.000000 1.000000 1.000000 1.000000 1.000000 1.000000 1.000000 1.000000 1.000000 1.000000 1.000000 1.000000 1.000000 1.000000 1.000000 1.000000 1.000000 1.000000 1.000000 1.000000 1.000000 1.000000 1.000000 1.000000 1.000000 1.000000 0.777591 0.777591 0.777591 0.777591 0.777591 0.777591 0.777591 0.759995 0.759995 0.759995 0.759995 0.759995 0.759995 0.759995 0.759995 0.759995 0.759995 0.759995 0.759995 0.759995 0.759995 0.759995 0.759995 0.759995 0.759995 0.759995 0.759995 0.759995 0.759995 0.759995 0.759995 0.759995 0.759995 0.759995 0.759995 0.759995 0.759995 0.759995 0.759995 0.759995 0.759995 0.759995 0.759995 0.759995 0.759995 0.759995 0.759995 0.759995 0.759995 0.759995 0.759995 0.902150 0.903589 0.906589 0.901988 0.903904 0.901763 0.895325 0.898259 0.898074 0.897897 0.898951 0.900582 0.902563 0.909892 0.918794 0.920668 0.927671 0.931127 0.932262 0.932137 0.930782 0.938276 0.935820 0.934059 0.922161 0.925526 0.927403 0.928338 0.927151 0.927268 0.928521 0.929154 0.927050 0.925239 0.923063 0.921295 0.923043 0.922648 0.922833 0.922995 0.923170 0.923071 0.923650 0.919795 0.922052 0.920929 0.917352 0.913944 0.913465 0.914536 0.912886 0.909685 0.904011 0.910285 0.910706 0.910858 0.909748 0.910655 0.911036 0.911757 0.912360 0.909722 0.909766 0.907369 0.909215 0.905585 0.901232 0.896436 0.896502 0.898120 0.904661 0.906734 0.905561 0.903272 0.896823 0.887417 0.886466 0.873566 0.841906 0.843745 0.847135 0.849464 0.850387 0.849905 0.847221 0.842367 0.832619 0.822949 0.827278 0.828133 0.819937 0.813681 0.814457 0.813844 0.821134 0.825528 0.817862 0.815258 0.814717 0.810676 0.810436 0.811262 0.808637 0.802998 0.805644 0.813834 0.814328 0.800658 0.794846 0.792065 0.776400 0.780789 0.787202 0.791442 0.792990 0.789473 0.777003 0.774892 0.768705 0.779136 0.787871 0.786392 0.781839 0.762711 0.719981 0.708436 0.689716 0.692249 0.693636 0.668919 0.666270 0.667592 0.672472 0.619648 0.602979 0.590618 0.590527 0.597850 0.602741 0.596395 0.564947 0.582950 0.580571 0.565341 0.561350 0.535023 0.519560 0.489066 0.491723 0.489741 0.475895 0.451934 0.446347 0.463404 0.472989 0.469849 0.467422 0.438678 0.418654 0.421177 0.416912 0.418739 0.420841 0.429381 0.379493 0.355644 0.339310 0.365878 0.367454 0.366462 0.378877 0.376436 0.371970 0.350181 0.331039 0.314424 0.327342 0.347376 0.354073 0.357366 0.322055 0.308677 0.287822 0.293406 0.337390 0.324711 0.334893 0.333615 0.338294 0.364567 0.342977 0.320098 0.297375 0.339727 0.332728 0.314662 0.293337 0.302261 0.321600 0.323139 0.318501 0.311420 0.359299 0.386435 0.373307 0.376168 0.343174 0.371612 0.411182 0.401247 0.402427 0.416364 0.415559 0.398219 0.353691 0.335417 0.336365 0.311684 0.308675 0.291905 0.277224 0.268502 0.278286 0.300493 0.306013 0.339444 0.313200 0.278208 0.184036 0.254357 0.172790 0.178731 0.178731 0.178731 0.178731 0.178731 0.178731 0.178731 0.178731 0.203103 0.203103 0.203103 0.203103 0.203103 0.203103 0.203103 0.203103 0.203103 0.203103 0.203103 0.203103 0.203103 0.203103 0.203103 0.203103 0.203103 0.203103 0.203103 0.203103 0.203103
0.000000 0.000000 0.000000 0.000000 0.000000 0.000000 0.000000 0.000000 0.000000 0.000000 0.000000 0.000000 0.000000 0.000000 0.000000 0.000000 0.000000 0.000000 0.000000 0.000000 0.000000 0.000000 0.000000 0.000000 0.000000 0.000000 0.000000 0.000000 0.000000 0.000000 0.000000 0.000000 0.000000 0.000000 0.000000 0.000000 0.000000 0.000000 0.000000 0.000000 0.000000 0.000000 0.000000 0.000000 0.000000 0.000000 0.000000 0.000000 0.000000 0.000000 0.000000 0.000000 0.173422 0.173422 0.173422 0.173422 0.173422 0.173422 0.173422 0.191565 0.191565 0.191565 0.191565 0.191565 0.191565 0.191565 0.191565 0.191565 0.191565 0.191565 0.191565 0.191565 0.191565 0.191565 0.191565 0.191565 0.191565 0.191565 0.191565 0.191565 0.191565 0.191565 0.191565 0.191565 0.191565 0.191565 0.191565 0.191565 0.191565 0.191565 0.191565 0.191565 0.191565 0.191565 0.191565 0.191565 0.191565 0.191565 0.191565 0.191565 0.191565 0.191565 0.191565 0.222222 0.222222 0.222222 0.222222 0.222222 0.222222 0.222222 0.222222 0.222222 0.222222 0.222222 0.222222 0.222222 0.222222 0.222222 0.222222 0.222222 0.222222 0.222222 0.222222 0.222222 0.222222 0.222222 0.222222 0.222222 0.222222 0.222222 0.222222 0.222222 0.222222 0.234082 0.234082 0.234082 0.234082 0.234082 0.234082 0.234082 0.234082 0.234082 0.234082 0.234082 0.234082 0.234082 0.234082 0.234082 0.234082 0.234082 0.234082 0.234082 0.234082 0.234082 0.234082 0.234082 0.234082 0.234082 0.244339 0.244339 0.244339 0.244339 0.244339 0.244339 0.244339 0.244339 0.244339 0.244339 0.244339 0.244339 0.244339 0.244339 0.244339 0.244339 0.244339 0.244339 0.244339 0.244339 0.244339 0.248069 0.248069 0.248069 0.248069 0.248069 0.248069 0.248069 0.248069 0.248069 0.248069 0.248069 0.248069 0.248069 0.248069 0.248069 0.248069 0.248069 0.248069 0.248069 0.256074 0.256074 0.256074 0.256074 0.256074 0.256074 0.256074 0.256074 0.256074 0.256074 0.256074 0.256074 0.256074 0.256074 0.256074 0.256074 0.256074 0.256074 0.256074 0.256074 0.256074 0.256074 0.256074 0.256074 0.256074 0.256074 0.256074 0.256074 0.256074 0.256074 0.256074 0.256074 0.256074 0.256074 0.256074 0.256074 0.256074 0.256074 0.256074 0.256074 0.256074 0.256074 0.256074 0.256074 0.256074 0.256074 0.256074 0.256074 0.256074 0.256074 0.256074 0.256074 0.256074 0.256074 0.256074 0.256074 0.256074 0.256074 0.256074 0.256074 0.256074 0.256074 0.260378 0.260378 0.260378 0.260378 0.260378 0.260378 0.260378 0.260378 0.260378 0.260378 0.260378 0.260378 0.260378 0.256074 0.256074 0.256074 0.256074 0.256074 0.256074 0.256074 0.256074 0.256074 0.256074 0.256074 0.256074 0.256074 0.260378 0.260378 0.260378 0.260378 0.260378 0.260378 0.260378 0.260378 0.260378 0.260378 0.260378 0.260378 0.251976 0.251976 0.251976 0.251976 0.251976 0.251976 0.251976 0.251976 0.251976 0.251976 0.251976 0.251976 0.256074 0.256074 0.256074 0.256074 0.256074 0.256074 0.256074 0.256074 0.256074 0.256074 0.256074 0.251976 0.251976 0.251976 0.251976 0.251976 0.251976 0.251976 0.251976 0.251976 0.251976 0.251976 0.260378 0.260378 0.260378 0.260378 0.260378 0.260378 0.260378 0.260378 0.260378 0.260378 0.244339 0.244339 0.244339 0.244339 0.244339 0.244339 0.244339 0.244339 0.244339 0.244339 0.244339 0.244339 0.244339 0.244339 0.244339 0.244339 0.244339 0.244339 0.244339 0.244339 0.244339
