# Output from CTFFind version 4.1.9, run on 2019-11-04 22:09:16
# Input file: stack6_bm3d_averaged_1_0_0_2500_half.mrc ; Number of micrographs: 1
# Pixel size: 3.000 Angstroms ; acceleration voltage: 300.0 keV ; spherical aberration: 0.00 mm ; amplitude contrast: 0.07
# Box size: 512 pixels ; min. res.: 30.0 Angstroms ; max. res.: 5.0 Angstroms ; min. def.: 5000.0 um; max. def. 50000.0 um; num. frames averaged: 1
# 6 lines per micrograph: #1 - spatial frequency (1/Angstroms); #2 - 1D rotational average of spectrum (assuming no astigmatism); #3 - 1D rotational average of spectrum; #4 - CTF fit; #5 - cross-correlation between spectrum and CTF fit; #6 - 2sigma of expected cross correlation of noise
0.000000 0.000651 0.001302 0.001953 0.002604 0.003255 0.003906 0.004557 0.005208 0.005859 0.006510 0.007161 0.007812 0.008464 0.009115 0.009766 0.010417 0.011068 0.011719 0.012370 0.013021 0.013672 0.014323 0.014974 0.015625 0.016276 0.016927 0.017578 0.018229 0.018880 0.019531 0.020182 0.020833 0.021484 0.022135 0.022786 0.023438 0.024089 0.024740 0.025391 0.026042 0.026693 0.027344 0.027995 0.028646 0.029297 0.029948 0.030599 0.031250 0.031901 0.032552 0.033203 0.033854 0.034505 0.035156 0.035807 0.036458 0.037109 0.037760 0.038411 0.039062 0.039714 0.040365 0.041016 0.041667 0.042318 0.042969 0.043620 0.044271 0.044922 0.045573 0.046224 0.046875 0.047526 0.048177 0.048828 0.049479 0.050130 0.050781 0.051432 0.052083 0.052734 0.053385 0.054036 0.054688 0.055339 0.055990 0.056641 0.057292 0.057943 0.058594 0.059245 0.059896 0.060547 0.061198 0.061849 0.062500 0.063151 0.063802 0.064453 0.065104 0.065755 0.066406 0.067057 0.067708 0.068359 0.069010 0.069661 0.070312 0.070964 0.071615 0.072266 0.072917 0.073568 0.074219 0.074870 0.075521 0.076172 0.076823 0.077474 0.078125 0.078776 0.079427 0.080078 0.080729 0.081380 0.082031 0.082682 0.083333 0.083984 0.084635 0.085286 0.085938 0.086589 0.087240 0.087891 0.088542 0.089193 0.089844 0.090495 0.091146 0.091797 0.092448 0.093099 0.093750 0.094401 0.095052 0.095703 0.096354 0.097005 0.097656 0.098307 0.098958 0.099609 0.100260 0.100911 0.101562 0.102214 0.102865 0.103516 0.104167 0.104818 0.105469 0.106120 0.106771 0.107422 0.108073 0.108724 0.109375 0.110026 0.110677 0.111328 0.111979 0.112630 0.113281 0.113932 0.114583 0.115234 0.115885 0.116536 0.117188 0.117839 0.118490 0.119141 0.119792 0.120443 0.121094 0.121745 0.122396 0.123047 0.123698 0.124349 0.125000 0.125651 0.126302 0.126953 0.127604 0.128255 0.128906 0.129557 0.130208 0.130859 0.131510 0.132161 0.132812 0.133464 0.134115 0.134766 0.135417 0.136068 0.136719 0.137370 0.138021 0.138672 0.139323 0.139974 0.140625 0.141276 0.141927 0.142578 0.143229 0.143880 0.144531 0.145182 0.145833 0.146484 0.147135 0.147786 0.148438 0.149089 0.149740 0.150391 0.151042 0.151693 0.152344 0.152995 0.153646 0.154297 0.154948 0.155599 0.156250 0.156901 0.157552 0.158203 0.158854 0.159505 0.160156 0.160807 0.161458 0.162109 0.162760 0.163411 0.164062 0.164714 0.165365 0.166016 0.166667 0.167318 0.167969 0.168620 0.169271 0.169922 0.170573 0.171224 0.171875 0.172526 0.173177 0.173828 0.174479 0.175130 0.175781 0.176432 0.177083 0.177734 0.178385 0.179036 0.179688 0.180339 0.180990 0.181641 0.182292 0.182943 0.183594 0.184245 0.184896 0.185547 0.186198 0.186849 0.187500 0.188151 0.188802 0.189453 0.190104 0.190755 0.191406 0.192057 0.192708 0.193359 0.194010 0.194661 0.195312 0.195964 0.196615 0.197266 0.197917 0.198568 0.199219 0.199870 0.200521 0.201172 0.201823 0.202474 0.203125 0.203776 0.204427 0.205078 0.205729 0.206380 0.207031 0.207682 0.208333 0.208984 0.209635 0.210286 0.210938 0.211589 0.212240 0.212891 0.213542 0.214193 0.214844 0.215495 0.216146 0.216797 0.217448 0.218099 0.218750 0.219401 0.220052 0.220703 0.221354 0.222005 0.222656 0.223307 0.223958 0.224609 0.225260 0.225911 0.226562 0.227214 0.227865 0.228516 0.229167 0.229818 0.230469 0.231120 0.231771 0.232422 0.233073 0.233724 0.234375 0.235026 0.235677
       0.31433        0.31433        0.31433        0.31433        0.31433        0.31433        0.31433        0.31433        0.31433        0.31433        0.31433        0.31433        0.31433        0.31433        0.31433        0.31433        0.31433        0.31433        0.31433        0.31433        0.31433        0.31433        0.31433        0.31433        0.31433        0.31433        0.31433        0.31433        0.31433        0.31433        0.31433        0.31433        0.31433        0.31433        0.31433        0.31433        0.31433        0.31433        0.31433        0.31433        0.31433        0.31433        0.31433        0.31433        0.31433        0.31433        0.31433        0.31433        0.31433        0.31433        0.31433        0.63866        0.82427        0.41890        0.31492        0.19331       -0.10237        0.11426       -0.00084        0.03667        0.12075        0.33932        0.42882        0.41228        0.22792       -0.00763        0.04987        0.07442       -0.16163       -0.17478       -0.08707       -0.10436       -0.29011       -0.18491       -0.30027       -0.25282       -0.28152       -0.39676       -0.47440       -0.47715       -0.41978       -0.33572       -0.43792       -0.36587       -0.40504       -0.34650       -0.27126       -0.19627       -0.19038       -0.13307       -0.09436        0.03709        0.08699        0.25018        0.28218        0.37312        0.40374        0.52033        0.58985        0.60766        0.74493        0.70269        0.74255        0.65050        0.66877        0.70100        0.63638        0.61709        0.61113        0.43914        0.40333        0.36336        0.32537        0.22461        0.13850        0.06227        0.06238       -0.00110       -0.07709       -0.03250       -0.02959       -0.06636        0.06363        0.16808        0.25706        0.32444        0.34058        0.43578        0.54884        0.59302        0.54732        0.66883        0.56753        0.54729        0.60054        0.64637        0.53403        0.46042        0.41124        0.37631        0.25355        0.21966        0.13261        0.11798        0.05899        0.06477        0.11455        0.17207        0.14797        0.18052        0.21902        0.24298        0.33820        0.46181        0.49941        0.50103        0.52450        0.57850        0.57065        0.52684        0.42872        0.38812        0.36932        0.27238        0.25147        0.22107        0.20891        0.20967        0.18762        0.16080        0.12604        0.19369        0.25329        0.35189        0.38577        0.40672        0.46383        0.53944        0.48103        0.48460        0.42173        0.40206        0.38559        0.36614        0.29282        0.26248        0.20515        0.23629        0.22061        0.19402        0.21852        0.22550        0.24530        0.29936        0.40347        0.40446        0.37214        0.39332        0.45873        0.48752        0.42853        0.35693        0.33003        0.28714        0.26418        0.24647        0.21303        0.28755        0.29549        0.29695        0.31949        0.31366        0.35355        0.37254        0.37601        0.37775        0.35811        0.32116        0.33893        0.32086        0.30248        0.28156        0.27403        0.22118        0.27524        0.27587        0.30568        0.32505        0.34715        0.37739        0.34305        0.32307        0.35949        0.37266        0.27233        0.29950        0.30676        0.24544        0.21525        0.26009        0.27089        0.27862        0.30154        0.30745        0.33748        0.33821        0.36654        0.33160        0.32692        0.31219        0.29512        0.27613        0.25150        0.25681        0.25974        0.27485        0.30062        0.29586        0.30376        0.31621        0.32955        0.26679        0.30853        0.27131        0.26748        0.28249        0.26686        0.26272        0.26880        0.31438        0.28999        0.32327        0.28874        0.27725        0.30710        0.31211        0.33224        0.31789        0.29620        0.25894        0.27539        0.27992        0.27094        0.31296        0.31724        0.34261        0.32369        0.30487        0.26534        0.28318        0.21289        0.20924        0.23778        0.26280        0.25373        0.29313        0.30951        0.29390        0.34884        0.31461        0.27111        0.23986        0.23819        0.28496        0.30911        0.30716        0.26741        0.27753        0.25599        0.32747        0.29047        0.25303        0.27059        0.25696        0.29282        0.25247        0.29281        0.32876        0.28681        0.22059        0.23004        0.28429        0.32724        0.28450        0.27046        0.24776        0.27549        0.28951        0.37233        0.30149        0.28852        0.25692        0.27062        0.22872        0.17811        0.25646        0.23920        0.21401        0.19658        0.19810        0.23633        0.23314        0.24381        0.19157        0.24903        0.22627        0.20394        0.17825        0.17530        0.20158        0.23905        0.15550        0.07347        0.18610        0.20501        0.16081        0.25362        0.14576        0.21874        0.22717       -0.07515       -0.45680       -0.89613
2.859903 2.831777 2.803795 2.775958 2.748266 2.720718 2.693315 2.666056 2.638942 2.611973 2.585148 2.558468 2.531933 2.505542 2.479295 2.453194 2.427237 2.401424 2.375756 2.350233 2.324854 2.299620 2.274531 2.249586 2.224786 2.200130 2.175619 2.151253 2.127031 2.102954 2.079021 2.055234 2.031590 2.008092 1.984737 1.961528 1.938463 1.915543 1.892767 1.870136 1.847650 1.825308 1.803111 1.781058 1.759150 1.737387 1.715768 1.694294 1.672964 1.651779 1.630739 1.928863 2.289507 1.704548 1.748344 1.387581 0.949155 1.204156 1.035011 1.068069 1.036019 1.497733 1.526728 1.555176 1.284622 0.947949 0.827047 1.013253 0.722878 0.497852 0.584392 0.682111 0.421827 0.491198 0.324631 0.372549 0.247347 0.165740 -0.038705 -0.002062 0.024575 0.079034 0.037624 0.070430 -0.038294 0.025942 0.113562 0.226464 0.289488 0.207782 0.317128 0.547991 0.454150 0.728659 0.789950 0.883836 0.912470 1.121857 1.143891 1.176125 1.336495 1.241353 1.379790 1.184654 1.120772 1.303853 1.149665 1.058101 1.129289 0.893265 0.749046 0.685067 0.675217 0.459421 0.401065 0.258784 0.234649 0.086911 -0.010545 0.083545 0.025000 -0.063896 0.114783 0.252504 0.306662 0.468914 0.490375 0.563193 0.724745 0.822393 0.667852 0.957544 0.798533 0.672831 0.770206 0.810679 0.713952 0.640398 0.452316 0.501503 0.280539 0.198944 0.140490 0.004054 -0.020260 -0.099735 -0.012811 0.025985 0.096598 -0.055288 0.249121 0.096350 0.212757 0.382073 0.444920 0.533727 0.442411 0.586836 0.611506 0.520304 0.394185 0.335945 0.325075 0.153447 0.128694 0.023502 0.087478 0.038762 -0.001860 -0.021514 -0.126904 -0.012319 0.022109 0.112775 0.295848 0.200246 0.353621 0.371519 0.427781 0.434159 0.369976 0.322512 0.227750 0.303639 0.165959 0.153597 0.013371 0.044332 0.064749 -0.028365 -0.013550 0.012918 0.055782 0.073200 0.206694 0.309130 0.238684 0.208287 0.377556 0.409962 0.350260 0.241304 0.177807 0.155632 0.082079 0.076404 0.016303 0.018983 0.137319 0.049563 0.190175 0.095032 0.137824 0.232395 0.208170 0.222048 0.211160 0.194158 0.124808 0.163123 0.122913 0.096363 0.106166 0.001047 0.031205 0.088320 0.049203 0.148567 0.124096 0.208053 0.205456 0.139046 0.125045 0.228477 0.119781 0.077024 0.087128 0.052373 0.000053 -0.028123 0.037349 0.068258 0.025972 0.113448 0.106420 0.124838 0.127076 0.179383 0.114333 0.078291 0.096330 0.078931 0.012660 0.012516 0.027552 -0.007610 0.062630 0.098948 0.055312 0.066225 0.138972 0.087290 0.013872 0.113020 0.021647 0.035186 0.064563 0.019384 0.013867 0.057759 0.087310 0.038388 0.113469 0.059784 0.014559 0.122790 0.074632 0.093921 0.094443 0.030309 -0.000897 0.014969 0.056913 0.026941 0.059971 0.102642 0.111110 0.051612 0.131445 0.005504 0.030388 -0.085336 -0.012056 -0.049550 0.018905 0.017721 0.048057 0.066298 0.081694 0.122191 0.028334 0.006212 -0.057350 -0.072536 0.069857 0.049297 0.063133 -0.015304 0.001873 -0.034293 0.076626 0.040609 -0.045625 -0.001152 -0.056213 0.042526 -0.032838 0.042970 0.070809 -0.005920 -0.062432 -0.054969 0.111923 0.040728 0.014805 -0.007196 -0.054882 0.056566 0.055284 0.157450 0.046198 0.013571 0.018176 0.060859 -0.071107 -0.067099 0.039898 0.016535 -0.033300 -0.050440 -0.061720 0.070851 -0.067491 0.053254 -0.020909 0.093137 -0.037298 0.026794 -0.113713 -0.032202 -0.059204 0.082775 -0.052069 -0.145354 0.254152 0.304022 0.227883 0.430668 0.163526 0.288324 0.405196 -0.104230 -1.259052
0.072396 0.072834 0.074148 0.076337 0.079402 0.083341 0.088153 0.093838 0.100394 0.107818 0.116109 0.125263 0.135276 0.146145 0.157863 0.170425 0.183822 0.198046 0.213087 0.228932 0.245568 0.262980 0.281149 0.300057 0.319679 0.339991 0.360965 0.382569 0.404769 0.427528 0.450802 0.474548 0.498714 0.523247 0.548089 0.573176 0.598441 0.623811 0.649208 0.674550 0.699748 0.724710 0.749337 0.773525 0.797167 0.820148 0.842350 0.863650 0.883922 0.903032 0.920848 0.937230 0.952038 0.965129 0.976359 0.985583 0.992656 0.997434 0.999776 0.999543 0.996600 0.990819 0.982075 0.970255 0.955253 0.936974 0.915337 0.890272 0.861725 0.829662 0.794063 0.754931 0.712290 0.666187 0.616692 0.563904 0.507946 0.448972 0.387162 0.322728 0.255912 0.186986 0.116254 0.044049 0.029265 0.103296 0.177621 0.251796 0.325349 0.397788 0.468601 0.537261 0.603230 0.665961 0.724905 0.779514 0.829248 0.873580 0.912001 0.944030 0.969216 0.987146 0.997455 0.999826 0.994005 0.979803 0.957099 0.925853 0.886107 0.837989 0.781722 0.717619 0.646093 0.567654 0.482909 0.392563 0.297412 0.198343 0.096325 0.007596 0.112307 0.216640 0.319382 0.419287 0.515098 0.605554 0.689414 0.765473 0.832581 0.889662 0.935734 0.969930 0.991515 0.999902 0.994675 0.975598 0.942632 0.895943 0.835912 0.763140 0.678445 0.582868 0.477654 0.364257 0.244311 0.119617 0.007878 0.136116 0.262950 0.386188 0.503627 0.613090 0.712475 0.799792 0.873213 0.931110 0.972097 0.995069 0.999240 0.984168 0.949783 0.896402 0.824744 0.735929 0.631469 0.513259 0.383544 0.244889 0.100132 0.047663 0.195279 0.339401 0.476700 0.603906 0.717889 0.815746 0.894873 0.953050 0.988507 0.999987 0.986801 0.948866 0.886731 0.801588 0.695268 0.570207 0.429416 0.276410 0.115131 0.050138 0.214895 0.374527 0.524450 0.660233 0.777742 0.873274 0.943678 0.986476 0.999961 0.983278 0.936480 0.860562 0.757456 0.630009 0.481919 0.317646 0.142284 0.038576 0.219029 0.393036 0.554631 0.698133 0.818350 0.910776 0.971779 0.998762 0.990285 0.946158 0.867492 0.756697 0.617432 0.454511 0.273755 0.081797 0.114147 0.306543 0.487829 0.650711 0.788470 0.895250 0.966326 0.998329 0.989434 0.939481 0.850032 0.724356 0.567344 0.385338 0.185906 0.022462 0.230703 0.429570 0.610037 0.763736 0.883334 0.962929 0.998345 0.987394 0.930026 0.828398 0.686834 0.511669 0.311006 0.094357 0.127784 0.344442 0.544701 0.718260 0.855980 0.950384 0.996093 0.990167 0.932324 0.825028 0.673428 0.485159 0.269983 0.039316 0.194357 0.418150 0.619489 0.786828 0.910335 0.982494 0.998606 0.957125 0.859841 0.711849 0.521337 0.299177 0.058333 0.186874 0.421594 0.631358 0.802981 0.925419 0.990504 0.993544 0.933701 0.814139 0.641916 0.427629 0.184795 0.070959 0.322890 0.554213 0.749254 0.894508 0.979629 0.998203 0.948290 0.832662 0.658713 0.438064 0.185814 0.080435 0.341790 0.579407 0.775846 0.916399 0.990217 0.991208 0.918602 0.777122 0.576758 0.332121 0.061429 0.214803 0.475322 0.699749 0.870218 0.972821 0.998816 0.945425 0.816191 0.620829 0.374574 0.097042 0.189277 0.460828 0.694916 0.871650 0.975656 0.997487 0.934551 0.791482 0.579881 0.317468 0.026649 0.267336 0.538611 0.762925 0.919867 0.994776 0.980183 0.876640 0.692829 0.444929 0.155281 0.149589 0.441343 0.692478 0.878930 0.982454 0.992463 0.907213 0.734142 0.489320 0.196063 0.117234 0.419802 0.681513 0.875906
1.000000 1.000000 1.000000 1.000000 1.000000 1.000000 1.000000 1.000000 1.000000 1.000000 1.000000 1.000000 1.000000 1.000000 1.000000 1.000000 1.000000 1.000000 1.000000 1.000000 1.000000 1.000000 1.000000 1.000000 1.000000 1.000000 1.000000 1.000000 1.000000 1.000000 1.000000 1.000000 1.000000 1.000000 1.000000 1.000000 1.000000 1.000000 1.000000 1.000000 1.000000 1.000000 1.000000 1.000000 1.000000 1.000000 1.000000 1.000000 1.000000 1.000000 1.000000 1.000000 0.834575 0.834575 0.834575 0.834575 0.834575 0.834575 0.834575 0.811946 0.811946 0.811946 0.811946 0.811946 0.811946 0.811946 0.811946 0.811946 0.811946 0.811946 0.811946 0.811946 0.811946 0.811946 0.811946 0.811946 0.811946 0.811946 0.811946 0.811946 0.811946 0.811946 0.811946 0.811946 0.811946 0.811946 0.811946 0.811946 0.811946 0.811946 0.811946 0.811946 0.811946 0.811946 0.811946 0.811946 0.811946 0.811946 0.811946 0.811946 0.811946 0.811946 0.811946 0.950932 0.951605 0.943880 0.942741 0.940945 0.937801 0.933264 0.932804 0.934167 0.934374 0.935016 0.937229 0.938318 0.940083 0.941371 0.942287 0.943155 0.951224 0.954839 0.955248 0.954754 0.950050 0.956628 0.955805 0.955639 0.956462 0.956781 0.957506 0.957372 0.957194 0.956621 0.955454 0.956202 0.956055 0.955313 0.954254 0.952323 0.952324 0.951863 0.951856 0.952827 0.953711 0.954357 0.954874 0.954825 0.955020 0.954997 0.954893 0.949758 0.949794 0.943454 0.944197 0.945406 0.945106 0.944016 0.942612 0.942656 0.942506 0.942401 0.942179 0.942413 0.923936 0.923271 0.923306 0.923355 0.915681 0.905255 0.898805 0.892508 0.893436 0.897295 0.902099 0.902158 0.899172 0.898406 0.883497 0.887333 0.873936 0.870924 0.859026 0.869435 0.871682 0.873061 0.868565 0.867992 0.866779 0.864868 0.856726 0.860731 0.861435 0.857283 0.853832 0.851551 0.850516 0.851813 0.856632 0.853679 0.848438 0.845756 0.834353 0.825335 0.824099 0.826878 0.834497 0.846537 0.847394 0.846766 0.839217 0.835467 0.828402 0.822489 0.819912 0.821764 0.818972 0.823024 0.821235 0.827897 0.818074 0.813486 0.818497 0.827036 0.832264 0.835122 0.837611 0.835609 0.833091 0.816375 0.817003 0.811654 0.762461 0.765562 0.752802 0.753077 0.741434 0.739313 0.735984 0.736823 0.730483 0.720843 0.731743 0.728139 0.686099 0.694719 0.687964 0.677257 0.656183 0.660069 0.674732 0.682522 0.680057 0.685787 0.672246 0.670883 0.683597 0.682441 0.690219 0.686045 0.684115 0.676017 0.678387 0.667632 0.670820 0.663838 0.663028 0.663154 0.659126 0.646352 0.653253 0.650257 0.647410 0.637234 0.601582 0.568154 0.547111 0.540124 0.521268 0.494425 0.512421 0.523436 0.504125 0.494567 0.476899 0.435570 0.429213 0.427497 0.399534 0.384121 0.362713 0.329933 0.327971 0.336005 0.341044 0.330636 0.330743 0.317017 0.278055 0.272716 0.236760 0.250953 0.273302 0.256819 0.233438 0.234070 0.253606 0.245763 0.256916 0.255560 0.268461 0.224792 0.173533 0.191323 0.188970 0.202373 0.187880 0.158678 0.185794 0.169807 0.178286 0.180900 0.142827 0.111374 0.092221 0.062315 0.068931 0.093464 0.109035 0.103413 0.084516 -0.001712 0.029873 0.053551 0.053551 0.053551 0.053551 0.053551 0.053551 0.053551 0.053551 0.053551 0.053551 0.053551 -0.006784 -0.006784 -0.006784 -0.006784 -0.006784 -0.006784 -0.006784 -0.006784 -0.006784 -0.006784 -0.006784 -0.006784 -0.006784 -0.006784 -0.006784 -0.006784 -0.006784 -0.006784 -0.006784
0.000000 0.000000 0.000000 0.000000 0.000000 0.000000 0.000000 0.000000 0.000000 0.000000 0.000000 0.000000 0.000000 0.000000 0.000000 0.000000 0.000000 0.000000 2.000000 0.000000 0.000000 0.000000 0.000000 0.000000 0.000000 0.000000 0.000000 0.000000 0.000000 0.000000 0.000000 0.000000 0.000000 0.000000 0.000000 0.000000 0.000000 0.000000 0.000000 0.000000 0.000000 0.000000 0.000000 0.000000 0.000000 0.000000 0.000000 0.000000 0.000000 0.000000 0.000000 0.000000 0.173422 0.173422 0.173422 0.173422 0.173422 0.173422 0.173422 0.191565 0.191565 0.191565 0.191565 0.191565 0.191565 0.191565 0.191565 0.191565 0.191565 0.191565 0.191565 0.191565 0.191565 0.191565 0.191565 0.191565 0.191565 0.191565 0.191565 0.191565 0.191565 0.191565 0.191565 0.191565 0.191565 0.191565 0.191565 0.191565 0.191565 0.191565 0.191565 0.191565 0.191565 0.191565 0.191565 0.191565 0.191565 0.191565 0.191565 0.191565 0.191565 0.191565 0.191565 0.219529 0.219529 0.219529 0.219529 0.219529 0.219529 0.219529 0.219529 0.219529 0.219529 0.219529 0.219529 0.219529 0.219529 0.219529 0.219529 0.219529 0.219529 0.219529 0.219529 0.219529 0.219529 0.219529 0.219529 0.219529 0.219529 0.219529 0.219529 0.219529 0.219529 0.219529 0.237356 0.237356 0.237356 0.237356 0.237356 0.237356 0.237356 0.237356 0.237356 0.237356 0.237356 0.237356 0.237356 0.237356 0.237356 0.237356 0.237356 0.237356 0.237356 0.237356 0.237356 0.237356 0.237356 0.237356 0.244339 0.244339 0.244339 0.244339 0.244339 0.244339 0.244339 0.244339 0.244339 0.244339 0.244339 0.244339 0.244339 0.244339 0.244339 0.244339 0.244339 0.244339 0.244339 0.244339 0.244339 0.248069 0.248069 0.248069 0.248069 0.248069 0.248069 0.248069 0.248069 0.248069 0.248069 0.248069 0.248069 0.248069 0.248069 0.248069 0.248069 0.248069 0.248069 0.248069 0.248069 0.248069 0.248069 0.248069 0.248069 0.248069 0.248069 0.248069 0.248069 0.248069 0.248069 0.248069 0.248069 0.248069 0.248069 0.248069 0.248069 0.248069 0.256074 0.256074 0.256074 0.256074 0.256074 0.256074 0.256074 0.256074 0.256074 0.256074 0.256074 0.256074 0.256074 0.256074 0.256074 0.256074 0.256074 0.256074 0.256074 0.256074 0.256074 0.256074 0.256074 0.256074 0.256074 0.256074 0.256074 0.256074 0.256074 0.256074 0.256074 0.256074 0.256074 0.256074 0.256074 0.256074 0.256074 0.256074 0.256074 0.256074 0.256074 0.256074 0.256074 0.256074 0.256074 0.260378 0.260378 0.260378 0.260378 0.260378 0.260378 0.260378 0.260378 0.260378 0.260378 0.260378 0.260378 0.260378 0.256074 0.256074 0.256074 0.256074 0.256074 0.256074 0.256074 0.256074 0.256074 0.256074 0.256074 0.256074 0.256074 0.260378 0.260378 0.260378 0.260378 0.260378 0.260378 0.260378 0.260378 0.260378 0.260378 0.260378 0.260378 0.251976 0.251976 0.251976 0.251976 0.251976 0.251976 0.251976 0.251976 0.251976 0.251976 0.251976 0.251976 0.256074 0.256074 0.256074 0.256074 0.256074 0.256074 0.256074 0.256074 0.256074 0.256074 0.256074 0.251976 0.251976 0.251976 0.251976 0.251976 0.251976 0.251976 0.251976 0.251976 0.251976 0.251976 0.248069 0.248069 0.248069 0.248069 0.248069 0.248069 0.248069 0.248069 0.248069 0.248069 0.248069 0.256074 0.256074 0.256074 0.256074 0.256074 0.256074 0.256074 0.256074 0.256074 0.256074 0.256074 0.256074 0.256074 0.256074 0.256074 0.256074 0.256074 0.256074 0.256074
