# Output from CTFFind version 4.1.9, run on 2019-11-02 17:43:13
# Input file: stack6_bm3d_averaged_1_0.5_0_50_half.mrc ; Number of micrographs: 1
# Pixel size: 3.000 Angstroms ; acceleration voltage: 300.0 keV ; spherical aberration: 0.00 mm ; amplitude contrast: 0.07
# Box size: 512 pixels ; min. res.: 30.0 Angstroms ; max. res.: 5.0 Angstroms ; min. def.: 5000.0 um; max. def. 50000.0 um; num. frames averaged: 1
# 6 lines per micrograph: #1 - spatial frequency (1/Angstroms); #2 - 1D rotational average of spectrum (assuming no astigmatism); #3 - 1D rotational average of spectrum; #4 - CTF fit; #5 - cross-correlation between spectrum and CTF fit; #6 - 2sigma of expected cross correlation of noise
0.000000 0.000651 0.001302 0.001953 0.002604 0.003255 0.003906 0.004557 0.005208 0.005859 0.006510 0.007161 0.007812 0.008464 0.009115 0.009766 0.010417 0.011068 0.011719 0.012370 0.013021 0.013672 0.014323 0.014974 0.015625 0.016276 0.016927 0.017578 0.018229 0.018880 0.019531 0.020182 0.020833 0.021484 0.022135 0.022786 0.023438 0.024089 0.024740 0.025391 0.026042 0.026693 0.027344 0.027995 0.028646 0.029297 0.029948 0.030599 0.031250 0.031901 0.032552 0.033203 0.033854 0.034505 0.035156 0.035807 0.036458 0.037109 0.037760 0.038411 0.039062 0.039714 0.040365 0.041016 0.041667 0.042318 0.042969 0.043620 0.044271 0.044922 0.045573 0.046224 0.046875 0.047526 0.048177 0.048828 0.049479 0.050130 0.050781 0.051432 0.052083 0.052734 0.053385 0.054036 0.054688 0.055339 0.055990 0.056641 0.057292 0.057943 0.058594 0.059245 0.059896 0.060547 0.061198 0.061849 0.062500 0.063151 0.063802 0.064453 0.065104 0.065755 0.066406 0.067057 0.067708 0.068359 0.069010 0.069661 0.070312 0.070964 0.071615 0.072266 0.072917 0.073568 0.074219 0.074870 0.075521 0.076172 0.076823 0.077474 0.078125 0.078776 0.079427 0.080078 0.080729 0.081380 0.082031 0.082682 0.083333 0.083984 0.084635 0.085286 0.085938 0.086589 0.087240 0.087891 0.088542 0.089193 0.089844 0.090495 0.091146 0.091797 0.092448 0.093099 0.093750 0.094401 0.095052 0.095703 0.096354 0.097005 0.097656 0.098307 0.098958 0.099609 0.100260 0.100911 0.101562 0.102214 0.102865 0.103516 0.104167 0.104818 0.105469 0.106120 0.106771 0.107422 0.108073 0.108724 0.109375 0.110026 0.110677 0.111328 0.111979 0.112630 0.113281 0.113932 0.114583 0.115234 0.115885 0.116536 0.117188 0.117839 0.118490 0.119141 0.119792 0.120443 0.121094 0.121745 0.122396 0.123047 0.123698 0.124349 0.125000 0.125651 0.126302 0.126953 0.127604 0.128255 0.128906 0.129557 0.130208 0.130859 0.131510 0.132161 0.132812 0.133464 0.134115 0.134766 0.135417 0.136068 0.136719 0.137370 0.138021 0.138672 0.139323 0.139974 0.140625 0.141276 0.141927 0.142578 0.143229 0.143880 0.144531 0.145182 0.145833 0.146484 0.147135 0.147786 0.148438 0.149089 0.149740 0.150391 0.151042 0.151693 0.152344 0.152995 0.153646 0.154297 0.154948 0.155599 0.156250 0.156901 0.157552 0.158203 0.158854 0.159505 0.160156 0.160807 0.161458 0.162109 0.162760 0.163411 0.164062 0.164714 0.165365 0.166016 0.166667 0.167318 0.167969 0.168620 0.169271 0.169922 0.170573 0.171224 0.171875 0.172526 0.173177 0.173828 0.174479 0.175130 0.175781 0.176432 0.177083 0.177734 0.178385 0.179036 0.179688 0.180339 0.180990 0.181641 0.182292 0.182943 0.183594 0.184245 0.184896 0.185547 0.186198 0.186849 0.187500 0.188151 0.188802 0.189453 0.190104 0.190755 0.191406 0.192057 0.192708 0.193359 0.194010 0.194661 0.195312 0.195964 0.196615 0.197266 0.197917 0.198568 0.199219 0.199870 0.200521 0.201172 0.201823 0.202474 0.203125 0.203776 0.204427 0.205078 0.205729 0.206380 0.207031 0.207682 0.208333 0.208984 0.209635 0.210286 0.210938 0.211589 0.212240 0.212891 0.213542 0.214193 0.214844 0.215495 0.216146 0.216797 0.217448 0.218099 0.218750 0.219401 0.220052 0.220703 0.221354 0.222005 0.222656 0.223307 0.223958 0.224609 0.225260 0.225911 0.226562 0.227214 0.227865 0.228516 0.229167 0.229818 0.230469 0.231120 0.231771 0.232422 0.233073 0.233724 0.234375 0.235026 0.235677
       0.31278        0.31278        0.31278        0.31278        0.31278        0.31278        0.31278        0.31278        0.31278        0.31278        0.31278        0.31278        0.31278        0.31278        0.31278        0.31278        0.31278        0.31278        0.31278        0.31278        0.31278        0.31278        0.31278        0.31278        0.31278        0.31278        0.31278        0.31278        0.31278        0.31278        0.31278        0.31278        0.31278        0.31278        0.31278        0.31278        0.31278        0.31278        0.31278        0.31278        0.31278        0.31278        0.31278        0.31278        0.31278        0.31278        0.31278        0.31278        0.31278        0.31278        0.31278        0.63124        0.82237        0.41918        0.31479        0.18401       -0.10303        0.10926       -0.00522        0.03240        0.12113        0.33704        0.42153        0.40941        0.22837       -0.01469        0.04946        0.06823       -0.17163       -0.18239       -0.08958       -0.10228       -0.29557       -0.19812       -0.29739       -0.24989       -0.28739       -0.40738       -0.47382       -0.48724       -0.43677       -0.34086       -0.44220       -0.36829       -0.40868       -0.35526       -0.28174       -0.20798       -0.19282       -0.14239       -0.09813        0.03910        0.07488        0.25160        0.27198        0.35766        0.40579        0.53430        0.60253        0.61663        0.74750        0.70590        0.74690        0.65848        0.66402        0.69203        0.63432        0.61529        0.60621        0.42782        0.40809        0.35552        0.30809        0.22384        0.12940        0.06006        0.06010        0.00134       -0.08049       -0.02881       -0.02987       -0.07162        0.06818        0.16294        0.25049        0.32341        0.33891        0.42953        0.55085        0.60613        0.55407        0.66994        0.57899        0.55520        0.59659        0.65967        0.53926        0.44923        0.41575        0.37610        0.24417        0.21775        0.12849        0.11788        0.05396        0.04463        0.10495        0.17639        0.14166        0.18021        0.22068        0.24445        0.32826        0.46785        0.49933        0.50348        0.50621        0.58033        0.56804        0.52345        0.43889        0.39406        0.36563        0.27653        0.25062        0.20232        0.20087        0.19431        0.17132        0.16724        0.13853        0.19996        0.25246        0.33567        0.38796        0.41319        0.45944        0.54364        0.48300        0.50020        0.42216        0.39461        0.38353        0.36392        0.29448        0.24783        0.18572        0.23338        0.21291        0.18462        0.22563        0.22720        0.23151        0.29976        0.39901        0.40056        0.37966        0.40019        0.46370        0.49354        0.42231        0.34829        0.32977        0.27575        0.27109        0.25500        0.21462        0.28426        0.29596        0.29838        0.31796        0.31703        0.35343        0.37073        0.37711        0.37811        0.35065        0.31551        0.33023        0.32282        0.30025        0.27812        0.27582        0.22067        0.27569        0.27986        0.29591        0.31544        0.34481        0.38315        0.34595        0.31083        0.36671        0.35640        0.26050        0.29334        0.30394        0.24468        0.20448        0.25016        0.27562        0.28015        0.29718        0.31701        0.35080        0.33673        0.36871        0.32436        0.32176        0.31131        0.30593        0.27473        0.25468        0.25782        0.25872        0.28186        0.30816        0.31252        0.30323        0.30084        0.32253        0.26473        0.29611        0.26815        0.25747        0.27976        0.26511        0.26355        0.26207        0.30370        0.29495        0.32850        0.28834        0.26519        0.30701        0.32139        0.33790        0.31953        0.28767        0.24959        0.25901        0.26355        0.26345        0.32064        0.31173        0.33644        0.31514        0.31588        0.23694        0.27439        0.20562        0.22399        0.25192        0.25237        0.26688        0.28557        0.30383        0.30426        0.35937        0.30997        0.25737        0.25009        0.23307        0.28024        0.32405        0.31302        0.27026        0.27204        0.27078        0.33309        0.28844        0.26230        0.26517        0.26976        0.27530        0.24712        0.26548        0.31294        0.29706        0.24970        0.25148        0.28485        0.31159        0.26924        0.26560        0.25232        0.26239        0.29502        0.36081        0.27207        0.28129        0.27014        0.24023        0.22918        0.17627        0.23539        0.23818        0.23658        0.18087        0.20880        0.23030        0.20799        0.23065        0.21216        0.23400        0.24582        0.21844        0.15382        0.18587        0.21172        0.25636        0.10738        0.05520        0.19739        0.14704        0.12605        0.25708        0.17200        0.23110        0.23777        0.03631       -0.45436       -0.96238
2.751573 2.724780 2.698125 2.671606 2.645224 2.618980 2.592872 2.566902 2.541069 2.515372 2.489813 2.464391 2.439105 2.413957 2.388946 2.364072 2.339335 2.314735 2.290272 2.265946 2.241758 2.217706 2.193791 2.170013 2.146373 2.122869 2.099503 2.076273 2.053181 2.030225 2.007407 1.984726 1.962182 1.939774 1.917504 1.895371 1.873375 1.851516 1.829794 1.808209 1.786762 1.765451 1.744277 1.723240 1.702341 1.681578 1.660953 1.640464 1.620113 1.599898 1.579821 1.860797 2.219105 1.652507 1.702076 1.342071 0.912220 1.164864 0.990176 1.043548 1.004961 1.454032 1.479879 1.497128 1.260660 0.912900 0.801404 0.986077 0.683739 0.480222 0.568047 0.666283 0.411470 0.464774 0.324119 0.378151 0.238877 0.142261 -0.027434 -0.002018 -0.000640 0.083960 0.035834 0.074037 -0.040950 0.032505 0.109692 0.211280 0.271861 0.206923 0.308050 0.548128 0.433631 0.716374 0.773011 0.840819 0.903544 1.104393 1.155431 1.160194 1.307527 1.229265 1.354009 1.191086 1.095361 1.284049 1.114490 1.031986 1.113691 0.860586 0.739363 0.674953 0.649184 0.454572 0.386866 0.264608 0.236016 0.100134 0.009930 0.093094 0.041998 -0.052882 0.125970 0.251988 0.321609 0.453968 0.492685 0.553292 0.715713 0.833863 0.673430 0.964415 0.774333 0.697842 0.763832 0.819416 0.729821 0.623952 0.442628 0.516471 0.290500 0.187169 0.156066 0.020250 -0.011711 -0.100175 -0.022030 0.070767 0.075782 -0.024838 0.249549 0.102666 0.235679 0.386785 0.443896 0.553194 0.420515 0.557333 0.635163 0.502268 0.410723 0.360905 0.333592 0.157423 0.161584 0.008589 0.097218 0.027723 -0.001523 -0.017994 -0.087875 0.013490 0.047059 0.107758 0.287745 0.229414 0.358779 0.365549 0.475800 0.379749 0.396935 0.327432 0.228752 0.310672 0.183977 0.152843 0.003247 0.034326 0.081791 -0.031522 0.006735 0.031396 0.063665 0.067634 0.220119 0.317775 0.241240 0.228971 0.382477 0.403256 0.348515 0.237874 0.177920 0.155459 0.094208 0.080318 0.039738 0.022013 0.140870 0.070830 0.179423 0.105424 0.153137 0.232562 0.209040 0.239228 0.204127 0.196017 0.107024 0.163431 0.140786 0.096762 0.103622 0.007511 0.045811 0.100519 0.054278 0.133630 0.125670 0.206283 0.217238 0.156957 0.122255 0.228234 0.091002 0.072763 0.078699 0.061336 0.000493 -0.039060 0.040161 0.071879 0.042842 0.116283 0.120051 0.147249 0.133160 0.186222 0.093272 0.096153 0.105865 0.095986 0.028238 0.021051 0.049485 -0.002124 0.081773 0.116279 0.090251 0.079598 0.081795 0.111908 0.019214 0.102604 0.038194 0.019814 0.092558 0.016613 0.028902 0.044327 0.090941 0.054883 0.127319 0.065424 0.002068 0.117926 0.096434 0.102859 0.095260 0.015867 -0.009499 -0.005835 0.049042 0.000645 0.095662 0.061522 0.128724 0.062204 0.124499 -0.040890 0.022573 -0.078471 0.013892 -0.043780 0.023716 0.020494 0.043660 0.086052 0.071101 0.128038 0.027470 -0.013688 -0.031569 -0.059918 0.057601 0.088986 0.058647 0.002048 -0.006744 0.006819 0.079382 -0.010797 -0.044138 -0.019239 -0.032430 -0.002957 -0.048805 -0.019984 0.039426 0.006519 -0.042670 -0.004025 0.039472 0.002890 0.008706 -0.014285 -0.036564 0.041600 0.066790 0.139688 0.008966 0.030376 0.044651 0.015079 -0.037550 -0.061370 0.036949 0.033695 0.032937 -0.048004 -0.012238 0.074386 -0.040742 0.120034 0.014553 0.122478 0.057557 0.102675 -0.097224 0.057449 0.011449 0.200359 -0.031725 0.006378 0.270456 0.187042 0.172419 0.468429 0.186808 0.303180 0.365286 0.052260 -1.313091
0.072396 0.072835 0.074151 0.076343 0.079412 0.083357 0.088177 0.093870 0.100435 0.107871 0.116174 0.125341 0.135370 0.146254 0.157990 0.170570 0.183987 0.198232 0.213294 0.229162 0.245822 0.263259 0.281454 0.300387 0.320036 0.340376 0.361377 0.383010 0.405239 0.428026 0.451328 0.475102 0.499295 0.523855 0.548722 0.573833 0.599121 0.624512 0.649927 0.675285 0.700497 0.725468 0.750102 0.774292 0.797932 0.820906 0.843096 0.864379 0.884626 0.903707 0.921485 0.937823 0.952579 0.965609 0.976770 0.985916 0.992902 0.997584 0.999821 0.999472 0.996403 0.990486 0.981597 0.969622 0.954456 0.936004 0.914184 0.888929 0.860185 0.827917 0.792108 0.752762 0.709903 0.663579 0.613865 0.560857 0.504684 0.445498 0.383484 0.318856 0.251857 0.182762 0.111878 0.039540 0.033885 0.108001 0.182387 0.256591 0.330142 0.402543 0.473282 0.541828 0.607643 0.670177 0.728879 0.783203 0.832606 0.876562 0.914564 0.946129 0.970808 0.988192 0.997917 0.999672 0.993206 0.978333 0.954940 0.922993 0.882540 0.833718 0.776754 0.711975 0.639800 0.560749 0.475438 0.384581 0.288985 0.189546 0.087243 0.016871 0.121675 0.225993 0.328605 0.428264 0.523705 0.613667 0.696910 0.772228 0.838477 0.894586 0.939581 0.972605 0.992934 0.999997 0.993394 0.972908 0.938518 0.890415 0.829001 0.754900 0.668958 0.572236 0.466010 0.351751 0.231117 0.105933 0.021839 0.150124 0.276765 0.399561 0.516304 0.624820 0.723011 0.808902 0.880678 0.936734 0.975712 0.996541 0.998470 0.981099 0.944403 0.888748 0.814902 0.724035 0.617712 0.497873 0.366813 0.227137 0.081722 0.066341 0.213808 0.357355 0.493644 0.619415 0.731553 0.827183 0.903744 0.959063 0.991432 0.999662 0.983143 0.941874 0.876493 0.788282 0.679159 0.551649 0.408842 0.254325 0.092105 0.073491 0.237926 0.396576 0.544855 0.678360 0.793001 0.885138 0.951704 0.990324 0.999406 0.978224 0.926970 0.846782 0.739737 0.608819 0.457858 0.291428 0.114720 0.066603 0.246587 0.419181 0.578433 0.718714 0.834912 0.922642 0.978417 0.999810 0.985574 0.935726 0.851590 0.735789 0.592187 0.425787 0.242569 0.049295 0.146730 0.337933 0.516755 0.675965 0.808953 0.910025 0.974661 0.999739 0.983709 0.926707 0.830597 0.698949 0.536931 0.351135 0.149330 0.059844 0.267242 0.463606 0.639978 0.788125 0.900938 0.972788 0.999840 0.980282 0.914470 0.804973 0.656511 0.475787 0.271214 0.052546 0.169570 0.384104 0.580188 0.747681 0.877702 0.963131 0.999026 0.982942 0.915127 0.798587 0.638990 0.444437 0.225083 0.007371 0.240274 0.460719 0.656252 0.815597 0.929314 0.990415 0.994804 0.941609 0.833307 0.675666 0.477490 0.250158 0.007009 0.237414 0.468235 0.671153 0.833335 0.944261 0.996445 0.985981 0.912880 0.781168 0.598724 0.376858 0.129650 0.126908 0.375925 0.600735 0.786010 0.918832 0.989647 0.992984 0.927942 0.798348 0.612618 0.383244 0.126028 0.140983 0.398754 0.628587 0.813528 0.939625 0.997034 0.980843 0.891555 0.735165 0.522834 0.270158 0.003939 0.278578 0.532514 0.745780 0.901281 0.986223 0.993211 0.920968 0.774563 0.565151 0.309173 0.027150 0.257949 0.522540 0.744399 0.904551 0.988935 0.989715 0.906080 0.744454 0.518102 0.246112 0.048162 0.339046 0.600807 0.809907 0.947190 0.999683 0.961900 0.836502 0.634210 0.372987 0.076510 0.227917 0.511850 0.748379 0.914705 0.994389 0.979074 0.869437 0.675311 0.414897 0.113149 0.200554 0.495248 0.741427 0.914046
1.000000 1.000000 1.000000 1.000000 1.000000 1.000000 1.000000 1.000000 1.000000 1.000000 1.000000 1.000000 1.000000 1.000000 1.000000 1.000000 1.000000 1.000000 1.000000 1.000000 1.000000 1.000000 1.000000 1.000000 1.000000 1.000000 1.000000 1.000000 1.000000 1.000000 1.000000 1.000000 1.000000 1.000000 1.000000 1.000000 1.000000 1.000000 1.000000 1.000000 1.000000 1.000000 1.000000 1.000000 1.000000 1.000000 1.000000 1.000000 1.000000 1.000000 1.000000 1.000000 0.832546 0.832546 0.832546 0.832546 0.832546 0.832546 0.832546 0.815553 0.815553 0.815553 0.815553 0.815553 0.815553 0.815553 0.815553 0.815553 0.815553 0.815553 0.815553 0.815553 0.815553 0.815553 0.815553 0.815553 0.815553 0.815553 0.815553 0.815553 0.815553 0.815553 0.815553 0.815553 0.815553 0.815553 0.815553 0.815553 0.815553 0.815553 0.815553 0.815553 0.815553 0.815553 0.815553 0.815553 0.815553 0.815553 0.815553 0.815553 0.815553 0.815553 0.815553 0.952279 0.953071 0.950430 0.949483 0.948019 0.944409 0.940360 0.939834 0.941115 0.941352 0.941822 0.943935 0.944523 0.946129 0.947324 0.948134 0.949613 0.957668 0.961328 0.960915 0.961227 0.952441 0.959218 0.958117 0.955620 0.956252 0.956462 0.957103 0.957020 0.956887 0.956517 0.955014 0.955630 0.955425 0.954698 0.953699 0.951626 0.951523 0.951127 0.951282 0.952234 0.952772 0.953543 0.954067 0.953343 0.953494 0.953497 0.953406 0.949099 0.949077 0.941618 0.941854 0.942706 0.942212 0.941219 0.939707 0.939787 0.939726 0.939730 0.939663 0.940053 0.924483 0.924198 0.924442 0.923873 0.916414 0.906679 0.900887 0.896388 0.897818 0.902153 0.906608 0.906966 0.904075 0.902786 0.887494 0.884162 0.871272 0.867458 0.855820 0.865706 0.866818 0.867651 0.857859 0.857605 0.855765 0.854274 0.847597 0.852231 0.852458 0.848566 0.843702 0.842554 0.840477 0.844868 0.853199 0.854701 0.850845 0.852815 0.839304 0.831774 0.830726 0.831815 0.838337 0.849947 0.849978 0.848931 0.843297 0.839929 0.834989 0.832973 0.830835 0.832040 0.831806 0.834474 0.827320 0.838561 0.828718 0.821600 0.826398 0.833716 0.835850 0.835523 0.837747 0.835767 0.838169 0.823473 0.814800 0.816414 0.764236 0.767409 0.760743 0.757734 0.723562 0.726011 0.718891 0.721042 0.715729 0.709843 0.720457 0.719959 0.670479 0.678200 0.671435 0.654550 0.627368 0.639923 0.657091 0.667523 0.665703 0.659411 0.646381 0.639839 0.652428 0.652282 0.657198 0.643564 0.638730 0.624976 0.630905 0.611632 0.620573 0.617216 0.617312 0.619313 0.617096 0.600088 0.608932 0.604144 0.594777 0.590665 0.567623 0.520094 0.502809 0.494822 0.470119 0.461636 0.478851 0.467342 0.448473 0.434427 0.420173 0.414639 0.429112 0.427615 0.435255 0.435440 0.434358 0.390895 0.407198 0.402933 0.394441 0.383295 0.407136 0.395725 0.367089 0.337808 0.314244 0.330986 0.340758 0.335818 0.313303 0.304939 0.315136 0.268438 0.271146 0.270967 0.293331 0.248192 0.194006 0.220389 0.225798 0.226185 0.219207 0.173191 0.199908 0.169594 0.180834 0.188784 0.136833 0.105006 0.094089 0.070489 0.076881 0.101420 0.110575 0.097653 0.077103 -0.025308 0.010147 0.038427 0.038427 0.038427 0.038427 0.038427 0.038427 0.038427 0.038427 0.038427 0.038427 0.038427 -0.029480 -0.029480 -0.029480 -0.029480 -0.029480 -0.029480 -0.029480 -0.029480 -0.029480 -0.029480 -0.029480 -0.029480 -0.029480 -0.029480 -0.029480 -0.029480 -0.029480 -0.029480 -0.029480
0.000000 0.000000 0.000000 0.000000 0.000000 0.000000 0.000000 0.000000 0.000000 0.000000 0.000000 0.000000 0.000000 0.000000 0.000000 0.000000 0.000000 0.000000 2.000000 0.000000 0.000000 0.000000 0.000000 0.000000 0.000000 0.000000 0.000000 0.000000 0.000000 0.000000 0.000000 0.000000 0.000000 0.000000 0.000000 0.000000 0.000000 0.000000 0.000000 0.000000 0.000000 0.000000 0.000000 0.000000 0.000000 0.000000 0.000000 0.000000 0.000000 0.000000 0.000000 0.000000 0.173422 0.173422 0.173422 0.173422 0.173422 0.173422 0.173422 0.191565 0.191565 0.191565 0.191565 0.191565 0.191565 0.191565 0.191565 0.191565 0.191565 0.191565 0.191565 0.191565 0.191565 0.191565 0.191565 0.191565 0.191565 0.191565 0.191565 0.191565 0.191565 0.191565 0.191565 0.191565 0.191565 0.191565 0.191565 0.191565 0.191565 0.191565 0.191565 0.191565 0.191565 0.191565 0.191565 0.191565 0.191565 0.191565 0.191565 0.191565 0.191565 0.191565 0.191565 0.219529 0.219529 0.219529 0.219529 0.219529 0.219529 0.219529 0.219529 0.219529 0.219529 0.219529 0.219529 0.219529 0.219529 0.219529 0.219529 0.219529 0.219529 0.219529 0.219529 0.219529 0.219529 0.219529 0.219529 0.219529 0.219529 0.219529 0.219529 0.219529 0.219529 0.219529 0.237356 0.237356 0.237356 0.237356 0.237356 0.237356 0.237356 0.237356 0.237356 0.237356 0.237356 0.237356 0.237356 0.237356 0.237356 0.237356 0.237356 0.237356 0.237356 0.237356 0.237356 0.237356 0.237356 0.237356 0.244339 0.244339 0.244339 0.244339 0.244339 0.244339 0.244339 0.244339 0.244339 0.244339 0.244339 0.244339 0.244339 0.244339 0.244339 0.244339 0.244339 0.244339 0.244339 0.244339 0.244339 0.248069 0.248069 0.248069 0.248069 0.248069 0.248069 0.248069 0.248069 0.248069 0.248069 0.248069 0.248069 0.248069 0.248069 0.248069 0.248069 0.248069 0.248069 0.248069 0.248069 0.248069 0.248069 0.248069 0.248069 0.248069 0.248069 0.248069 0.248069 0.248069 0.248069 0.248069 0.248069 0.248069 0.248069 0.248069 0.248069 0.248069 0.256074 0.256074 0.256074 0.256074 0.256074 0.256074 0.256074 0.256074 0.256074 0.256074 0.256074 0.256074 0.256074 0.256074 0.256074 0.256074 0.256074 0.256074 0.256074 0.256074 0.256074 0.256074 0.256074 0.256074 0.256074 0.256074 0.256074 0.256074 0.256074 0.256074 0.256074 0.256074 0.256074 0.256074 0.256074 0.256074 0.256074 0.256074 0.256074 0.256074 0.256074 0.256074 0.256074 0.256074 0.256074 0.260378 0.260378 0.260378 0.260378 0.260378 0.260378 0.260378 0.260378 0.260378 0.260378 0.260378 0.260378 0.260378 0.256074 0.256074 0.256074 0.256074 0.256074 0.256074 0.256074 0.256074 0.256074 0.256074 0.256074 0.256074 0.256074 0.260378 0.260378 0.260378 0.260378 0.260378 0.260378 0.260378 0.260378 0.260378 0.260378 0.260378 0.260378 0.251976 0.251976 0.251976 0.251976 0.251976 0.251976 0.251976 0.251976 0.251976 0.251976 0.251976 0.251976 0.256074 0.256074 0.256074 0.256074 0.256074 0.256074 0.256074 0.256074 0.256074 0.256074 0.256074 0.251976 0.251976 0.251976 0.251976 0.251976 0.251976 0.251976 0.251976 0.251976 0.251976 0.251976 0.248069 0.248069 0.248069 0.248069 0.248069 0.248069 0.248069 0.248069 0.248069 0.248069 0.248069 0.256074 0.256074 0.256074 0.256074 0.256074 0.256074 0.256074 0.256074 0.256074 0.256074 0.256074 0.256074 0.256074 0.256074 0.256074 0.256074 0.256074 0.256074 0.256074
