# Output from CTFFind version 4.1.9, run on 2019-11-03 19:01:39
# Input file: stack11_bm3d_averaged_1_2.75_0_1500_half.mrc ; Number of micrographs: 1
# Pixel size: 3.000 Angstroms ; acceleration voltage: 300.0 keV ; spherical aberration: 0.00 mm ; amplitude contrast: 0.07
# Box size: 512 pixels ; min. res.: 30.0 Angstroms ; max. res.: 5.0 Angstroms ; min. def.: 5000.0 um; max. def. 50000.0 um; num. frames averaged: 1
# 6 lines per micrograph: #1 - spatial frequency (1/Angstroms); #2 - 1D rotational average of spectrum (assuming no astigmatism); #3 - 1D rotational average of spectrum; #4 - CTF fit; #5 - cross-correlation between spectrum and CTF fit; #6 - 2sigma of expected cross correlation of noise
0.000000 0.000651 0.001302 0.001953 0.002604 0.003255 0.003906 0.004557 0.005208 0.005859 0.006510 0.007161 0.007812 0.008464 0.009115 0.009766 0.010417 0.011068 0.011719 0.012370 0.013021 0.013672 0.014323 0.014974 0.015625 0.016276 0.016927 0.017578 0.018229 0.018880 0.019531 0.020182 0.020833 0.021484 0.022135 0.022786 0.023438 0.024089 0.024740 0.025391 0.026042 0.026693 0.027344 0.027995 0.028646 0.029297 0.029948 0.030599 0.031250 0.031901 0.032552 0.033203 0.033854 0.034505 0.035156 0.035807 0.036458 0.037109 0.037760 0.038411 0.039062 0.039714 0.040365 0.041016 0.041667 0.042318 0.042969 0.043620 0.044271 0.044922 0.045573 0.046224 0.046875 0.047526 0.048177 0.048828 0.049479 0.050130 0.050781 0.051432 0.052083 0.052734 0.053385 0.054036 0.054688 0.055339 0.055990 0.056641 0.057292 0.057943 0.058594 0.059245 0.059896 0.060547 0.061198 0.061849 0.062500 0.063151 0.063802 0.064453 0.065104 0.065755 0.066406 0.067057 0.067708 0.068359 0.069010 0.069661 0.070312 0.070964 0.071615 0.072266 0.072917 0.073568 0.074219 0.074870 0.075521 0.076172 0.076823 0.077474 0.078125 0.078776 0.079427 0.080078 0.080729 0.081380 0.082031 0.082682 0.083333 0.083984 0.084635 0.085286 0.085938 0.086589 0.087240 0.087891 0.088542 0.089193 0.089844 0.090495 0.091146 0.091797 0.092448 0.093099 0.093750 0.094401 0.095052 0.095703 0.096354 0.097005 0.097656 0.098307 0.098958 0.099609 0.100260 0.100911 0.101562 0.102214 0.102865 0.103516 0.104167 0.104818 0.105469 0.106120 0.106771 0.107422 0.108073 0.108724 0.109375 0.110026 0.110677 0.111328 0.111979 0.112630 0.113281 0.113932 0.114583 0.115234 0.115885 0.116536 0.117188 0.117839 0.118490 0.119141 0.119792 0.120443 0.121094 0.121745 0.122396 0.123047 0.123698 0.124349 0.125000 0.125651 0.126302 0.126953 0.127604 0.128255 0.128906 0.129557 0.130208 0.130859 0.131510 0.132161 0.132812 0.133464 0.134115 0.134766 0.135417 0.136068 0.136719 0.137370 0.138021 0.138672 0.139323 0.139974 0.140625 0.141276 0.141927 0.142578 0.143229 0.143880 0.144531 0.145182 0.145833 0.146484 0.147135 0.147786 0.148438 0.149089 0.149740 0.150391 0.151042 0.151693 0.152344 0.152995 0.153646 0.154297 0.154948 0.155599 0.156250 0.156901 0.157552 0.158203 0.158854 0.159505 0.160156 0.160807 0.161458 0.162109 0.162760 0.163411 0.164062 0.164714 0.165365 0.166016 0.166667 0.167318 0.167969 0.168620 0.169271 0.169922 0.170573 0.171224 0.171875 0.172526 0.173177 0.173828 0.174479 0.175130 0.175781 0.176432 0.177083 0.177734 0.178385 0.179036 0.179688 0.180339 0.180990 0.181641 0.182292 0.182943 0.183594 0.184245 0.184896 0.185547 0.186198 0.186849 0.187500 0.188151 0.188802 0.189453 0.190104 0.190755 0.191406 0.192057 0.192708 0.193359 0.194010 0.194661 0.195312 0.195964 0.196615 0.197266 0.197917 0.198568 0.199219 0.199870 0.200521 0.201172 0.201823 0.202474 0.203125 0.203776 0.204427 0.205078 0.205729 0.206380 0.207031 0.207682 0.208333 0.208984 0.209635 0.210286 0.210938 0.211589 0.212240 0.212891 0.213542 0.214193 0.214844 0.215495 0.216146 0.216797 0.217448 0.218099 0.218750 0.219401 0.220052 0.220703 0.221354 0.222005 0.222656 0.223307 0.223958 0.224609 0.225260 0.225911 0.226562 0.227214 0.227865 0.228516 0.229167 0.229818 0.230469 0.231120 0.231771 0.232422 0.233073 0.233724 0.234375 0.235026 0.235677
       0.31914        0.31914        0.31914        0.31914        0.31914        0.31914        0.31914        0.31914        0.31914        0.31914        0.31914        0.31914        0.31914        0.31914        0.31914        0.31914        0.31914        0.31914        0.31914        0.31914        0.31914        0.31914        0.31914        0.31914        0.31914        0.31914        0.31914        0.31914        0.31914        0.31914        0.31914        0.31914        0.31914        0.31914        0.31914        0.31914        0.31914        0.31914        0.31914        0.31914        0.31914        0.31914        0.31914        0.31914        0.31914        0.31914        0.31914        0.31914        0.31914        0.31914        0.31914        0.68200        0.86170        0.52421        0.09100       -0.05574       -0.42272       -0.20103       -0.29976       -0.11689       -0.07254       -0.11808       -0.06700       -0.20298       -0.23036       -0.24960       -0.33020       -0.33801       -0.47898       -0.38007       -0.45757       -0.44803       -0.41988       -0.45726       -0.51883       -0.55097       -0.58168       -0.60916       -0.57022       -0.40374       -0.37453       -0.32867       -0.30960       -0.20547       -0.19872        0.02446        0.08989        0.12250        0.23211        0.36863        0.44224        0.51019        0.56150        0.55839        0.56582        0.69004        0.80583        0.72717        0.73219        0.65040        0.56883        0.48216        0.40830        0.49671        0.38139        0.21629        0.08034        0.05564        0.02843       -0.05622       -0.02240       -0.00125       -0.05445       -0.00624       -0.01719        0.22070        0.25424        0.28471        0.42035        0.44861        0.40334        0.54882        0.62237        0.67893        0.74783        0.68552        0.65094        0.68359        0.57034        0.48356        0.41438        0.28906        0.20835        0.15704        0.11107        0.04223        0.01623        0.01237        0.07520        0.12977        0.21146        0.27006        0.39454        0.42835        0.49360        0.59617        0.62515        0.62653        0.62234        0.55247        0.44539        0.45620        0.35527        0.23200        0.18365        0.14550        0.12662        0.13352        0.09522        0.12449        0.24968        0.27013        0.35088        0.37663        0.43965        0.50911        0.53872        0.54398        0.47051        0.43593        0.38581        0.35003        0.30490        0.25946        0.21407        0.20222        0.18010        0.20598        0.18810        0.27977        0.33891        0.37215        0.42855        0.45464        0.47620        0.42391        0.38495        0.40846        0.36567        0.27711        0.26014        0.22301        0.22614        0.19684        0.23059        0.23707        0.32747        0.36917        0.37732        0.46659        0.42731        0.43238        0.42861        0.39622        0.34123        0.31709        0.27998        0.26605        0.24546        0.27634        0.27828        0.30392        0.30758        0.32930        0.32029        0.40296        0.41610        0.37623        0.34493        0.36451        0.28424        0.28170        0.26416        0.28785        0.26679        0.28258        0.29635        0.31360        0.34275        0.36338        0.36818        0.35280        0.35482        0.29661        0.32389        0.27294        0.24591        0.30046        0.29424        0.31151        0.30838        0.32003        0.33525        0.31758        0.31906        0.29181        0.29857        0.27214        0.28769        0.26248        0.29267        0.28839        0.27897        0.30704        0.31480        0.32063        0.27144        0.30345        0.27437        0.27181        0.25772        0.21866        0.27795        0.28120        0.33376        0.30748        0.31340        0.31645        0.31628        0.27892        0.30539        0.32685        0.26751        0.26107        0.30243        0.28606        0.33707        0.32863        0.33556        0.32720        0.29410        0.27674        0.28258        0.24534        0.22379        0.28543        0.30828        0.29966        0.28534        0.30175        0.27940        0.33422        0.33028        0.25556        0.22759        0.28402        0.31322        0.28005        0.31066        0.33333        0.32664        0.30317        0.30642        0.33404        0.30018        0.27717        0.25390        0.29872        0.35048        0.36866        0.27928        0.26520        0.26244        0.29487        0.22919        0.28556        0.25060        0.25019        0.32764        0.32645        0.34263        0.30185        0.24961        0.24998        0.24781        0.24123        0.21656        0.23476        0.30157        0.29273        0.22796        0.31992        0.32127        0.25562        0.25799        0.19571        0.17278        0.23236        0.20340        0.20986        0.22445        0.22563        0.18950        0.25621        0.34946        0.32022        0.33755        0.23545        0.20708        0.18690        0.25488        0.26965        0.15070        0.21330        0.24801        0.13139        0.17275        0.13141        0.11274        0.21066        0.13016       -0.09517       -0.59320
2.596679 2.569666 2.542799 2.516078 2.489503 2.463074 2.436790 2.410653 2.384662 2.358817 2.333117 2.307564 2.282157 2.256895 2.231780 2.206810 2.181987 2.157310 2.132778 2.108393 2.084153 2.060060 2.036112 2.012310 1.988655 1.965145 1.941781 1.918564 1.895492 1.872566 1.849786 1.827153 1.804665 1.782323 1.760127 1.738077 1.716173 1.694416 1.672804 1.651338 1.630018 1.608844 1.587816 1.566934 1.546198 1.525607 1.505163 1.484865 1.464713 1.444707 1.424847 1.643967 2.057102 1.628215 1.135699 0.997830 0.414211 0.817005 0.548288 0.833541 0.775366 0.793331 0.746750 0.711581 0.565290 0.522950 0.480291 0.431812 0.214542 0.373108 0.199956 0.308330 0.226808 0.184695 0.144473 0.013758 0.032352 -0.005655 -0.063058 0.111079 0.208405 0.186874 0.155383 0.335949 0.191473 0.498303 0.593745 0.576016 0.609276 0.875841 0.819570 0.941674 0.896453 0.989289 0.954666 1.080729 1.144691 1.065045 1.144627 0.940245 0.936987 0.794200 0.654990 0.785218 0.714113 0.472802 0.318289 0.250921 0.237115 0.150127 0.105033 0.143724 0.092405 0.146293 0.060816 0.267372 0.383355 0.360160 0.479926 0.570588 0.455130 0.571093 0.712685 0.736176 0.774761 0.728091 0.739280 0.701698 0.623842 0.557334 0.421266 0.287432 0.226089 0.089087 0.132919 -0.045056 -0.032595 -0.062111 -0.041846 -0.006218 0.159343 0.078512 0.289656 0.298271 0.357463 0.452967 0.527430 0.503723 0.534329 0.512668 0.338791 0.322147 0.293999 0.104933 0.059292 -0.018456 -0.011789 -0.029063 -0.068959 -0.083758 0.025231 0.070255 0.136459 0.175663 0.240430 0.319084 0.328178 0.417786 0.403360 0.292772 0.245290 0.237889 0.191783 0.123728 0.105722 0.025025 0.018310 0.035890 0.000325 0.074372 0.161990 0.148683 0.254674 0.259997 0.318903 0.219134 0.223166 0.165479 0.221243 0.124762 0.045881 0.019938 -0.000657 -0.003367 -0.035464 0.033491 0.022818 0.155328 0.147575 0.180712 0.248597 0.201821 0.184751 0.186419 0.139773 0.078558 0.040273 0.055178 -0.017827 -0.003137 0.016721 0.050055 0.052266 0.059495 0.072089 0.109654 0.134072 0.181472 0.079739 0.084924 0.068383 0.005764 -0.003738 0.010091 0.004485 0.009498 0.007427 0.028362 0.062516 0.080758 0.122100 0.058380 0.114566 0.060558 0.019160 0.056936 -0.036029 -0.007543 0.044730 0.005518 0.055513 0.048929 0.037523 0.089261 0.057462 0.038655 0.041044 0.009898 0.027908 0.013741 -0.004686 0.058214 -0.003327 0.026099 0.062206 0.059913 0.034580 0.044603 0.041413 0.025309 0.008914 -0.018855 -0.021168 0.028780 0.050210 0.090488 0.059328 0.072199 0.080954 0.079530 0.034556 0.087681 0.094342 0.011289 0.029046 0.073649 0.059255 0.097762 0.079790 0.142319 0.106635 0.069890 0.029376 0.064889 -0.016812 0.012275 0.070812 0.080620 0.061200 0.050156 0.048594 0.012835 0.116244 0.062014 -0.027027 -0.043531 0.035601 0.081544 0.014554 0.027115 0.083537 0.091464 0.027483 0.055700 0.076621 0.039899 0.025982 -0.034389 0.050036 0.112617 0.089374 -0.010431 -0.021317 -0.025068 0.053096 -0.087020 0.039518 -0.046821 -0.020446 0.058119 0.064717 0.022774 -0.006742 -0.053517 -0.037127 -0.074702 -0.032699 -0.084484 -0.071607 0.029673 0.052427 -0.065702 0.068302 0.021123 -0.050911 0.034486 -0.104912 -0.095414 -0.033891 -0.043556 -0.032809 -0.023372 0.000022 -0.057906 0.026280 0.202925 -0.007178 0.172158 0.023571 0.218028 0.192725 0.291344 0.278136 0.137223 0.216256 0.294873 0.105434 0.184398 0.131720 0.103943 0.303015 0.135281 -0.624372
0.072396 0.072898 0.074405 0.076915 0.080429 0.084945 0.090463 0.096980 0.104494 0.113003 0.122504 0.132991 0.144460 0.156905 0.170317 0.184687 0.200005 0.216257 0.233429 0.251504 0.270460 0.290276 0.310926 0.332380 0.354605 0.377565 0.401217 0.425516 0.450411 0.475847 0.501763 0.528091 0.554759 0.581688 0.608793 0.635983 0.663160 0.690218 0.717046 0.743525 0.769530 0.794930 0.819584 0.843348 0.866072 0.887599 0.907766 0.926407 0.943351 0.958425 0.971453 0.982257 0.990658 0.996480 0.999549 0.999692 0.996743 0.990544 0.980944 0.967803 0.950992 0.930400 0.905929 0.877502 0.845061 0.808574 0.768032 0.723454 0.674890 0.622421 0.566162 0.506262 0.442908 0.376327 0.306782 0.234577 0.160060 0.083613 0.005664 0.073324 0.152849 0.232375 0.311332 0.389120 0.465116 0.538674 0.609132 0.675820 0.738062 0.795188 0.846539 0.891474 0.929382 0.959687 0.981862 0.995435 1.000000 0.995224 0.980861 0.956757 0.922859 0.879223 0.826022 0.763548 0.692219 0.612580 0.525308 0.431202 0.331192 0.226323 0.117754 0.006748 0.105343 0.217090 0.327006 0.433562 0.535211 0.630408 0.717641 0.795447 0.862449 0.917377 0.959097 0.986642 0.999229 0.996294 0.977507 0.942790 0.892340 0.826632 0.746431 0.652790 0.547048 0.430817 0.305969 0.174607 0.039041 0.098254 0.234674 0.367539 0.494139 0.611802 0.717938 0.810111 0.886096 0.943941 0.982024 0.999103 0.994368 0.967480 0.918596 0.848398 0.758092 0.649409 0.524581 0.386315 0.237737 0.082338 0.076107 0.233620 0.386123 0.529539 0.659909 0.773500 0.866924 0.937251 0.982104 0.999763 0.989231 0.950307 0.883613 0.790619 0.673630 0.535747 0.380805 0.213284 0.038188 0.139096 0.312953 0.477723 0.627881 0.758235 0.864112 0.941539 0.987413 0.999636 0.977236 0.920438 0.830707 0.710738 0.564402 0.396649 0.213361 0.021153 0.172839 0.361229 0.536651 0.692069 0.821049 0.918055 0.978705 0.999988 0.980443 0.920271 0.821386 0.687393 0.523492 0.336300 0.133620 0.075877 0.283009 0.478472 0.653279 0.799166 0.909015 0.977217 0.999995 0.975639 0.904660 0.789834 0.636144 0.450598 0.241946 0.020300 0.203349 0.417653 0.611498 0.774581 0.897980 0.974676 0.999984 0.971877 0.891182 0.761616 0.589674 0.384346 0.156689 0.080744 0.314574 0.531347 0.718318 0.864211 0.959939 0.999208 0.978976 0.899732 0.765567 0.584028 0.365746 0.123861 0.126739 0.370315 0.591262 0.775119 0.909548 0.985192 0.996390 0.941647 0.823851 0.650201 0.431825 0.183139 0.079086 0.336803 0.571950 0.767702 0.909724 0.987260 0.994001 0.928669 0.795242 0.602795 0.364952 0.098997 0.175362 0.437404 0.666983 0.846090 0.960297 0.999997 0.961275 0.846359 0.663604 0.426962 0.155003 0.130503 0.406293 0.649491 0.839543 0.959994 0.999970 0.955255 0.828803 0.630655 0.377252 0.090127 0.205853 0.484622 0.721197 0.893973 0.986737 0.990275 0.903383 0.733162 0.494551 0.209115 0.096837 0.394617 0.655860 0.855231 0.972951 0.996835 0.923658 0.759676 0.520215 0.228351 0.087232 0.395007 0.663746 0.865710 0.979572 0.992774 0.903017 0.718724 0.458389 0.148837 0.177460 0.485739 0.742651 0.919905 0.997471 0.965952 0.827844 0.597522 0.299868 0.032301 0.361778 0.651113 0.866891 0.983668 0.987080 0.875743 0.661684 0.369198 0.032216 0.309537 0.615204 0.847677 0.978186 0.989976 0.880598 0.662498 0.361772 0.015179 0.334256 0.642547 0.870308 0.987864 0.979250 0.844534 0.600125 0.276945 0.083335
1.000000 1.000000 1.000000 1.000000 1.000000 1.000000 1.000000 1.000000 1.000000 1.000000 1.000000 1.000000 1.000000 1.000000 1.000000 1.000000 1.000000 1.000000 1.000000 1.000000 1.000000 1.000000 1.000000 1.000000 1.000000 1.000000 1.000000 1.000000 1.000000 1.000000 1.000000 1.000000 1.000000 1.000000 1.000000 1.000000 1.000000 1.000000 1.000000 1.000000 1.000000 1.000000 1.000000 1.000000 1.000000 1.000000 1.000000 1.000000 1.000000 1.000000 1.000000 1.000000 0.928007 0.928007 0.928007 0.914859 0.914859 0.914859 0.914859 0.914859 0.914859 0.914859 0.914859 0.914859 0.914859 0.914859 0.914859 0.914859 0.914859 0.914859 0.914859 0.914859 0.914859 0.914859 0.914859 0.914859 0.914859 0.914859 0.914859 0.914859 0.914859 0.914859 0.914859 0.914859 0.914859 0.914859 0.914859 0.914859 0.914859 0.914859 0.914859 0.914859 0.914859 0.914859 0.914859 0.914859 0.942474 0.943958 0.952021 0.951840 0.951257 0.948971 0.947974 0.947481 0.947346 0.947644 0.948324 0.949262 0.958176 0.959355 0.962210 0.963135 0.963963 0.964734 0.965531 0.966448 0.965198 0.962479 0.961669 0.961467 0.964296 0.963965 0.964247 0.965375 0.965277 0.966137 0.966499 0.966298 0.965681 0.965094 0.964424 0.964000 0.963827 0.964473 0.964772 0.966113 0.969346 0.969816 0.969878 0.970033 0.970124 0.970283 0.970685 0.972363 0.968423 0.969151 0.969199 0.967036 0.974009 0.970922 0.971543 0.972031 0.973362 0.973555 0.967533 0.963292 0.953570 0.952637 0.947283 0.938205 0.934785 0.936081 0.938086 0.939100 0.939109 0.933563 0.933912 0.929905 0.928363 0.931820 0.929125 0.927532 0.928838 0.929872 0.930096 0.929493 0.928005 0.923141 0.918997 0.918183 0.921251 0.923958 0.925641 0.926195 0.921831 0.897160 0.895099 0.901476 0.889318 0.879523 0.874819 0.870600 0.875603 0.879132 0.883357 0.881714 0.869097 0.851471 0.836913 0.834969 0.836069 0.832116 0.832371 0.834490 0.825318 0.838266 0.835981 0.842064 0.840189 0.847508 0.846306 0.833469 0.830272 0.827250 0.822615 0.815449 0.821605 0.816612 0.816462 0.814037 0.810541 0.805370 0.810273 0.783715 0.770004 0.763904 0.767322 0.771595 0.765972 0.762840 0.770076 0.773533 0.777939 0.765575 0.757314 0.744045 0.748224 0.754548 0.761964 0.756271 0.740113 0.717484 0.667632 0.683209 0.720230 0.662006 0.682910 0.688032 0.673487 0.673843 0.665230 0.658259 0.655499 0.655791 0.663169 0.675679 0.689358 0.709622 0.700526 0.690355 0.690464 0.673505 0.668016 0.650043 0.658385 0.639371 0.635063 0.662580 0.635711 0.631405 0.624559 0.632741 0.648694 0.627193 0.625659 0.621934 0.615722 0.616787 0.616405 0.606260 0.617744 0.619293 0.610899 0.622688 0.634924 0.618998 0.604166 0.593022 0.557546 0.548071 0.577741 0.581530 0.562607 0.526767 0.528555 0.550469 0.553486 0.548980 0.520681 0.518687 0.524968 0.566441 0.555818 0.521290 0.536337 0.531784 0.533087 0.477188 0.470768 0.448539 0.437020 0.375785 0.360505 0.360898 0.347697 0.337409 0.301469 0.300030 0.307821 0.319382 0.321141 0.313851 0.300005 0.311038 0.304620 0.290315 0.231089 0.212130 0.198463 0.185214 0.188068 0.157486 0.178792 0.244172 0.246487 0.246487 0.246487 0.246487 0.246487 0.246487 0.256994 0.256994 0.256994 0.256994 0.256994 0.256994 0.256994 0.256994 0.256994 0.268147 0.268147 0.268147 0.268147 0.268147 0.268147 0.268147 0.268147 0.268147 0.268147 0.268147 0.268147 0.268147 0.268147
0.000000 0.000000 0.000000 0.000000 0.000000 0.000000 0.000000 0.000000 0.000000 0.000000 0.000000 0.000000 0.000000 0.000000 0.000000 0.000000 0.000000 0.000000 0.000000 0.000000 0.000000 0.000000 0.000000 0.000000 0.000000 7.000000 4.000000 0.000000 0.000000 0.000000 0.000000 0.000000 0.000000 0.000000 0.000000 0.000000 0.000000 0.000000 0.000000 0.000000 0.000000 0.000000 0.000000 0.000000 0.000000 0.000000 0.000000 0.000000 0.000000 0.000000 0.000000 0.000000 0.180334 0.180334 0.180334 0.199007 0.199007 0.199007 0.199007 0.199007 0.199007 0.199007 0.199007 0.199007 0.199007 0.199007 0.199007 0.199007 0.199007 0.199007 0.199007 0.199007 0.199007 0.199007 0.199007 0.199007 0.199007 0.199007 0.199007 0.199007 0.199007 0.199007 0.199007 0.199007 0.199007 0.199007 0.199007 0.199007 0.199007 0.199007 0.199007 0.199007 0.199007 0.199007 0.199007 0.199007 0.225018 0.225018 0.225018 0.225018 0.225018 0.225018 0.225018 0.225018 0.225018 0.225018 0.225018 0.225018 0.225018 0.225018 0.225018 0.225018 0.225018 0.225018 0.225018 0.225018 0.225018 0.225018 0.225018 0.225018 0.225018 0.225018 0.225018 0.225018 0.225018 0.244339 0.244339 0.244339 0.244339 0.244339 0.244339 0.244339 0.244339 0.244339 0.244339 0.244339 0.244339 0.244339 0.244339 0.244339 0.244339 0.244339 0.244339 0.244339 0.244339 0.244339 0.244339 0.244339 0.251976 0.251976 0.251976 0.251976 0.251976 0.251976 0.251976 0.251976 0.251976 0.251976 0.251976 0.251976 0.251976 0.251976 0.251976 0.251976 0.251976 0.251976 0.251976 0.251976 0.264906 0.264906 0.264906 0.264906 0.264906 0.264906 0.264906 0.264906 0.264906 0.264906 0.264906 0.264906 0.264906 0.264906 0.264906 0.264906 0.264906 0.256074 0.256074 0.256074 0.256074 0.256074 0.256074 0.256074 0.256074 0.256074 0.256074 0.256074 0.256074 0.256074 0.256074 0.256074 0.256074 0.256074 0.269680 0.269680 0.269680 0.269680 0.269680 0.269680 0.269680 0.269680 0.269680 0.269680 0.269680 0.269680 0.269680 0.269680 0.264906 0.264906 0.264906 0.264906 0.264906 0.264906 0.264906 0.264906 0.264906 0.264906 0.264906 0.264906 0.264906 0.264906 0.256074 0.256074 0.256074 0.256074 0.256074 0.256074 0.256074 0.256074 0.256074 0.256074 0.256074 0.256074 0.256074 0.256074 0.269680 0.269680 0.269680 0.269680 0.269680 0.269680 0.269680 0.269680 0.269680 0.269680 0.269680 0.269680 0.264906 0.264906 0.264906 0.264906 0.264906 0.264906 0.264906 0.264906 0.264906 0.264906 0.264906 0.264906 0.260378 0.260378 0.260378 0.260378 0.260378 0.260378 0.260378 0.260378 0.260378 0.260378 0.260378 0.260378 0.274721 0.274721 0.274721 0.274721 0.274721 0.274721 0.274721 0.274721 0.274721 0.274721 0.256074 0.256074 0.256074 0.256074 0.256074 0.256074 0.256074 0.256074 0.256074 0.256074 0.256074 0.264906 0.264906 0.264906 0.264906 0.264906 0.264906 0.264906 0.264906 0.264906 0.264906 0.260378 0.260378 0.260378 0.260378 0.260378 0.260378 0.260378 0.260378 0.260378 0.260378 0.256074 0.256074 0.256074 0.256074 0.256074 0.256074 0.256074 0.256074 0.256074 0.256074 0.260378 0.260378 0.260378 0.260378 0.260378 0.260378 0.260378 0.260378 0.260378 0.256074 0.256074 0.256074 0.256074 0.256074 0.256074 0.256074 0.256074 0.256074 0.251976 0.251976 0.251976 0.251976 0.251976 0.251976 0.251976 0.251976 0.251976 0.251976 0.251976 0.251976 0.251976 0.251976
