# Output from CTFFind version 4.1.9, run on 2019-11-03 19:29:07
# Input file: stack16_bm3d_averaged_1_3.75_0_1500_half.mrc ; Number of micrographs: 1
# Pixel size: 3.000 Angstroms ; acceleration voltage: 300.0 keV ; spherical aberration: 0.00 mm ; amplitude contrast: 0.07
# Box size: 512 pixels ; min. res.: 30.0 Angstroms ; max. res.: 5.0 Angstroms ; min. def.: 5000.0 um; max. def. 50000.0 um; num. frames averaged: 1
# 6 lines per micrograph: #1 - spatial frequency (1/Angstroms); #2 - 1D rotational average of spectrum (assuming no astigmatism); #3 - 1D rotational average of spectrum; #4 - CTF fit; #5 - cross-correlation between spectrum and CTF fit; #6 - 2sigma of expected cross correlation of noise
0.000000 0.000651 0.001302 0.001953 0.002604 0.003255 0.003906 0.004557 0.005208 0.005859 0.006510 0.007161 0.007812 0.008464 0.009115 0.009766 0.010417 0.011068 0.011719 0.012370 0.013021 0.013672 0.014323 0.014974 0.015625 0.016276 0.016927 0.017578 0.018229 0.018880 0.019531 0.020182 0.020833 0.021484 0.022135 0.022786 0.023438 0.024089 0.024740 0.025391 0.026042 0.026693 0.027344 0.027995 0.028646 0.029297 0.029948 0.030599 0.031250 0.031901 0.032552 0.033203 0.033854 0.034505 0.035156 0.035807 0.036458 0.037109 0.037760 0.038411 0.039062 0.039714 0.040365 0.041016 0.041667 0.042318 0.042969 0.043620 0.044271 0.044922 0.045573 0.046224 0.046875 0.047526 0.048177 0.048828 0.049479 0.050130 0.050781 0.051432 0.052083 0.052734 0.053385 0.054036 0.054688 0.055339 0.055990 0.056641 0.057292 0.057943 0.058594 0.059245 0.059896 0.060547 0.061198 0.061849 0.062500 0.063151 0.063802 0.064453 0.065104 0.065755 0.066406 0.067057 0.067708 0.068359 0.069010 0.069661 0.070312 0.070964 0.071615 0.072266 0.072917 0.073568 0.074219 0.074870 0.075521 0.076172 0.076823 0.077474 0.078125 0.078776 0.079427 0.080078 0.080729 0.081380 0.082031 0.082682 0.083333 0.083984 0.084635 0.085286 0.085938 0.086589 0.087240 0.087891 0.088542 0.089193 0.089844 0.090495 0.091146 0.091797 0.092448 0.093099 0.093750 0.094401 0.095052 0.095703 0.096354 0.097005 0.097656 0.098307 0.098958 0.099609 0.100260 0.100911 0.101562 0.102214 0.102865 0.103516 0.104167 0.104818 0.105469 0.106120 0.106771 0.107422 0.108073 0.108724 0.109375 0.110026 0.110677 0.111328 0.111979 0.112630 0.113281 0.113932 0.114583 0.115234 0.115885 0.116536 0.117188 0.117839 0.118490 0.119141 0.119792 0.120443 0.121094 0.121745 0.122396 0.123047 0.123698 0.124349 0.125000 0.125651 0.126302 0.126953 0.127604 0.128255 0.128906 0.129557 0.130208 0.130859 0.131510 0.132161 0.132812 0.133464 0.134115 0.134766 0.135417 0.136068 0.136719 0.137370 0.138021 0.138672 0.139323 0.139974 0.140625 0.141276 0.141927 0.142578 0.143229 0.143880 0.144531 0.145182 0.145833 0.146484 0.147135 0.147786 0.148438 0.149089 0.149740 0.150391 0.151042 0.151693 0.152344 0.152995 0.153646 0.154297 0.154948 0.155599 0.156250 0.156901 0.157552 0.158203 0.158854 0.159505 0.160156 0.160807 0.161458 0.162109 0.162760 0.163411 0.164062 0.164714 0.165365 0.166016 0.166667 0.167318 0.167969 0.168620 0.169271 0.169922 0.170573 0.171224 0.171875 0.172526 0.173177 0.173828 0.174479 0.175130 0.175781 0.176432 0.177083 0.177734 0.178385 0.179036 0.179688 0.180339 0.180990 0.181641 0.182292 0.182943 0.183594 0.184245 0.184896 0.185547 0.186198 0.186849 0.187500 0.188151 0.188802 0.189453 0.190104 0.190755 0.191406 0.192057 0.192708 0.193359 0.194010 0.194661 0.195312 0.195964 0.196615 0.197266 0.197917 0.198568 0.199219 0.199870 0.200521 0.201172 0.201823 0.202474 0.203125 0.203776 0.204427 0.205078 0.205729 0.206380 0.207031 0.207682 0.208333 0.208984 0.209635 0.210286 0.210938 0.211589 0.212240 0.212891 0.213542 0.214193 0.214844 0.215495 0.216146 0.216797 0.217448 0.218099 0.218750 0.219401 0.220052 0.220703 0.221354 0.222005 0.222656 0.223307 0.223958 0.224609 0.225260 0.225911 0.226562 0.227214 0.227865 0.228516 0.229167 0.229818 0.230469 0.231120 0.231771 0.232422 0.233073 0.233724 0.234375 0.235026 0.235677
       0.33567        0.33567        0.33567        0.33567        0.33567        0.33567        0.33567        0.33567        0.33567        0.33567        0.33567        0.33567        0.33567        0.33567        0.33567        0.33567        0.33567        0.33567        0.33567        0.33567        0.33567        0.33567        0.33567        0.33567        0.33567        0.33567        0.33567        0.33567        0.33567        0.33567        0.33567        0.33567        0.33567        0.33567        0.33567        0.33567        0.33567        0.33567        0.33567        0.33567        0.33567        0.33567        0.33567        0.33567        0.33567        0.33567        0.33567        0.33567        0.33567        0.33567        0.33567        0.42968        0.58609        0.37442       -0.16760       -0.44698       -0.56172       -0.65580       -0.73095       -0.75413       -0.87252       -0.92000       -0.72337       -0.89362       -0.85588       -1.00612       -1.04820       -0.93614       -0.89246       -0.82602       -0.76689       -0.67958       -0.59428       -0.50247       -0.42416       -0.20773       -0.09364       -0.00402        0.22626        0.23930        0.30525        0.37157        0.39864        0.49699        0.55279        0.58463        0.55225        0.48722        0.52615        0.49729        0.41796        0.32057        0.18337        0.17172        0.10922       -0.04382       -0.05988       -0.05625        0.02587       -0.01207        0.04082        0.02911        0.14430        0.19046        0.40655        0.46680        0.56468        0.66890        0.72347        0.72847        0.66078        0.63859        0.53968        0.45205        0.38113        0.26611        0.20385        0.18700        0.07557        0.04797        0.02781        0.05539        0.08377        0.29048        0.41173        0.50903        0.55767        0.59679        0.64720        0.61443        0.62158        0.60813        0.57436        0.47517        0.28284        0.25157        0.20949        0.11583        0.06054        0.10892        0.12766        0.26398        0.35515        0.41033        0.48437        0.54871        0.62255        0.57180        0.52213        0.50087        0.36473        0.22007        0.21705        0.15627        0.12851        0.17272        0.22452        0.26473        0.32053        0.42230        0.43218        0.52083        0.46923        0.46189        0.47086        0.37825        0.32139        0.27125        0.21772        0.20433        0.22149        0.23132        0.31596        0.42647        0.42768        0.48668        0.54262        0.47097        0.43144        0.36267        0.29470        0.24333        0.23480        0.26425        0.27757        0.29710        0.32591        0.41310        0.46985        0.45487        0.45373        0.35209        0.36374        0.35314        0.21707        0.23123        0.24897        0.28542        0.34812        0.37041        0.40304        0.44207        0.44039        0.37217        0.35512        0.30853        0.32507        0.28449        0.27069        0.27432        0.32271        0.37404        0.38349        0.40228        0.37677        0.40101        0.36343        0.28771        0.28021        0.29628        0.32626        0.36000        0.34588        0.41675        0.34847        0.37588        0.37550        0.32192        0.33325        0.28377        0.29456        0.34065        0.32368        0.32687        0.33382        0.35208        0.31743        0.34199        0.29564        0.31223        0.27444        0.28692        0.29282        0.34517        0.38142        0.35655        0.34192        0.29531        0.27145        0.27318        0.30577        0.27469        0.30602        0.36234        0.37883        0.33573        0.30757        0.30157        0.29669        0.28515        0.28159        0.28416        0.32593        0.33757        0.30811        0.27935        0.33550        0.30572        0.29330        0.33022        0.32663        0.32353        0.33911        0.30387        0.32276        0.27382        0.29777        0.30041        0.31721        0.40089        0.32676        0.34634        0.30439        0.30125        0.30334        0.32277        0.28821        0.28162        0.30858        0.31135        0.33719        0.30875        0.31135        0.29347        0.29539        0.30545        0.33278        0.31925        0.33648        0.34094        0.30592        0.27849        0.28884        0.25619        0.32627        0.32655        0.32296        0.29763        0.27247        0.29637        0.32492        0.31856        0.29317        0.28644        0.30751        0.29565        0.24246        0.30741        0.29097        0.29069        0.30884        0.29836        0.34323        0.36893        0.28871        0.24833        0.24425        0.26493        0.27636        0.26923        0.28311        0.26434        0.25106        0.28533        0.29401        0.27619        0.24049        0.33509        0.30455        0.27529        0.25186        0.23399        0.26707        0.23225        0.26373        0.31617        0.34721        0.28038        0.25983        0.26500        0.25747        0.20507        0.30787        0.23377        0.19054        0.14999        0.21916        0.27052        0.22293        0.00483        0.15830       -0.42918       -0.79459
2.954901 2.918340 2.882013 2.845921 2.810064 2.774441 2.739052 2.703898 2.668978 2.634293 2.599842 2.565626 2.531644 2.497896 2.464384 2.431105 2.398061 2.365251 2.332676 2.300335 2.268229 2.236357 2.204720 2.173317 2.142148 2.111214 2.080515 2.050050 2.019819 1.989823 1.960061 1.930534 1.901241 1.872182 1.843358 1.814769 1.786414 1.758293 1.730407 1.702755 1.675338 1.648155 1.621207 1.594493 1.568013 1.541768 1.515758 1.489982 1.464440 1.439133 1.414060 1.449777 1.567264 1.510405 0.862509 0.580242 0.425442 0.360796 0.273030 0.188513 0.132051 -0.068081 0.169712 0.030319 -0.059718 -0.129510 -0.251690 -0.173667 -0.092277 -0.096268 -0.102984 0.021785 0.016748 0.197596 0.098857 0.331401 0.444350 0.456772 0.727737 0.682726 0.673401 0.826460 0.795138 0.814546 0.919597 0.873374 0.908304 0.734721 0.821561 0.841338 0.656267 0.593803 0.447348 0.416416 0.381087 0.176332 0.162207 0.116644 0.217514 0.124575 0.216197 0.104913 0.254873 0.244058 0.478377 0.426546 0.610958 0.640540 0.702655 0.737688 0.664020 0.644389 0.492285 0.445115 0.325949 0.300123 0.125135 0.187907 -0.000169 0.018237 -0.040522 -0.037419 -0.010092 0.052843 0.302470 0.333900 0.411445 0.362132 0.455786 0.490104 0.473804 0.462844 0.391612 0.392795 0.153295 0.115733 0.071667 0.015767 -0.141071 -0.027611 -0.089044 0.040696 0.138255 0.184939 0.275571 0.269065 0.363978 0.474056 0.355222 0.407733 0.303752 0.148739 0.058478 0.075711 0.021993 0.032248 0.071958 0.113621 0.132617 0.242105 0.260407 0.300024 0.358146 0.256462 0.278390 0.243763 0.124295 0.106133 0.036679 0.035955 0.015503 0.022608 0.051962 0.174961 0.205251 0.202137 0.322631 0.218142 0.247813 0.113408 0.097350 -0.012693 -0.005590 -0.000676 0.025354 0.034996 0.029450 0.093380 0.168722 0.175609 0.217833 0.116472 0.080048 0.102451 0.030366 -0.089088 -0.008844 0.013994 0.034157 0.052087 0.106467 0.160286 0.139225 0.161255 0.056757 0.066368 0.035416 0.048606 0.006252 -0.004695 0.015796 0.054096 0.091092 0.120853 0.095422 0.103491 0.115311 0.042778 -0.005782 0.005451 0.011635 0.070985 0.056593 0.088594 0.118971 0.059593 0.091345 0.061030 0.037567 0.044441 -0.024750 0.026623 0.062608 0.029009 0.034211 0.095135 0.031581 0.053571 0.028323 0.012985 0.025397 -0.031675 -0.001191 0.010522 0.061738 0.098599 0.063479 0.038819 -0.011620 -0.022388 -0.011177 0.011616 -0.011262 0.021040 0.077138 0.075404 0.005250 0.028369 -0.011301 0.005212 -0.012639 -0.021097 -0.004429 0.041061 -0.001701 0.004315 -0.006498 0.023306 -0.010071 0.003391 0.023623 0.023466 0.042087 -0.018891 0.008285 0.003083 -0.050084 -0.003438 -0.007056 0.033546 0.096963 0.004084 0.026918 0.005942 0.007180 -0.020274 0.036553 -0.019129 -0.015494 0.001081 0.039278 0.026802 0.012198 0.043770 -0.034710 0.001748 0.004809 0.031812 0.040932 0.045379 0.022415 0.028155 0.002939 -0.020801 -0.014158 0.026535 0.041145 0.029371 0.010830 -0.017319 0.000478 0.036661 0.023468 0.019714 -0.002656 0.001116 -0.004985 -0.053234 0.007434 0.008421 0.000390 0.014104 0.019006 0.067351 0.072515 0.016031 -0.018018 -0.044189 -0.008685 0.011706 -0.045979 0.019201 -0.026379 -0.059090 0.017142 0.008878 -0.080136 -0.069033 0.027898 -0.021583 -0.058406 -0.067812 -0.056511 -0.015400 -0.066579 -0.016810 0.031338 0.082595 -0.009245 0.000814 0.121717 0.034805 -0.041977 0.170196 0.106068 0.128285 0.074008 0.204892 0.248600 0.212121 -0.139763 0.150618 -0.730532
0.072396 0.073047 0.075001 0.078256 0.082812 0.088667 0.095819 0.104265 0.114001 0.125021 0.137320 0.150889 0.165718 0.181793 0.199100 0.217620 0.237331 0.258206 0.280215 0.303323 0.327488 0.352662 0.378793 0.405819 0.433672 0.462275 0.491542 0.521380 0.551682 0.582335 0.613214 0.644182 0.675092 0.705786 0.736093 0.765832 0.794810 0.822823 0.849656 0.875085 0.898875 0.920783 0.940561 0.957953 0.972699 0.984535 0.993201 0.998435 0.999982 0.997591 0.991027 0.980065 0.964497 0.944138 0.918829 0.888438 0.852867 0.812057 0.765989 0.714691 0.658241 0.596771 0.530472 0.459594 0.384450 0.305420 0.222953 0.137561 0.049829 0.039596 0.129999 0.220605 0.310585 0.399056 0.485095 0.567744 0.646021 0.718931 0.785480 0.844690 0.895613 0.937346 0.969053 0.989978 0.999467 0.996983 0.982125 0.954648 0.914475 0.861712 0.796664 0.719839 0.631959 0.533963 0.427004 0.312447 0.191856 0.066982 0.060259 0.187807 0.313491 0.435066 0.550250 0.656764 0.752390 0.835010 0.902666 0.953609 0.986352 0.999719 0.992894 0.965461 0.917439 0.849312 0.762041 0.657075 0.536343 0.402237 0.257577 0.105564 0.050275 0.206170 0.358190 0.502340 0.634672 0.751393 0.848986 0.924325 0.974788 0.998363 0.993746 0.960412 0.898679 0.809743 0.695685 0.559455 0.404814 0.236262 0.058920 0.121614 0.299427 0.468483 0.622835 0.756833 0.865352 0.944003 0.989328 0.998984 0.971879 0.908280 0.809863 0.679718 0.522288 0.343254 0.149360 0.051821 0.252162 0.443312 0.617038 0.765592 0.882078 0.960795 0.997548 0.989910 0.937405 0.841621 0.706223 0.536862 0.340993 0.127577 0.093292 0.310851 0.514181 0.692770 0.837067 0.939024 0.992588 0.994101 0.942598 0.839966 0.690953 0.503019 0.286014 0.051711 0.186798 0.415820 0.621842 0.792346 0.916605 0.986398 0.996611 0.945678 0.835800 0.672958 0.466655 0.229441 0.023802 0.276757 0.512708 0.715654 0.871421 0.968697 0.999925 0.961956 0.856432 0.689833 0.473177 0.221372 0.047740 0.314606 0.559375 0.763379 0.910598 0.988985 0.991529 0.916972 0.770099 0.561557 0.307179 0.026881 0.256854 0.520742 0.742624 0.903362 0.988564 0.989963 0.906326 0.743788 0.515528 0.240828 0.056457 0.349938 0.612977 0.821165 0.954620 0.999993 0.951916 0.813753 0.597534 0.323063 0.016196 0.293493 0.575535 0.801586 0.948331 0.999994 0.950163 0.802724 0.571747 0.280307 0.041699 0.360538 0.642137 0.855765 0.977461 0.992852 0.899006 0.705075 0.431588 0.108460 0.228184 0.539971 0.790670 0.950458 0.999608 0.931080 0.751702 0.481717 0.152679 0.196082 0.522095 0.784912 0.951203 0.999111 0.921315 0.726336 0.437838 0.091978 0.267005 0.592360 0.840923 0.978959 0.986887 0.862282 0.620618 0.293603 0.074777 0.434058 0.734169 0.932474 0.999964 0.925730 0.718946 0.408037 0.037009 0.340620 0.669455 0.900397 0.998103 0.946620 0.752244 0.443081 0.065252 0.323797 0.663949 0.901723 0.998844 0.938627 0.729137 0.402445 0.010003 0.385255 0.718942 0.935749 0.998800 0.896185 0.643512 0.281882 0.128516 0.518250 0.820364 0.981966 0.973745 0.795593 0.477250 0.073681 0.344141 0.701648 0.933981 0.997979 0.880491 0.601434 0.210788 0.220016 0.611025 0.888558 0.999260 0.920684 0.666184 0.283100 0.155698 0.565466 0.865910 0.997072 0.931589 0.680817 0.293305 0.154207 0.571743 0.874180 0.998718 0.918278 0.647789 0.241920 0.215597 0.628985 0.910505 0.999229 0.874625 0.561744 0.126676 0.337038 0.728316
1.000000 1.000000 1.000000 1.000000 1.000000 1.000000 1.000000 1.000000 1.000000 1.000000 1.000000 1.000000 1.000000 1.000000 1.000000 1.000000 1.000000 1.000000 1.000000 1.000000 1.000000 1.000000 1.000000 1.000000 1.000000 1.000000 1.000000 1.000000 1.000000 1.000000 1.000000 1.000000 1.000000 1.000000 1.000000 1.000000 1.000000 1.000000 1.000000 1.000000 1.000000 1.000000 1.000000 1.000000 1.000000 1.000000 1.000000 1.000000 1.000000 1.000000 1.000000 1.000000 0.932730 0.932730 0.932730 0.932730 0.932730 0.932730 0.932730 0.932730 0.932730 0.932730 0.932730 0.932730 0.932730 0.932730 0.932730 0.932730 0.932730 0.932730 0.932730 0.932730 0.932730 0.932730 0.932730 0.932730 0.932730 0.932730 0.932730 0.932730 0.932730 0.932730 0.932730 0.932730 0.932730 0.920041 0.918077 0.920988 0.921991 0.921889 0.921404 0.921115 0.921412 0.922902 0.924749 0.946123 0.948442 0.949500 0.950566 0.949356 0.951844 0.949641 0.954059 0.969086 0.968416 0.969302 0.963647 0.964482 0.964108 0.963537 0.965411 0.965117 0.963841 0.962331 0.961180 0.960168 0.959829 0.961381 0.961836 0.962116 0.962485 0.962451 0.962353 0.959938 0.957717 0.960135 0.959514 0.958435 0.963923 0.962571 0.964532 0.964528 0.965214 0.966016 0.966237 0.966414 0.960079 0.958401 0.956248 0.942324 0.936318 0.931747 0.934741 0.938015 0.936011 0.930910 0.928669 0.930912 0.922417 0.921969 0.916862 0.917414 0.905047 0.899608 0.889535 0.890944 0.892610 0.892429 0.889691 0.878009 0.869094 0.867470 0.870591 0.864577 0.861144 0.877361 0.872754 0.874811 0.878194 0.880757 0.887827 0.874096 0.867944 0.864069 0.859452 0.858996 0.861077 0.865453 0.867744 0.863963 0.855988 0.859671 0.854175 0.860044 0.865454 0.862810 0.858570 0.856550 0.856125 0.857115 0.852596 0.858260 0.848918 0.846196 0.845010 0.838762 0.838175 0.832884 0.832625 0.833927 0.836974 0.828410 0.834784 0.817320 0.824059 0.818757 0.824375 0.820449 0.823144 0.823899 0.807790 0.802953 0.800269 0.808002 0.814706 0.785716 0.783459 0.778732 0.769395 0.774092 0.780639 0.774950 0.776601 0.769352 0.777086 0.776042 0.778598 0.773991 0.754707 0.757101 0.765586 0.771952 0.750436 0.739612 0.734287 0.734107 0.731290 0.691998 0.678906 0.665834 0.651742 0.655840 0.647553 0.630485 0.635943 0.637787 0.611604 0.613344 0.608457 0.565230 0.555699 0.544448 0.547791 0.542082 0.558363 0.558173 0.536202 0.551524 0.555363 0.557399 0.571008 0.449803 0.455897 0.436050 0.459730 0.471437 0.473435 0.453630 0.462698 0.456152 0.460650 0.460804 0.459214 0.475795 0.453740 0.448827 0.462587 0.441078 0.429293 0.443290 0.456263 0.461959 0.445978 0.445639 0.448017 0.444616 0.400757 0.401881 0.430882 0.427306 0.379992 0.385023 0.399118 0.381411 0.415433 0.413879 0.425255 0.438290 0.395996 0.402738 0.388193 0.414441 0.439891 0.420616 0.405550 0.398352 0.412175 0.372963 0.386276 0.411809 0.387442 0.455842 0.401768 0.391194 0.315584 0.351440 0.308558 0.318809 0.313085 0.253717 0.245385 0.217301 0.222192 0.195070 0.206474 0.183040 0.159039 0.125307 0.130411 0.101673 0.125467 0.134843 0.112538 0.105970 0.105970 0.105970 0.105970 0.091645 0.091645 0.091645 0.091645 0.091645 0.091645 0.091645 0.091645 0.091645 0.091645 0.091645 0.091645 0.091645 0.091645 0.012102 0.012102 0.012102 0.012102 0.012102 0.012102 0.012102 0.012102 0.012102 0.012102 0.012102 0.012102
0.000000 0.000000 0.000000 0.000000 0.000000 0.000000 0.000000 0.000000 0.000000 0.000000 0.000000 0.000000 0.000000 0.000000 0.000000 0.000000 0.000000 0.000000 0.000000 0.000000 0.000000 0.000000 0.000000 0.000000 0.000000 7.000000 4.000000 0.000000 0.000000 0.000000 0.000000 0.000000 0.000000 0.000000 0.000000 0.000000 0.000000 0.000000 0.000000 0.000000 0.000000 0.000000 0.000000 0.000000 0.000000 0.000000 0.000000 0.000000 0.000000 0.000000 0.000000 0.000000 0.209657 0.209657 0.209657 0.209657 0.209657 0.209657 0.209657 0.209657 0.209657 0.209657 0.209657 0.209657 0.209657 0.209657 0.209657 0.209657 0.209657 0.209657 0.209657 0.209657 0.209657 0.209657 0.209657 0.209657 0.209657 0.209657 0.209657 0.209657 0.209657 0.209657 0.209657 0.209657 0.209657 0.244339 0.244339 0.244339 0.244339 0.244339 0.244339 0.244339 0.244339 0.244339 0.244339 0.244339 0.244339 0.244339 0.244339 0.244339 0.244339 0.244339 0.244339 0.244339 0.244339 0.244339 0.244339 0.244339 0.244339 0.244339 0.260378 0.260378 0.260378 0.260378 0.260378 0.260378 0.260378 0.260378 0.260378 0.260378 0.260378 0.260378 0.260378 0.260378 0.260378 0.260378 0.260378 0.260378 0.260378 0.260378 0.269680 0.269680 0.269680 0.269680 0.269680 0.269680 0.269680 0.269680 0.269680 0.269680 0.269680 0.269680 0.269680 0.269680 0.269680 0.269680 0.269680 0.269680 0.269680 0.269680 0.269680 0.269680 0.269680 0.269680 0.269680 0.269680 0.269680 0.269680 0.269680 0.269680 0.269680 0.269680 0.269680 0.280056 0.280056 0.280056 0.280056 0.280056 0.280056 0.280056 0.280056 0.280056 0.280056 0.280056 0.280056 0.280056 0.280056 0.280056 0.280056 0.280056 0.280056 0.280056 0.280056 0.280056 0.280056 0.280056 0.280056 0.280056 0.280056 0.280056 0.285714 0.285714 0.285714 0.285714 0.285714 0.285714 0.285714 0.285714 0.285714 0.285714 0.285714 0.285714 0.274721 0.274721 0.274721 0.274721 0.274721 0.274721 0.274721 0.274721 0.274721 0.274721 0.274721 0.274721 0.280056 0.280056 0.280056 0.280056 0.280056 0.280056 0.280056 0.280056 0.280056 0.280056 0.280056 0.285714 0.285714 0.285714 0.285714 0.285714 0.285714 0.285714 0.285714 0.285714 0.285714 0.269680 0.269680 0.269680 0.269680 0.269680 0.269680 0.269680 0.269680 0.269680 0.269680 0.269680 0.285714 0.285714 0.285714 0.285714 0.285714 0.285714 0.285714 0.285714 0.285714 0.280056 0.280056 0.280056 0.280056 0.280056 0.280056 0.280056 0.280056 0.280056 0.274721 0.274721 0.274721 0.274721 0.274721 0.274721 0.274721 0.274721 0.274721 0.269680 0.269680 0.269680 0.269680 0.269680 0.269680 0.269680 0.269680 0.269680 0.280056 0.280056 0.280056 0.280056 0.280056 0.280056 0.280056 0.280056 0.260378 0.260378 0.260378 0.260378 0.260378 0.260378 0.260378 0.260378 0.260378 0.269680 0.269680 0.269680 0.269680 0.269680 0.269680 0.269680 0.269680 0.285714 0.285714 0.285714 0.285714 0.285714 0.285714 0.285714 0.264906 0.264906 0.264906 0.264906 0.264906 0.264906 0.264906 0.264906 0.274721 0.274721 0.274721 0.274721 0.274721 0.274721 0.274721 0.256074 0.256074 0.256074 0.256074 0.256074 0.256074 0.256074 0.256074 0.264906 0.264906 0.264906 0.264906 0.264906 0.264906 0.264906 0.264906 0.264906 0.264906 0.264906 0.264906 0.264906 0.264906 0.280056 0.280056 0.280056 0.280056 0.280056 0.280056 0.280056 0.280056 0.280056 0.280056 0.280056 0.280056
