# Output from CTFFind version 4.1.9, run on 2019-11-02 17:43:52
# Input file: stack1_bm3d_averaged_1_0.5_0_250_half.mrc ; Number of micrographs: 1
# Pixel size: 3.000 Angstroms ; acceleration voltage: 300.0 keV ; spherical aberration: 0.00 mm ; amplitude contrast: 0.07
# Box size: 512 pixels ; min. res.: 30.0 Angstroms ; max. res.: 5.0 Angstroms ; min. def.: 5000.0 um; max. def. 50000.0 um; num. frames averaged: 1
# 6 lines per micrograph: #1 - spatial frequency (1/Angstroms); #2 - 1D rotational average of spectrum (assuming no astigmatism); #3 - 1D rotational average of spectrum; #4 - CTF fit; #5 - cross-correlation between spectrum and CTF fit; #6 - 2sigma of expected cross correlation of noise
0.000000 0.000651 0.001302 0.001953 0.002604 0.003255 0.003906 0.004557 0.005208 0.005859 0.006510 0.007161 0.007812 0.008464 0.009115 0.009766 0.010417 0.011068 0.011719 0.012370 0.013021 0.013672 0.014323 0.014974 0.015625 0.016276 0.016927 0.017578 0.018229 0.018880 0.019531 0.020182 0.020833 0.021484 0.022135 0.022786 0.023438 0.024089 0.024740 0.025391 0.026042 0.026693 0.027344 0.027995 0.028646 0.029297 0.029948 0.030599 0.031250 0.031901 0.032552 0.033203 0.033854 0.034505 0.035156 0.035807 0.036458 0.037109 0.037760 0.038411 0.039062 0.039714 0.040365 0.041016 0.041667 0.042318 0.042969 0.043620 0.044271 0.044922 0.045573 0.046224 0.046875 0.047526 0.048177 0.048828 0.049479 0.050130 0.050781 0.051432 0.052083 0.052734 0.053385 0.054036 0.054688 0.055339 0.055990 0.056641 0.057292 0.057943 0.058594 0.059245 0.059896 0.060547 0.061198 0.061849 0.062500 0.063151 0.063802 0.064453 0.065104 0.065755 0.066406 0.067057 0.067708 0.068359 0.069010 0.069661 0.070312 0.070964 0.071615 0.072266 0.072917 0.073568 0.074219 0.074870 0.075521 0.076172 0.076823 0.077474 0.078125 0.078776 0.079427 0.080078 0.080729 0.081380 0.082031 0.082682 0.083333 0.083984 0.084635 0.085286 0.085938 0.086589 0.087240 0.087891 0.088542 0.089193 0.089844 0.090495 0.091146 0.091797 0.092448 0.093099 0.093750 0.094401 0.095052 0.095703 0.096354 0.097005 0.097656 0.098307 0.098958 0.099609 0.100260 0.100911 0.101562 0.102214 0.102865 0.103516 0.104167 0.104818 0.105469 0.106120 0.106771 0.107422 0.108073 0.108724 0.109375 0.110026 0.110677 0.111328 0.111979 0.112630 0.113281 0.113932 0.114583 0.115234 0.115885 0.116536 0.117188 0.117839 0.118490 0.119141 0.119792 0.120443 0.121094 0.121745 0.122396 0.123047 0.123698 0.124349 0.125000 0.125651 0.126302 0.126953 0.127604 0.128255 0.128906 0.129557 0.130208 0.130859 0.131510 0.132161 0.132812 0.133464 0.134115 0.134766 0.135417 0.136068 0.136719 0.137370 0.138021 0.138672 0.139323 0.139974 0.140625 0.141276 0.141927 0.142578 0.143229 0.143880 0.144531 0.145182 0.145833 0.146484 0.147135 0.147786 0.148438 0.149089 0.149740 0.150391 0.151042 0.151693 0.152344 0.152995 0.153646 0.154297 0.154948 0.155599 0.156250 0.156901 0.157552 0.158203 0.158854 0.159505 0.160156 0.160807 0.161458 0.162109 0.162760 0.163411 0.164062 0.164714 0.165365 0.166016 0.166667 0.167318 0.167969 0.168620 0.169271 0.169922 0.170573 0.171224 0.171875 0.172526 0.173177 0.173828 0.174479 0.175130 0.175781 0.176432 0.177083 0.177734 0.178385 0.179036 0.179688 0.180339 0.180990 0.181641 0.182292 0.182943 0.183594 0.184245 0.184896 0.185547 0.186198 0.186849 0.187500 0.188151 0.188802 0.189453 0.190104 0.190755 0.191406 0.192057 0.192708 0.193359 0.194010 0.194661 0.195312 0.195964 0.196615 0.197266 0.197917 0.198568 0.199219 0.199870 0.200521 0.201172 0.201823 0.202474 0.203125 0.203776 0.204427 0.205078 0.205729 0.206380 0.207031 0.207682 0.208333 0.208984 0.209635 0.210286 0.210938 0.211589 0.212240 0.212891 0.213542 0.214193 0.214844 0.215495 0.216146 0.216797 0.217448 0.218099 0.218750 0.219401 0.220052 0.220703 0.221354 0.222005 0.222656 0.223307 0.223958 0.224609 0.225260 0.225911 0.226562 0.227214 0.227865 0.228516 0.229167 0.229818 0.230469 0.231120 0.231771 0.232422 0.233073 0.233724 0.234375 0.235026 0.235677
       0.33256        0.33256        0.33256        0.33256        0.33256        0.33256        0.33256        0.33256        0.33256        0.33256        0.33256        0.33256        0.33256        0.33256        0.33256        0.33256        0.33256        0.33256        0.33256        0.33256        0.33256        0.33256        0.33256        0.33256        0.33256        0.33256        0.33256        0.33256        0.33256        0.33256        0.33256        0.33256        0.33256        0.33256        0.33256        0.33256        0.33256        0.33256        0.33256        0.33256        0.33256        0.33256        0.33256        0.33256        0.33256        0.33256        0.33256        0.33256        0.33256        0.33256        0.33256        0.50309        0.71963        0.43002        0.18869       -0.08154       -0.25941       -0.06739       -0.13417       -0.05052       -0.00442       -0.14842       -0.09043       -0.05688       -0.00578       -0.15392       -0.22292       -0.34824       -0.45997       -0.55343       -0.51318       -0.44374       -0.36987       -0.54429       -0.45161       -0.62162       -0.50392       -0.47370       -0.38884       -0.38851       -0.33958       -0.25290       -0.16077       -0.13914        0.03218       -0.01309        0.11885        0.16444        0.30672        0.41179        0.46204        0.50154        0.54289        0.55114        0.68719        0.64344        0.67547        0.59035        0.55483        0.65238        0.52749        0.42453        0.38041        0.32130        0.22983        0.26015        0.25101        0.10628        0.08096        0.00003       -0.00358        0.04122       -0.00729        0.07345        0.10500        0.23259        0.28550        0.29901        0.37768        0.56303        0.53234        0.57917        0.66708        0.70353        0.62986        0.63881        0.63207        0.55934        0.57571        0.40236        0.34431        0.26420        0.18316        0.07384        0.14296        0.11884        0.09173        0.10467        0.20817        0.21478        0.31750        0.36228        0.41199        0.49317        0.58257        0.54245        0.55684        0.60523        0.53479        0.45949        0.48381        0.32894        0.24586        0.26018        0.23916        0.14122        0.14245        0.15371        0.21798        0.23975        0.33146        0.36619        0.38994        0.46814        0.44478        0.48263        0.45309        0.46769        0.44880        0.40885        0.38616        0.35135        0.31318        0.29269        0.20459        0.19057        0.21832        0.26767        0.26727        0.34925        0.37392        0.35825        0.41185        0.44756        0.44162        0.42518        0.44412        0.38224        0.33476        0.28260        0.25897        0.29295        0.26732        0.29345        0.30046        0.34403        0.34269        0.39264        0.40460        0.42991        0.40790        0.43424        0.40188        0.35818        0.28130        0.29148        0.30719        0.26932        0.25255        0.32137        0.36961        0.34161        0.35179        0.35983        0.35832        0.41071        0.40678        0.36510        0.33765        0.30472        0.31185        0.31837        0.31958        0.30078        0.28077        0.33640        0.36124        0.37977        0.33375        0.32941        0.33632        0.34572        0.30891        0.28372        0.30257        0.30933        0.33909        0.31718        0.32525        0.35896        0.32676        0.31349        0.32527        0.30035        0.26527        0.25594        0.26662        0.30921        0.32164        0.35333        0.30250        0.30847        0.32897        0.29477        0.31404        0.28406        0.28431        0.29270        0.29425        0.30644        0.34449        0.33363        0.33233        0.34178        0.31437        0.33768        0.32034        0.31909        0.30766        0.28124        0.29115        0.30649        0.29319        0.32539        0.33354        0.33300        0.32787        0.34335        0.32167        0.28134        0.24845        0.26600        0.32881        0.35299        0.33853        0.31094        0.29049        0.29424        0.31031        0.25197        0.30089        0.31177        0.34120        0.29945        0.30924        0.28525        0.33572        0.33707        0.33996        0.31248        0.29121        0.31803        0.39917        0.32331        0.31008        0.31660        0.28381        0.28144        0.30549        0.27397        0.32354        0.23271        0.26951        0.29760        0.31254        0.29580        0.26149        0.29233        0.24092        0.22150        0.26429        0.29654        0.30856        0.27282        0.28078        0.33052        0.26161        0.22321        0.30210        0.27079        0.26138        0.28451        0.38665        0.29365        0.28734        0.25207        0.24624        0.27268        0.25584        0.23982        0.18045        0.26582        0.23317        0.24353        0.31681        0.25801        0.35982        0.30978        0.22894        0.21627        0.21030        0.23647        0.32426        0.23663        0.13568        0.17441        0.23256        0.24516        0.25803        0.21339        0.01676       -0.46530       -0.95042
2.699737 2.671206 2.642828 2.614604 2.586532 2.558613 2.530848 2.503236 2.475776 2.448470 2.421317 2.394317 2.367470 2.340777 2.314236 2.287848 2.261614 2.235533 2.209604 2.183829 2.158207 2.132738 2.107422 2.082259 2.057249 2.032393 2.007689 1.983139 1.958741 1.934497 1.910405 1.886467 1.862682 1.839050 1.815572 1.792246 1.769073 1.746053 1.723187 1.700474 1.677913 1.655506 1.633252 1.611151 1.589203 1.567408 1.545766 1.524278 1.502942 1.481760 1.460730 1.531912 1.835505 1.531657 1.159613 0.940089 0.547213 0.914668 0.631891 0.878692 0.925838 0.588649 0.714398 0.772559 0.816987 0.628730 0.534066 0.345096 0.103120 0.081742 0.047143 0.087383 0.303351 -0.037151 0.079431 -0.138246 -0.016198 -0.018081 0.084011 0.051570 0.102551 0.171856 0.280583 0.246591 0.481251 0.395667 0.549256 0.523082 0.768101 0.794182 0.879423 0.927533 0.944057 0.948364 1.103764 0.951712 1.141517 0.944630 0.853546 1.015679 0.849434 0.755679 0.615545 0.593474 0.461736 0.411388 0.509800 0.265000 0.192953 0.153745 0.013995 0.214728 -0.006150 0.113296 0.185375 0.260917 0.334532 0.342735 0.422360 0.544523 0.657261 0.542144 0.736168 0.874710 0.641592 0.699506 0.669372 0.599266 0.537386 0.471880 0.298361 0.212960 0.113737 -0.043247 -0.021989 0.055622 -0.100923 -0.058771 0.047405 0.051753 0.110767 0.224178 0.238566 0.310934 0.435025 0.438754 0.437977 0.483199 0.441775 0.319233 0.338227 0.246764 0.042536 0.061706 0.020302 -0.060713 -0.096275 -0.105330 -0.014874 -0.063624 0.067424 0.126332 0.123483 0.255299 0.223805 0.243471 0.289569 0.254881 0.244828 0.209254 0.180278 0.107231 0.101440 0.031205 0.012709 -0.126980 -0.059417 -0.001677 0.002089 0.015587 0.097187 0.083102 0.137173 0.174867 0.253056 0.166004 0.191499 0.114252 0.147293 0.013259 -0.031003 0.016190 -0.018348 -0.009259 -0.004255 0.031595 0.073075 0.057831 0.139463 0.120041 0.159667 0.065653 0.149795 0.085785 -0.015414 -0.059641 -0.016949 -0.034649 -0.081977 -0.067291 0.041157 0.065476 -0.010817 0.053760 0.058064 0.073908 0.147634 0.075212 0.064993 0.039287 -0.027344 0.027759 0.005480 0.012850 0.003518 -0.014384 0.035531 0.071918 0.072736 0.030106 0.045805 0.020646 0.063778 -0.010546 -0.018572 0.016166 0.007324 0.064364 0.028823 0.037266 0.074128 0.027396 0.014844 0.031367 -0.003438 -0.041781 -0.027178 -0.028311 0.027865 0.044351 0.096436 0.000161 0.049668 0.063945 -0.002953 0.063950 0.017130 0.019738 0.045003 0.048622 0.044732 0.103518 0.068427 0.077767 0.084173 0.088399 0.074180 0.069057 0.084468 0.032506 -0.000440 0.044886 0.035025 0.060049 0.062302 0.093227 -0.000327 0.070499 0.072232 0.008970 0.012662 -0.075897 -0.026872 0.103251 0.068612 0.042189 0.025533 -0.018927 0.031885 0.016983 -0.063195 0.043465 0.046160 0.073300 0.028943 0.002235 -0.000268 0.056382 0.042320 0.020853 0.031194 -0.034020 0.066725 0.119860 0.007457 -0.007726 0.012112 -0.015780 -0.035208 -0.008246 -0.048685 0.019511 -0.101684 -0.025689 -0.027895 0.021300 -0.029292 -0.051872 -0.003667 -0.071017 -0.061035 -0.057794 0.039718 0.014718 0.002327 -0.002646 0.090676 -0.045008 -0.036711 0.040458 -0.007949 0.028975 0.013876 0.190686 -0.004683 0.020252 0.028945 -0.018460 0.003269 -0.000177 -0.011531 -0.140520 0.032522 -0.029686 0.001936 0.044413 -0.018862 0.156914 0.045990 -0.029206 -0.054629 -0.026752 -0.066001 0.096472 0.283843 0.159846 0.222613 0.221722 0.337645 0.291530 0.251500 0.022394 -1.118870
0.072396 0.072910 0.074451 0.077018 0.080612 0.085231 0.090873 0.097539 0.105223 0.113925 0.123641 0.134365 0.146093 0.158817 0.172529 0.187220 0.202878 0.219489 0.237037 0.255504 0.274869 0.295108 0.316192 0.338090 0.360768 0.384186 0.408299 0.433059 0.458413 0.484300 0.510655 0.537408 0.564481 0.591791 0.619247 0.646751 0.674200 0.701482 0.728479 0.755065 0.781107 0.806466 0.830995 0.854542 0.876947 0.898045 0.917667 0.935638 0.951780 0.965911 0.977849 0.987408 0.994407 0.998662 0.999994 0.998231 0.993203 0.984752 0.972729 0.956997 0.937434 0.913933 0.886409 0.854795 0.819049 0.779157 0.735128 0.687007 0.634870 0.578825 0.519020 0.455640 0.388910 0.319095 0.246505 0.171487 0.094435 0.015783 0.063996 0.144385 0.224836 0.304761 0.383543 0.460539 0.535082 0.606489 0.674067 0.737116 0.794944 0.846868 0.892226 0.930385 0.960753 0.982785 0.995996 0.999969 0.994368 0.978945 0.953549 0.918136 0.872780 0.817673 0.753136 0.679619 0.597710 0.508128 0.411726 0.309489 0.202523 0.092051 0.020599 0.134007 0.246681 0.357066 0.463576 0.564608 0.658573 0.743916 0.819153 0.882892 0.933863 0.970952 0.993224 0.999953 0.990644 0.965059 0.923231 0.865484 0.792437 0.705014 0.604439 0.492231 0.370186 0.240362 0.105043 0.033288 0.171996 0.308339 0.439522 0.562758 0.675320 0.774618 0.858250 0.924080 0.970289 0.995439 0.998525 0.979019 0.936904 0.872705 0.787496 0.682900 0.561075 0.424685 0.276848 0.121085 0.038769 0.198639 0.354322 0.501593 0.636321 0.754591 0.852824 0.927900 0.977262 0.999022 0.992043 0.956006 0.891457 0.799823 0.683408 0.545353 0.389575 0.220669 0.043786 0.135512 0.311422 0.478092 0.629803 0.761192 0.867437 0.944457 0.989080 0.999198 0.973882 0.913463 0.819567 0.695105 0.544208 0.372124 0.185044 0.010094 0.205850 0.394572 0.568680 0.720991 0.845013 0.935255 0.987481 0.998940 0.968533 0.896921 0.786559 0.641650 0.468021 0.272913 0.064716 0.147389 0.353816 0.545006 0.711882 0.846292 0.941422 0.992185 0.995510 0.950572 0.858898 0.724373 0.553122 0.353265 0.134569 0.091999 0.314820 0.522207 0.703020 0.847291 0.946794 0.995549 0.990225 0.930404 0.818696 0.660684 0.464695 0.241413 0.003324 0.235959 0.462455 0.662650 0.824303 0.937236 0.994011 0.990465 0.926066 0.804054 0.631344 0.418194 0.177651 0.075217 0.324239 0.553163 0.746731 0.891724 0.977902 0.998778 0.952167 0.840454 0.670560 0.453579 0.204115 0.060650 0.322119 0.561563 0.761491 0.906946 0.986676 0.994065 0.927748 0.791858 0.595854 0.353941 0.084102 0.193182 0.456485 0.685076 0.860578 0.968500 0.999485 0.950212 0.823810 0.629765 0.383307 0.104278 0.184407 0.458613 0.695010 0.873068 0.976917 0.996817 0.930168 0.781911 0.564271 0.295849 0.000108 0.296630 0.567492 0.787525 0.936017 0.998528 0.968379 0.847471 0.646302 0.383167 0.082589 0.226889 0.515403 0.754638 0.920658 0.996360 0.973354 0.852989 0.646438 0.373798 0.062226 0.256693 0.550109 0.787303 0.942949 0.999910 0.951235 0.801121 0.564718 0.266718 0.061110 0.383254 0.664266 0.872715 0.984760 0.986990 0.878158 0.669588 0.384143 0.053845 0.283617 0.589167 0.826872 0.968229 0.995696 0.905010 0.705968 0.421538 0.085363 0.262138 0.578568 0.824738 0.969586 0.994221 0.894529 0.682000 0.382573 0.033629 0.320581 0.634488 0.867115 0.987489 0.978910 0.841432 0.592187 0.263443 0.101453 0.453666 0.745407 0.936479 0.999902
1.000000 1.000000 1.000000 1.000000 1.000000 1.000000 1.000000 1.000000 1.000000 1.000000 1.000000 1.000000 1.000000 1.000000 1.000000 1.000000 1.000000 1.000000 1.000000 1.000000 1.000000 1.000000 1.000000 1.000000 1.000000 1.000000 1.000000 1.000000 1.000000 1.000000 1.000000 1.000000 1.000000 1.000000 1.000000 1.000000 1.000000 1.000000 1.000000 1.000000 1.000000 1.000000 1.000000 1.000000 1.000000 1.000000 1.000000 1.000000 1.000000 1.000000 1.000000 1.000000 0.920518 0.920518 0.907198 0.907198 0.907198 0.907198 0.907198 0.907198 0.907198 0.907198 0.907198 0.907198 0.907198 0.907198 0.907198 0.907198 0.907198 0.907198 0.907198 0.907198 0.907198 0.907198 0.907198 0.907198 0.907198 0.907198 0.907198 0.907198 0.907198 0.907198 0.907198 0.907198 0.907198 0.907198 0.907198 0.907198 0.907198 0.907198 0.907198 0.907198 0.907198 0.907198 0.907198 0.904330 0.908857 0.910678 0.908911 0.912469 0.912557 0.911865 0.912199 0.911828 0.912107 0.913457 0.924007 0.935098 0.946444 0.946543 0.951613 0.956096 0.958424 0.959468 0.961032 0.967270 0.966060 0.965502 0.966222 0.967831 0.970083 0.968627 0.968455 0.971578 0.972315 0.970527 0.968504 0.967879 0.967249 0.967322 0.966905 0.966801 0.966704 0.967202 0.967426 0.967649 0.967787 0.967817 0.968841 0.969995 0.972218 0.973175 0.972945 0.971729 0.969645 0.973685 0.974494 0.974140 0.974028 0.973485 0.973795 0.962139 0.955702 0.955654 0.951358 0.950538 0.948032 0.945976 0.942973 0.943001 0.942277 0.942944 0.938489 0.926269 0.912570 0.900569 0.922341 0.907271 0.894967 0.872826 0.872753 0.872672 0.873332 0.867110 0.860518 0.856407 0.853414 0.854595 0.850723 0.853220 0.850876 0.840583 0.842978 0.841210 0.814124 0.797718 0.779748 0.780366 0.778063 0.779408 0.779195 0.778034 0.786130 0.776629 0.775233 0.767599 0.749135 0.712201 0.695425 0.705434 0.715029 0.711984 0.708382 0.693038 0.661821 0.674088 0.694928 0.696275 0.699530 0.690976 0.682208 0.680144 0.684597 0.674798 0.665899 0.664981 0.663436 0.672595 0.676522 0.674431 0.662429 0.646441 0.632751 0.619385 0.630866 0.638371 0.604631 0.598826 0.583339 0.575146 0.561328 0.541136 0.539446 0.513644 0.505128 0.510364 0.516440 0.519886 0.528608 0.530412 0.510744 0.528769 0.538929 0.563420 0.542669 0.541579 0.542093 0.547019 0.534751 0.517106 0.514488 0.515309 0.525098 0.549861 0.588770 0.578568 0.565052 0.553506 0.561606 0.533534 0.537792 0.555551 0.532430 0.474102 0.414422 0.411258 0.373974 0.376348 0.356967 0.352674 0.357722 0.348576 0.338653 0.325735 0.312332 0.252452 0.212945 0.197338 0.181484 0.184093 0.198910 0.198371 0.194112 0.211406 0.259419 0.261384 0.253748 0.234128 0.228101 0.195505 0.193548 0.214322 0.170116 0.159162 0.152074 0.126948 0.106320 0.053670 0.081525 -0.012515 -0.033354 -0.036946 -0.017838 -0.005502 -0.007170 -0.004286 -0.037098 -0.020709 0.021487 0.025304 0.013222 -0.056747 -0.041796 -0.032116 -0.031306 -0.049723 -0.062098 -0.063602 -0.074918 -0.077472 -0.061814 0.008639 0.064707 0.066937 0.046150 0.075762 0.072442 0.056578 0.069496 0.051393 0.050029 0.030251 0.022604 -0.020787 -0.052321 -0.052321 -0.050033 -0.050033 -0.050033 -0.050033 -0.050033 -0.050033 -0.050033 -0.050033 -0.050033 -0.052880 -0.052880 -0.052880 -0.052880 -0.052880 -0.052880 -0.052880 -0.052880 -0.052880 -0.023364 -0.023364 -0.023364 -0.023364 -0.023364 -0.023364 -0.023364 -0.023364 -0.023364
0.000000 0.000000 0.000000 0.000000 0.000000 0.000000 0.000000 0.000000 0.000000 0.000000 0.000000 0.000000 0.000000 0.000000 0.000000 0.000000 0.000000 0.000000 0.000000 0.000000 0.000000 0.000000 0.000000 0.000000 0.000000 0.000000 0.000000 0.000000 0.000000 0.000000 0.000000 0.000000 0.000000 0.000000 0.000000 0.000000 0.000000 0.000000 0.000000 0.000000 0.000000 0.000000 0.000000 0.000000 0.000000 0.000000 0.000000 0.000000 0.000000 0.000000 0.000000 0.000000 0.181818 0.181818 0.199007 0.199007 0.199007 0.199007 0.199007 0.199007 0.199007 0.199007 0.199007 0.199007 0.199007 0.199007 0.199007 0.199007 0.199007 0.199007 0.199007 0.199007 0.199007 0.199007 0.199007 0.199007 0.199007 0.199007 0.199007 0.199007 0.199007 0.199007 0.199007 0.199007 0.199007 0.199007 0.199007 0.199007 0.199007 0.199007 0.199007 0.199007 0.199007 0.199007 0.199007 0.230940 0.230940 0.230940 0.230940 0.230940 0.230940 0.230940 0.230940 0.230940 0.230940 0.230940 0.230940 0.230940 0.230940 0.230940 0.230940 0.230940 0.230940 0.230940 0.230940 0.230940 0.230940 0.230940 0.230940 0.230940 0.230940 0.230940 0.230940 0.244339 0.244339 0.244339 0.244339 0.244339 0.244339 0.244339 0.244339 0.244339 0.244339 0.244339 0.244339 0.244339 0.244339 0.244339 0.244339 0.244339 0.244339 0.244339 0.244339 0.244339 0.244339 0.244339 0.251976 0.251976 0.251976 0.251976 0.251976 0.251976 0.251976 0.251976 0.251976 0.251976 0.251976 0.251976 0.251976 0.251976 0.251976 0.251976 0.251976 0.251976 0.251976 0.251976 0.264906 0.264906 0.264906 0.264906 0.264906 0.264906 0.264906 0.264906 0.264906 0.264906 0.264906 0.264906 0.264906 0.264906 0.264906 0.264906 0.264906 0.264906 0.264906 0.264906 0.264906 0.264906 0.264906 0.264906 0.264906 0.264906 0.264906 0.264906 0.264906 0.264906 0.264906 0.264906 0.264906 0.264906 0.264906 0.264906 0.264906 0.264906 0.264906 0.264906 0.264906 0.264906 0.264906 0.264906 0.264906 0.264906 0.264906 0.264906 0.264906 0.264906 0.264906 0.264906 0.264906 0.264906 0.264906 0.264906 0.264906 0.264906 0.264906 0.264906 0.264906 0.264906 0.264906 0.264906 0.264906 0.264906 0.264906 0.264906 0.264906 0.264906 0.264906 0.264906 0.264906 0.264906 0.264906 0.269680 0.269680 0.269680 0.269680 0.269680 0.269680 0.269680 0.269680 0.269680 0.269680 0.269680 0.269680 0.264906 0.264906 0.264906 0.264906 0.264906 0.264906 0.264906 0.264906 0.264906 0.264906 0.264906 0.264906 0.269680 0.269680 0.269680 0.269680 0.269680 0.269680 0.269680 0.269680 0.269680 0.269680 0.269680 0.264906 0.264906 0.264906 0.264906 0.264906 0.264906 0.264906 0.264906 0.264906 0.264906 0.264906 0.256074 0.256074 0.256074 0.256074 0.256074 0.256074 0.256074 0.256074 0.256074 0.256074 0.256074 0.264906 0.264906 0.264906 0.264906 0.264906 0.264906 0.264906 0.264906 0.264906 0.264906 0.260378 0.260378 0.260378 0.260378 0.260378 0.260378 0.260378 0.260378 0.260378 0.260378 0.264906 0.264906 0.264906 0.264906 0.264906 0.264906 0.264906 0.264906 0.264906 0.260378 0.260378 0.260378 0.260378 0.260378 0.260378 0.260378 0.260378 0.260378 0.256074 0.256074 0.256074 0.256074 0.256074 0.256074 0.256074 0.256074 0.256074 0.251976 0.251976 0.251976 0.251976 0.251976 0.251976 0.251976 0.251976 0.251976 0.264906 0.264906 0.264906 0.264906 0.264906 0.264906 0.264906 0.264906 0.264906
