# Output from CTFFind version 4.1.9, run on 2019-11-03 19:49:49
# Input file: stack1_bm3d_averaged_1_5.25_0_3000_half.mrc ; Number of micrographs: 1
# Pixel size: 3.000 Angstroms ; acceleration voltage: 300.0 keV ; spherical aberration: 0.00 mm ; amplitude contrast: 0.07
# Box size: 512 pixels ; min. res.: 30.0 Angstroms ; max. res.: 5.0 Angstroms ; min. def.: 5000.0 um; max. def. 50000.0 um; num. frames averaged: 1
# 6 lines per micrograph: #1 - spatial frequency (1/Angstroms); #2 - 1D rotational average of spectrum (assuming no astigmatism); #3 - 1D rotational average of spectrum; #4 - CTF fit; #5 - cross-correlation between spectrum and CTF fit; #6 - 2sigma of expected cross correlation of noise
0.000000 0.000651 0.001302 0.001953 0.002604 0.003255 0.003906 0.004557 0.005208 0.005859 0.006510 0.007161 0.007812 0.008464 0.009115 0.009766 0.010417 0.011068 0.011719 0.012370 0.013021 0.013672 0.014323 0.014974 0.015625 0.016276 0.016927 0.017578 0.018229 0.018880 0.019531 0.020182 0.020833 0.021484 0.022135 0.022786 0.023438 0.024089 0.024740 0.025391 0.026042 0.026693 0.027344 0.027995 0.028646 0.029297 0.029948 0.030599 0.031250 0.031901 0.032552 0.033203 0.033854 0.034505 0.035156 0.035807 0.036458 0.037109 0.037760 0.038411 0.039062 0.039714 0.040365 0.041016 0.041667 0.042318 0.042969 0.043620 0.044271 0.044922 0.045573 0.046224 0.046875 0.047526 0.048177 0.048828 0.049479 0.050130 0.050781 0.051432 0.052083 0.052734 0.053385 0.054036 0.054688 0.055339 0.055990 0.056641 0.057292 0.057943 0.058594 0.059245 0.059896 0.060547 0.061198 0.061849 0.062500 0.063151 0.063802 0.064453 0.065104 0.065755 0.066406 0.067057 0.067708 0.068359 0.069010 0.069661 0.070312 0.070964 0.071615 0.072266 0.072917 0.073568 0.074219 0.074870 0.075521 0.076172 0.076823 0.077474 0.078125 0.078776 0.079427 0.080078 0.080729 0.081380 0.082031 0.082682 0.083333 0.083984 0.084635 0.085286 0.085938 0.086589 0.087240 0.087891 0.088542 0.089193 0.089844 0.090495 0.091146 0.091797 0.092448 0.093099 0.093750 0.094401 0.095052 0.095703 0.096354 0.097005 0.097656 0.098307 0.098958 0.099609 0.100260 0.100911 0.101562 0.102214 0.102865 0.103516 0.104167 0.104818 0.105469 0.106120 0.106771 0.107422 0.108073 0.108724 0.109375 0.110026 0.110677 0.111328 0.111979 0.112630 0.113281 0.113932 0.114583 0.115234 0.115885 0.116536 0.117188 0.117839 0.118490 0.119141 0.119792 0.120443 0.121094 0.121745 0.122396 0.123047 0.123698 0.124349 0.125000 0.125651 0.126302 0.126953 0.127604 0.128255 0.128906 0.129557 0.130208 0.130859 0.131510 0.132161 0.132812 0.133464 0.134115 0.134766 0.135417 0.136068 0.136719 0.137370 0.138021 0.138672 0.139323 0.139974 0.140625 0.141276 0.141927 0.142578 0.143229 0.143880 0.144531 0.145182 0.145833 0.146484 0.147135 0.147786 0.148438 0.149089 0.149740 0.150391 0.151042 0.151693 0.152344 0.152995 0.153646 0.154297 0.154948 0.155599 0.156250 0.156901 0.157552 0.158203 0.158854 0.159505 0.160156 0.160807 0.161458 0.162109 0.162760 0.163411 0.164062 0.164714 0.165365 0.166016 0.166667 0.167318 0.167969 0.168620 0.169271 0.169922 0.170573 0.171224 0.171875 0.172526 0.173177 0.173828 0.174479 0.175130 0.175781 0.176432 0.177083 0.177734 0.178385 0.179036 0.179688 0.180339 0.180990 0.181641 0.182292 0.182943 0.183594 0.184245 0.184896 0.185547 0.186198 0.186849 0.187500 0.188151 0.188802 0.189453 0.190104 0.190755 0.191406 0.192057 0.192708 0.193359 0.194010 0.194661 0.195312 0.195964 0.196615 0.197266 0.197917 0.198568 0.199219 0.199870 0.200521 0.201172 0.201823 0.202474 0.203125 0.203776 0.204427 0.205078 0.205729 0.206380 0.207031 0.207682 0.208333 0.208984 0.209635 0.210286 0.210938 0.211589 0.212240 0.212891 0.213542 0.214193 0.214844 0.215495 0.216146 0.216797 0.217448 0.218099 0.218750 0.219401 0.220052 0.220703 0.221354 0.222005 0.222656 0.223307 0.223958 0.224609 0.225260 0.225911 0.226562 0.227214 0.227865 0.228516 0.229167 0.229818 0.230469 0.231120 0.231771 0.232422 0.233073 0.233724 0.234375 0.235026 0.235677
       0.35139        0.35139        0.35139        0.35139        0.35139        0.35139        0.35139        0.35139        0.35139        0.35139        0.35139        0.35139        0.35139        0.35139        0.35139        0.35139        0.35139        0.35139        0.35139        0.35139        0.35139        0.35139        0.35139        0.35139        0.35139        0.35139        0.35139        0.35139        0.35139        0.35139        0.35139        0.35139        0.35139        0.35139        0.35139        0.35139        0.35139        0.35139        0.35139        0.35139        0.35139        0.35139        0.35139        0.35139        0.35139        0.35139        0.35139        0.35139        0.35139        0.35139        0.35139        0.40804        0.59700        0.28289        0.12826       -0.01519       -0.26961       -0.09584       -0.17205       -0.19982        0.01864       -0.12770       -0.11092       -0.05566       -0.03431       -0.12735       -0.15590       -0.29532       -0.40048       -0.50354       -0.44703       -0.34659       -0.27118       -0.39568       -0.30675       -0.40474       -0.33847       -0.38636       -0.20542       -0.20041       -0.25633       -0.09205       -0.04667       -0.04398        0.08443        0.03271        0.20319        0.21887        0.33333        0.36853        0.45451        0.48820        0.54094        0.60255        0.67305        0.57263        0.53029        0.50620        0.48794        0.57225        0.48330        0.43010        0.40904        0.33201        0.28608        0.30994        0.32071        0.22121        0.19473        0.09103        0.13121        0.13431        0.15575        0.12513        0.18878        0.24048        0.29916        0.29924        0.32932        0.46369        0.42663        0.48919        0.63637        0.62821        0.55905        0.55538        0.57795        0.43047        0.48039        0.36799        0.31960        0.29272        0.24683        0.25209        0.19644        0.17113        0.15518        0.22551        0.24766        0.27819        0.34062        0.33064        0.40637        0.47541        0.47017        0.44975        0.47887        0.55552        0.49407        0.48290        0.42530        0.35629        0.34171        0.26335        0.29713        0.23391        0.21997        0.28798        0.23395        0.25709        0.32178        0.41245        0.41610        0.45142        0.42909        0.50683        0.49855        0.46804        0.43527        0.39386        0.38299        0.39224        0.40514        0.35120        0.28293        0.31473        0.29163        0.29412        0.30209        0.34749        0.37591        0.39948        0.45534        0.49446        0.41575        0.42956        0.43485        0.39471        0.33515        0.37063        0.32780        0.32192        0.33403        0.29876        0.26728        0.32950        0.34247        0.41326        0.42790        0.41987        0.40769        0.39867        0.37624        0.37508        0.31104        0.31580        0.35108        0.30184        0.31446        0.33064        0.34659        0.35044        0.35557        0.38706        0.38507        0.45552        0.39209        0.34414        0.36613        0.34314        0.33372        0.33407        0.33204        0.37242        0.33377        0.35853        0.35456        0.41087        0.37841        0.36681        0.38837        0.38302        0.36111        0.34233        0.33513        0.31188        0.35352        0.33081        0.31822        0.33132        0.36333        0.35233        0.34638        0.33673        0.30315        0.29987        0.27830        0.30950        0.33478        0.35123        0.33707        0.32074        0.37162        0.33430        0.34437        0.32521        0.30441        0.34519        0.32200        0.31512        0.34704        0.32743        0.31850        0.29963        0.34117        0.37053        0.32389        0.31282        0.32438        0.32153        0.30309        0.35546        0.32430        0.29611        0.34059        0.30616        0.34597        0.35966        0.37276        0.31040        0.31422        0.26905        0.33780        0.35924        0.34349        0.31488        0.30840        0.33433        0.32379        0.29152        0.31976        0.32135        0.31581        0.31665        0.30487        0.29464        0.30032        0.30366        0.32562        0.29045        0.31217        0.35705        0.37021        0.35275        0.31963        0.33248        0.28759        0.30714        0.28571        0.33769        0.34447        0.27291        0.25979        0.32913        0.32847        0.31557        0.29257        0.30796        0.32995        0.29075        0.30647        0.33399        0.32319        0.28282        0.26002        0.29907        0.33816        0.28560        0.27044        0.29028        0.27764        0.30443        0.37202        0.31264        0.32365        0.28221        0.26444        0.30199        0.28447        0.23489        0.25072        0.27248        0.24781        0.22243        0.27407        0.28386        0.38921        0.29459        0.26537        0.22378        0.24793        0.25916        0.24521        0.30870        0.19981        0.16209        0.29468        0.41872        0.31228        0.11321        0.05421       -0.56738       -1.10020
3.021235 2.988341 2.955629 2.923098 2.890748 2.858580 2.826594 2.794789 2.763166 2.731724 2.700463 2.669384 2.638487 2.607771 2.577237 2.546885 2.516714 2.486724 2.456916 2.427289 2.397844 2.368581 2.339499 2.310598 2.281879 2.253342 2.224986 2.196812 2.168819 2.141008 2.113378 2.085930 2.058663 2.031578 2.004674 1.977952 1.951411 1.925052 1.898875 1.872879 1.847064 1.821431 1.795980 1.770710 1.745622 1.720715 1.695990 1.671446 1.647084 1.622903 1.598904 1.563231 1.917797 1.658761 1.118449 1.074110 0.416488 0.904532 0.526229 0.669372 0.894962 0.692878 0.585653 0.764557 0.708537 0.623362 0.529588 0.331215 0.108150 -0.020206 -0.020515 0.005659 0.393438 -0.040767 0.121891 -0.005642 0.059610 -0.063284 0.200732 0.175605 0.080432 0.267205 0.378089 0.286927 0.481065 0.396924 0.678556 0.565910 0.812667 0.765275 0.880941 1.040815 0.940780 1.130600 1.156842 1.129025 0.922615 0.898416 0.889667 0.918856 0.868192 0.759991 0.651423 0.597325 0.509424 0.480399 0.515836 0.363255 0.331591 0.167323 0.129610 0.174958 0.185956 0.121341 0.163817 0.247057 0.333393 0.333434 0.391733 0.406498 0.556992 0.392775 0.730726 0.769806 0.659753 0.607060 0.665321 0.454320 0.420677 0.391363 0.207910 0.220600 0.062620 0.157699 -0.004535 0.003801 -0.070646 -0.050379 0.106145 0.031321 0.118655 0.170314 0.213942 0.285208 0.354050 0.294963 0.291445 0.410935 0.400670 0.337482 0.294673 0.192788 0.146918 0.055902 -0.011556 0.009241 -0.116514 0.020241 0.012510 -0.087351 -0.045754 0.119126 0.246920 0.170723 0.260992 0.208778 0.408461 0.282323 0.273072 0.277212 0.152858 0.114834 0.289913 0.084958 0.081892 0.012312 0.076535 -0.010116 0.080907 0.002683 0.168921 0.063573 0.206002 0.295358 0.253829 0.120622 0.207963 0.163995 0.092247 0.087286 0.076846 0.012663 0.018336 0.054737 -0.078459 -0.054109 0.051006 0.041956 0.209769 0.154271 0.119175 0.065950 0.092559 0.047690 0.018498 -0.076145 -0.009457 0.000396 -0.075439 -0.022644 -0.013388 0.021829 -0.023445 0.027995 0.084086 0.066635 0.186233 -0.011032 0.036096 0.025895 -0.026389 -0.002377 -0.022398 0.003599 0.073673 -0.028975 0.010075 0.043701 0.112086 0.045837 0.039695 0.090555 0.024783 0.042891 -0.018042 0.005543 -0.036550 0.025190 -0.009650 -0.032928 0.008818 0.031822 -0.000493 0.032197 -0.024715 -0.049784 -0.058647 -0.086739 -0.024792 0.011148 0.048651 -0.026075 -0.011764 0.089135 -0.006346 0.037846 -0.010990 -0.013642 0.040799 -0.015931 0.022077 0.045447 0.018354 -0.005816 -0.021144 0.043673 0.102353 0.013217 0.018540 0.047442 -0.018716 0.030564 0.079916 0.026189 0.006002 0.066211 0.015900 0.052382 0.052185 0.075496 0.014220 -0.024202 -0.077758 0.056221 0.092654 -0.001101 0.008370 -0.016440 0.068503 -0.007680 -0.047471 0.023653 0.028992 0.006600 0.008419 -0.040709 -0.006316 -0.036613 -0.015485 0.003945 -0.046083 0.033136 0.076325 0.097576 0.033231 0.015631 -0.000739 -0.023318 -0.031810 -0.030685 0.010039 0.039760 -0.103601 -0.084690 0.024637 0.002145 0.015922 -0.050586 -0.084040 0.038309 -0.039701 -0.019313 0.085373 -0.009394 -0.009927 -0.064919 -0.018392 0.090163 -0.003359 0.016779 0.029703 0.066420 0.068572 0.188084 0.065144 0.085372 0.033255 0.083509 0.101873 0.033787 -0.005469 0.003882 0.072596 0.045655 -0.009692 0.025813 0.152572 0.264102 0.013419 0.116458 -0.090063 0.030233 0.077100 0.013678 0.139482 0.246245 0.228886 0.522495 0.721408 0.346045 0.061557 0.084234 -1.577280
0.072396 0.072906 0.074437 0.076988 0.080558 0.085146 0.090752 0.097373 0.105008 0.113653 0.123305 0.133959 0.145610 0.158251 0.171875 0.186471 0.202028 0.218533 0.235970 0.254321 0.273566 0.293679 0.314635 0.336402 0.358947 0.382229 0.406206 0.430831 0.456049 0.481804 0.508030 0.534658 0.561613 0.588812 0.616165 0.643579 0.670949 0.698167 0.725117 0.751674 0.777709 0.803084 0.827654 0.851270 0.873774 0.895005 0.914794 0.932969 0.949355 0.963772 0.976040 0.985975 0.993397 0.998124 0.999979 0.998788 0.994384 0.986608 0.975311 0.960353 0.941612 0.918979 0.892365 0.861699 0.826935 0.788053 0.745057 0.697984 0.646900 0.591908 0.533144 0.470782 0.405037 0.336161 0.264449 0.190238 0.113906 0.035872 0.043404 0.123423 0.203648 0.283507 0.362398 0.439689 0.514727 0.586839 0.655339 0.719539 0.778748 0.832287 0.879493 0.919731 0.952401 0.976948 0.992872 0.999741 0.997193 0.984956 0.962848 0.930791 0.888820 0.837085 0.775862 0.705552 0.626693 0.539950 0.446125 0.346147 0.241070 0.132065 0.020411 0.092518 0.205267 0.316318 0.424109 0.527056 0.623578 0.712121 0.791182 0.859345 0.915303 0.957888 0.986100 0.999135 0.996408 0.977577 0.942562 0.891563 0.825071 0.743873 0.649057 0.542001 0.424371 0.298093 0.165335 0.028475 0.109941 0.247239 0.380668 0.507456 0.624871 0.730275 0.821197 0.895392 0.950902 0.986120 0.999839 0.991305 0.960254 0.906941 0.832163 0.737261 0.624111 0.495106 0.353113 0.201426 0.043694 0.116159 0.274024 0.425714 0.567075 0.694102 0.803063 0.890611 0.953902 0.990698 0.999461 0.979426 0.930661 0.854094 0.751528 0.625616 0.479815 0.318306 0.145896 0.032123 0.210121 0.382308 0.542919 0.686416 0.807683 0.902223 0.966341 0.997303 0.993475 0.954423 0.880974 0.775237 0.640571 0.481505 0.303606 0.113314 0.082291 0.275729 0.459415 0.625949 0.768428 0.880748 0.957878 0.996115 0.993285 0.948888 0.864181 0.742184 0.587612 0.406721 0.207086 0.002695 0.213354 0.415363 0.599360 0.756591 0.879347 0.961365 0.998175 0.987379 0.928833 0.824734 0.679577 0.500018 0.294591 0.073349 0.152623 0.371740 0.572512 0.744157 0.877202 0.964027 0.999343 0.980553 0.907981 0.784935 0.617629 0.414899 0.187793 0.051001 0.287853 0.508955 0.701128 0.852636 0.953927 0.998280 0.982296 0.906207 0.773965 0.593104 0.374368 0.131118 0.121441 0.367207 0.590188 0.775560 0.910682 0.986004 0.995782 0.938589 0.817521 0.640114 0.417936 0.165910 0.098681 0.357306 0.591522 0.784279 0.921197 0.991689 0.989844 0.914987 0.771866 0.570442 0.325268 0.054493 0.221428 0.481266 0.704658 0.873723 0.974548 0.998387 0.942505 0.810550 0.612410 0.363576 0.083976 0.203548 0.475079 0.707641 0.881144 0.980190 0.995511 0.924917 0.773663 0.554170 0.285095 0.010180 0.305524 0.574354 0.792057 0.938254 0.998807 0.967266 0.845648 0.644454 0.381867 0.082205 0.226261 0.513967 0.752853 0.919180 0.995937 0.974686 0.856594 0.652541 0.382228 0.072395 0.245768 0.539720 0.778908 0.937982 0.999575 0.956302 0.811767 0.580414 0.286221 0.039688 0.362268 0.646301 0.860259 0.979878 0.991016 0.891447 0.691374 0.412525 0.085930 0.251449 0.560848 0.806181 0.958287 0.998517 0.921145 0.734317 0.459370 0.128533 0.218746 0.540452 0.797078 0.956550 0.998339 0.916248 0.719482 0.431787 0.088748 0.266503 0.588673 0.836076 0.976113 0.989691 0.873981 0.643120 0.326667 0.034032 0.391144 0.696661 0.908893
1.000000 1.000000 1.000000 1.000000 1.000000 1.000000 1.000000 1.000000 1.000000 1.000000 1.000000 1.000000 1.000000 1.000000 1.000000 1.000000 1.000000 1.000000 1.000000 1.000000 1.000000 1.000000 1.000000 1.000000 1.000000 1.000000 1.000000 1.000000 1.000000 1.000000 1.000000 1.000000 1.000000 1.000000 1.000000 1.000000 1.000000 1.000000 1.000000 1.000000 1.000000 1.000000 1.000000 1.000000 1.000000 1.000000 1.000000 1.000000 1.000000 1.000000 1.000000 1.000000 0.841765 0.841765 0.841765 0.851944 0.851944 0.851944 0.851944 0.851944 0.851944 0.851944 0.851944 0.851944 0.851944 0.851944 0.851944 0.851944 0.851944 0.851944 0.851944 0.851944 0.851944 0.851944 0.851944 0.851944 0.851944 0.851944 0.851944 0.851944 0.851944 0.851944 0.851944 0.851944 0.851944 0.851944 0.851944 0.851944 0.851944 0.851944 0.851944 0.851944 0.851944 0.851944 0.851944 0.851944 0.864463 0.868996 0.871313 0.873862 0.876785 0.874257 0.873107 0.872790 0.873087 0.874372 0.885221 0.909961 0.926508 0.930071 0.939477 0.943132 0.948581 0.949931 0.959076 0.963331 0.965229 0.962180 0.961526 0.963334 0.944870 0.941753 0.939053 0.935808 0.945997 0.942444 0.937754 0.933166 0.931453 0.929179 0.928652 0.930121 0.923444 0.924063 0.924149 0.923423 0.923408 0.921556 0.920628 0.902522 0.904169 0.903267 0.906197 0.895330 0.888323 0.880089 0.872450 0.884390 0.877896 0.870212 0.869188 0.864871 0.865299 0.865450 0.863863 0.846329 0.844120 0.840608 0.836586 0.836288 0.836370 0.841633 0.844326 0.845989 0.832105 0.806015 0.787648 0.759980 0.757952 0.765459 0.768721 0.766395 0.767993 0.766464 0.764246 0.758744 0.755656 0.745409 0.747357 0.743336 0.736170 0.731564 0.711201 0.705915 0.703549 0.679235 0.694737 0.684170 0.684954 0.652789 0.650143 0.653186 0.660142 0.665266 0.676266 0.670656 0.661531 0.628021 0.600325 0.584205 0.598460 0.628490 0.620866 0.622181 0.602078 0.615300 0.620707 0.635011 0.646373 0.647108 0.634248 0.593495 0.565130 0.565716 0.573810 0.574920 0.573653 0.573744 0.579898 0.602413 0.583019 0.559950 0.541270 0.536440 0.541994 0.557369 0.538033 0.527460 0.497341 0.476611 0.459618 0.465986 0.455193 0.445378 0.438792 0.428424 0.413642 0.407252 0.425456 0.414658 0.410542 0.412860 0.405166 0.422046 0.388400 0.360166 0.361812 0.355228 0.349812 0.329107 0.319922 0.322047 0.328981 0.341926 0.378498 0.355983 0.340820 0.315810 0.313048 0.295131 0.314225 0.305212 0.292472 0.269923 0.242422 0.210640 0.214573 0.238131 0.253203 0.222394 0.178607 0.135174 0.125921 0.103833 0.093989 0.028516 -0.031591 -0.036662 -0.026725 -0.037907 -0.032298 -0.031110 -0.054621 -0.035211 -0.016135 0.029100 0.001259 -0.000107 -0.028310 -0.008137 -0.046701 -0.057808 -0.087372 -0.077717 -0.063794 -0.041281 -0.063224 -0.081058 -0.098666 -0.095137 -0.134189 -0.124274 -0.128119 -0.120115 -0.115370 -0.148115 -0.169783 -0.194405 -0.210071 -0.140624 -0.140352 -0.136276 -0.157551 -0.149639 -0.137652 -0.147515 -0.153992 -0.126921 -0.135369 -0.122608 -0.122644 -0.115743 -0.069077 -0.059598 -0.065358 -0.068414 -0.056430 -0.058702 -0.069940 -0.068297 -0.028128 -0.012080 0.000631 -0.014901 -0.063423 -0.063423 -0.063423 -0.077782 -0.077782 -0.077782 -0.077782 -0.077782 -0.077782 -0.077782 -0.077782 -0.077782 -0.091243 -0.091243 -0.091243 -0.091243 -0.091243 -0.091243 -0.091243 -0.091243 -0.091243 -0.091243 -0.091243 -0.091243 -0.091243 -0.091243 -0.091243 -0.091243 -0.091243
0.000000 0.000000 0.000000 0.000000 0.000000 0.000000 0.000000 0.000000 0.000000 0.000000 0.000000 0.000000 0.000000 0.000000 0.000000 0.000000 0.000000 0.000000 0.000000 0.000000 0.000000 0.000000 0.000000 0.000000 0.000000 0.000000 0.000000 0.000000 0.000000 0.000000 0.000000 0.000000 0.000000 0.000000 0.000000 0.000000 0.000000 0.000000 0.000000 0.000000 0.000000 0.000000 0.000000 0.000000 0.000000 0.000000 0.000000 0.000000 0.000000 0.000000 0.000000 0.000000 0.180334 0.180334 0.180334 0.199007 0.199007 0.199007 0.199007 0.199007 0.199007 0.199007 0.199007 0.199007 0.199007 0.199007 0.199007 0.199007 0.199007 0.199007 0.199007 0.199007 0.199007 0.199007 0.199007 0.199007 0.199007 0.199007 0.199007 0.199007 0.199007 0.199007 0.199007 0.199007 0.199007 0.199007 0.199007 0.199007 0.199007 0.199007 0.199007 0.199007 0.199007 0.199007 0.199007 0.199007 0.230940 0.230940 0.230940 0.230940 0.230940 0.230940 0.230940 0.230940 0.230940 0.230940 0.230940 0.230940 0.230940 0.230940 0.230940 0.230940 0.230940 0.230940 0.230940 0.230940 0.230940 0.230940 0.230940 0.230940 0.230940 0.230940 0.230940 0.230940 0.244339 0.244339 0.244339 0.244339 0.244339 0.244339 0.244339 0.244339 0.244339 0.244339 0.244339 0.244339 0.244339 0.244339 0.244339 0.244339 0.244339 0.244339 0.244339 0.244339 0.244339 0.244339 0.244339 0.256074 0.256074 0.256074 0.256074 0.256074 0.256074 0.256074 0.256074 0.256074 0.256074 0.256074 0.256074 0.256074 0.256074 0.256074 0.256074 0.256074 0.256074 0.256074 0.256074 0.256074 0.256074 0.256074 0.256074 0.256074 0.256074 0.256074 0.256074 0.256074 0.256074 0.256074 0.256074 0.256074 0.256074 0.256074 0.256074 0.256074 0.264906 0.264906 0.264906 0.264906 0.264906 0.264906 0.264906 0.264906 0.264906 0.264906 0.264906 0.264906 0.264906 0.264906 0.264906 0.264906 0.264906 0.264906 0.264906 0.264906 0.264906 0.264906 0.264906 0.264906 0.264906 0.264906 0.264906 0.264906 0.264906 0.264906 0.264906 0.264906 0.264906 0.264906 0.264906 0.264906 0.264906 0.264906 0.264906 0.264906 0.264906 0.264906 0.264906 0.264906 0.264906 0.264906 0.264906 0.264906 0.264906 0.264906 0.264906 0.264906 0.264906 0.264906 0.264906 0.264906 0.264906 0.264906 0.269680 0.269680 0.269680 0.269680 0.269680 0.269680 0.269680 0.269680 0.269680 0.269680 0.269680 0.269680 0.264906 0.264906 0.264906 0.264906 0.264906 0.264906 0.264906 0.264906 0.264906 0.264906 0.264906 0.264906 0.269680 0.269680 0.269680 0.269680 0.269680 0.269680 0.269680 0.269680 0.269680 0.269680 0.269680 0.264906 0.264906 0.264906 0.264906 0.264906 0.264906 0.264906 0.264906 0.264906 0.264906 0.264906 0.256074 0.256074 0.256074 0.256074 0.256074 0.256074 0.256074 0.256074 0.256074 0.256074 0.256074 0.264906 0.264906 0.264906 0.264906 0.264906 0.264906 0.264906 0.264906 0.264906 0.264906 0.260378 0.260378 0.260378 0.260378 0.260378 0.260378 0.260378 0.260378 0.260378 0.260378 0.264906 0.264906 0.264906 0.264906 0.264906 0.264906 0.264906 0.264906 0.264906 0.260378 0.260378 0.260378 0.260378 0.260378 0.260378 0.260378 0.260378 0.260378 0.256074 0.256074 0.256074 0.256074 0.256074 0.256074 0.256074 0.256074 0.256074 0.251976 0.251976 0.251976 0.251976 0.251976 0.251976 0.251976 0.251976 0.251976 0.251976 0.251976 0.251976 0.251976 0.251976 0.251976 0.251976 0.251976
