# Output from CTFFind version 4.1.9, run on 2019-11-02 17:44:56
# Input file: stack6_bm3d_averaged_1_0.5_0_750_half.mrc ; Number of micrographs: 1
# Pixel size: 3.000 Angstroms ; acceleration voltage: 300.0 keV ; spherical aberration: 0.00 mm ; amplitude contrast: 0.07
# Box size: 512 pixels ; min. res.: 30.0 Angstroms ; max. res.: 5.0 Angstroms ; min. def.: 5000.0 um; max. def. 50000.0 um; num. frames averaged: 1
# 6 lines per micrograph: #1 - spatial frequency (1/Angstroms); #2 - 1D rotational average of spectrum (assuming no astigmatism); #3 - 1D rotational average of spectrum; #4 - CTF fit; #5 - cross-correlation between spectrum and CTF fit; #6 - 2sigma of expected cross correlation of noise
0.000000 0.000651 0.001302 0.001953 0.002604 0.003255 0.003906 0.004557 0.005208 0.005859 0.006510 0.007161 0.007812 0.008464 0.009115 0.009766 0.010417 0.011068 0.011719 0.012370 0.013021 0.013672 0.014323 0.014974 0.015625 0.016276 0.016927 0.017578 0.018229 0.018880 0.019531 0.020182 0.020833 0.021484 0.022135 0.022786 0.023438 0.024089 0.024740 0.025391 0.026042 0.026693 0.027344 0.027995 0.028646 0.029297 0.029948 0.030599 0.031250 0.031901 0.032552 0.033203 0.033854 0.034505 0.035156 0.035807 0.036458 0.037109 0.037760 0.038411 0.039062 0.039714 0.040365 0.041016 0.041667 0.042318 0.042969 0.043620 0.044271 0.044922 0.045573 0.046224 0.046875 0.047526 0.048177 0.048828 0.049479 0.050130 0.050781 0.051432 0.052083 0.052734 0.053385 0.054036 0.054688 0.055339 0.055990 0.056641 0.057292 0.057943 0.058594 0.059245 0.059896 0.060547 0.061198 0.061849 0.062500 0.063151 0.063802 0.064453 0.065104 0.065755 0.066406 0.067057 0.067708 0.068359 0.069010 0.069661 0.070312 0.070964 0.071615 0.072266 0.072917 0.073568 0.074219 0.074870 0.075521 0.076172 0.076823 0.077474 0.078125 0.078776 0.079427 0.080078 0.080729 0.081380 0.082031 0.082682 0.083333 0.083984 0.084635 0.085286 0.085938 0.086589 0.087240 0.087891 0.088542 0.089193 0.089844 0.090495 0.091146 0.091797 0.092448 0.093099 0.093750 0.094401 0.095052 0.095703 0.096354 0.097005 0.097656 0.098307 0.098958 0.099609 0.100260 0.100911 0.101562 0.102214 0.102865 0.103516 0.104167 0.104818 0.105469 0.106120 0.106771 0.107422 0.108073 0.108724 0.109375 0.110026 0.110677 0.111328 0.111979 0.112630 0.113281 0.113932 0.114583 0.115234 0.115885 0.116536 0.117188 0.117839 0.118490 0.119141 0.119792 0.120443 0.121094 0.121745 0.122396 0.123047 0.123698 0.124349 0.125000 0.125651 0.126302 0.126953 0.127604 0.128255 0.128906 0.129557 0.130208 0.130859 0.131510 0.132161 0.132812 0.133464 0.134115 0.134766 0.135417 0.136068 0.136719 0.137370 0.138021 0.138672 0.139323 0.139974 0.140625 0.141276 0.141927 0.142578 0.143229 0.143880 0.144531 0.145182 0.145833 0.146484 0.147135 0.147786 0.148438 0.149089 0.149740 0.150391 0.151042 0.151693 0.152344 0.152995 0.153646 0.154297 0.154948 0.155599 0.156250 0.156901 0.157552 0.158203 0.158854 0.159505 0.160156 0.160807 0.161458 0.162109 0.162760 0.163411 0.164062 0.164714 0.165365 0.166016 0.166667 0.167318 0.167969 0.168620 0.169271 0.169922 0.170573 0.171224 0.171875 0.172526 0.173177 0.173828 0.174479 0.175130 0.175781 0.176432 0.177083 0.177734 0.178385 0.179036 0.179688 0.180339 0.180990 0.181641 0.182292 0.182943 0.183594 0.184245 0.184896 0.185547 0.186198 0.186849 0.187500 0.188151 0.188802 0.189453 0.190104 0.190755 0.191406 0.192057 0.192708 0.193359 0.194010 0.194661 0.195312 0.195964 0.196615 0.197266 0.197917 0.198568 0.199219 0.199870 0.200521 0.201172 0.201823 0.202474 0.203125 0.203776 0.204427 0.205078 0.205729 0.206380 0.207031 0.207682 0.208333 0.208984 0.209635 0.210286 0.210938 0.211589 0.212240 0.212891 0.213542 0.214193 0.214844 0.215495 0.216146 0.216797 0.217448 0.218099 0.218750 0.219401 0.220052 0.220703 0.221354 0.222005 0.222656 0.223307 0.223958 0.224609 0.225260 0.225911 0.226562 0.227214 0.227865 0.228516 0.229167 0.229818 0.230469 0.231120 0.231771 0.232422 0.233073 0.233724 0.234375 0.235026 0.235677
       0.31149        0.31149        0.31149        0.31150        0.31149        0.31149        0.31150        0.31149        0.31149        0.31150        0.31150        0.31149        0.31150        0.31149        0.31150        0.31149        0.31149        0.31149        0.31150        0.31150        0.31149        0.31149        0.31149        0.31150        0.31149        0.31150        0.31150        0.31150        0.31149        0.31150        0.31149        0.31149        0.31149        0.31150        0.31149        0.31149        0.31150        0.31149        0.31150        0.31149        0.31150        0.31149        0.31149        0.31149        0.31150        0.31150        0.31149        0.31149        0.31150        0.31150        0.31149        0.63335        0.81938        0.41752        0.31249        0.18693       -0.10540        0.11120       -0.00365        0.03305        0.11824        0.33607        0.42273        0.40546        0.22542       -0.01350        0.04792        0.06992       -0.16920       -0.18059       -0.08641       -0.10698       -0.29298       -0.19090       -0.30135       -0.25626       -0.28680       -0.40389       -0.47554       -0.47981       -0.42496       -0.33855       -0.44038       -0.36809       -0.40859       -0.34937       -0.27664       -0.20070       -0.19338       -0.13716       -0.09462        0.03793        0.08191        0.25056        0.27812        0.36700        0.40356        0.52236        0.59203        0.60939        0.74103        0.70141        0.74266        0.65153        0.66524        0.69525        0.63335        0.61506        0.60792        0.43396        0.40071        0.35736        0.32075        0.22212        0.12985        0.05965        0.05801        0.00102       -0.08028       -0.02953       -0.03153       -0.07074        0.06309        0.16287        0.25293        0.32185        0.33520        0.43101        0.54965        0.59707        0.54614        0.67187        0.56848        0.54512        0.59788        0.64616        0.53383        0.45762        0.40772        0.37554        0.24773        0.21338        0.12993        0.11613        0.05419        0.05373        0.10770        0.16951        0.14299        0.18072        0.21964        0.24016        0.33034        0.46011        0.49340        0.49788        0.51809        0.57959        0.57029        0.52278        0.42819        0.38540        0.36649        0.27162        0.24638        0.21073        0.20517        0.19979        0.17893        0.16200        0.12882        0.19383        0.24977        0.34546        0.38430        0.40801        0.46149        0.53692        0.47606        0.48627        0.42321        0.40109        0.38312        0.36280        0.28928        0.25379        0.19387        0.23126        0.21496        0.18884        0.21994        0.22546        0.23879        0.30024        0.40147        0.40234        0.37373        0.39121        0.45640        0.48647        0.42592        0.35131        0.32563        0.27508        0.26230        0.24966        0.21359        0.28326        0.29217        0.29643        0.31688        0.31276        0.34961        0.37308        0.37132        0.37425        0.35620        0.31754        0.33299        0.31749        0.29592        0.28062        0.27281        0.21820        0.27285        0.27355        0.30017        0.31972        0.34527        0.38142        0.34236        0.31856        0.36274        0.36600        0.26379        0.29330        0.30453        0.24359        0.20715        0.25665        0.27281        0.27694        0.29899        0.30792        0.33791        0.33496        0.36330        0.32519        0.31991        0.30885        0.29806        0.27662        0.25223        0.25409        0.25719        0.27772        0.30103        0.30080        0.30292        0.31138        0.32402        0.26246        0.30273        0.26941        0.26102        0.27754        0.26335        0.26300        0.26565        0.30914        0.28576        0.31733        0.28560        0.27162        0.30613        0.31081        0.33155        0.31468        0.28948        0.25193        0.26436        0.26739        0.26231        0.31410        0.31600        0.33589        0.31847        0.31107        0.25049        0.27795        0.20915        0.21023        0.24645        0.25485        0.25899        0.28656        0.30980        0.29917        0.35249        0.30850        0.25926        0.23745        0.23485        0.28939        0.31624        0.30529        0.26846        0.27985        0.26626        0.32370        0.28309        0.25350        0.26457        0.25742        0.28654        0.24832        0.28206        0.32462        0.29072        0.22309        0.24008        0.28804        0.31957        0.26872        0.26414        0.24329        0.27460        0.29331        0.37678        0.28526        0.27112        0.25547        0.25403        0.22102        0.17929        0.24482        0.22714        0.21070        0.18098        0.19450        0.23754        0.22131        0.23241        0.19714        0.25488        0.22749        0.21011        0.17351        0.17162        0.19947        0.24653        0.13223        0.05309        0.20082        0.19013        0.14452        0.24807        0.15790        0.21729        0.21105       -0.03286       -0.47323       -0.96574
2.832281 2.804447 2.776756 2.749209 2.721804 2.694543 2.667425 2.640450 2.613618 2.586929 2.560384 2.533982 2.507723 2.481607 2.455635 2.429805 2.404119 2.378576 2.353176 2.327919 2.302806 2.277836 2.253008 2.228325 2.203784 2.179386 2.155132 2.131021 2.107053 2.083228 2.059547 2.036008 2.012613 1.989361 1.966252 1.943287 1.920464 1.897785 1.875249 1.852856 1.830606 1.808500 1.786537 1.764717 1.743040 1.721506 1.700115 1.678868 1.657764 1.636803 1.615985 1.907952 2.264676 1.692192 1.734211 1.373005 0.936268 1.192484 1.016141 1.067416 1.025774 1.484636 1.510452 1.531758 1.277076 0.935171 0.819960 1.004998 0.709106 0.487296 0.585621 0.675905 0.420101 0.483804 0.324377 0.370697 0.243630 0.155640 -0.034687 0.001763 0.018128 0.082751 0.037025 0.073253 -0.040322 0.030621 0.111601 0.222642 0.283039 0.208441 0.316773 0.551086 0.447597 0.725347 0.786786 0.869840 0.908350 1.118458 1.146421 1.172005 1.321559 1.235032 1.367511 1.194386 1.110771 1.289565 1.142253 1.048611 1.124117 0.882172 0.740561 0.679079 0.668769 0.457563 0.391149 0.258908 0.228753 0.094486 -0.003887 0.089600 0.029547 -0.062935 0.114870 0.252357 0.308368 0.462343 0.486544 0.554135 0.724033 0.828839 0.663581 0.963616 0.801180 0.670483 0.764359 0.808440 0.717966 0.635752 0.447556 0.502382 0.282875 0.188711 0.142679 0.007879 -0.016766 -0.109933 -0.017075 0.036883 0.083051 -0.044854 0.253554 0.093471 0.216698 0.378609 0.440967 0.533818 0.433311 0.570505 0.643454 0.506691 0.395572 0.340237 0.324698 0.149959 0.144603 0.008442 0.093033 0.027527 -0.001612 -0.023112 -0.112317 -0.005110 0.028451 0.109175 0.296213 0.206972 0.357645 0.371311 0.429113 0.415782 0.388990 0.330738 0.230586 0.304840 0.170406 0.154453 0.001449 0.041645 0.066813 -0.028164 -0.005901 0.021929 0.060521 0.073165 0.217712 0.309505 0.247286 0.210661 0.381569 0.410035 0.351925 0.242438 0.175768 0.148126 0.082776 0.076032 0.030024 0.022078 0.134518 0.059292 0.185630 0.097519 0.144104 0.235741 0.212733 0.237388 0.200808 0.201404 0.115950 0.165633 0.126320 0.093997 0.111688 0.001509 0.037968 0.092450 0.049847 0.146029 0.125280 0.212044 0.215602 0.141147 0.130896 0.236555 0.111384 0.072909 0.084256 0.061042 -0.001010 -0.032426 0.046104 0.071834 0.035488 0.117530 0.115215 0.129497 0.134081 0.180216 0.111013 0.083454 0.103603 0.089040 0.030589 0.016179 0.037056 -0.001881 0.075115 0.106966 0.072431 0.075765 0.120472 0.099017 0.020330 0.112982 0.031111 0.029760 0.068379 0.019743 0.022797 0.058603 0.088438 0.029332 0.107685 0.063451 0.020146 0.109195 0.074617 0.093874 0.083235 0.019941 -0.009322 -0.001590 0.039708 0.001057 0.076084 0.092227 0.089610 0.055406 0.136195 -0.025003 0.026358 -0.093083 -0.013060 -0.043039 0.006390 0.019731 0.030313 0.082888 0.066127 0.117879 0.011982 -0.023433 -0.060161 -0.076952 0.065578 0.056943 0.047059 -0.013697 -0.000359 -0.022459 0.067896 0.011163 -0.066732 -0.018607 -0.070064 0.019412 -0.049532 0.013815 0.056889 -0.007046 -0.070323 -0.034560 0.085912 0.037559 0.005860 0.003106 -0.047086 0.072830 0.078753 0.173599 0.039052 0.015633 0.019475 0.060332 -0.044925 -0.044474 0.050048 0.019778 -0.015490 -0.045101 -0.036824 0.089376 -0.049588 0.060502 0.009880 0.127979 -0.004626 0.067717 -0.096231 -0.008504 -0.037994 0.127284 -0.040018 -0.248878 0.278455 0.270265 0.203457 0.424742 0.188622 0.285813 0.346550 -0.043955 -1.344382
0.072396 0.072834 0.074149 0.076339 0.079404 0.083345 0.088159 0.093846 0.100403 0.107830 0.116124 0.125281 0.135298 0.146171 0.157893 0.170459 0.183861 0.198090 0.213136 0.228987 0.245629 0.263046 0.281222 0.300135 0.319763 0.340082 0.361062 0.382674 0.404881 0.427646 0.450927 0.474679 0.498852 0.523391 0.548239 0.573332 0.598602 0.623977 0.649379 0.674724 0.699926 0.724890 0.749518 0.773707 0.797348 0.820328 0.842527 0.863823 0.884089 0.903193 0.920999 0.937371 0.952167 0.965243 0.976457 0.985662 0.992715 0.997470 0.999787 0.999527 0.996554 0.990740 0.981962 0.970105 0.955065 0.936745 0.915064 0.889954 0.861361 0.829249 0.793600 0.754418 0.711725 0.665569 0.616022 0.563182 0.507173 0.448149 0.386290 0.321810 0.254951 0.185985 0.115216 0.042980 0.030361 0.104412 0.178752 0.252934 0.326486 0.398917 0.469712 0.538346 0.604278 0.666962 0.725849 0.780391 0.830047 0.874290 0.912612 0.944532 0.969597 0.987398 0.997568 0.999794 0.993820 0.979459 0.956592 0.925180 0.885266 0.836981 0.780548 0.716285 0.644605 0.566020 0.481141 0.390673 0.295416 0.196258 0.094172 0.009795 0.114530 0.218860 0.321572 0.421420 0.517143 0.607484 0.691198 0.767083 0.833988 0.890839 0.936657 0.970576 0.991863 0.999937 0.994384 0.974973 0.941669 0.894644 0.834285 0.761197 0.676206 0.580356 0.474901 0.361298 0.241187 0.116375 0.011189 0.139440 0.266231 0.389367 0.506643 0.615884 0.714987 0.801969 0.875002 0.932464 0.972976 0.995442 0.999082 0.983465 0.948531 0.894611 0.822433 0.733129 0.628225 0.509625 0.379588 0.240687 0.095770 0.052094 0.199679 0.343670 0.480734 0.607604 0.721155 0.818488 0.897010 0.954513 0.989239 0.999950 0.985974 0.947247 0.884341 0.798468 0.691479 0.565833 0.424557 0.271185 0.109677 0.055679 0.220368 0.379776 0.529317 0.664567 0.781404 0.876136 0.945636 0.987446 0.999889 0.982139 0.934283 0.857348 0.753303 0.625025 0.476245 0.311450 0.135758 0.045225 0.225581 0.399265 0.560317 0.703068 0.822342 0.913662 0.973433 0.999094 0.989251 0.943766 0.863797 0.751806 0.611501 0.447741 0.266385 0.074096 0.121886 0.314019 0.494738 0.656767 0.793411 0.898850 0.968408 0.998774 0.988188 0.936559 0.845521 0.718416 0.560198 0.377273 0.177256 0.031331 0.239400 0.437697 0.617220 0.769623 0.887632 0.965402 0.998842 0.985850 0.926473 0.822966 0.679745 0.503238 0.301616 0.084456 0.137716 0.353906 0.553210 0.725360 0.861280 0.953573 0.996965 0.988631 0.928415 0.818909 0.665387 0.475593 0.259385 0.028248 0.205288 0.428331 0.628337 0.793816 0.915031 0.984585 0.997922 0.953657 0.853740 0.703429 0.511056 0.287621 0.046169 0.198908 0.432762 0.640955 0.810384 0.930125 0.992170 0.992012 0.929011 0.806537 0.631846 0.415706 0.171767 0.084251 0.335565 0.565416 0.758199 0.900550 0.982306 0.997274 0.943760 0.824786 0.647991 0.425202 0.171690 0.094829 0.355423 0.591275 0.785059 0.922235 0.992189 0.989109 0.912522 0.767456 0.564182 0.317546 0.045944 0.230022 0.489080 0.710954 0.877942 0.976402 0.997903 0.940021 0.806663 0.607887 0.359220 0.080498 0.205660 0.475682 0.706979 0.879864 0.979268 0.996119 0.928246 0.780707 0.565506 0.300692 0.008910 0.284492 0.553652 0.774477 0.926841 0.996475 0.976376 0.867594 0.679300 0.428105 0.136672 0.168270 0.458337 0.706155 0.887946 0.985879 0.989890 0.898806 0.720635 0.471963 0.176507 0.137087 0.437987 0.696185 0.885545
1.000000 1.000000 1.000000 1.000000 1.000000 1.000000 1.000000 1.000000 1.000000 1.000000 1.000000 1.000000 1.000000 1.000000 1.000000 1.000000 1.000000 1.000000 1.000000 1.000000 1.000000 1.000000 1.000000 1.000000 1.000000 1.000000 1.000000 1.000000 1.000000 1.000000 1.000000 1.000000 1.000000 1.000000 1.000000 1.000000 1.000000 1.000000 1.000000 1.000000 1.000000 1.000000 1.000000 1.000000 1.000000 1.000000 1.000000 1.000000 1.000000 1.000000 1.000000 1.000000 0.833415 0.833415 0.833415 0.833415 0.833415 0.833415 0.833415 0.815501 0.815501 0.815501 0.815501 0.815501 0.815501 0.815501 0.815501 0.815501 0.815501 0.815501 0.815501 0.815501 0.815501 0.815501 0.815501 0.815501 0.815501 0.815501 0.815501 0.815501 0.815501 0.815501 0.815501 0.815501 0.815501 0.815501 0.815501 0.815501 0.815501 0.815501 0.815501 0.815501 0.815501 0.815501 0.815501 0.815501 0.815501 0.815501 0.815501 0.815501 0.815501 0.815501 0.815501 0.952599 0.953240 0.950289 0.949174 0.947465 0.944189 0.939831 0.939393 0.940752 0.940954 0.941571 0.943675 0.944663 0.946299 0.947474 0.948298 0.949113 0.957238 0.960946 0.961487 0.961144 0.951693 0.958437 0.957618 0.955377 0.956164 0.956462 0.957172 0.957051 0.956885 0.956364 0.955078 0.955804 0.955646 0.954907 0.953860 0.951558 0.951518 0.951063 0.951192 0.952159 0.952863 0.953516 0.954042 0.954017 0.954201 0.954187 0.954088 0.949159 0.949186 0.942578 0.943208 0.944333 0.943983 0.942904 0.941454 0.941512 0.941387 0.941311 0.941131 0.941584 0.922409 0.921886 0.922154 0.921423 0.913635 0.902547 0.895045 0.888551 0.889514 0.893769 0.898776 0.899382 0.896554 0.895601 0.880144 0.877073 0.863708 0.860643 0.848853 0.859390 0.860485 0.861829 0.854671 0.854006 0.852581 0.850795 0.842117 0.846498 0.846693 0.842577 0.838635 0.836988 0.835400 0.837653 0.846332 0.843823 0.839795 0.841912 0.829412 0.820309 0.819240 0.821488 0.829190 0.841501 0.841231 0.840398 0.834095 0.830384 0.824240 0.818745 0.817321 0.818969 0.817030 0.820632 0.818225 0.826432 0.816361 0.810590 0.815321 0.824505 0.828971 0.831466 0.834052 0.832058 0.834213 0.820161 0.821245 0.822222 0.771889 0.771107 0.762075 0.761699 0.743141 0.742972 0.737782 0.735153 0.724758 0.709324 0.720113 0.721569 0.691293 0.700380 0.695010 0.681920 0.661187 0.669263 0.683920 0.693058 0.691873 0.690238 0.678811 0.678203 0.687677 0.686295 0.692026 0.682877 0.679454 0.672126 0.675941 0.664698 0.667258 0.665609 0.664864 0.664899 0.661345 0.644595 0.652523 0.644995 0.635218 0.626488 0.593972 0.557860 0.544204 0.537139 0.518470 0.499259 0.516957 0.524541 0.503779 0.495605 0.478078 0.443370 0.439824 0.438488 0.420772 0.406297 0.387771 0.345252 0.355316 0.353421 0.353256 0.338885 0.345782 0.330563 0.292706 0.279477 0.244317 0.259766 0.282008 0.274356 0.250782 0.245277 0.258167 0.246833 0.256429 0.254787 0.270310 0.225738 0.170427 0.182422 0.183381 0.191186 0.174562 0.146183 0.173905 0.157105 0.169394 0.173316 0.125149 0.094049 0.075148 0.051009 0.055698 0.080322 0.096167 0.087627 0.071066 -0.020360 0.012415 0.036948 0.036948 0.036948 0.036948 0.036948 0.036948 0.036948 0.036948 0.036948 0.036948 0.036948 -0.022947 -0.022947 -0.022947 -0.022947 -0.022947 -0.022947 -0.022947 -0.022947 -0.022947 -0.022947 -0.022947 -0.022947 -0.022947 -0.022947 -0.022947 -0.022947 -0.022947 -0.022947 -0.022947
0.000000 0.000000 0.000000 0.000000 0.000000 0.000000 0.000000 0.000000 0.000000 0.000000 0.000000 0.000000 0.000000 0.000000 0.000000 0.000000 0.000000 0.000000 0.000000 0.000000 0.000000 0.000000 0.000000 0.000000 0.000000 0.000000 0.000000 0.000000 0.000000 0.000000 0.000000 0.000000 0.000000 0.000000 0.000000 0.000000 0.000000 0.000000 0.000000 0.000000 0.000000 0.000000 0.000000 0.000000 0.000000 0.000000 0.000000 0.000000 0.000000 0.000000 0.000000 0.000000 0.173422 0.173422 0.173422 0.173422 0.173422 0.173422 0.173422 0.191565 0.191565 0.191565 0.191565 0.191565 0.191565 0.191565 0.191565 0.191565 0.191565 0.191565 0.191565 0.191565 0.191565 0.191565 0.191565 0.191565 0.191565 0.191565 0.191565 0.191565 0.191565 0.191565 0.191565 0.191565 0.191565 0.191565 0.191565 0.191565 0.191565 0.191565 0.191565 0.191565 0.191565 0.191565 0.191565 0.191565 0.191565 0.191565 0.191565 0.191565 0.191565 0.191565 0.191565 0.219529 0.219529 0.219529 0.219529 0.219529 0.219529 0.219529 0.219529 0.219529 0.219529 0.219529 0.219529 0.219529 0.219529 0.219529 0.219529 0.219529 0.219529 0.219529 0.219529 0.219529 0.219529 0.219529 0.219529 0.219529 0.219529 0.219529 0.219529 0.219529 0.219529 0.219529 0.237356 0.237356 0.237356 0.237356 0.237356 0.237356 0.237356 0.237356 0.237356 0.237356 0.237356 0.237356 0.237356 0.237356 0.237356 0.237356 0.237356 0.237356 0.237356 0.237356 0.237356 0.237356 0.237356 0.237356 0.244339 0.244339 0.244339 0.244339 0.244339 0.244339 0.244339 0.244339 0.244339 0.244339 0.244339 0.244339 0.244339 0.244339 0.244339 0.244339 0.244339 0.244339 0.244339 0.244339 0.244339 0.248069 0.248069 0.248069 0.248069 0.248069 0.248069 0.248069 0.248069 0.248069 0.248069 0.248069 0.248069 0.248069 0.248069 0.248069 0.248069 0.248069 0.248069 0.248069 0.248069 0.248069 0.248069 0.248069 0.248069 0.248069 0.248069 0.248069 0.248069 0.248069 0.248069 0.248069 0.248069 0.248069 0.248069 0.248069 0.248069 0.248069 0.256074 0.256074 0.256074 0.256074 0.256074 0.256074 0.256074 0.256074 0.256074 0.256074 0.256074 0.256074 0.256074 0.256074 0.256074 0.256074 0.256074 0.256074 0.256074 0.256074 0.256074 0.256074 0.256074 0.256074 0.256074 0.256074 0.256074 0.256074 0.256074 0.256074 0.256074 0.256074 0.256074 0.256074 0.256074 0.256074 0.256074 0.256074 0.256074 0.256074 0.256074 0.256074 0.256074 0.256074 0.256074 0.260378 0.260378 0.260378 0.260378 0.260378 0.260378 0.260378 0.260378 0.260378 0.260378 0.260378 0.260378 0.260378 0.256074 0.256074 0.256074 0.256074 0.256074 0.256074 0.256074 0.256074 0.256074 0.256074 0.256074 0.256074 0.256074 0.260378 0.260378 0.260378 0.260378 0.260378 0.260378 0.260378 0.260378 0.260378 0.260378 0.260378 0.260378 0.251976 0.251976 0.251976 0.251976 0.251976 0.251976 0.251976 0.251976 0.251976 0.251976 0.251976 0.251976 0.256074 0.256074 0.256074 0.256074 0.256074 0.256074 0.256074 0.256074 0.256074 0.256074 0.256074 0.251976 0.251976 0.251976 0.251976 0.251976 0.251976 0.251976 0.251976 0.251976 0.251976 0.251976 0.248069 0.248069 0.248069 0.248069 0.248069 0.248069 0.248069 0.248069 0.248069 0.248069 0.248069 0.256074 0.256074 0.256074 0.256074 0.256074 0.256074 0.256074 0.256074 0.256074 0.256074 0.256074 0.256074 0.256074 0.256074 0.256074 0.256074 0.256074 0.256074 0.256074
