# Output from CTFFind version 4.1.9, run on 2019-11-03 20:02:16
# Input file: stack1_bm3d_averaged_1_5.5_0_50_half.mrc ; Number of micrographs: 1
# Pixel size: 3.000 Angstroms ; acceleration voltage: 300.0 keV ; spherical aberration: 0.00 mm ; amplitude contrast: 0.07
# Box size: 512 pixels ; min. res.: 30.0 Angstroms ; max. res.: 5.0 Angstroms ; min. def.: 5000.0 um; max. def. 50000.0 um; num. frames averaged: 1
# 6 lines per micrograph: #1 - spatial frequency (1/Angstroms); #2 - 1D rotational average of spectrum (assuming no astigmatism); #3 - 1D rotational average of spectrum; #4 - CTF fit; #5 - cross-correlation between spectrum and CTF fit; #6 - 2sigma of expected cross correlation of noise
0.000000 0.000651 0.001302 0.001953 0.002604 0.003255 0.003906 0.004557 0.005208 0.005859 0.006510 0.007161 0.007812 0.008464 0.009115 0.009766 0.010417 0.011068 0.011719 0.012370 0.013021 0.013672 0.014323 0.014974 0.015625 0.016276 0.016927 0.017578 0.018229 0.018880 0.019531 0.020182 0.020833 0.021484 0.022135 0.022786 0.023438 0.024089 0.024740 0.025391 0.026042 0.026693 0.027344 0.027995 0.028646 0.029297 0.029948 0.030599 0.031250 0.031901 0.032552 0.033203 0.033854 0.034505 0.035156 0.035807 0.036458 0.037109 0.037760 0.038411 0.039062 0.039714 0.040365 0.041016 0.041667 0.042318 0.042969 0.043620 0.044271 0.044922 0.045573 0.046224 0.046875 0.047526 0.048177 0.048828 0.049479 0.050130 0.050781 0.051432 0.052083 0.052734 0.053385 0.054036 0.054688 0.055339 0.055990 0.056641 0.057292 0.057943 0.058594 0.059245 0.059896 0.060547 0.061198 0.061849 0.062500 0.063151 0.063802 0.064453 0.065104 0.065755 0.066406 0.067057 0.067708 0.068359 0.069010 0.069661 0.070312 0.070964 0.071615 0.072266 0.072917 0.073568 0.074219 0.074870 0.075521 0.076172 0.076823 0.077474 0.078125 0.078776 0.079427 0.080078 0.080729 0.081380 0.082031 0.082682 0.083333 0.083984 0.084635 0.085286 0.085938 0.086589 0.087240 0.087891 0.088542 0.089193 0.089844 0.090495 0.091146 0.091797 0.092448 0.093099 0.093750 0.094401 0.095052 0.095703 0.096354 0.097005 0.097656 0.098307 0.098958 0.099609 0.100260 0.100911 0.101562 0.102214 0.102865 0.103516 0.104167 0.104818 0.105469 0.106120 0.106771 0.107422 0.108073 0.108724 0.109375 0.110026 0.110677 0.111328 0.111979 0.112630 0.113281 0.113932 0.114583 0.115234 0.115885 0.116536 0.117188 0.117839 0.118490 0.119141 0.119792 0.120443 0.121094 0.121745 0.122396 0.123047 0.123698 0.124349 0.125000 0.125651 0.126302 0.126953 0.127604 0.128255 0.128906 0.129557 0.130208 0.130859 0.131510 0.132161 0.132812 0.133464 0.134115 0.134766 0.135417 0.136068 0.136719 0.137370 0.138021 0.138672 0.139323 0.139974 0.140625 0.141276 0.141927 0.142578 0.143229 0.143880 0.144531 0.145182 0.145833 0.146484 0.147135 0.147786 0.148438 0.149089 0.149740 0.150391 0.151042 0.151693 0.152344 0.152995 0.153646 0.154297 0.154948 0.155599 0.156250 0.156901 0.157552 0.158203 0.158854 0.159505 0.160156 0.160807 0.161458 0.162109 0.162760 0.163411 0.164062 0.164714 0.165365 0.166016 0.166667 0.167318 0.167969 0.168620 0.169271 0.169922 0.170573 0.171224 0.171875 0.172526 0.173177 0.173828 0.174479 0.175130 0.175781 0.176432 0.177083 0.177734 0.178385 0.179036 0.179688 0.180339 0.180990 0.181641 0.182292 0.182943 0.183594 0.184245 0.184896 0.185547 0.186198 0.186849 0.187500 0.188151 0.188802 0.189453 0.190104 0.190755 0.191406 0.192057 0.192708 0.193359 0.194010 0.194661 0.195312 0.195964 0.196615 0.197266 0.197917 0.198568 0.199219 0.199870 0.200521 0.201172 0.201823 0.202474 0.203125 0.203776 0.204427 0.205078 0.205729 0.206380 0.207031 0.207682 0.208333 0.208984 0.209635 0.210286 0.210938 0.211589 0.212240 0.212891 0.213542 0.214193 0.214844 0.215495 0.216146 0.216797 0.217448 0.218099 0.218750 0.219401 0.220052 0.220703 0.221354 0.222005 0.222656 0.223307 0.223958 0.224609 0.225260 0.225911 0.226562 0.227214 0.227865 0.228516 0.229167 0.229818 0.230469 0.231120 0.231771 0.232422 0.233073 0.233724 0.234375 0.235026 0.235677
       0.34802        0.34802        0.34802        0.34802        0.34802        0.34802        0.34802        0.34802        0.34802        0.34802        0.34802        0.34802        0.34802        0.34802        0.34802        0.34802        0.34802        0.34802        0.34802        0.34802        0.34802        0.34802        0.34802        0.34802        0.34802        0.34802        0.34802        0.34802        0.34802        0.34802        0.34802        0.34802        0.34802        0.34802        0.34802        0.34802        0.34802        0.34802        0.34802        0.34802        0.34802        0.34802        0.34802        0.34802        0.34802        0.34802        0.34802        0.34802        0.34802        0.34802        0.34802        0.39151        0.57204        0.26437        0.11168       -0.01394       -0.27167       -0.10215       -0.17784       -0.21708        0.01227       -0.13852       -0.10584       -0.06086       -0.04511       -0.13217       -0.16051       -0.29114       -0.38333       -0.49347       -0.43065       -0.33204       -0.26567       -0.37920       -0.29154       -0.38144       -0.32685       -0.36866       -0.19008       -0.18885       -0.24744       -0.07826       -0.02778       -0.04825        0.07800        0.02677        0.20690        0.22713        0.33718        0.36237        0.43487        0.47029        0.53200        0.59513        0.64435        0.55243        0.51487        0.50670        0.47507        0.56015        0.47420        0.41875        0.40477        0.33284        0.28911        0.30870        0.32876        0.22483        0.18999        0.10031        0.13235        0.13656        0.16912        0.13423        0.20155        0.24880        0.30724        0.29649        0.33945        0.46014        0.40821        0.48117        0.62538        0.60984        0.54294        0.54793        0.58005        0.42022        0.48391        0.37346        0.31177        0.28954        0.25521        0.25192        0.18671        0.17373        0.14258        0.21643        0.25234        0.27688        0.34502        0.32005        0.41083        0.46691        0.46785        0.45313        0.48623        0.54015        0.48820        0.46415        0.41870        0.34544        0.33806        0.27952        0.30550        0.24061        0.22468        0.27994        0.23770        0.26003        0.32367        0.42241        0.41608        0.43548        0.41896        0.49790        0.49536        0.46999        0.44480        0.38687        0.38154        0.40147        0.39633        0.32646        0.28259        0.31653        0.29301        0.29908        0.29388        0.33260        0.36899        0.39010        0.45046        0.47910        0.39059        0.43314        0.42368        0.38717        0.31555        0.36639        0.31861        0.31244        0.33454        0.27359        0.25132        0.31649        0.33686        0.42913        0.42014        0.39944        0.39685        0.39970        0.36623        0.36730        0.32101        0.32444        0.33561        0.30696        0.30537        0.33619        0.35422        0.34444        0.34990        0.39329        0.39129        0.45872        0.40249        0.34203        0.35607        0.35035        0.33491        0.32705        0.33912        0.38054        0.34078        0.35422        0.34376        0.42200        0.37556        0.35324        0.36604        0.37656        0.36446        0.33366        0.32983        0.30646        0.33933        0.33229        0.30637        0.32171        0.35346        0.35307        0.33482        0.33601        0.30584        0.30260        0.28415        0.32186        0.32560        0.35135        0.32964        0.33538        0.37011        0.33314        0.33186        0.32310        0.29056        0.33552        0.31008        0.32183        0.33134        0.32412        0.31801        0.30039        0.34229        0.36551        0.33836        0.32413        0.30894        0.32723        0.29799        0.34504        0.32595        0.27187        0.32985        0.29897        0.34230        0.33739        0.38311        0.32929        0.31437        0.26511        0.32844        0.37121        0.34893        0.31559        0.32340        0.32091        0.32351        0.30258        0.31757        0.31071        0.30899        0.27917        0.28579        0.31339        0.29385        0.29792        0.31133        0.25248        0.31310        0.34944        0.36329        0.33974        0.31081        0.31720        0.27704        0.30649        0.29743        0.31637        0.33208        0.27902        0.27249        0.31749        0.35127        0.34158        0.27897        0.27450        0.32097        0.29019        0.30443        0.34380        0.35064        0.28409        0.25822        0.30554        0.32812        0.28243        0.23907        0.26323        0.26604        0.31287        0.34338        0.29842        0.34651        0.28323        0.26508        0.29850        0.29083        0.21801        0.26596        0.30486        0.25644        0.21365        0.23441        0.31102        0.41525        0.30280        0.24268        0.17305        0.23664        0.25831        0.26017        0.40232        0.22972        0.15208        0.28847        0.32936        0.29365        0.17724        0.05117       -0.57619       -1.09518
2.758138 2.729605 2.701224 2.672995 2.644916 2.616989 2.589213 2.561588 2.534114 2.506792 2.479621 2.452601 2.425732 2.399015 2.372448 2.346033 2.319770 2.293657 2.267696 2.241886 2.216227 2.190719 2.165363 2.140158 2.115104 2.090201 2.065450 2.040850 2.016401 1.992103 1.967956 1.943961 1.920117 1.896424 1.872883 1.849492 1.826253 1.803165 1.780228 1.757443 1.734809 1.712326 1.689994 1.667814 1.645784 1.623906 1.602179 1.580604 1.559179 1.537906 1.516784 1.465201 1.956150 1.486979 1.009972 0.816156 0.023993 0.665730 0.180876 0.359273 0.684631 0.422440 0.316515 0.539565 0.461088 0.381274 0.249420 0.025971 -0.226978 -0.414198 -0.395615 -0.334912 0.148867 -0.394792 -0.163196 -0.314031 -0.223377 -0.396748 -0.029954 -0.071120 -0.179024 0.068711 0.249314 0.082679 0.341654 0.240769 0.635943 0.505998 0.821893 0.774034 0.878564 1.110154 0.985446 1.260650 1.305271 1.142959 1.002103 1.014911 0.971407 0.991656 0.971101 0.806972 0.688043 0.630857 0.547553 0.476627 0.547718 0.382612 0.289913 0.110296 0.066207 0.113666 0.173718 0.082902 0.127782 0.267405 0.356959 0.365258 0.451329 0.485784 0.619485 0.430943 0.864091 0.971557 0.758176 0.715281 0.831842 0.544975 0.522699 0.500427 0.226663 0.254244 0.074451 0.198786 -0.038884 -0.013673 -0.113116 -0.096293 0.148043 0.037612 0.158981 0.226642 0.263637 0.396557 0.458944 0.407463 0.416289 0.533533 0.486180 0.380744 0.353166 0.215362 0.179125 0.083094 0.010570 0.022416 -0.124305 -0.005536 0.009561 -0.102039 -0.046306 0.171100 0.341425 0.216587 0.314491 0.181051 0.492854 0.379007 0.323078 0.299344 0.170977 0.111078 0.349590 0.026412 0.046253 -0.024619 0.062188 -0.032225 0.066768 -0.040776 0.161907 0.003595 0.221193 0.359426 0.225944 0.188807 0.221393 0.178893 0.071270 0.082518 0.083769 -0.030298 0.006901 0.046475 -0.149775 -0.108871 -0.001872 0.103025 0.294299 0.129387 0.163350 0.137256 0.157057 0.067787 0.070751 -0.040460 0.031550 0.005013 -0.050928 0.002010 0.040532 0.068675 0.009726 0.055386 0.130890 0.140701 0.297175 0.034086 0.038458 0.055940 -0.005341 0.017148 -0.014448 0.058671 0.117947 -0.021695 0.036291 0.049527 0.157698 0.062426 0.041569 0.095550 0.046966 0.070344 -0.017333 0.016203 -0.043952 0.016129 -0.011176 -0.026368 -0.033266 0.058453 0.012568 0.016139 -0.009805 -0.079836 -0.036903 -0.099158 -0.011762 0.000367 0.040204 -0.020734 0.008616 0.078997 -0.021385 -0.010345 -0.069603 -0.102668 -0.006705 -0.085820 -0.016106 -0.011146 -0.027229 -0.052739 -0.085070 0.061392 -0.048177 0.010461 -0.046656 -0.029741 -0.060362 -0.041556 0.022112 -0.024421 -0.103991 0.007684 -0.083359 0.030569 0.021798 0.122177 0.010255 -0.061370 -0.125474 0.037066 0.125553 -0.022914 -0.001378 -0.014740 -0.018528 0.018985 -0.066876 0.000157 0.006169 -0.032219 -0.077181 -0.088687 0.013635 -0.052109 -0.006754 -0.094675 -0.133296 0.058363 0.098407 0.118095 0.024633 0.059632 -0.035969 -0.053441 -0.015273 0.031009 0.014881 0.068993 -0.080639 -0.067985 0.042094 0.089185 0.079114 -0.076326 -0.049665 -0.019044 -0.041280 -0.084454 0.085782 0.027412 -0.064794 -0.119857 -0.053978 0.049282 -0.096961 -0.145109 -0.120150 -0.016471 0.003854 0.010188 -0.078648 0.080880 0.023249 -0.031641 -0.072737 -0.069401 -0.171195 -0.030055 0.056692 -0.058857 -0.105226 -0.066105 -0.032091 0.389107 0.010530 0.054647 -0.266228 0.011689 0.069788 -0.012622 0.369097 0.016389 0.294799 0.630319 0.713812 0.377388 0.261584 0.105610 -2.068876
0.072396 0.072904 0.074429 0.076970 0.080526 0.085097 0.090681 0.097277 0.104882 0.113493 0.123108 0.133721 0.145328 0.157921 0.171492 0.186033 0.201531 0.217974 0.235346 0.253629 0.272803 0.292844 0.313725 0.335415 0.357881 0.381084 0.404982 0.429527 0.454667 0.480343 0.506493 0.533049 0.559933 0.587067 0.614360 0.641719 0.669043 0.696223 0.723144 0.749684 0.775713 0.801095 0.825688 0.849342 0.871903 0.893208 0.913093 0.931385 0.947911 0.962493 0.974950 0.985102 0.992768 0.997768 0.999924 0.999065 0.995022 0.987638 0.976761 0.962253 0.943989 0.921861 0.895775 0.865662 0.831471 0.793178 0.750785 0.704324 0.653858 0.599483 0.541331 0.479569 0.414404 0.346084 0.274895 0.201166 0.125266 0.047607 0.031360 0.111145 0.191219 0.271019 0.349951 0.427392 0.502693 0.575190 0.644203 0.709046 0.769033 0.823486 0.871744 0.913168 0.947156 0.973147 0.990634 0.999174 0.998394 0.988005 0.967811 0.937713 0.897723 0.847969 0.788699 0.720289 0.643245 0.558203 0.465934 0.367335 0.263429 0.155357 0.044368 0.068189 0.180885 0.292223 0.400656 0.504614 0.602521 0.692822 0.774013 0.844663 0.903442 0.949158 0.980773 0.997441 0.998525 0.983626 0.952599 0.905576 0.842972 0.765497 0.674157 0.570253 0.455367 0.331352 0.200305 0.064538 0.073457 0.211049 0.345520 0.474112 0.594093 0.702810 0.797754 0.876625 0.937391 0.978352 0.998191 0.996028 0.971458 0.924585 0.856046 0.767015 0.659206 0.534850 0.396663 0.247798 0.091787 0.067542 0.226148 0.379882 0.524593 0.656238 0.771012 0.865453 0.936565 0.981922 0.999763 0.989075 0.949653 0.882139 0.788045 0.669731 0.530381 0.373920 0.204933 0.028536 0.149769 0.324260 0.489173 0.638906 0.768201 0.872355 0.947392 0.990244 0.998885 0.972449 0.911309 0.817101 0.692724 0.542267 0.370911 0.184760 0.009355 0.204114 0.391976 0.565483 0.717551 0.841772 0.932710 0.986150 0.999326 0.971083 0.901988 0.794363 0.652247 0.481278 0.288500 0.082098 0.128941 0.335193 0.527232 0.696054 0.833523 0.932777 0.988599 0.997724 0.959064 0.873825 0.745532 0.579920 0.384723 0.169349 0.055562 0.278633 0.488323 0.673537 0.824219 0.931922 0.990321 0.995618 0.946829 0.845927 0.697819 0.510166 0.293024 0.058345 0.180653 0.410223 0.616875 0.788184 0.913562 0.984950 0.997378 0.949363 0.843099 0.684428 0.482580 0.249686 0.000098 0.250485 0.485976 0.690945 0.851653 0.957003 0.999354 0.975137 0.885200 0.734880 0.533759 0.295105 0.035070 0.228399 0.476758 0.692183 0.858879 0.964267 0.999997 0.962670 0.854223 0.681926 0.457968 0.198677 0.076638 0.347078 0.591738 0.791338 0.929771 0.995473 0.982445 0.890886 0.727326 0.504260 0.239266 0.046307 0.329029 0.585296 0.793315 0.934995 0.997584 0.974900 0.868023 0.685374 0.442167 0.159206 0.138809 0.425416 0.674733 0.863820 0.974845 0.996844 0.926901 0.770603 0.541727 0.261113 0.045147 0.348076 0.618548 0.830100 0.961580 0.999340 0.938758 0.784901 0.552239 0.263394 0.052967 0.364914 0.640468 0.850899 0.973781 0.995479 0.912774 0.733435 0.475629 0.166203 0.162028 0.473697 0.734713 0.916012 0.996883 0.967451 0.830006 0.599011 0.299711 0.034497 0.365730 0.655883 0.871035 0.985496 0.984992 0.868576 0.649016 0.351566 0.011175 0.331517 0.635006 0.861969 0.983931 0.984961 0.863900 0.634808 0.325500 0.025699 0.374595 0.676676 0.892806 0.994393 0.967311 0.814023 0.553594 0.219478 0.144629 0.490418 0.771391
1.000000 1.000000 1.000000 1.000000 1.000000 1.000000 1.000000 1.000000 1.000000 1.000000 1.000000 1.000000 1.000000 1.000000 1.000000 1.000000 1.000000 1.000000 1.000000 1.000000 1.000000 1.000000 1.000000 1.000000 1.000000 1.000000 1.000000 1.000000 1.000000 1.000000 1.000000 1.000000 1.000000 1.000000 1.000000 1.000000 1.000000 1.000000 1.000000 1.000000 1.000000 1.000000 1.000000 1.000000 1.000000 1.000000 1.000000 1.000000 1.000000 1.000000 1.000000 1.000000 0.828780 0.828780 0.828780 0.814085 0.814085 0.814085 0.814085 0.814085 0.814085 0.814085 0.814085 0.814085 0.814085 0.814085 0.814085 0.814085 0.814085 0.814085 0.814085 0.814085 0.814085 0.814085 0.814085 0.814085 0.814085 0.814085 0.814085 0.814085 0.814085 0.814085 0.814085 0.814085 0.814085 0.814085 0.814085 0.814085 0.814085 0.814085 0.814085 0.814085 0.814085 0.814085 0.814085 0.814085 0.827360 0.833990 0.837249 0.840580 0.842488 0.838882 0.837760 0.836839 0.836544 0.837682 0.846839 0.872024 0.889337 0.896877 0.910834 0.914994 0.919318 0.921460 0.928502 0.928359 0.960132 0.958734 0.956057 0.957012 0.958750 0.953866 0.952374 0.950532 0.960113 0.954739 0.951902 0.948960 0.947891 0.943792 0.943955 0.943706 0.940628 0.941073 0.941666 0.941606 0.940952 0.939658 0.939047 0.927939 0.927541 0.926668 0.929168 0.905282 0.901141 0.891011 0.880683 0.893195 0.878135 0.877294 0.868985 0.870414 0.871531 0.865371 0.855742 0.851001 0.846158 0.838660 0.835733 0.834069 0.837466 0.835324 0.837127 0.829829 0.816788 0.804795 0.793252 0.791401 0.778307 0.772467 0.776377 0.778292 0.781275 0.780891 0.778974 0.770789 0.764865 0.751948 0.748671 0.749576 0.759849 0.762919 0.763379 0.761489 0.746365 0.725283 0.697224 0.691455 0.692069 0.660007 0.645422 0.647978 0.651257 0.657435 0.670140 0.664662 0.654104 0.625393 0.600777 0.575799 0.589880 0.605244 0.590962 0.595148 0.572751 0.611195 0.622656 0.641487 0.659385 0.665869 0.660881 0.634691 0.590794 0.593474 0.591514 0.589817 0.587105 0.578289 0.580202 0.599599 0.565157 0.554716 0.544080 0.536852 0.541879 0.555792 0.566699 0.569468 0.551580 0.519978 0.475697 0.472380 0.389727 0.337598 0.321656 0.323460 0.299976 0.294737 0.278283 0.288135 0.283332 0.288329 0.293539 0.253321 0.253119 0.250416 0.229349 0.222161 0.241115 0.247611 0.251871 0.231626 0.198029 0.215270 0.187643 0.191591 0.223568 0.202138 0.159872 0.161159 0.162398 0.138837 0.133129 0.120472 0.098317 0.096539 0.139974 0.133371 0.123595 0.138549 0.138270 0.090627 0.091044 0.077330 0.045952 0.041062 0.026496 -0.007590 -0.014824 -0.016830 -0.024434 -0.018654 -0.043462 -0.056160 -0.075362 -0.036636 -0.046855 -0.061073 -0.080761 -0.014497 -0.026738 -0.045745 -0.031164 -0.067312 -0.062189 -0.087333 -0.097235 -0.074004 -0.066788 -0.054490 -0.085666 -0.092865 -0.106169 -0.115524 -0.129484 -0.128574 -0.125372 -0.127493 -0.146070 -0.125816 -0.125148 -0.129919 -0.174345 -0.208710 -0.180903 -0.179749 -0.187047 -0.188301 -0.167609 -0.169188 -0.172356 -0.148859 -0.151613 -0.144184 -0.125645 -0.174435 -0.210895 -0.218234 -0.211300 -0.203633 -0.159395 -0.135874 -0.121495 -0.109694 -0.135657 -0.135657 -0.135657 -0.135657 -0.130627 -0.130627 -0.130627 -0.130627 -0.130627 -0.130627 -0.130627 -0.130627 -0.130627 -0.158503 -0.158503 -0.158503 -0.158503 -0.158503 -0.158503 -0.158503 -0.158503 -0.158503 -0.158503 -0.158503 -0.158503 -0.158503 -0.158503 -0.158503 -0.158503
0.000000 0.000000 0.000000 0.000000 0.000000 0.000000 0.000000 0.000000 0.000000 0.000000 0.000000 0.000000 0.000000 0.000000 0.000000 0.000000 0.000000 0.000000 2.000000 0.000000 0.000000 0.000000 0.000000 0.000000 0.000000 0.000000 0.000000 0.000000 0.000000 0.000000 0.000000 0.000000 0.000000 0.000000 0.000000 0.000000 0.000000 0.000000 0.000000 0.000000 0.000000 0.000000 0.000000 0.000000 0.000000 0.000000 0.000000 0.000000 0.000000 0.000000 0.000000 0.000000 0.180334 0.180334 0.180334 0.199007 0.199007 0.199007 0.199007 0.199007 0.199007 0.199007 0.199007 0.199007 0.199007 0.199007 0.199007 0.199007 0.199007 0.199007 0.199007 0.199007 0.199007 0.199007 0.199007 0.199007 0.199007 0.199007 0.199007 0.199007 0.199007 0.199007 0.199007 0.199007 0.199007 0.199007 0.199007 0.199007 0.199007 0.199007 0.199007 0.199007 0.199007 0.199007 0.199007 0.199007 0.230940 0.230940 0.230940 0.230940 0.230940 0.230940 0.230940 0.230940 0.230940 0.230940 0.230940 0.230940 0.230940 0.230940 0.230940 0.230940 0.230940 0.230940 0.230940 0.230940 0.230940 0.230940 0.230940 0.230940 0.230940 0.230940 0.230940 0.230940 0.244339 0.244339 0.244339 0.244339 0.244339 0.244339 0.244339 0.244339 0.244339 0.244339 0.244339 0.244339 0.244339 0.244339 0.244339 0.244339 0.244339 0.244339 0.244339 0.244339 0.244339 0.244339 0.244339 0.251976 0.251976 0.251976 0.251976 0.251976 0.251976 0.251976 0.251976 0.251976 0.251976 0.251976 0.251976 0.251976 0.251976 0.251976 0.251976 0.251976 0.251976 0.251976 0.251976 0.264906 0.264906 0.264906 0.264906 0.264906 0.264906 0.264906 0.264906 0.264906 0.264906 0.264906 0.264906 0.264906 0.264906 0.264906 0.264906 0.264906 0.264906 0.264906 0.264906 0.264906 0.264906 0.264906 0.264906 0.264906 0.264906 0.264906 0.264906 0.264906 0.264906 0.264906 0.264906 0.264906 0.264906 0.264906 0.264906 0.264906 0.264906 0.264906 0.264906 0.264906 0.264906 0.264906 0.264906 0.264906 0.264906 0.264906 0.264906 0.264906 0.264906 0.264906 0.264906 0.264906 0.264906 0.264906 0.264906 0.264906 0.264906 0.264906 0.264906 0.264906 0.264906 0.264906 0.264906 0.264906 0.264906 0.264906 0.264906 0.264906 0.264906 0.264906 0.264906 0.264906 0.264906 0.264906 0.260378 0.260378 0.260378 0.260378 0.260378 0.260378 0.260378 0.260378 0.260378 0.260378 0.260378 0.260378 0.260378 0.274721 0.274721 0.274721 0.274721 0.274721 0.274721 0.274721 0.274721 0.274721 0.274721 0.274721 0.260378 0.260378 0.260378 0.260378 0.260378 0.260378 0.260378 0.260378 0.260378 0.260378 0.260378 0.260378 0.264906 0.264906 0.264906 0.264906 0.264906 0.264906 0.264906 0.264906 0.264906 0.264906 0.264906 0.269680 0.269680 0.269680 0.269680 0.269680 0.269680 0.269680 0.269680 0.269680 0.269680 0.264906 0.264906 0.264906 0.264906 0.264906 0.264906 0.264906 0.264906 0.264906 0.264906 0.260378 0.260378 0.260378 0.260378 0.260378 0.260378 0.260378 0.260378 0.260378 0.260378 0.256074 0.256074 0.256074 0.256074 0.256074 0.256074 0.256074 0.256074 0.256074 0.256074 0.260378 0.260378 0.260378 0.260378 0.260378 0.260378 0.260378 0.260378 0.260378 0.256074 0.256074 0.256074 0.256074 0.256074 0.256074 0.256074 0.256074 0.256074 0.251976 0.251976 0.251976 0.251976 0.251976 0.251976 0.251976 0.251976 0.251976 0.251976 0.251976 0.251976 0.251976 0.251976 0.251976 0.251976
