# Output from CTFFind version 4.1.9, run on 2019-11-02 17:43:27
# Input file: stack11_bm3d_averaged_1_1.25_0_50_half.mrc ; Number of micrographs: 1
# Pixel size: 3.000 Angstroms ; acceleration voltage: 300.0 keV ; spherical aberration: 0.00 mm ; amplitude contrast: 0.07
# Box size: 512 pixels ; min. res.: 30.0 Angstroms ; max. res.: 5.0 Angstroms ; min. def.: 5000.0 um; max. def. 50000.0 um; num. frames averaged: 1
# 6 lines per micrograph: #1 - spatial frequency (1/Angstroms); #2 - 1D rotational average of spectrum (assuming no astigmatism); #3 - 1D rotational average of spectrum; #4 - CTF fit; #5 - cross-correlation between spectrum and CTF fit; #6 - 2sigma of expected cross correlation of noise
0.000000 0.000651 0.001302 0.001953 0.002604 0.003255 0.003906 0.004557 0.005208 0.005859 0.006510 0.007161 0.007812 0.008464 0.009115 0.009766 0.010417 0.011068 0.011719 0.012370 0.013021 0.013672 0.014323 0.014974 0.015625 0.016276 0.016927 0.017578 0.018229 0.018880 0.019531 0.020182 0.020833 0.021484 0.022135 0.022786 0.023438 0.024089 0.024740 0.025391 0.026042 0.026693 0.027344 0.027995 0.028646 0.029297 0.029948 0.030599 0.031250 0.031901 0.032552 0.033203 0.033854 0.034505 0.035156 0.035807 0.036458 0.037109 0.037760 0.038411 0.039062 0.039714 0.040365 0.041016 0.041667 0.042318 0.042969 0.043620 0.044271 0.044922 0.045573 0.046224 0.046875 0.047526 0.048177 0.048828 0.049479 0.050130 0.050781 0.051432 0.052083 0.052734 0.053385 0.054036 0.054688 0.055339 0.055990 0.056641 0.057292 0.057943 0.058594 0.059245 0.059896 0.060547 0.061198 0.061849 0.062500 0.063151 0.063802 0.064453 0.065104 0.065755 0.066406 0.067057 0.067708 0.068359 0.069010 0.069661 0.070312 0.070964 0.071615 0.072266 0.072917 0.073568 0.074219 0.074870 0.075521 0.076172 0.076823 0.077474 0.078125 0.078776 0.079427 0.080078 0.080729 0.081380 0.082031 0.082682 0.083333 0.083984 0.084635 0.085286 0.085938 0.086589 0.087240 0.087891 0.088542 0.089193 0.089844 0.090495 0.091146 0.091797 0.092448 0.093099 0.093750 0.094401 0.095052 0.095703 0.096354 0.097005 0.097656 0.098307 0.098958 0.099609 0.100260 0.100911 0.101562 0.102214 0.102865 0.103516 0.104167 0.104818 0.105469 0.106120 0.106771 0.107422 0.108073 0.108724 0.109375 0.110026 0.110677 0.111328 0.111979 0.112630 0.113281 0.113932 0.114583 0.115234 0.115885 0.116536 0.117188 0.117839 0.118490 0.119141 0.119792 0.120443 0.121094 0.121745 0.122396 0.123047 0.123698 0.124349 0.125000 0.125651 0.126302 0.126953 0.127604 0.128255 0.128906 0.129557 0.130208 0.130859 0.131510 0.132161 0.132812 0.133464 0.134115 0.134766 0.135417 0.136068 0.136719 0.137370 0.138021 0.138672 0.139323 0.139974 0.140625 0.141276 0.141927 0.142578 0.143229 0.143880 0.144531 0.145182 0.145833 0.146484 0.147135 0.147786 0.148438 0.149089 0.149740 0.150391 0.151042 0.151693 0.152344 0.152995 0.153646 0.154297 0.154948 0.155599 0.156250 0.156901 0.157552 0.158203 0.158854 0.159505 0.160156 0.160807 0.161458 0.162109 0.162760 0.163411 0.164062 0.164714 0.165365 0.166016 0.166667 0.167318 0.167969 0.168620 0.169271 0.169922 0.170573 0.171224 0.171875 0.172526 0.173177 0.173828 0.174479 0.175130 0.175781 0.176432 0.177083 0.177734 0.178385 0.179036 0.179688 0.180339 0.180990 0.181641 0.182292 0.182943 0.183594 0.184245 0.184896 0.185547 0.186198 0.186849 0.187500 0.188151 0.188802 0.189453 0.190104 0.190755 0.191406 0.192057 0.192708 0.193359 0.194010 0.194661 0.195312 0.195964 0.196615 0.197266 0.197917 0.198568 0.199219 0.199870 0.200521 0.201172 0.201823 0.202474 0.203125 0.203776 0.204427 0.205078 0.205729 0.206380 0.207031 0.207682 0.208333 0.208984 0.209635 0.210286 0.210938 0.211589 0.212240 0.212891 0.213542 0.214193 0.214844 0.215495 0.216146 0.216797 0.217448 0.218099 0.218750 0.219401 0.220052 0.220703 0.221354 0.222005 0.222656 0.223307 0.223958 0.224609 0.225260 0.225911 0.226562 0.227214 0.227865 0.228516 0.229167 0.229818 0.230469 0.231120 0.231771 0.232422 0.233073 0.233724 0.234375 0.235026 0.235677
       0.31826        0.31826        0.31826        0.31826        0.31826        0.31826        0.31826        0.31826        0.31826        0.31826        0.31826        0.31826        0.31826        0.31826        0.31826        0.31826        0.31826        0.31826        0.31826        0.31826        0.31826        0.31826        0.31826        0.31826        0.31826        0.31826        0.31826        0.31826        0.31826        0.31826        0.31826        0.31826        0.31826        0.31826        0.31826        0.31826        0.31826        0.31826        0.31826        0.31826        0.31826        0.31826        0.31826        0.31826        0.31826        0.31826        0.31826        0.31826        0.31826        0.31826        0.31826        0.68380        0.86788        0.52362        0.09072       -0.05959       -0.42096       -0.20410       -0.29504       -0.11537       -0.07249       -0.11721       -0.06469       -0.20385       -0.23085       -0.25388       -0.32654       -0.33689       -0.48332       -0.37912       -0.46307       -0.44592       -0.41881       -0.46488       -0.53489       -0.55694       -0.58391       -0.61893       -0.57406       -0.41233       -0.37717       -0.32609       -0.30963       -0.21259       -0.20066        0.01883        0.08087        0.11403        0.22897        0.37138        0.44299        0.51185        0.55951        0.55693        0.56624        0.69651        0.81048        0.73331        0.73155        0.66248        0.57779        0.48252        0.41067        0.49581        0.38020        0.21240        0.07807        0.05442        0.02053       -0.05951       -0.03271       -0.01586       -0.06729       -0.00893       -0.01400        0.21531        0.25087        0.28729        0.42819        0.45564        0.40603        0.54436        0.62585        0.69612        0.75700        0.68723        0.65013        0.69613        0.58323        0.49916        0.41983        0.28882        0.19160        0.15572        0.10465        0.04240        0.01406        0.00314        0.07700        0.13049        0.20797        0.28177        0.39564        0.42284        0.50952        0.60407        0.63012        0.62509        0.62965        0.55691        0.44910        0.45160        0.35342        0.23028        0.17627        0.14842        0.11850        0.12305        0.07617        0.10567        0.23744        0.26481        0.34819        0.36107        0.44927        0.51419        0.53915        0.54959        0.47185        0.43579        0.39203        0.36089        0.30442        0.25253        0.20236        0.19097        0.16551        0.19360        0.18198        0.27488        0.33421        0.37127        0.43076        0.45960        0.47841        0.43854        0.39278        0.41752        0.37052        0.28673        0.26684        0.22138        0.21681        0.19501        0.22035        0.23202        0.32915        0.37426        0.36962        0.46243        0.43768        0.43534        0.43050        0.39608        0.34475        0.32365        0.27489        0.24861        0.23889        0.27460        0.27482        0.30372        0.30892        0.33761        0.32659        0.40629        0.42041        0.37657        0.34710        0.37116        0.28469        0.28436        0.26011        0.28364        0.26303        0.27817        0.28844        0.30973        0.35002        0.36530        0.36346        0.34073        0.35495        0.28651        0.31821        0.26908        0.24398        0.29204        0.28532        0.31127        0.30957        0.32796        0.33340        0.31707        0.31562        0.28646        0.29430        0.26798        0.28114        0.25829        0.30440        0.28568        0.27154        0.30694        0.31560        0.32404        0.28186        0.30390        0.28250        0.25511        0.24726        0.22073        0.28242        0.27667        0.32716        0.31265        0.31805        0.31983        0.31295        0.27792        0.29378        0.32763        0.26845        0.25867        0.29770        0.29158        0.33631        0.33063        0.34500        0.33012        0.30705        0.28159        0.27211        0.25455        0.22840        0.28135        0.30778        0.29598        0.28297        0.29550        0.27575        0.32824        0.31872        0.25001        0.21790        0.28239        0.32480        0.27378        0.30816        0.32454        0.32672        0.31140        0.31868        0.34000        0.30585        0.29211        0.25803        0.29207        0.35966        0.35841        0.26677        0.26430        0.25823        0.29583        0.22223        0.29150        0.22945        0.24820        0.33538        0.32387        0.34454        0.29571        0.24974        0.24075        0.24242        0.23171        0.20185        0.23564        0.27068        0.31099        0.25719        0.31286        0.31719        0.27309        0.26496        0.20769        0.16302        0.20072        0.22529        0.20858        0.21213        0.22846        0.19437        0.24746        0.34600        0.31167        0.32433        0.23690        0.22353        0.21679        0.28455        0.29171        0.13109        0.21075        0.23094        0.11258        0.19076        0.11608        0.13899        0.19113        0.08901       -0.11918       -0.55550
2.604095 2.576849 2.549751 2.522802 2.496000 2.469346 2.442840 2.416482 2.390272 2.364210 2.338296 2.312529 2.286911 2.261441 2.236119 2.210944 2.185918 2.161040 2.136309 2.111727 2.087292 2.063005 2.038867 2.014876 1.991033 1.967339 1.943792 1.920393 1.897142 1.874039 1.851084 1.828277 1.805618 1.783107 1.760744 1.738529 1.716462 1.694542 1.672771 1.651148 1.629672 1.608345 1.587166 1.566134 1.545250 1.524515 1.503927 1.483487 1.463196 1.443052 1.423056 1.642734 2.052695 1.624729 1.137332 0.994309 0.426686 0.815340 0.564121 0.836815 0.780033 0.792522 0.754911 0.713470 0.568576 0.520232 0.488315 0.441876 0.211851 0.382870 0.201950 0.309253 0.238704 0.182990 0.135237 0.010186 0.041002 -0.012716 -0.056868 0.105547 0.208377 0.194188 0.159152 0.328105 0.194934 0.492242 0.585784 0.559728 0.599997 0.874998 0.812700 0.941588 0.888448 0.977645 0.945637 1.077242 1.140267 1.066043 1.127675 0.943673 0.942455 0.781371 0.654234 0.773726 0.709173 0.469702 0.309069 0.251439 0.224938 0.147654 0.091543 0.130339 0.073993 0.141858 0.058579 0.262744 0.378109 0.350892 0.479972 0.571291 0.459952 0.558169 0.698789 0.740669 0.778379 0.725922 0.722789 0.708890 0.627113 0.564928 0.422958 0.287631 0.204724 0.078180 0.124534 -0.048442 -0.031138 -0.078674 -0.042410 -0.002441 0.146273 0.087689 0.289789 0.281470 0.361911 0.458613 0.519360 0.505386 0.521522 0.509872 0.332223 0.310553 0.277886 0.100149 0.043425 -0.019039 -0.024258 -0.043069 -0.089500 -0.106008 -0.001706 0.061512 0.128464 0.151824 0.228348 0.325374 0.316100 0.417134 0.390939 0.285381 0.234931 0.239425 0.191236 0.107495 0.075711 0.013154 0.003580 0.007833 -0.018414 0.064876 0.147334 0.143013 0.238167 0.254340 0.305085 0.248786 0.221460 0.182768 0.214034 0.136842 0.045423 0.029642 -0.010676 -0.009779 -0.033748 0.021415 0.017169 0.167701 0.133091 0.177367 0.240464 0.195584 0.182464 0.198209 0.141669 0.095244 0.055429 0.049190 -0.028203 0.005417 0.026796 0.055218 0.056170 0.080718 0.090090 0.120283 0.137470 0.193358 0.081905 0.100456 0.077624 0.009268 0.007010 0.009013 0.000895 0.019367 0.003367 0.025382 0.067173 0.082664 0.134252 0.053458 0.112546 0.057169 0.013763 0.060572 -0.033975 -0.010211 0.035473 0.002344 0.062455 0.049079 0.053321 0.068616 0.058374 0.042162 0.026007 0.010497 0.019926 0.007584 -0.013383 0.071871 -0.009525 0.018338 0.059092 0.056845 0.045384 0.047434 0.042044 0.018605 -0.005949 -0.034195 -0.010901 0.027791 0.034331 0.084539 0.059063 0.070620 0.084145 0.079778 0.028925 0.076786 0.089731 0.017661 0.021811 0.071117 0.054351 0.101452 0.108581 0.092103 0.123632 0.072140 0.040247 0.042115 -0.001711 0.008932 0.064323 0.081881 0.049062 0.041105 0.034644 0.025574 0.100522 0.051566 -0.042543 -0.047228 0.037708 0.087631 0.007222 0.024839 0.073367 0.082679 0.041811 0.053575 0.081735 0.041371 0.040281 -0.040157 0.036547 0.118774 0.077078 -0.044030 -0.024211 -0.041584 0.049008 -0.105760 0.035317 -0.087475 -0.034465 0.059430 0.048480 0.024707 -0.034503 -0.052570 -0.069547 -0.082171 -0.062859 -0.090505 -0.085790 -0.020676 0.059811 -0.040102 0.060484 0.011121 -0.040333 0.043113 -0.099729 -0.101947 -0.069407 -0.011392 -0.026928 -0.044666 0.019780 -0.013548 0.025091 0.211386 0.004926 0.178958 0.048505 0.228539 0.241482 0.322719 0.280805 0.096760 0.213560 0.275054 0.054491 0.208303 0.121345 0.117855 0.270261 0.091220 -0.578059
0.072396 0.072899 0.074406 0.076918 0.080433 0.084952 0.090472 0.096992 0.104510 0.113024 0.122529 0.133021 0.144496 0.156947 0.170365 0.184743 0.200068 0.216328 0.233508 0.251591 0.270557 0.290382 0.311041 0.332505 0.354740 0.377710 0.401372 0.425681 0.450587 0.476033 0.501958 0.528295 0.554972 0.581910 0.609023 0.636220 0.663403 0.690466 0.717298 0.743780 0.769786 0.795185 0.819837 0.843597 0.866315 0.887832 0.907988 0.926615 0.943543 0.958597 0.971601 0.982379 0.990750 0.996539 0.999570 0.999672 0.996679 0.990432 0.980780 0.967583 0.950713 0.930058 0.905521 0.877024 0.844512 0.807951 0.767332 0.722678 0.674035 0.621488 0.565150 0.505173 0.441744 0.375090 0.305476 0.233208 0.158632 0.082134 0.004141 0.074883 0.154433 0.233973 0.312932 0.390709 0.466680 0.540197 0.610600 0.677216 0.739369 0.796390 0.847617 0.892412 0.930162 0.960294 0.982280 0.995649 0.999996 0.994991 0.980390 0.956040 0.921891 0.878003 0.824550 0.761829 0.690261 0.610396 0.522911 0.428614 0.328434 0.223423 0.114744 0.003662 0.108467 0.220211 0.330080 0.436544 0.538054 0.633066 0.720065 0.797591 0.864269 0.918830 0.960146 0.987252 0.999373 0.995950 0.976660 0.941436 0.890481 0.824280 0.743608 0.649528 0.543390 0.426816 0.301685 0.170111 0.034411 0.102931 0.239307 0.372034 0.498401 0.615733 0.721444 0.813102 0.888491 0.945667 0.983018 0.999317 0.993772 0.966058 0.916355 0.845362 0.754306 0.644939 0.519515 0.380758 0.231813 0.076183 0.082340 0.239772 0.392029 0.535036 0.664833 0.777700 0.870262 0.939606 0.983381 0.999890 0.988172 0.948055 0.880201 0.786114 0.668136 0.529402 0.373783 0.205785 0.030435 0.146862 0.320479 0.484757 0.634176 0.763558 0.868257 0.944332 0.988719 0.999368 0.975361 0.916980 0.825747 0.704415 0.556916 0.388246 0.204331 0.011825 0.182116 0.370091 0.544744 0.699052 0.826613 0.921941 0.980712 0.999986 0.978381 0.916184 0.815396 0.679711 0.514406 0.326176 0.122875 0.086781 0.293583 0.488234 0.661759 0.805944 0.913735 0.979609 0.999890 0.972984 0.899525 0.782411 0.626745 0.439643 0.229952 0.007846 0.215636 0.429139 0.621569 0.782678 0.903633 0.977529 0.999822 0.968644 0.884986 0.752734 0.578543 0.371541 0.142898 0.094756 0.328008 0.543413 0.728279 0.871437 0.963945 0.999687 0.975826 0.893069 0.755728 0.571558 0.351368 0.108439 0.142248 0.384924 0.604013 0.785149 0.916144 0.987853 0.994863 0.935950 0.814288 0.637346 0.416494 0.166339 0.096209 0.353063 0.586179 0.778851 0.916940 0.989943 0.991872 0.921796 0.784041 0.588017 0.347640 0.080407 0.193841 0.454356 0.681078 0.856175 0.965516 0.999852 0.955679 0.835662 0.648574 0.408740 0.135018 0.150644 0.424924 0.665038 0.850648 0.965641 0.999586 0.948767 0.816666 0.613826 0.357116 0.068399 0.227278 0.503825 0.736424 0.903783 0.990145 0.986864 0.893353 0.717332 0.474302 0.186276 0.120147 0.416195 0.673607 0.867379 0.978230 0.994617 0.914042 0.743493 0.498970 0.204087 0.112116 0.418002 0.682477 0.878185 0.984407 0.989347 0.891558 0.700312 0.434868 0.122628 0.203590 0.508973 0.760425 0.930197 0.999038 0.958489 0.812047 0.575026 0.273101 0.060377 0.387989 0.672434 0.880796 0.988441 0.982029 0.861315 0.639440 0.341658 0.002585 0.337743 0.638562 0.863289 0.984036 0.985208 0.865647 0.639073 0.332672 0.016028 0.363665 0.666408 0.885498 0.992317 0.972242 0.826816 0.573852 0.245441 0.115991
1.000000 1.000000 1.000000 1.000000 1.000000 1.000000 1.000000 1.000000 1.000000 1.000000 1.000000 1.000000 1.000000 1.000000 1.000000 1.000000 1.000000 1.000000 1.000000 1.000000 1.000000 1.000000 1.000000 1.000000 1.000000 1.000000 1.000000 1.000000 1.000000 1.000000 1.000000 1.000000 1.000000 1.000000 1.000000 1.000000 1.000000 1.000000 1.000000 1.000000 1.000000 1.000000 1.000000 1.000000 1.000000 1.000000 1.000000 1.000000 1.000000 1.000000 1.000000 1.000000 0.929318 0.929318 0.929318 0.919194 0.919194 0.919194 0.919194 0.919194 0.919194 0.919194 0.919194 0.919194 0.919194 0.919194 0.919194 0.919194 0.919194 0.919194 0.919194 0.919194 0.919194 0.919194 0.919194 0.919194 0.919194 0.919194 0.919194 0.919194 0.919194 0.919194 0.919194 0.919194 0.919194 0.919194 0.919194 0.919194 0.919194 0.919194 0.919194 0.919194 0.919194 0.919194 0.919194 0.919194 0.949410 0.950669 0.958582 0.958427 0.957928 0.955840 0.954910 0.953791 0.953333 0.953610 0.954222 0.955063 0.963784 0.964868 0.966450 0.967285 0.968006 0.968654 0.968479 0.969180 0.968381 0.967816 0.967302 0.963332 0.963948 0.964504 0.964608 0.965635 0.965515 0.967462 0.967640 0.967031 0.966130 0.965368 0.964633 0.964198 0.963916 0.964425 0.964727 0.966046 0.969233 0.968668 0.968371 0.968529 0.968631 0.968816 0.969267 0.970980 0.967239 0.967850 0.966166 0.963989 0.968133 0.965306 0.965828 0.966349 0.967795 0.968024 0.966121 0.962465 0.956390 0.955891 0.952437 0.943790 0.941494 0.942360 0.944505 0.944984 0.944073 0.937185 0.937763 0.932247 0.932497 0.935788 0.931482 0.931073 0.932214 0.930857 0.928482 0.927822 0.924932 0.920980 0.918419 0.918273 0.921449 0.922855 0.924109 0.923780 0.918211 0.909269 0.893915 0.890814 0.884353 0.887745 0.876198 0.875698 0.875754 0.872106 0.875922 0.877685 0.878782 0.874605 0.855318 0.832782 0.823006 0.826207 0.832116 0.827745 0.826780 0.819638 0.832290 0.816906 0.830207 0.841625 0.836363 0.836971 0.836411 0.832492 0.824998 0.824083 0.826242 0.828009 0.827727 0.828327 0.821783 0.811505 0.815093 0.750631 0.737234 0.733502 0.739250 0.744808 0.745432 0.744151 0.752542 0.757549 0.752108 0.736896 0.729741 0.720671 0.725653 0.731149 0.735902 0.728478 0.706035 0.695423 0.658079 0.674935 0.700014 0.654731 0.678591 0.688941 0.680984 0.680130 0.672578 0.666110 0.656261 0.659540 0.671647 0.690472 0.709288 0.734133 0.729214 0.719640 0.721204 0.704624 0.697815 0.690966 0.696839 0.678975 0.673731 0.693261 0.693662 0.682246 0.669044 0.653179 0.638941 0.638303 0.644015 0.638184 0.637218 0.619100 0.588509 0.581890 0.621301 0.637471 0.655437 0.627591 0.612518 0.603856 0.578187 0.593630 0.544094 0.544215 0.566658 0.573578 0.549182 0.530702 0.539062 0.558002 0.567477 0.560113 0.530387 0.517740 0.526898 0.558953 0.550341 0.524186 0.533271 0.530177 0.526035 0.465906 0.467790 0.437365 0.411482 0.355447 0.330187 0.326249 0.312525 0.306964 0.275527 0.271677 0.281491 0.291638 0.297296 0.296789 0.277856 0.289010 0.283642 0.271082 0.212480 0.202143 0.193552 0.182927 0.184293 0.162738 0.181633 0.238811 0.240678 0.240678 0.240678 0.240678 0.240678 0.240678 0.251947 0.251947 0.251947 0.251947 0.251947 0.251947 0.251947 0.251947 0.251947 0.261341 0.261341 0.261341 0.261341 0.261341 0.261341 0.261341 0.261341 0.261341 0.261341 0.261341 0.261341 0.261341 0.261341
0.000000 0.000000 0.000000 0.000000 0.000000 0.000000 0.000000 0.000000 0.000000 0.000000 0.000000 0.000000 0.000000 0.000000 0.000000 0.000000 0.000000 0.000000 0.000000 0.000000 0.000000 0.000000 0.000000 0.000000 0.000000 0.000000 0.000000 0.000000 0.000000 0.000000 0.000000 0.000000 0.000000 0.000000 0.000000 0.000000 0.000000 0.000000 0.000000 0.000000 0.000000 0.000000 0.000000 0.000000 0.000000 0.000000 0.000000 0.000000 0.000000 0.000000 0.000000 0.000000 0.180334 0.180334 0.180334 0.199007 0.199007 0.199007 0.199007 0.199007 0.199007 0.199007 0.199007 0.199007 0.199007 0.199007 0.199007 0.199007 0.199007 0.199007 0.199007 0.199007 0.199007 0.199007 0.199007 0.199007 0.199007 0.199007 0.199007 0.199007 0.199007 0.199007 0.199007 0.199007 0.199007 0.199007 0.199007 0.199007 0.199007 0.199007 0.199007 0.199007 0.199007 0.199007 0.199007 0.199007 0.225018 0.225018 0.225018 0.225018 0.225018 0.225018 0.225018 0.225018 0.225018 0.225018 0.225018 0.225018 0.225018 0.225018 0.225018 0.225018 0.225018 0.225018 0.225018 0.225018 0.225018 0.225018 0.225018 0.225018 0.225018 0.225018 0.225018 0.225018 0.225018 0.244339 0.244339 0.244339 0.244339 0.244339 0.244339 0.244339 0.244339 0.244339 0.244339 0.244339 0.244339 0.244339 0.244339 0.244339 0.244339 0.244339 0.244339 0.244339 0.244339 0.244339 0.244339 0.244339 0.251976 0.251976 0.251976 0.251976 0.251976 0.251976 0.251976 0.251976 0.251976 0.251976 0.251976 0.251976 0.251976 0.251976 0.251976 0.251976 0.251976 0.251976 0.251976 0.251976 0.264906 0.264906 0.264906 0.264906 0.264906 0.264906 0.264906 0.264906 0.264906 0.264906 0.264906 0.264906 0.264906 0.264906 0.264906 0.264906 0.264906 0.264906 0.264906 0.264906 0.264906 0.264906 0.264906 0.264906 0.264906 0.264906 0.264906 0.264906 0.264906 0.264906 0.264906 0.264906 0.264906 0.264906 0.264906 0.264906 0.264906 0.264906 0.264906 0.264906 0.264906 0.264906 0.264906 0.264906 0.264906 0.264906 0.264906 0.264906 0.264906 0.264906 0.264906 0.264906 0.264906 0.264906 0.264906 0.264906 0.264906 0.264906 0.264906 0.264906 0.264906 0.264906 0.256074 0.256074 0.256074 0.256074 0.256074 0.256074 0.256074 0.256074 0.256074 0.256074 0.256074 0.256074 0.256074 0.256074 0.269680 0.269680 0.269680 0.269680 0.269680 0.269680 0.269680 0.269680 0.269680 0.269680 0.269680 0.269680 0.264906 0.264906 0.264906 0.264906 0.264906 0.264906 0.264906 0.264906 0.264906 0.264906 0.264906 0.264906 0.269680 0.269680 0.269680 0.269680 0.269680 0.269680 0.269680 0.269680 0.269680 0.269680 0.269680 0.264906 0.264906 0.264906 0.264906 0.264906 0.264906 0.264906 0.264906 0.264906 0.264906 0.264906 0.256074 0.256074 0.256074 0.256074 0.256074 0.256074 0.256074 0.256074 0.256074 0.256074 0.256074 0.264906 0.264906 0.264906 0.264906 0.264906 0.264906 0.264906 0.264906 0.264906 0.264906 0.260378 0.260378 0.260378 0.260378 0.260378 0.260378 0.260378 0.260378 0.260378 0.260378 0.256074 0.256074 0.256074 0.256074 0.256074 0.256074 0.256074 0.256074 0.256074 0.256074 0.260378 0.260378 0.260378 0.260378 0.260378 0.260378 0.260378 0.260378 0.260378 0.256074 0.256074 0.256074 0.256074 0.256074 0.256074 0.256074 0.256074 0.256074 0.251976 0.251976 0.251976 0.251976 0.251976 0.251976 0.251976 0.251976 0.251976 0.251976 0.251976 0.251976 0.251976 0.251976
