# Output from CTFFind version 4.1.9, run on 2019-11-03 19:00:11
# Input file: stack1_bm3d_averaged_1_2.75_0_50_half.mrc ; Number of micrographs: 1
# Pixel size: 3.000 Angstroms ; acceleration voltage: 300.0 keV ; spherical aberration: 0.00 mm ; amplitude contrast: 0.07
# Box size: 512 pixels ; min. res.: 30.0 Angstroms ; max. res.: 5.0 Angstroms ; min. def.: 5000.0 um; max. def. 50000.0 um; num. frames averaged: 1
# 6 lines per micrograph: #1 - spatial frequency (1/Angstroms); #2 - 1D rotational average of spectrum (assuming no astigmatism); #3 - 1D rotational average of spectrum; #4 - CTF fit; #5 - cross-correlation between spectrum and CTF fit; #6 - 2sigma of expected cross correlation of noise
0.000000 0.000651 0.001302 0.001953 0.002604 0.003255 0.003906 0.004557 0.005208 0.005859 0.006510 0.007161 0.007812 0.008464 0.009115 0.009766 0.010417 0.011068 0.011719 0.012370 0.013021 0.013672 0.014323 0.014974 0.015625 0.016276 0.016927 0.017578 0.018229 0.018880 0.019531 0.020182 0.020833 0.021484 0.022135 0.022786 0.023438 0.024089 0.024740 0.025391 0.026042 0.026693 0.027344 0.027995 0.028646 0.029297 0.029948 0.030599 0.031250 0.031901 0.032552 0.033203 0.033854 0.034505 0.035156 0.035807 0.036458 0.037109 0.037760 0.038411 0.039062 0.039714 0.040365 0.041016 0.041667 0.042318 0.042969 0.043620 0.044271 0.044922 0.045573 0.046224 0.046875 0.047526 0.048177 0.048828 0.049479 0.050130 0.050781 0.051432 0.052083 0.052734 0.053385 0.054036 0.054688 0.055339 0.055990 0.056641 0.057292 0.057943 0.058594 0.059245 0.059896 0.060547 0.061198 0.061849 0.062500 0.063151 0.063802 0.064453 0.065104 0.065755 0.066406 0.067057 0.067708 0.068359 0.069010 0.069661 0.070312 0.070964 0.071615 0.072266 0.072917 0.073568 0.074219 0.074870 0.075521 0.076172 0.076823 0.077474 0.078125 0.078776 0.079427 0.080078 0.080729 0.081380 0.082031 0.082682 0.083333 0.083984 0.084635 0.085286 0.085938 0.086589 0.087240 0.087891 0.088542 0.089193 0.089844 0.090495 0.091146 0.091797 0.092448 0.093099 0.093750 0.094401 0.095052 0.095703 0.096354 0.097005 0.097656 0.098307 0.098958 0.099609 0.100260 0.100911 0.101562 0.102214 0.102865 0.103516 0.104167 0.104818 0.105469 0.106120 0.106771 0.107422 0.108073 0.108724 0.109375 0.110026 0.110677 0.111328 0.111979 0.112630 0.113281 0.113932 0.114583 0.115234 0.115885 0.116536 0.117188 0.117839 0.118490 0.119141 0.119792 0.120443 0.121094 0.121745 0.122396 0.123047 0.123698 0.124349 0.125000 0.125651 0.126302 0.126953 0.127604 0.128255 0.128906 0.129557 0.130208 0.130859 0.131510 0.132161 0.132812 0.133464 0.134115 0.134766 0.135417 0.136068 0.136719 0.137370 0.138021 0.138672 0.139323 0.139974 0.140625 0.141276 0.141927 0.142578 0.143229 0.143880 0.144531 0.145182 0.145833 0.146484 0.147135 0.147786 0.148438 0.149089 0.149740 0.150391 0.151042 0.151693 0.152344 0.152995 0.153646 0.154297 0.154948 0.155599 0.156250 0.156901 0.157552 0.158203 0.158854 0.159505 0.160156 0.160807 0.161458 0.162109 0.162760 0.163411 0.164062 0.164714 0.165365 0.166016 0.166667 0.167318 0.167969 0.168620 0.169271 0.169922 0.170573 0.171224 0.171875 0.172526 0.173177 0.173828 0.174479 0.175130 0.175781 0.176432 0.177083 0.177734 0.178385 0.179036 0.179688 0.180339 0.180990 0.181641 0.182292 0.182943 0.183594 0.184245 0.184896 0.185547 0.186198 0.186849 0.187500 0.188151 0.188802 0.189453 0.190104 0.190755 0.191406 0.192057 0.192708 0.193359 0.194010 0.194661 0.195312 0.195964 0.196615 0.197266 0.197917 0.198568 0.199219 0.199870 0.200521 0.201172 0.201823 0.202474 0.203125 0.203776 0.204427 0.205078 0.205729 0.206380 0.207031 0.207682 0.208333 0.208984 0.209635 0.210286 0.210938 0.211589 0.212240 0.212891 0.213542 0.214193 0.214844 0.215495 0.216146 0.216797 0.217448 0.218099 0.218750 0.219401 0.220052 0.220703 0.221354 0.222005 0.222656 0.223307 0.223958 0.224609 0.225260 0.225911 0.226562 0.227214 0.227865 0.228516 0.229167 0.229818 0.230469 0.231120 0.231771 0.232422 0.233073 0.233724 0.234375 0.235026 0.235677
       0.34147        0.34147        0.34147        0.34147        0.34147        0.34147        0.34147        0.34147        0.34147        0.34147        0.34147        0.34147        0.34147        0.34147        0.34147        0.34146        0.34147        0.34147        0.34147        0.34147        0.34147        0.34147        0.34147        0.34147        0.34147        0.34147        0.34147        0.34147        0.34147        0.34147        0.34146        0.34147        0.34147        0.34147        0.34147        0.34147        0.34147        0.34147        0.34147        0.34147        0.34147        0.34147        0.34146        0.34147        0.34147        0.34147        0.34147        0.34147        0.34147        0.34147        0.34147        0.49563        0.71216        0.41616        0.20662       -0.05017       -0.22985       -0.04583       -0.10425       -0.06506        0.01005       -0.12871       -0.09168       -0.04841       -0.03200       -0.13096       -0.17202       -0.30375       -0.46364       -0.56258       -0.50117       -0.43974       -0.35770       -0.56109       -0.42211       -0.55450       -0.46365       -0.46844       -0.37150       -0.34666       -0.30196       -0.21852       -0.13507       -0.12664        0.01644        0.00111        0.15401        0.17913        0.33505        0.43192        0.49816        0.55820        0.56706        0.58254        0.69025        0.63262        0.67168        0.59936        0.55142        0.61845        0.50112        0.44627        0.40008        0.31101        0.27678        0.28844        0.25809        0.09949        0.07847       -0.01041        0.02412        0.04970        0.00248        0.08496        0.14989        0.22366        0.29494        0.29007        0.41747        0.57094        0.56514        0.56873        0.66247        0.65607        0.62706        0.67710        0.64566        0.55621        0.54977        0.42995        0.34917        0.26377        0.18280        0.11687        0.14965        0.11606        0.13550        0.12525        0.22418        0.23960        0.32748        0.35221        0.41043        0.50603        0.54064        0.56839        0.55634        0.59097        0.52554        0.46718        0.48394        0.35608        0.27234        0.26727        0.24693        0.17137        0.16983        0.18479        0.21758        0.25432        0.35466        0.39996        0.41478        0.45253        0.45836        0.49305        0.45169        0.49804        0.44402        0.37341        0.35879        0.35944        0.32274        0.28127        0.20779        0.21969        0.22816        0.28193        0.28018        0.37561        0.40980        0.36932        0.41669        0.45787        0.44353        0.44841        0.46463        0.38247        0.34504        0.28917        0.25660        0.30002        0.27975        0.30997        0.32344        0.34546        0.33345        0.41437        0.40721        0.44073        0.41373        0.43589        0.38753        0.35286        0.29861        0.29408        0.29971        0.27728        0.27156        0.34039        0.35397        0.35231        0.36239        0.36689        0.36884        0.43961        0.40532        0.38642        0.35077        0.30796        0.30308        0.33663        0.32846        0.34358        0.29900        0.31968        0.35127        0.38157        0.36674        0.34387        0.34533        0.35013        0.33339        0.30385        0.32493        0.31547        0.35179        0.33495        0.33628        0.35649        0.32102        0.33490        0.33997        0.30472        0.29679        0.28833        0.27743        0.32421        0.33564        0.36122        0.29395        0.30652        0.33245        0.30561        0.31952        0.29649        0.31291        0.31160        0.30424        0.30326        0.33374        0.33622        0.33599        0.33475        0.36686        0.36229        0.31575        0.33013        0.33643        0.25225        0.25572        0.32908        0.28467        0.28783        0.34609        0.32716        0.34384        0.37104        0.33994        0.28036        0.26775        0.30091        0.33018        0.33791        0.36713        0.33502        0.30317        0.31210        0.31268        0.28070        0.30763        0.30754        0.33791        0.32010        0.28922        0.27414        0.33424        0.34629        0.33069        0.28385        0.28008        0.34123        0.38499        0.36230        0.33348        0.32099        0.28996        0.30493        0.29989        0.31658        0.32653        0.23449        0.27197        0.32588        0.30639        0.30643        0.27584        0.25763        0.22084        0.23787        0.30441        0.29603        0.31472        0.25553        0.29055        0.39606        0.33366        0.25562        0.28166        0.27948        0.25703        0.29394        0.36182        0.27932        0.30605        0.32957        0.23415        0.30758        0.32387        0.26770        0.24797        0.27625        0.19545        0.20640        0.29230        0.25868        0.36335        0.32253        0.23917        0.20228        0.16544        0.25597        0.31900        0.27191        0.17577        0.23273        0.29736        0.25948        0.23401        0.05833        0.05384       -0.44487       -0.94852
2.686846 2.658606 2.630518 2.602581 2.574797 2.547164 2.519684 2.492355 2.465179 2.438154 2.411281 2.384561 2.357992 2.331575 2.305311 2.279198 2.253237 2.227428 2.201771 2.176267 2.150914 2.125713 2.100664 2.075767 2.051022 2.026429 2.001987 1.977698 1.953561 1.929576 1.905743 1.882062 1.858532 1.835155 1.811930 1.788856 1.765935 1.743165 1.720548 1.698082 1.675769 1.653607 1.631598 1.609740 1.588035 1.566481 1.545079 1.523830 1.502732 1.481786 1.460992 1.507542 1.843923 1.503354 1.199747 0.954910 0.552849 0.925784 0.660726 0.845956 0.907300 0.620164 0.683089 0.779357 0.767674 0.621497 0.581437 0.395282 0.093163 0.043578 0.047393 0.052711 0.318348 -0.067658 0.057605 -0.065489 0.010895 -0.024354 0.087564 0.073548 0.144812 0.193871 0.302004 0.266106 0.452668 0.374029 0.593915 0.549322 0.782456 0.822109 0.911410 1.014620 0.961649 0.991914 1.094684 0.983137 1.133007 0.938438 0.896342 0.961383 0.826724 0.766464 0.662060 0.547975 0.520667 0.472123 0.496775 0.263636 0.191181 0.140557 0.041399 0.203486 0.017495 0.109486 0.228263 0.277941 0.322693 0.351077 0.466321 0.575816 0.700374 0.547775 0.727721 0.813684 0.626831 0.756626 0.700172 0.638089 0.493370 0.511802 0.306667 0.223103 0.107574 0.011823 0.008404 0.020773 -0.048811 -0.033452 0.088474 0.073251 0.130525 0.222669 0.236417 0.375937 0.412659 0.433178 0.471443 0.446888 0.449931 0.303540 0.342040 0.263758 0.081000 0.062049 0.034362 -0.044082 -0.056504 -0.079700 -0.009344 -0.052701 0.096297 0.150627 0.188687 0.228110 0.247309 0.264534 0.317653 0.245132 0.278603 0.199039 0.143640 0.111678 0.108648 0.037799 0.004093 -0.103415 -0.024150 0.020702 0.044653 0.022550 0.164231 0.123235 0.140769 0.203667 0.271185 0.169245 0.244906 0.129544 0.162728 0.032707 -0.029771 0.010397 0.004405 0.004933 0.025933 0.074844 0.038729 0.079049 0.158849 0.165888 0.149873 0.119654 0.169954 0.046118 0.049151 -0.018685 -0.018916 -0.015436 -0.064620 -0.016976 0.057249 0.079997 0.013878 0.074683 0.078174 0.087889 0.177150 0.084780 0.103117 0.037170 -0.020163 0.015355 0.051790 0.009457 0.065447 -0.012506 0.019070 0.055721 0.072837 0.063299 0.044671 0.007215 0.062209 0.003567 -0.000935 0.022556 0.003148 0.078106 0.040490 0.031581 0.044032 0.022884 0.027431 0.024968 0.000496 -0.020196 -0.017786 -0.023642 0.015499 0.052215 0.069809 -0.004818 0.027313 0.074669 -0.015799 0.058899 0.026144 0.041287 0.033706 0.049244 0.037090 0.068549 0.058923 0.085360 0.071861 0.158427 0.089253 0.062701 0.096717 0.043825 -0.021425 0.002773 0.078355 0.015030 0.033529 0.100676 0.009473 0.084273 0.085826 0.028165 0.014006 -0.061401 0.032563 0.064907 0.049378 0.097971 0.052610 -0.012564 0.025875 0.031167 -0.029906 0.038075 0.037978 0.064624 0.063355 -0.031871 -0.005905 0.044730 0.053205 0.013437 -0.021964 -0.021813 0.087104 0.098550 0.069271 -0.001549 0.034860 -0.022473 0.000459 -0.005881 0.010983 0.039624 -0.119355 -0.002092 0.028978 0.026860 -0.006608 -0.037638 -0.030604 -0.073683 -0.017230 0.000004 0.037580 0.034124 -0.018241 0.016932 0.189332 0.025112 -0.003797 0.023032 -0.004044 0.030211 0.031232 0.144053 0.019082 0.041335 0.098731 -0.047835 0.081929 0.088448 -0.008742 -0.026825 0.036773 -0.058807 -0.052730 0.062041 -0.021886 0.187859 0.070505 0.007537 -0.112806 -0.093377 -0.005739 0.098462 0.324867 0.180380 0.296043 0.344637 0.294904 0.301162 -0.010700 0.153325 -0.309321
0.072396 0.072910 0.074450 0.077016 0.080609 0.085226 0.090866 0.097529 0.105211 0.113909 0.123621 0.134341 0.146064 0.158783 0.172490 0.187176 0.202827 0.219432 0.236974 0.255434 0.274792 0.295023 0.316100 0.337990 0.360660 0.384070 0.408175 0.432927 0.458273 0.484152 0.510500 0.537245 0.564312 0.591615 0.619064 0.646563 0.674008 0.701286 0.728280 0.754864 0.780906 0.806266 0.830798 0.854349 0.876760 0.897866 0.917498 0.935482 0.951638 0.965786 0.977743 0.987326 0.994349 0.998632 0.999996 0.998267 0.993276 0.984866 0.972886 0.957200 0.937685 0.914236 0.886766 0.855208 0.819521 0.779688 0.735721 0.687662 0.635587 0.579604 0.519860 0.456540 0.389868 0.320109 0.247570 0.172600 0.095590 0.016973 0.062777 0.143146 0.223584 0.303506 0.382296 0.459311 0.533885 0.605336 0.672969 0.736089 0.794000 0.846021 0.891490 0.929775 0.960280 0.982463 0.995836 0.999982 0.994563 0.979329 0.954128 0.918914 0.873758 0.818850 0.754508 0.681180 0.599449 0.510033 0.413781 0.311674 0.204816 0.094426 0.018170 0.131556 0.244239 0.354671 0.461263 0.562415 0.656537 0.742077 0.817547 0.881553 0.932825 0.970245 0.992873 0.999978 0.991061 0.965876 0.924451 0.867101 0.794439 0.707379 0.607138 0.495227 0.373434 0.243807 0.108627 0.029631 0.168336 0.304752 0.436086 0.559547 0.672414 0.772087 0.856166 0.922503 0.969274 0.995028 0.998748 0.979893 0.938432 0.874873 0.790271 0.686236 0.564908 0.428934 0.281420 0.125870 0.033886 0.193787 0.349632 0.497197 0.632349 0.751166 0.850062 0.925899 0.976103 0.998766 0.992724 0.957633 0.894010 0.803251 0.687632 0.550264 0.395037 0.226525 0.049857 0.129418 0.305507 0.472557 0.624850 0.757005 0.864184 0.942276 0.988078 0.999445 0.975403 0.916237 0.823527 0.700134 0.550147 0.378769 0.192160 0.002770 0.198603 0.387690 0.562451 0.715680 0.840865 0.932469 0.986210 0.999274 0.970500 0.900477 0.791590 0.647973 0.475385 0.281019 0.073213 0.138877 0.345679 0.537634 0.705638 0.841496 0.938342 0.991007 0.996338 0.953412 0.863657 0.730857 0.561045 0.362254 0.144190 0.082233 0.305417 0.513668 0.695821 0.841849 0.943444 0.994521 0.991627 0.934211 0.824747 0.668685 0.474235 0.251973 0.014314 0.225172 0.452515 0.654163 0.817813 0.933177 0.992681 0.992004 0.930438 0.811045 0.640567 0.429110 0.189592 0.063001 0.312535 0.542751 0.738327 0.885930 0.975157 0.999330 0.956044 0.847456 0.680262 0.465356 0.217175 0.047207 0.309241 0.550196 0.752488 0.901010 0.984304 0.995499 0.932954 0.800515 0.607369 0.367486 0.098674 0.178696 0.443223 0.674100 0.852806 0.964608 0.999859 0.954898 0.832503 0.641827 0.397796 0.120028 0.168697 0.444270 0.683276 0.865003 0.973278 0.997999 0.936152 0.792252 0.578126 0.312042 0.017220 0.280127 0.553120 0.776641 0.929684 0.997411 0.972672 0.856860 0.659982 0.399900 0.100822 0.208903 0.499418 0.742255 0.913157 0.994569 0.977544 0.862834 0.661035 0.391736 0.081714 0.237639 0.533475 0.774866 0.936085 0.999435 0.957300 0.813179 0.581560 0.286594 0.040325 0.363828 0.648368 0.862168 0.980827 0.990214 0.888283 0.685567 0.404231 0.075794 0.262332 0.571038 0.814072 0.962350 0.997541 0.914472 0.722021 0.442346 0.108458 0.239543 0.559262 0.811154 0.963499 0.996502 0.905013 0.699475 0.404919 0.058051 0.297194 0.615181 0.854459 0.983236 0.983738 0.854832 0.612496 0.288032 0.075828 0.430461 0.727814 0.926984 0.999924
1.000000 1.000000 1.000000 1.000000 1.000000 1.000000 1.000000 1.000000 1.000000 1.000000 1.000000 1.000000 1.000000 1.000000 1.000000 1.000000 1.000000 1.000000 1.000000 1.000000 1.000000 1.000000 1.000000 1.000000 1.000000 1.000000 1.000000 1.000000 1.000000 1.000000 1.000000 1.000000 1.000000 1.000000 1.000000 1.000000 1.000000 1.000000 1.000000 1.000000 1.000000 1.000000 1.000000 1.000000 1.000000 1.000000 1.000000 1.000000 1.000000 1.000000 1.000000 1.000000 0.912852 0.912852 0.900274 0.900274 0.900274 0.900274 0.900274 0.900274 0.900274 0.900274 0.900274 0.900274 0.900274 0.900274 0.900274 0.900274 0.900274 0.900274 0.900274 0.900274 0.900274 0.900274 0.900274 0.900274 0.900274 0.900274 0.900274 0.900274 0.900274 0.900274 0.900274 0.900274 0.900274 0.900274 0.900274 0.900274 0.900274 0.900274 0.900274 0.900274 0.900274 0.900274 0.900274 0.893769 0.898419 0.901065 0.899366 0.903121 0.903221 0.900834 0.899912 0.899453 0.899725 0.901203 0.911903 0.926635 0.934290 0.936774 0.941760 0.948867 0.950929 0.950540 0.956520 0.964029 0.962467 0.961947 0.962729 0.964546 0.966928 0.965386 0.965357 0.968292 0.969130 0.967341 0.965377 0.964682 0.963981 0.963651 0.963373 0.963701 0.964020 0.964516 0.964208 0.964073 0.964212 0.964228 0.962410 0.962636 0.964936 0.966119 0.965875 0.964396 0.961823 0.962917 0.966031 0.962684 0.962721 0.962250 0.962658 0.949054 0.944849 0.945024 0.939428 0.937550 0.936741 0.934423 0.932817 0.932878 0.934672 0.936468 0.933692 0.926451 0.919468 0.898058 0.922170 0.917821 0.893963 0.875789 0.877580 0.879530 0.879962 0.878248 0.871966 0.867594 0.864568 0.865593 0.866855 0.868887 0.865892 0.861611 0.860725 0.858547 0.833580 0.812298 0.792524 0.789467 0.787341 0.787748 0.785625 0.787524 0.795170 0.794343 0.788224 0.778965 0.772110 0.731667 0.700565 0.703822 0.712339 0.722166 0.717097 0.690942 0.663297 0.675904 0.697203 0.706809 0.706821 0.689737 0.682150 0.672957 0.674064 0.664792 0.663937 0.665146 0.663332 0.672811 0.678489 0.680929 0.671188 0.647242 0.633758 0.610842 0.616646 0.637999 0.602684 0.596734 0.584271 0.566904 0.547495 0.507136 0.498768 0.488857 0.483465 0.483645 0.475482 0.478478 0.478069 0.476052 0.470643 0.486877 0.496644 0.523615 0.528451 0.523133 0.519502 0.506395 0.496999 0.474943 0.485554 0.486379 0.486612 0.510357 0.520341 0.531820 0.529188 0.522331 0.525726 0.490735 0.500184 0.516057 0.493637 0.441948 0.392755 0.392609 0.350988 0.352375 0.314976 0.295577 0.288411 0.288278 0.276125 0.254733 0.241617 0.149324 0.104088 0.087912 0.088628 0.085742 0.116194 0.115817 0.092954 0.108839 0.152878 0.141383 0.134957 0.130750 0.120471 0.095609 0.106903 0.097305 0.054272 0.033447 0.014860 0.020710 0.019671 -0.006503 0.012239 -0.067573 -0.127832 -0.128345 -0.099939 -0.050728 -0.042356 -0.038189 -0.074284 -0.083843 -0.071858 -0.066374 -0.079581 -0.106857 -0.081632 -0.074941 -0.088906 -0.121843 -0.141027 -0.132690 -0.141860 -0.141485 -0.135210 -0.103879 -0.046221 -0.037750 -0.031996 -0.030469 -0.045023 -0.054670 -0.050935 -0.023009 -0.013288 -0.038566 -0.018180 -0.020695 -0.057383 -0.057383 -0.074874 -0.074874 -0.074874 -0.074874 -0.074874 -0.074874 -0.074874 -0.074874 -0.074874 -0.080739 -0.080739 -0.080739 -0.080739 -0.080739 -0.080739 -0.080739 -0.080739 -0.080739 -0.080739 -0.080739 -0.080739 -0.080739 -0.080739 -0.080739 -0.080739 -0.080739 -0.080739
0.000000 0.000000 0.000000 0.000000 0.000000 0.000000 0.000000 0.000000 0.000000 0.000000 0.000000 0.000000 0.000000 0.000000 0.000000 0.000000 0.000000 0.000000 0.000000 0.000000 0.000000 0.000000 0.000000 0.000000 0.000000 0.000000 0.000000 0.000000 0.000000 0.000000 0.000000 0.000000 0.000000 0.000000 0.000000 0.000000 0.000000 0.000000 0.000000 0.000000 0.000000 0.000000 0.000000 0.000000 0.000000 0.000000 0.000000 0.000000 0.000000 0.000000 0.000000 0.000000 0.181818 0.181818 0.199007 0.199007 0.199007 0.199007 0.199007 0.199007 0.199007 0.199007 0.199007 0.199007 0.199007 0.199007 0.199007 0.199007 0.199007 0.199007 0.199007 0.199007 0.199007 0.199007 0.199007 0.199007 0.199007 0.199007 0.199007 0.199007 0.199007 0.199007 0.199007 0.199007 0.199007 0.199007 0.199007 0.199007 0.199007 0.199007 0.199007 0.199007 0.199007 0.199007 0.199007 0.230940 0.230940 0.230940 0.230940 0.230940 0.230940 0.230940 0.230940 0.230940 0.230940 0.230940 0.230940 0.230940 0.230940 0.230940 0.230940 0.230940 0.230940 0.230940 0.230940 0.230940 0.230940 0.230940 0.230940 0.230940 0.230940 0.230940 0.230940 0.244339 0.244339 0.244339 0.244339 0.244339 0.244339 0.244339 0.244339 0.244339 0.244339 0.244339 0.244339 0.244339 0.244339 0.244339 0.244339 0.244339 0.244339 0.244339 0.244339 0.244339 0.244339 0.244339 0.251976 0.251976 0.251976 0.251976 0.251976 0.251976 0.251976 0.251976 0.251976 0.251976 0.251976 0.251976 0.251976 0.251976 0.251976 0.251976 0.251976 0.251976 0.251976 0.251976 0.264906 0.264906 0.264906 0.264906 0.264906 0.264906 0.264906 0.264906 0.264906 0.264906 0.264906 0.264906 0.264906 0.264906 0.264906 0.264906 0.264906 0.264906 0.264906 0.264906 0.264906 0.264906 0.264906 0.264906 0.264906 0.264906 0.264906 0.264906 0.264906 0.264906 0.264906 0.264906 0.264906 0.264906 0.264906 0.264906 0.264906 0.264906 0.264906 0.264906 0.264906 0.264906 0.264906 0.264906 0.264906 0.264906 0.264906 0.264906 0.264906 0.264906 0.264906 0.264906 0.264906 0.264906 0.264906 0.264906 0.264906 0.264906 0.264906 0.264906 0.264906 0.264906 0.264906 0.264906 0.264906 0.264906 0.264906 0.264906 0.264906 0.264906 0.264906 0.264906 0.264906 0.264906 0.264906 0.269680 0.269680 0.269680 0.269680 0.269680 0.269680 0.269680 0.269680 0.269680 0.269680 0.269680 0.269680 0.264906 0.264906 0.264906 0.264906 0.264906 0.264906 0.264906 0.264906 0.264906 0.264906 0.264906 0.264906 0.269680 0.269680 0.269680 0.269680 0.269680 0.269680 0.269680 0.269680 0.269680 0.269680 0.269680 0.264906 0.264906 0.264906 0.264906 0.264906 0.264906 0.264906 0.264906 0.264906 0.264906 0.264906 0.256074 0.256074 0.256074 0.256074 0.256074 0.256074 0.256074 0.256074 0.256074 0.256074 0.256074 0.264906 0.264906 0.264906 0.264906 0.264906 0.264906 0.264906 0.264906 0.264906 0.264906 0.260378 0.260378 0.260378 0.260378 0.260378 0.260378 0.260378 0.260378 0.260378 0.260378 0.264906 0.264906 0.264906 0.264906 0.264906 0.264906 0.264906 0.264906 0.264906 0.260378 0.260378 0.260378 0.260378 0.260378 0.260378 0.260378 0.260378 0.260378 0.256074 0.256074 0.256074 0.256074 0.256074 0.256074 0.256074 0.256074 0.256074 0.251976 0.251976 0.251976 0.251976 0.251976 0.251976 0.251976 0.251976 0.251976 0.251976 0.251976 0.251976 0.251976 0.251976 0.251976 0.251976 0.251976 0.251976
