# Output from CTFFind version 4.1.9, run on 2019-11-03 20:05:26
# Input file: stack11_bm3d_averaged_1_6.5_0_750_half.mrc ; Number of micrographs: 1
# Pixel size: 3.000 Angstroms ; acceleration voltage: 300.0 keV ; spherical aberration: 0.00 mm ; amplitude contrast: 0.07
# Box size: 512 pixels ; min. res.: 30.0 Angstroms ; max. res.: 5.0 Angstroms ; min. def.: 5000.0 um; max. def. 50000.0 um; num. frames averaged: 1
# 6 lines per micrograph: #1 - spatial frequency (1/Angstroms); #2 - 1D rotational average of spectrum (assuming no astigmatism); #3 - 1D rotational average of spectrum; #4 - CTF fit; #5 - cross-correlation between spectrum and CTF fit; #6 - 2sigma of expected cross correlation of noise
0.000000 0.000651 0.001302 0.001953 0.002604 0.003255 0.003906 0.004557 0.005208 0.005859 0.006510 0.007161 0.007812 0.008464 0.009115 0.009766 0.010417 0.011068 0.011719 0.012370 0.013021 0.013672 0.014323 0.014974 0.015625 0.016276 0.016927 0.017578 0.018229 0.018880 0.019531 0.020182 0.020833 0.021484 0.022135 0.022786 0.023438 0.024089 0.024740 0.025391 0.026042 0.026693 0.027344 0.027995 0.028646 0.029297 0.029948 0.030599 0.031250 0.031901 0.032552 0.033203 0.033854 0.034505 0.035156 0.035807 0.036458 0.037109 0.037760 0.038411 0.039062 0.039714 0.040365 0.041016 0.041667 0.042318 0.042969 0.043620 0.044271 0.044922 0.045573 0.046224 0.046875 0.047526 0.048177 0.048828 0.049479 0.050130 0.050781 0.051432 0.052083 0.052734 0.053385 0.054036 0.054688 0.055339 0.055990 0.056641 0.057292 0.057943 0.058594 0.059245 0.059896 0.060547 0.061198 0.061849 0.062500 0.063151 0.063802 0.064453 0.065104 0.065755 0.066406 0.067057 0.067708 0.068359 0.069010 0.069661 0.070312 0.070964 0.071615 0.072266 0.072917 0.073568 0.074219 0.074870 0.075521 0.076172 0.076823 0.077474 0.078125 0.078776 0.079427 0.080078 0.080729 0.081380 0.082031 0.082682 0.083333 0.083984 0.084635 0.085286 0.085938 0.086589 0.087240 0.087891 0.088542 0.089193 0.089844 0.090495 0.091146 0.091797 0.092448 0.093099 0.093750 0.094401 0.095052 0.095703 0.096354 0.097005 0.097656 0.098307 0.098958 0.099609 0.100260 0.100911 0.101562 0.102214 0.102865 0.103516 0.104167 0.104818 0.105469 0.106120 0.106771 0.107422 0.108073 0.108724 0.109375 0.110026 0.110677 0.111328 0.111979 0.112630 0.113281 0.113932 0.114583 0.115234 0.115885 0.116536 0.117188 0.117839 0.118490 0.119141 0.119792 0.120443 0.121094 0.121745 0.122396 0.123047 0.123698 0.124349 0.125000 0.125651 0.126302 0.126953 0.127604 0.128255 0.128906 0.129557 0.130208 0.130859 0.131510 0.132161 0.132812 0.133464 0.134115 0.134766 0.135417 0.136068 0.136719 0.137370 0.138021 0.138672 0.139323 0.139974 0.140625 0.141276 0.141927 0.142578 0.143229 0.143880 0.144531 0.145182 0.145833 0.146484 0.147135 0.147786 0.148438 0.149089 0.149740 0.150391 0.151042 0.151693 0.152344 0.152995 0.153646 0.154297 0.154948 0.155599 0.156250 0.156901 0.157552 0.158203 0.158854 0.159505 0.160156 0.160807 0.161458 0.162109 0.162760 0.163411 0.164062 0.164714 0.165365 0.166016 0.166667 0.167318 0.167969 0.168620 0.169271 0.169922 0.170573 0.171224 0.171875 0.172526 0.173177 0.173828 0.174479 0.175130 0.175781 0.176432 0.177083 0.177734 0.178385 0.179036 0.179688 0.180339 0.180990 0.181641 0.182292 0.182943 0.183594 0.184245 0.184896 0.185547 0.186198 0.186849 0.187500 0.188151 0.188802 0.189453 0.190104 0.190755 0.191406 0.192057 0.192708 0.193359 0.194010 0.194661 0.195312 0.195964 0.196615 0.197266 0.197917 0.198568 0.199219 0.199870 0.200521 0.201172 0.201823 0.202474 0.203125 0.203776 0.204427 0.205078 0.205729 0.206380 0.207031 0.207682 0.208333 0.208984 0.209635 0.210286 0.210938 0.211589 0.212240 0.212891 0.213542 0.214193 0.214844 0.215495 0.216146 0.216797 0.217448 0.218099 0.218750 0.219401 0.220052 0.220703 0.221354 0.222005 0.222656 0.223307 0.223958 0.224609 0.225260 0.225911 0.226562 0.227214 0.227865 0.228516 0.229167 0.229818 0.230469 0.231120 0.231771 0.232422 0.233073 0.233724 0.234375 0.235026 0.235677
       0.34497        0.34497        0.34497        0.34497        0.34497        0.34497        0.34497        0.34497        0.34497        0.34497        0.34497        0.34497        0.34497        0.34497        0.34497        0.34497        0.34497        0.34497        0.34497        0.34497        0.34497        0.34497        0.34497        0.34497        0.34497        0.34497        0.34497        0.34497        0.34497        0.34497        0.34497        0.34497        0.34497        0.34497        0.34497        0.34497        0.34497        0.34497        0.34497        0.34497        0.34497        0.34497        0.34497        0.34497        0.34497        0.34497        0.34497        0.34497        0.34497        0.34497        0.34497        0.69895        0.85759        0.53819        0.10540       -0.02909       -0.38596       -0.18005       -0.28841       -0.11590       -0.05507       -0.11252       -0.05320       -0.16660       -0.20554       -0.21365       -0.30687       -0.31820       -0.44382       -0.36195       -0.42568       -0.42076       -0.39363       -0.40687       -0.44668       -0.50744       -0.55848       -0.54955       -0.52379       -0.35623       -0.32581       -0.29106       -0.27103       -0.18541       -0.16965        0.06155        0.14224        0.17539        0.26637        0.38167        0.45792        0.52327        0.60098        0.59835        0.58464        0.70029        0.80315        0.70309        0.74439        0.61957        0.56880        0.48374        0.43284        0.51234        0.39786        0.27191        0.11697        0.11355        0.09406       -0.01311        0.04531        0.05302        0.01200        0.02828        0.03119        0.23710        0.27172        0.29676        0.43548        0.45389        0.41485        0.60036        0.61879        0.63521        0.72419        0.67626        0.64717        0.65623        0.56013        0.46070        0.41906        0.30414        0.27058        0.18503        0.13677        0.05259        0.06613        0.07614        0.10008        0.16014        0.24589        0.29838        0.42271        0.46561        0.48141        0.56464        0.60261        0.63679        0.61507        0.55825        0.46220        0.47372        0.37896        0.27795        0.21267        0.15670        0.17327        0.15385        0.16145        0.19085        0.32372        0.33821        0.40753        0.44674        0.42613        0.48065        0.56367        0.55533        0.50331        0.45775        0.41400        0.37321        0.34252        0.30993        0.26561        0.24770        0.25535        0.25706        0.22658        0.31044        0.36507        0.38481        0.43964        0.45635        0.46782        0.42763        0.41242        0.40240        0.36360        0.33785        0.27505        0.28157        0.26945        0.24700        0.29636        0.29357        0.35265        0.38353        0.43519        0.47687        0.40722        0.42301        0.43291        0.41216        0.35054        0.32903        0.29338        0.32715        0.27631        0.32392        0.31606        0.33381        0.34214        0.36522        0.31427        0.38870        0.41238        0.38120        0.35226        0.36986        0.31932        0.29591        0.30851        0.32053        0.30850        0.32075        0.34543        0.35768        0.34143        0.36456        0.36337        0.42359        0.39090        0.34016        0.34914        0.30022        0.29479        0.32719        0.32070        0.33121        0.34365        0.34320        0.38813        0.33160        0.33064        0.33919        0.34940        0.30524        0.31315        0.28256        0.30358        0.33169        0.30519        0.33240        0.35907        0.37067        0.29934        0.34315        0.30016        0.29396        0.27970        0.24758        0.30794        0.30793        0.34307        0.33993        0.34500        0.32817        0.34999        0.31561        0.34673        0.30705        0.32588        0.29232        0.33752        0.33120        0.37292        0.33122        0.33674        0.33786        0.29375        0.27626        0.31299        0.25072        0.22981        0.34135        0.32379        0.36803        0.34807        0.36398        0.33617        0.33480        0.35160        0.26664        0.26909        0.31966        0.30177        0.31187        0.31542        0.33987        0.32931        0.28942        0.29109        0.34588        0.32274        0.32215        0.29922        0.32252        0.33846        0.39369        0.36331        0.32044        0.28375        0.30427        0.29056        0.30724        0.27868        0.27112        0.31278        0.32999        0.34612        0.35641        0.33233        0.29608        0.30207        0.27152        0.27921        0.25700        0.30719        0.26189        0.24842        0.29103        0.28596        0.26268        0.29495        0.21983        0.21634        0.23973        0.19331        0.27310        0.34931        0.25350        0.24292        0.31843        0.30261        0.31046        0.31450        0.27317        0.25299        0.19317        0.21052        0.20806        0.28063        0.23711        0.28415        0.36531        0.36913        0.25495        0.17731        0.12222       -0.01415       -0.12751       -0.62498
2.806512 2.776730 2.747109 2.717652 2.688356 2.659223 2.630252 2.601443 2.572796 2.544311 2.515989 2.487828 2.459830 2.431994 2.404321 2.376809 2.349460 2.322273 2.295248 2.268385 2.241684 2.215146 2.188770 2.162556 2.136504 2.110614 2.084887 2.059322 2.033919 2.008678 1.983599 1.958682 1.933928 1.909336 1.884906 1.860638 1.836533 1.812589 1.788808 1.765189 1.741732 1.718438 1.695305 1.672335 1.649527 1.626881 1.604397 1.582076 1.559917 1.537919 1.516084 1.734329 2.160903 1.715974 1.194064 1.057141 0.455423 0.852923 0.563099 0.848580 0.818163 0.821667 0.760542 0.758062 0.599196 0.563120 0.503377 0.429241 0.250198 0.365823 0.200170 0.331432 0.219705 0.211064 0.185807 0.041609 0.002345 0.019191 -0.070142 0.133905 0.233887 0.189485 0.179753 0.325910 0.184863 0.523804 0.627819 0.636937 0.653982 0.881094 0.839634 0.948145 0.944158 1.041141 1.010625 1.093619 1.176462 1.049235 1.172170 0.914290 0.934297 0.800289 0.657109 0.812561 0.698365 0.499128 0.334771 0.252804 0.270890 0.149942 0.138100 0.166918 0.109571 0.120549 0.082969 0.249832 0.352182 0.343258 0.479027 0.547301 0.418596 0.596989 0.735091 0.648769 0.723010 0.713319 0.721886 0.648390 0.598273 0.492588 0.369093 0.277633 0.221152 0.092064 0.116755 -0.116389 -0.049521 -0.063453 -0.084308 -0.018706 0.129397 0.070938 0.243090 0.308571 0.337241 0.374876 0.498052 0.467753 0.480254 0.491891 0.305773 0.294694 0.287644 0.086592 0.046174 -0.081811 -0.015504 -0.062908 -0.097047 -0.071610 0.040246 0.095177 0.126373 0.225054 0.224246 0.221272 0.316811 0.342327 0.446546 0.257128 0.232979 0.226957 0.143899 0.145592 0.120065 -0.004270 0.015488 0.076562 -0.010460 0.045293 0.133991 0.135593 0.214191 0.234413 0.259059 0.161714 0.211515 0.128352 0.127903 0.114200 0.027341 -0.026756 -0.000920 -0.020699 -0.052844 0.055215 0.004456 0.106699 0.138868 0.193322 0.164914 0.118999 0.140698 0.160252 0.110407 0.035800 -0.025955 0.029435 0.028276 -0.043504 0.037084 0.020860 0.047978 0.039475 0.050547 0.029459 0.133836 0.119704 0.046492 0.038013 0.042657 0.005627 -0.030922 0.009320 0.005052 -0.004151 0.003664 0.056664 0.053696 0.038842 0.075731 0.061140 0.163772 0.064062 0.040751 0.043189 -0.034704 0.012139 0.047389 0.007889 0.033291 0.055610 0.080715 0.050097 0.042238 0.008379 0.079788 0.026378 0.020932 0.024128 -0.006481 0.032711 0.026529 0.021112 0.069480 0.075221 0.077427 0.041324 0.052349 0.024070 0.015746 -0.023678 -0.024581 0.037039 0.052855 0.080911 0.081301 0.065727 0.071987 0.097631 0.043064 0.091243 0.058167 0.044170 0.018098 0.104629 0.062709 0.124627 0.069744 0.061977 0.099467 0.032395 0.003079 0.086288 -0.039350 -0.027853 0.095074 0.044175 0.160362 0.093130 0.090208 0.066800 0.034497 0.091568 -0.025563 -0.024366 0.049690 0.035450 0.034580 0.020680 0.103751 0.032828 -0.011970 0.050872 0.042601 0.051794 0.060706 -0.008321 0.059185 0.051771 0.118580 0.056707 0.028400 -0.028137 -0.025201 -0.004128 0.007372 -0.055902 -0.022231 0.001213 0.016615 0.035330 0.057670 0.005415 -0.032700 -0.029619 -0.019033 -0.066394 -0.047099 -0.033035 -0.131074 -0.096161 -0.056993 -0.092839 -0.106342 -0.025631 -0.153299 -0.105465 -0.113599 -0.189066 -0.069837 0.061370 -0.072759 -0.138628 0.050762 0.032058 -0.025566 0.074034 -0.024235 -0.001609 -0.088198 -0.038136 0.047154 0.126493 0.054678 0.138413 0.171489 0.434137 0.238205 0.322029 0.154545 -0.019762 -0.698901
0.072396 0.072899 0.074408 0.076923 0.080442 0.084966 0.090492 0.097020 0.104547 0.113070 0.122586 0.133091 0.144578 0.157043 0.170477 0.184870 0.200213 0.216491 0.233690 0.251793 0.270779 0.290626 0.311307 0.332793 0.355051 0.378044 0.401729 0.426062 0.450991 0.476460 0.502407 0.528766 0.555464 0.582421 0.609552 0.636766 0.663963 0.691038 0.717879 0.744367 0.770376 0.795773 0.820420 0.844170 0.866872 0.888370 0.908499 0.927094 0.943982 0.958991 0.971942 0.982658 0.990961 0.996673 0.999618 0.999626 0.996530 0.990172 0.980399 0.967073 0.950067 0.929266 0.904577 0.875921 0.843243 0.806511 0.765717 0.720883 0.672061 0.619332 0.562814 0.502659 0.439057 0.372236 0.302464 0.230048 0.155338 0.078721 0.000628 0.078476 0.158083 0.237655 0.316617 0.394367 0.470279 0.543703 0.613976 0.680425 0.742372 0.799147 0.850089 0.894559 0.931945 0.961675 0.983223 0.996121 0.999966 0.994434 0.979282 0.954365 0.919639 0.875169 0.821137 0.757847 0.685729 0.605341 0.517370 0.422632 0.322065 0.216732 0.107801 0.003452 0.115664 0.227397 0.337154 0.443402 0.544587 0.639165 0.725620 0.802497 0.868421 0.922133 0.962512 0.988604 0.999648 0.995099 0.974650 0.938255 0.886136 0.818801 0.737048 0.641962 0.534917 0.417557 0.291784 0.159732 0.023737 0.113704 0.249969 0.382366 0.508180 0.624737 0.729457 0.819919 0.893922 0.949544 0.985202 0.999701 0.992283 0.962668 0.911077 0.838256 0.745481 0.634551 0.507767 0.367895 0.218122 0.061986 0.096696 0.253917 0.405584 0.547619 0.676076 0.787252 0.877807 0.944870 0.986145 0.999999 0.985542 0.942681 0.872159 0.775567 0.655329 0.514664 0.357513 0.188449 0.012553 0.164730 0.337755 0.500855 0.648528 0.775636 0.877586 0.950517 0.991458 0.998471 0.970760 0.908738 0.814064 0.689628 0.539484 0.368749 0.183449 0.009682 0.203438 0.390398 0.563211 0.714898 0.839139 0.930556 0.984964 0.999591 0.973238 0.906390 0.801252 0.661714 0.493242 0.302689 0.098048 0.111877 0.317826 0.510505 0.680991 0.821175 0.924158 0.984622 0.999128 0.966348 0.887199 0.764867 0.604727 0.414143 0.202167 0.020866 0.243833 0.455355 0.644398 0.800848 0.916080 0.983463 0.998781 0.960530 0.870090 0.731732 0.552470 0.341753 0.111000 0.126987 0.358725 0.570799 0.750664 0.887394 0.972391 0.999959 0.967738 0.876942 0.732389 0.542303 0.317905 0.072789 0.177869 0.418236 0.632823 0.807495 0.930437 0.992990 0.990320 0.921844 0.791383 0.607027 0.380700 0.127435 0.135574 0.390139 0.618301 0.803638 0.932472 0.994926 0.985745 0.904798 0.757228 0.553200 0.307279 0.037451 0.236170 0.492810 0.712614 0.878219 0.976169 0.998068 0.941376 0.809760 0.612953 0.366115 0.088741 0.196824 0.467189 0.699789 0.874841 0.977046 0.997010 0.932190 0.787275 0.573956 0.310074 0.018204 0.276232 0.547147 0.770131 0.924662 0.996083 0.977067 0.868461 0.679408 0.426673 0.133262 0.173619 0.465034 0.713060 0.893483 0.988233 0.987284 0.889812 0.704494 0.448851 0.147699 0.169193 0.469979 0.723965 0.904756 0.993081 0.978941 0.862863 0.656068 0.379518 0.061912 0.263247 0.561115 0.799273 0.951306 0.999819 0.938547 0.773285 0.521502 0.210615 0.124883 0.447202 0.719489 0.910092 0.996318 0.967254 0.825289 0.586098 0.277079 0.065693 0.401582 0.690192 0.896264 0.994066 0.970731 0.828100 0.582788 0.264412 0.087864 0.430057 0.718849 0.917099 0.998728 0.952281 0.782708 0.511022 0.171875 0.190745
1.000000 1.000000 1.000000 1.000000 1.000000 1.000000 1.000000 1.000000 1.000000 1.000000 1.000000 1.000000 1.000000 1.000000 1.000000 1.000000 1.000000 1.000000 1.000000 1.000000 1.000000 1.000000 1.000000 1.000000 1.000000 1.000000 1.000000 1.000000 1.000000 1.000000 1.000000 1.000000 1.000000 1.000000 1.000000 1.000000 1.000000 1.000000 1.000000 1.000000 1.000000 1.000000 1.000000 1.000000 1.000000 1.000000 1.000000 1.000000 1.000000 1.000000 1.000000 1.000000 0.915661 0.915661 0.915661 0.911312 0.911312 0.911312 0.911312 0.911312 0.911312 0.911312 0.911312 0.911312 0.911312 0.911312 0.911312 0.911312 0.911312 0.911312 0.911312 0.911312 0.911312 0.911312 0.911312 0.911312 0.911312 0.911312 0.911312 0.911312 0.911312 0.911312 0.911312 0.911312 0.911312 0.911312 0.911312 0.911312 0.911312 0.911312 0.911312 0.911312 0.911312 0.911312 0.911312 0.911312 0.939807 0.941242 0.949577 0.949117 0.948520 0.946524 0.945268 0.944919 0.944831 0.945183 0.945919 0.946915 0.953140 0.954078 0.958495 0.961211 0.961181 0.962915 0.964875 0.964512 0.956177 0.955935 0.954506 0.953773 0.955882 0.954506 0.953260 0.953729 0.953342 0.955790 0.955344 0.954120 0.952462 0.950851 0.949543 0.948987 0.948752 0.949557 0.949636 0.951214 0.954245 0.954402 0.954134 0.951364 0.950986 0.952190 0.951616 0.953449 0.941252 0.940612 0.939154 0.939150 0.941732 0.941639 0.941536 0.942434 0.942133 0.942054 0.942200 0.935551 0.935268 0.927663 0.924135 0.922641 0.917259 0.913213 0.915835 0.918429 0.919667 0.920120 0.911025 0.908079 0.909038 0.907871 0.909337 0.909314 0.910378 0.910803 0.910719 0.905421 0.895478 0.893812 0.886217 0.888945 0.885812 0.883184 0.880153 0.871195 0.861101 0.874827 0.860172 0.826186 0.829805 0.834572 0.827409 0.824220 0.825276 0.826801 0.831594 0.824771 0.823264 0.817582 0.804939 0.800660 0.793968 0.779822 0.777928 0.768679 0.758405 0.752522 0.776227 0.770037 0.781462 0.785821 0.785521 0.782070 0.773251 0.762504 0.762633 0.758173 0.754380 0.731083 0.722990 0.723224 0.720657 0.708854 0.711990 0.700310 0.700222 0.687781 0.692396 0.697807 0.700865 0.696930 0.690765 0.682531 0.678889 0.691865 0.705843 0.698507 0.694337 0.699142 0.689468 0.682984 0.676330 0.680402 0.673061 0.663798 0.668283 0.696271 0.668210 0.657700 0.664356 0.666414 0.660614 0.661421 0.640986 0.635596 0.613607 0.630867 0.635578 0.651446 0.652585 0.654369 0.665351 0.671101 0.681848 0.686406 0.685238 0.645553 0.649429 0.668585 0.676198 0.664670 0.654525 0.654450 0.648261 0.684486 0.669237 0.626764 0.622870 0.621757 0.581203 0.557975 0.556400 0.558650 0.585347 0.581070 0.562720 0.536539 0.538494 0.540203 0.539534 0.538109 0.522310 0.530253 0.515252 0.491538 0.503608 0.511576 0.510102 0.494323 0.487740 0.500358 0.478147 0.507093 0.482674 0.463643 0.480948 0.479320 0.468126 0.395160 0.405744 0.394611 0.380923 0.336555 0.346116 0.355810 0.338635 0.264083 0.257680 0.258459 0.255160 0.236388 0.215562 0.202146 0.191507 0.169324 0.106602 0.058143 0.058797 0.062551 0.089996 0.049822 0.102926 0.170112 0.168477 0.168477 0.168477 0.168477 0.168477 0.168477 0.168477 0.168477 0.144381 0.144381 0.144381 0.144381 0.144381 0.144381 0.144381 0.144381 0.144381 0.168477 0.168477 0.168477 0.168477 0.168477 0.168477 0.168477 0.168477 0.168477 0.168477 0.168477 0.168477 0.168477 0.168477
0.000000 0.000000 0.000000 0.000000 0.000000 0.000000 0.000000 0.000000 0.000000 0.000000 0.000000 0.000000 0.000000 0.000000 0.000000 0.000000 0.000000 0.000000 0.000000 0.000000 0.000000 0.000000 0.000000 0.000000 0.000000 0.000000 0.000000 0.000000 0.000000 0.000000 0.000000 0.000000 0.000000 0.000000 0.000000 0.000000 0.000000 0.000000 0.000000 0.000000 0.000000 0.000000 0.000000 0.000000 0.000000 0.000000 0.000000 0.000000 0.000000 0.000000 0.000000 0.000000 0.180334 0.180334 0.180334 0.199007 0.199007 0.199007 0.199007 0.199007 0.199007 0.199007 0.199007 0.199007 0.199007 0.199007 0.199007 0.199007 0.199007 0.199007 0.199007 0.199007 0.199007 0.199007 0.199007 0.199007 0.199007 0.199007 0.199007 0.199007 0.199007 0.199007 0.199007 0.199007 0.199007 0.199007 0.199007 0.199007 0.199007 0.199007 0.199007 0.199007 0.199007 0.199007 0.199007 0.199007 0.225018 0.225018 0.225018 0.225018 0.225018 0.225018 0.225018 0.225018 0.225018 0.225018 0.225018 0.225018 0.225018 0.225018 0.225018 0.225018 0.225018 0.225018 0.225018 0.225018 0.225018 0.225018 0.225018 0.225018 0.225018 0.225018 0.225018 0.225018 0.225018 0.244339 0.244339 0.244339 0.244339 0.244339 0.244339 0.244339 0.244339 0.244339 0.244339 0.244339 0.244339 0.244339 0.244339 0.244339 0.244339 0.244339 0.244339 0.244339 0.244339 0.244339 0.244339 0.244339 0.256074 0.256074 0.256074 0.256074 0.256074 0.256074 0.256074 0.256074 0.256074 0.256074 0.256074 0.256074 0.256074 0.256074 0.256074 0.256074 0.256074 0.256074 0.256074 0.256074 0.256074 0.256074 0.256074 0.256074 0.256074 0.256074 0.256074 0.256074 0.256074 0.256074 0.256074 0.256074 0.256074 0.256074 0.256074 0.256074 0.256074 0.264906 0.264906 0.264906 0.264906 0.264906 0.264906 0.264906 0.264906 0.264906 0.264906 0.264906 0.264906 0.264906 0.264906 0.264906 0.264906 0.264906 0.264906 0.264906 0.264906 0.264906 0.264906 0.264906 0.264906 0.264906 0.264906 0.264906 0.264906 0.264906 0.264906 0.264906 0.264906 0.264906 0.264906 0.264906 0.264906 0.264906 0.264906 0.264906 0.264906 0.264906 0.264906 0.264906 0.264906 0.264906 0.264906 0.264906 0.264906 0.264906 0.264906 0.264906 0.264906 0.264906 0.264906 0.264906 0.264906 0.264906 0.264906 0.260378 0.260378 0.260378 0.260378 0.260378 0.260378 0.260378 0.260378 0.260378 0.260378 0.260378 0.260378 0.260378 0.264906 0.264906 0.264906 0.264906 0.264906 0.264906 0.264906 0.264906 0.264906 0.264906 0.264906 0.264906 0.269680 0.269680 0.269680 0.269680 0.269680 0.269680 0.269680 0.269680 0.269680 0.269680 0.269680 0.264906 0.264906 0.264906 0.264906 0.264906 0.264906 0.264906 0.264906 0.264906 0.264906 0.264906 0.256074 0.256074 0.256074 0.256074 0.256074 0.256074 0.256074 0.256074 0.256074 0.256074 0.256074 0.264906 0.264906 0.264906 0.264906 0.264906 0.264906 0.264906 0.264906 0.264906 0.264906 0.260378 0.260378 0.260378 0.260378 0.260378 0.260378 0.260378 0.260378 0.260378 0.260378 0.264906 0.264906 0.264906 0.264906 0.264906 0.264906 0.264906 0.264906 0.264906 0.251976 0.251976 0.251976 0.251976 0.251976 0.251976 0.251976 0.251976 0.251976 0.251976 0.256074 0.256074 0.256074 0.256074 0.256074 0.256074 0.256074 0.256074 0.256074 0.251976 0.251976 0.251976 0.251976 0.251976 0.251976 0.251976 0.251976 0.251976 0.251976 0.251976 0.251976 0.251976 0.251976
