# Output from CTFFind version 4.1.9, run on 2019-11-03 19:00:54
# Input file: stack6_bm3d_averaged_1_3.25_0_750_half.mrc ; Number of micrographs: 1
# Pixel size: 3.000 Angstroms ; acceleration voltage: 300.0 keV ; spherical aberration: 0.00 mm ; amplitude contrast: 0.07
# Box size: 512 pixels ; min. res.: 30.0 Angstroms ; max. res.: 5.0 Angstroms ; min. def.: 5000.0 um; max. def. 50000.0 um; num. frames averaged: 1
# 6 lines per micrograph: #1 - spatial frequency (1/Angstroms); #2 - 1D rotational average of spectrum (assuming no astigmatism); #3 - 1D rotational average of spectrum; #4 - CTF fit; #5 - cross-correlation between spectrum and CTF fit; #6 - 2sigma of expected cross correlation of noise
0.000000 0.000651 0.001302 0.001953 0.002604 0.003255 0.003906 0.004557 0.005208 0.005859 0.006510 0.007161 0.007812 0.008464 0.009115 0.009766 0.010417 0.011068 0.011719 0.012370 0.013021 0.013672 0.014323 0.014974 0.015625 0.016276 0.016927 0.017578 0.018229 0.018880 0.019531 0.020182 0.020833 0.021484 0.022135 0.022786 0.023438 0.024089 0.024740 0.025391 0.026042 0.026693 0.027344 0.027995 0.028646 0.029297 0.029948 0.030599 0.031250 0.031901 0.032552 0.033203 0.033854 0.034505 0.035156 0.035807 0.036458 0.037109 0.037760 0.038411 0.039062 0.039714 0.040365 0.041016 0.041667 0.042318 0.042969 0.043620 0.044271 0.044922 0.045573 0.046224 0.046875 0.047526 0.048177 0.048828 0.049479 0.050130 0.050781 0.051432 0.052083 0.052734 0.053385 0.054036 0.054688 0.055339 0.055990 0.056641 0.057292 0.057943 0.058594 0.059245 0.059896 0.060547 0.061198 0.061849 0.062500 0.063151 0.063802 0.064453 0.065104 0.065755 0.066406 0.067057 0.067708 0.068359 0.069010 0.069661 0.070312 0.070964 0.071615 0.072266 0.072917 0.073568 0.074219 0.074870 0.075521 0.076172 0.076823 0.077474 0.078125 0.078776 0.079427 0.080078 0.080729 0.081380 0.082031 0.082682 0.083333 0.083984 0.084635 0.085286 0.085938 0.086589 0.087240 0.087891 0.088542 0.089193 0.089844 0.090495 0.091146 0.091797 0.092448 0.093099 0.093750 0.094401 0.095052 0.095703 0.096354 0.097005 0.097656 0.098307 0.098958 0.099609 0.100260 0.100911 0.101562 0.102214 0.102865 0.103516 0.104167 0.104818 0.105469 0.106120 0.106771 0.107422 0.108073 0.108724 0.109375 0.110026 0.110677 0.111328 0.111979 0.112630 0.113281 0.113932 0.114583 0.115234 0.115885 0.116536 0.117188 0.117839 0.118490 0.119141 0.119792 0.120443 0.121094 0.121745 0.122396 0.123047 0.123698 0.124349 0.125000 0.125651 0.126302 0.126953 0.127604 0.128255 0.128906 0.129557 0.130208 0.130859 0.131510 0.132161 0.132812 0.133464 0.134115 0.134766 0.135417 0.136068 0.136719 0.137370 0.138021 0.138672 0.139323 0.139974 0.140625 0.141276 0.141927 0.142578 0.143229 0.143880 0.144531 0.145182 0.145833 0.146484 0.147135 0.147786 0.148438 0.149089 0.149740 0.150391 0.151042 0.151693 0.152344 0.152995 0.153646 0.154297 0.154948 0.155599 0.156250 0.156901 0.157552 0.158203 0.158854 0.159505 0.160156 0.160807 0.161458 0.162109 0.162760 0.163411 0.164062 0.164714 0.165365 0.166016 0.166667 0.167318 0.167969 0.168620 0.169271 0.169922 0.170573 0.171224 0.171875 0.172526 0.173177 0.173828 0.174479 0.175130 0.175781 0.176432 0.177083 0.177734 0.178385 0.179036 0.179688 0.180339 0.180990 0.181641 0.182292 0.182943 0.183594 0.184245 0.184896 0.185547 0.186198 0.186849 0.187500 0.188151 0.188802 0.189453 0.190104 0.190755 0.191406 0.192057 0.192708 0.193359 0.194010 0.194661 0.195312 0.195964 0.196615 0.197266 0.197917 0.198568 0.199219 0.199870 0.200521 0.201172 0.201823 0.202474 0.203125 0.203776 0.204427 0.205078 0.205729 0.206380 0.207031 0.207682 0.208333 0.208984 0.209635 0.210286 0.210938 0.211589 0.212240 0.212891 0.213542 0.214193 0.214844 0.215495 0.216146 0.216797 0.217448 0.218099 0.218750 0.219401 0.220052 0.220703 0.221354 0.222005 0.222656 0.223307 0.223958 0.224609 0.225260 0.225911 0.226562 0.227214 0.227865 0.228516 0.229167 0.229818 0.230469 0.231120 0.231771 0.232422 0.233073 0.233724 0.234375 0.235026 0.235677
       0.29993        0.29993        0.29993        0.29993        0.29993        0.29993        0.29993        0.29993        0.29993        0.29993        0.29993        0.29993        0.29993        0.29993        0.29993        0.29993        0.29993        0.29993        0.29993        0.29993        0.29993        0.29993        0.29993        0.29993        0.29993        0.29993        0.29993        0.29993        0.29993        0.29993        0.29993        0.29993        0.29993        0.29993        0.29993        0.29993        0.29993        0.29993        0.29993        0.29993        0.29993        0.29993        0.29993        0.29993        0.29993        0.29993        0.29993        0.29993        0.29993        0.29993        0.29993        0.61394        0.76547        0.37311        0.23721        0.14512       -0.14101        0.11831        0.02407        0.03505        0.10131        0.33608        0.38063        0.32267        0.19053       -0.02604        0.01560        0.05458       -0.16703       -0.17821       -0.09170       -0.12198       -0.27898       -0.17040       -0.30651       -0.29200       -0.30727       -0.38363       -0.45510       -0.43659       -0.36017       -0.31464       -0.40653       -0.30738       -0.37606       -0.31169       -0.24935       -0.19073       -0.15608       -0.06967       -0.04018        0.07304        0.11188        0.21824        0.32081        0.38449        0.37563        0.48539        0.56123        0.58615        0.67028        0.64041        0.69777        0.61368        0.64653        0.64734        0.58765        0.58288        0.59541        0.40366        0.34987        0.35914        0.33888        0.17890        0.12193        0.07000        0.07481        0.04953       -0.05054        0.01399       -0.02918       -0.06790        0.05592        0.15377        0.25706        0.33220        0.32345        0.38495        0.50240        0.53298        0.48275        0.65656        0.52947        0.50908        0.55768        0.54047        0.51566        0.46778        0.38885        0.34484        0.23243        0.18936        0.14092        0.14616        0.11634        0.06010        0.09474        0.14915        0.16971        0.16521        0.21986        0.25958        0.33384        0.45335        0.42992        0.43970        0.49253        0.54609        0.53833        0.49161        0.37907        0.40312        0.36027        0.28351        0.22856        0.21681        0.17595        0.17797        0.17542        0.17388        0.14964        0.20453        0.25655        0.33760        0.37851        0.39928        0.46001        0.48188        0.43674        0.43901        0.40274        0.40491        0.39986        0.33944        0.27884        0.27110        0.21531        0.23620        0.22185        0.19226        0.22264        0.23144        0.25195        0.32000        0.35742        0.37350        0.38294        0.39442        0.42293        0.41761        0.41368        0.30568        0.29325        0.26698        0.28411        0.24205        0.20079        0.25321        0.29959        0.28848        0.28160        0.32622        0.29187        0.37809        0.33954        0.34762        0.35920        0.35587        0.31656        0.30545        0.27896        0.28282        0.25553        0.24401        0.25195        0.27503        0.28709        0.30817        0.34234        0.35894        0.32559        0.31704        0.34637        0.31044        0.26595        0.28028        0.26864        0.26000        0.26692        0.29375        0.27715        0.26744        0.30065        0.30342        0.31401        0.32170        0.32827        0.27273        0.27444        0.29245        0.27776        0.26033        0.25085        0.22694        0.24393        0.25422        0.25707        0.27445        0.27206        0.31309        0.33435        0.30605        0.30912        0.23348        0.23594        0.26456        0.23335        0.21107        0.25272        0.30426        0.24628        0.29382        0.29467        0.29505        0.30841        0.26050        0.27566        0.28714        0.27956        0.25764        0.22740        0.23358        0.24846        0.28894        0.28646        0.30887        0.29342        0.31972        0.26609        0.29979        0.27985        0.21759        0.29373        0.27273        0.27844        0.28327        0.31253        0.30134        0.33804        0.28297        0.24302        0.24548        0.23390        0.25053        0.29221        0.29559        0.25936        0.28177        0.26667        0.28010        0.26702        0.27268        0.23429        0.27432        0.25300        0.24327        0.24597        0.29580        0.30095        0.26585        0.26685        0.22538        0.27634        0.22574        0.19874        0.21974        0.26507        0.27131        0.31643        0.23795        0.22718        0.25942        0.22822        0.22273        0.19237        0.21435        0.20244        0.26067        0.26512        0.19595        0.26122        0.23788        0.29621        0.23685        0.21173        0.23747        0.21275        0.13092        0.18452        0.12607        0.16555        0.17581        0.09113        0.28575        0.10466        0.07173        0.13611        0.12649        0.19922        0.20201       -0.01916       -0.69208       -1.03948
2.878822 2.850637 2.822595 2.794696 2.766940 2.739327 2.711857 2.684530 2.657347 2.630307 2.603410 2.576656 2.550045 2.523578 2.497253 2.471072 2.445034 2.419139 2.393387 2.367778 2.342313 2.316990 2.291811 2.266775 2.241882 2.217132 2.192526 2.168062 2.143742 2.119565 2.095531 2.071640 2.047893 2.024288 2.000827 1.977508 1.954333 1.931301 1.908413 1.885667 1.863065 1.840606 1.818289 1.796116 1.774087 1.752200 1.730457 1.708856 1.687399 1.666085 1.644914 1.977478 2.304530 1.695064 1.655313 1.346047 0.841348 1.199136 1.066442 1.097476 0.974523 1.555922 1.488913 1.490012 1.235716 0.912280 0.760686 0.993990 0.723578 0.420118 0.556838 0.646917 0.387686 0.452916 0.281587 0.245670 0.157480 0.155058 -0.092786 -0.037278 0.047659 0.042317 0.008363 0.114744 -0.054563 -0.002418 0.120233 0.199637 0.246846 0.312068 0.344103 0.612052 0.511052 0.666305 0.886067 0.933145 0.894726 1.164285 1.150964 1.232010 1.318647 1.193698 1.406589 1.186511 1.169471 1.330103 1.131187 1.063562 1.180922 0.916957 0.679505 0.691511 0.736817 0.433631 0.378445 0.245307 0.204159 0.157914 0.009203 0.131889 0.022837 -0.071373 0.080275 0.203690 0.327436 0.495584 0.511441 0.516115 0.716004 0.799978 0.603319 0.979439 0.843604 0.654859 0.774895 0.701477 0.723207 0.702985 0.449609 0.475914 0.249783 0.194239 0.118911 -0.001776 0.057099 -0.086042 -0.048973 -0.023965 0.101072 -0.041301 0.209659 0.145111 0.197963 0.405278 0.472680 0.419992 0.390221 0.595515 0.624063 0.499774 0.346985 0.340608 0.321187 0.178625 0.085255 0.035236 0.014082 -0.026390 -0.041316 -0.032139 -0.119009 0.002675 0.008681 0.133580 0.241894 0.234552 0.366542 0.353094 0.393369 0.347428 0.427738 0.359742 0.267213 0.330659 0.126338 0.182135 0.039386 0.081697 0.024309 0.037128 -0.054107 0.051172 0.049226 0.115968 0.227463 0.241361 0.241471 0.271339 0.310024 0.304453 0.320922 0.197552 0.090395 0.122343 0.055105 0.065327 -0.032172 -0.031996 0.069378 0.088294 0.084728 0.087551 0.098693 0.172763 0.204107 0.173526 0.168362 0.204273 0.143297 0.116153 0.075558 0.061200 0.079018 -0.034139 0.033379 0.055898 0.019352 0.102380 0.111689 0.185890 0.186145 0.143087 0.118495 0.182321 0.073535 0.045961 0.080548 0.026518 0.020831 0.068141 0.078657 0.056587 0.031705 0.117462 0.095086 0.111043 0.138827 0.111741 0.073929 0.032399 0.084198 0.046637 0.039429 -0.014614 -0.034866 0.013118 0.000213 0.019921 0.072185 0.004924 0.097383 0.149229 0.044193 0.079049 -0.049525 -0.001421 0.004267 -0.051621 -0.074349 0.043351 0.062345 -0.042052 0.069755 0.048364 0.078404 0.049323 -0.010409 0.005027 0.102145 -0.035252 0.013692 -0.049437 -0.027674 -0.039485 0.062863 0.038773 0.066730 0.005629 0.110090 -0.022856 0.054525 -0.029075 -0.072314 0.044432 -0.022773 0.023418 -0.019724 0.123246 0.038106 0.060446 0.017210 -0.113001 -0.011766 -0.089776 -0.005699 0.033381 0.016819 -0.024781 -0.010246 -0.022696 -0.017890 -0.029467 -0.018723 -0.104117 -0.014169 -0.046499 -0.060815 -0.027591 0.020757 0.009041 -0.014494 0.014514 -0.046525 0.034921 -0.049681 -0.108744 -0.035225 0.030616 0.067414 0.115145 -0.018712 0.001874 0.074891 -0.021695 -0.070138 -0.002001 -0.066026 0.007025 0.089247 0.089305 -0.022103 0.116545 0.053374 0.190250 0.070945 0.080653 0.121873 0.082011 -0.112497 0.076020 -0.115364 0.129897 0.038059 -0.024337 0.444486 0.097511 0.113379 0.258353 0.175586 0.291171 0.289687 -0.018888 -1.604119
0.072396 0.072835 0.074150 0.076343 0.079412 0.083357 0.088176 0.093869 0.100434 0.107869 0.116172 0.125339 0.135368 0.146252 0.157987 0.170567 0.183983 0.198227 0.213289 0.229157 0.245816 0.263252 0.281447 0.300379 0.320028 0.340367 0.361368 0.383000 0.405228 0.428014 0.451316 0.475089 0.499282 0.523841 0.548707 0.573818 0.599105 0.624495 0.649911 0.675268 0.700479 0.725451 0.750084 0.774275 0.797914 0.820889 0.843079 0.864362 0.884610 0.903691 0.921471 0.937809 0.952566 0.965598 0.976761 0.985909 0.992897 0.997581 0.999820 0.999473 0.996408 0.990494 0.981608 0.969637 0.954475 0.936026 0.914211 0.888960 0.860220 0.827957 0.792154 0.752812 0.709958 0.663640 0.613930 0.560928 0.504759 0.445579 0.383569 0.318946 0.251951 0.182860 0.111979 0.039644 0.033778 0.107893 0.182277 0.256480 0.330031 0.402433 0.473173 0.541723 0.607541 0.670079 0.728788 0.783118 0.832529 0.876494 0.914505 0.946081 0.970772 0.988169 0.997907 0.999676 0.993225 0.978368 0.954991 0.923060 0.882623 0.833817 0.776870 0.712106 0.639946 0.560909 0.475611 0.384766 0.289180 0.189750 0.087453 0.016656 0.121458 0.225776 0.328392 0.428056 0.523506 0.613480 0.696737 0.772073 0.838342 0.894473 0.939493 0.972544 0.992902 0.999996 0.993425 0.972971 0.938615 0.890544 0.829162 0.755092 0.669179 0.572484 0.466280 0.352041 0.231423 0.106250 0.021516 0.149800 0.276446 0.399253 0.516012 0.624550 0.722769 0.808693 0.880508 0.936606 0.975631 0.996510 0.998491 0.981173 0.944530 0.888928 0.815132 0.724313 0.618032 0.498231 0.367201 0.227549 0.082149 0.065909 0.213381 0.356941 0.493254 0.619058 0.731240 0.826922 0.903543 0.958929 0.991369 0.999675 0.983232 0.942041 0.876734 0.788594 0.679535 0.552082 0.409321 0.254838 0.092639 0.072951 0.237395 0.396068 0.544387 0.677945 0.792653 0.884869 0.951526 0.990242 0.999426 0.978348 0.927198 0.847108 0.740153 0.609316 0.458419 0.292037 0.115358 0.065956 0.245951 0.418578 0.577888 0.718244 0.834537 0.922377 0.978274 0.999796 0.985693 0.935977 0.851967 0.736281 0.592779 0.426458 0.243294 0.050048 0.145977 0.337210 0.516092 0.675388 0.808490 0.909695 0.974481 0.999720 0.983855 0.927016 0.831059 0.699548 0.537642 0.351931 0.150180 0.058980 0.266400 0.462825 0.639295 0.787575 0.900546 0.972577 0.999823 0.980464 0.914847 0.805531 0.657226 0.476628 0.272141 0.053516 0.168607 0.383194 0.579378 0.747015 0.877218 0.962857 0.998980 0.983131 0.915547 0.799218 0.639802 0.445391 0.226128 0.006290 0.239217 0.459745 0.655417 0.814952 0.928900 0.990258 0.994919 0.941993 0.833943 0.676524 0.478519 0.251299 0.008199 0.236250 0.467169 0.670253 0.832658 0.943855 0.996340 0.986188 0.913393 0.781958 0.599747 0.378045 0.130932 0.125617 0.374713 0.599680 0.785188 0.918303 0.989452 0.993144 0.928449 0.799177 0.613709 0.384529 0.127417 0.139589 0.397449 0.627476 0.812690 0.939129 0.996920 0.981128 0.892222 0.736170 0.524108 0.271605 0.002425 0.277116 0.531215 0.744749 0.900607 0.985963 0.993393 0.921583 0.775571 0.566469 0.310707 0.028770 0.256371 0.521138 0.743297 0.903841 0.988685 0.989954 0.906794 0.745591 0.519566 0.247780 0.046429 0.337409 0.599403 0.808872 0.946619 0.999636 0.962389 0.837490 0.635613 0.374678 0.078340 0.226118 0.510253 0.747140 0.913943 0.994187 0.979459 0.870380 0.676728 0.416656 0.115082 0.198637 0.493537 0.740099 0.913238
1.000000 1.000000 1.000000 1.000000 1.000000 1.000000 1.000000 1.000000 1.000000 1.000000 1.000000 1.000000 1.000000 1.000000 1.000000 1.000000 1.000000 1.000000 1.000000 1.000000 1.000000 1.000000 1.000000 1.000000 1.000000 1.000000 1.000000 1.000000 1.000000 1.000000 1.000000 1.000000 1.000000 1.000000 1.000000 1.000000 1.000000 1.000000 1.000000 1.000000 1.000000 1.000000 1.000000 1.000000 1.000000 1.000000 1.000000 1.000000 1.000000 1.000000 1.000000 1.000000 0.827004 0.827004 0.827004 0.827004 0.827004 0.827004 0.827004 0.802834 0.802834 0.802834 0.802834 0.802834 0.802834 0.802834 0.802834 0.802834 0.802834 0.802834 0.802834 0.802834 0.802834 0.802834 0.802834 0.802834 0.802834 0.802834 0.802834 0.802834 0.802834 0.802834 0.802834 0.802834 0.802834 0.802834 0.802834 0.802834 0.802834 0.802834 0.802834 0.802834 0.802834 0.802834 0.802834 0.802834 0.802834 0.802834 0.802834 0.802834 0.802834 0.802834 0.802834 0.947989 0.948849 0.949221 0.948273 0.946800 0.943562 0.941886 0.940931 0.943623 0.943852 0.943864 0.944835 0.945419 0.946589 0.948081 0.949985 0.950428 0.958526 0.962226 0.961586 0.961341 0.960343 0.974185 0.973731 0.973616 0.971135 0.971242 0.971209 0.971112 0.971027 0.970615 0.970578 0.971025 0.970911 0.970485 0.969815 0.968105 0.967692 0.967098 0.967435 0.968225 0.968328 0.968874 0.971529 0.970684 0.971318 0.970020 0.969203 0.964709 0.962586 0.962868 0.959458 0.958798 0.958680 0.958222 0.957153 0.957209 0.957148 0.957122 0.957409 0.957707 0.955694 0.955559 0.955407 0.956121 0.952151 0.939241 0.936485 0.933916 0.935156 0.937790 0.940612 0.940962 0.941125 0.938336 0.931895 0.927336 0.915720 0.912510 0.910699 0.913789 0.914050 0.915011 0.915006 0.915476 0.914267 0.913526 0.905858 0.909085 0.906449 0.904775 0.899755 0.898951 0.897972 0.899383 0.901721 0.899720 0.889457 0.884218 0.868888 0.847130 0.845675 0.846976 0.855165 0.853432 0.851662 0.850895 0.833786 0.830105 0.819440 0.811337 0.812923 0.814628 0.814888 0.817977 0.820817 0.803686 0.804508 0.798860 0.793211 0.801809 0.811924 0.814244 0.810347 0.802599 0.800197 0.771787 0.770672 0.773856 0.769306 0.775525 0.763867 0.763608 0.758910 0.755445 0.750883 0.745621 0.743516 0.723613 0.729044 0.734673 0.739448 0.737302 0.716764 0.708324 0.665526 0.670937 0.653415 0.663109 0.664151 0.661330 0.649421 0.651325 0.654262 0.641016 0.646397 0.636372 0.627920 0.611371 0.613501 0.622364 0.598271 0.611378 0.610718 0.596308 0.587539 0.600949 0.614328 0.616601 0.597303 0.593889 0.569458 0.518107 0.498739 0.482067 0.471690 0.467604 0.486777 0.495977 0.504218 0.488375 0.458257 0.429322 0.428061 0.431654 0.416036 0.416106 0.409374 0.392209 0.402689 0.384399 0.399385 0.387830 0.379631 0.356567 0.304646 0.284353 0.249407 0.271280 0.261649 0.248485 0.241813 0.243572 0.231021 0.177675 0.170023 0.170525 0.195008 0.167708 0.131929 0.145844 0.154436 0.152030 0.150534 0.146222 0.200448 0.184033 0.199613 0.201527 0.149145 0.121690 0.060608 0.064386 0.065834 0.098673 0.125800 0.112937 0.082806 -0.015622 0.012145 0.048974 0.048974 0.048974 0.048974 0.048974 0.048974 0.048974 0.048974 0.048974 0.048974 0.048974 -0.027929 -0.027929 -0.027929 -0.027929 -0.027929 -0.027929 -0.027929 -0.027929 -0.027929 -0.027929 -0.027929 -0.027929 -0.027929 -0.027929 -0.027929 -0.027929 -0.027929 -0.027929 -0.027929
0.000000 0.000000 0.000000 0.000000 0.000000 0.000000 0.000000 0.000000 0.000000 0.000000 0.000000 0.000000 0.000000 0.000000 0.000000 0.000000 0.000000 0.000000 0.000000 0.000000 0.000000 0.000000 0.000000 0.000000 0.000000 0.000000 0.000000 0.000000 0.000000 0.000000 0.000000 0.000000 0.000000 0.000000 0.000000 0.000000 0.000000 0.000000 0.000000 0.000000 0.000000 0.000000 0.000000 0.000000 0.000000 0.000000 0.000000 0.000000 0.000000 0.000000 0.000000 0.000000 0.173422 0.173422 0.173422 0.173422 0.173422 0.173422 0.173422 0.191565 0.191565 0.191565 0.191565 0.191565 0.191565 0.191565 0.191565 0.191565 0.191565 0.191565 0.191565 0.191565 0.191565 0.191565 0.191565 0.191565 0.191565 0.191565 0.191565 0.191565 0.191565 0.191565 0.191565 0.191565 0.191565 0.191565 0.191565 0.191565 0.191565 0.191565 0.191565 0.191565 0.191565 0.191565 0.191565 0.191565 0.191565 0.191565 0.191565 0.191565 0.191565 0.191565 0.191565 0.219529 0.219529 0.219529 0.219529 0.219529 0.219529 0.219529 0.219529 0.219529 0.219529 0.219529 0.219529 0.219529 0.219529 0.219529 0.219529 0.219529 0.219529 0.219529 0.219529 0.219529 0.219529 0.219529 0.219529 0.219529 0.219529 0.219529 0.219529 0.219529 0.219529 0.219529 0.237356 0.237356 0.237356 0.237356 0.237356 0.237356 0.237356 0.237356 0.237356 0.237356 0.237356 0.237356 0.237356 0.237356 0.237356 0.237356 0.237356 0.237356 0.237356 0.237356 0.237356 0.237356 0.237356 0.237356 0.244339 0.244339 0.244339 0.244339 0.244339 0.244339 0.244339 0.244339 0.244339 0.244339 0.244339 0.244339 0.244339 0.244339 0.244339 0.244339 0.244339 0.244339 0.244339 0.244339 0.244339 0.248069 0.248069 0.248069 0.248069 0.248069 0.248069 0.248069 0.248069 0.248069 0.248069 0.248069 0.248069 0.248069 0.248069 0.248069 0.248069 0.248069 0.248069 0.248069 0.248069 0.248069 0.248069 0.248069 0.248069 0.248069 0.248069 0.248069 0.248069 0.248069 0.248069 0.248069 0.248069 0.248069 0.248069 0.248069 0.248069 0.248069 0.256074 0.256074 0.256074 0.256074 0.256074 0.256074 0.256074 0.256074 0.256074 0.256074 0.256074 0.256074 0.256074 0.256074 0.256074 0.256074 0.256074 0.256074 0.256074 0.256074 0.256074 0.256074 0.256074 0.256074 0.256074 0.256074 0.256074 0.256074 0.256074 0.256074 0.256074 0.256074 0.256074 0.256074 0.256074 0.256074 0.256074 0.256074 0.256074 0.256074 0.256074 0.256074 0.256074 0.256074 0.256074 0.260378 0.260378 0.260378 0.260378 0.260378 0.260378 0.260378 0.260378 0.260378 0.260378 0.260378 0.260378 0.260378 0.256074 0.256074 0.256074 0.256074 0.256074 0.256074 0.256074 0.256074 0.256074 0.256074 0.256074 0.256074 0.256074 0.260378 0.260378 0.260378 0.260378 0.260378 0.260378 0.260378 0.260378 0.260378 0.260378 0.260378 0.260378 0.251976 0.251976 0.251976 0.251976 0.251976 0.251976 0.251976 0.251976 0.251976 0.251976 0.251976 0.251976 0.256074 0.256074 0.256074 0.256074 0.256074 0.256074 0.256074 0.256074 0.256074 0.256074 0.256074 0.251976 0.251976 0.251976 0.251976 0.251976 0.251976 0.251976 0.251976 0.251976 0.251976 0.251976 0.248069 0.248069 0.248069 0.248069 0.248069 0.248069 0.248069 0.248069 0.248069 0.248069 0.248069 0.256074 0.256074 0.256074 0.256074 0.256074 0.256074 0.256074 0.256074 0.256074 0.256074 0.256074 0.256074 0.256074 0.256074 0.256074 0.256074 0.256074 0.256074 0.256074
