# Output from CTFFind version 4.1.9, run on 2019-11-03 19:01:38
# Input file: stack11_bm3d_averaged_1_3.25_0_1250_half.mrc ; Number of micrographs: 1
# Pixel size: 3.000 Angstroms ; acceleration voltage: 300.0 keV ; spherical aberration: 0.00 mm ; amplitude contrast: 0.07
# Box size: 512 pixels ; min. res.: 30.0 Angstroms ; max. res.: 5.0 Angstroms ; min. def.: 5000.0 um; max. def. 50000.0 um; num. frames averaged: 1
# 6 lines per micrograph: #1 - spatial frequency (1/Angstroms); #2 - 1D rotational average of spectrum (assuming no astigmatism); #3 - 1D rotational average of spectrum; #4 - CTF fit; #5 - cross-correlation between spectrum and CTF fit; #6 - 2sigma of expected cross correlation of noise
0.000000 0.000651 0.001302 0.001953 0.002604 0.003255 0.003906 0.004557 0.005208 0.005859 0.006510 0.007161 0.007812 0.008464 0.009115 0.009766 0.010417 0.011068 0.011719 0.012370 0.013021 0.013672 0.014323 0.014974 0.015625 0.016276 0.016927 0.017578 0.018229 0.018880 0.019531 0.020182 0.020833 0.021484 0.022135 0.022786 0.023438 0.024089 0.024740 0.025391 0.026042 0.026693 0.027344 0.027995 0.028646 0.029297 0.029948 0.030599 0.031250 0.031901 0.032552 0.033203 0.033854 0.034505 0.035156 0.035807 0.036458 0.037109 0.037760 0.038411 0.039062 0.039714 0.040365 0.041016 0.041667 0.042318 0.042969 0.043620 0.044271 0.044922 0.045573 0.046224 0.046875 0.047526 0.048177 0.048828 0.049479 0.050130 0.050781 0.051432 0.052083 0.052734 0.053385 0.054036 0.054688 0.055339 0.055990 0.056641 0.057292 0.057943 0.058594 0.059245 0.059896 0.060547 0.061198 0.061849 0.062500 0.063151 0.063802 0.064453 0.065104 0.065755 0.066406 0.067057 0.067708 0.068359 0.069010 0.069661 0.070312 0.070964 0.071615 0.072266 0.072917 0.073568 0.074219 0.074870 0.075521 0.076172 0.076823 0.077474 0.078125 0.078776 0.079427 0.080078 0.080729 0.081380 0.082031 0.082682 0.083333 0.083984 0.084635 0.085286 0.085938 0.086589 0.087240 0.087891 0.088542 0.089193 0.089844 0.090495 0.091146 0.091797 0.092448 0.093099 0.093750 0.094401 0.095052 0.095703 0.096354 0.097005 0.097656 0.098307 0.098958 0.099609 0.100260 0.100911 0.101562 0.102214 0.102865 0.103516 0.104167 0.104818 0.105469 0.106120 0.106771 0.107422 0.108073 0.108724 0.109375 0.110026 0.110677 0.111328 0.111979 0.112630 0.113281 0.113932 0.114583 0.115234 0.115885 0.116536 0.117188 0.117839 0.118490 0.119141 0.119792 0.120443 0.121094 0.121745 0.122396 0.123047 0.123698 0.124349 0.125000 0.125651 0.126302 0.126953 0.127604 0.128255 0.128906 0.129557 0.130208 0.130859 0.131510 0.132161 0.132812 0.133464 0.134115 0.134766 0.135417 0.136068 0.136719 0.137370 0.138021 0.138672 0.139323 0.139974 0.140625 0.141276 0.141927 0.142578 0.143229 0.143880 0.144531 0.145182 0.145833 0.146484 0.147135 0.147786 0.148438 0.149089 0.149740 0.150391 0.151042 0.151693 0.152344 0.152995 0.153646 0.154297 0.154948 0.155599 0.156250 0.156901 0.157552 0.158203 0.158854 0.159505 0.160156 0.160807 0.161458 0.162109 0.162760 0.163411 0.164062 0.164714 0.165365 0.166016 0.166667 0.167318 0.167969 0.168620 0.169271 0.169922 0.170573 0.171224 0.171875 0.172526 0.173177 0.173828 0.174479 0.175130 0.175781 0.176432 0.177083 0.177734 0.178385 0.179036 0.179688 0.180339 0.180990 0.181641 0.182292 0.182943 0.183594 0.184245 0.184896 0.185547 0.186198 0.186849 0.187500 0.188151 0.188802 0.189453 0.190104 0.190755 0.191406 0.192057 0.192708 0.193359 0.194010 0.194661 0.195312 0.195964 0.196615 0.197266 0.197917 0.198568 0.199219 0.199870 0.200521 0.201172 0.201823 0.202474 0.203125 0.203776 0.204427 0.205078 0.205729 0.206380 0.207031 0.207682 0.208333 0.208984 0.209635 0.210286 0.210938 0.211589 0.212240 0.212891 0.213542 0.214193 0.214844 0.215495 0.216146 0.216797 0.217448 0.218099 0.218750 0.219401 0.220052 0.220703 0.221354 0.222005 0.222656 0.223307 0.223958 0.224609 0.225260 0.225911 0.226562 0.227214 0.227865 0.228516 0.229167 0.229818 0.230469 0.231120 0.231771 0.232422 0.233073 0.233724 0.234375 0.235026 0.235677
       0.32419        0.32419        0.32419        0.32419        0.32419        0.32419        0.32419        0.32419        0.32419        0.32419        0.32419        0.32419        0.32419        0.32419        0.32419        0.32419        0.32419        0.32419        0.32419        0.32419        0.32419        0.32419        0.32419        0.32419        0.32419        0.32419        0.32419        0.32419        0.32419        0.32419        0.32419        0.32419        0.32419        0.32419        0.32419        0.32419        0.32419        0.32419        0.32419        0.32419        0.32419        0.32419        0.32419        0.32419        0.32419        0.32419        0.32419        0.32419        0.32419        0.32419        0.32419        0.68548        0.86172        0.52665        0.09688       -0.04773       -0.41556       -0.19473       -0.29499       -0.11469       -0.06616       -0.11421       -0.06227       -0.19484       -0.22265       -0.24128       -0.32402       -0.33340       -0.46960       -0.37505       -0.44947       -0.44182       -0.41346       -0.44799       -0.50355       -0.54143       -0.57535       -0.59625       -0.56110       -0.39267       -0.36572       -0.32114       -0.30122       -0.20160       -0.19356        0.03242        0.10173        0.13377        0.23984        0.37376        0.44716        0.51127        0.56766        0.56583        0.56772        0.69087        0.80563        0.72186        0.73334        0.64407        0.56796        0.48276        0.41377        0.50080        0.38567        0.22628        0.08803        0.06740        0.04122       -0.04975       -0.01016        0.01080       -0.04107       -0.00020       -0.00941        0.22693        0.25817        0.28714        0.42166        0.44682        0.40522        0.55930        0.62531        0.67141        0.74378        0.68374        0.64964        0.67927        0.56913        0.47879        0.41625        0.29166        0.21973        0.16147        0.11751        0.04785        0.02466        0.02367        0.07989        0.13354        0.21728        0.27244        0.39650        0.43782        0.49025        0.59209        0.62086        0.63110        0.62087        0.55716        0.44988        0.45946        0.36174        0.23894        0.18896        0.14964        0.13728        0.13585        0.10817        0.13553        0.26604        0.28161        0.36251        0.39093        0.43617        0.50631        0.54311        0.54742        0.47771        0.44382        0.39107        0.34727        0.30941        0.26988        0.21935        0.21222        0.19242        0.21586        0.19755        0.28883        0.34623        0.37682        0.43350        0.45483        0.47570        0.41984        0.38956        0.40718        0.36330        0.28336        0.26240        0.22959        0.23308        0.20547        0.24422        0.24751        0.33113        0.37014        0.38763        0.47211        0.42618        0.43196        0.43167        0.40040        0.34329        0.31833        0.28540        0.27983        0.25327        0.28507        0.28596        0.31160        0.31512        0.33296        0.31953        0.40380        0.41758        0.37994        0.34619        0.36865        0.28928        0.28333        0.26984        0.29632        0.27686        0.29018        0.30374        0.31947        0.34097        0.36442        0.37086        0.36770        0.36215        0.30637        0.32646        0.28000        0.25285        0.30554        0.29950        0.31432        0.31259        0.31954        0.34503        0.32208        0.32090        0.29859        0.31029        0.28020        0.29272        0.26370        0.29247        0.29667        0.28662        0.30796        0.32267        0.33005        0.27211        0.30666        0.27714        0.28532        0.26739        0.22559        0.28274        0.28622        0.34077        0.31596        0.31858        0.31683        0.32263        0.28386        0.31888        0.32766        0.27656        0.26557        0.30834        0.29340        0.34175        0.32991        0.33316        0.33205        0.29169        0.27405        0.29441        0.24615        0.22118        0.29869        0.31447        0.30975        0.29770        0.31315        0.28779        0.33960        0.33319        0.26035        0.23535        0.29095        0.30829        0.28682        0.31329        0.33181        0.33194        0.30788        0.29969        0.33525        0.30908        0.27575        0.25732        0.30902        0.35082        0.38202        0.29277        0.26952        0.26822        0.29996        0.23970        0.28727        0.26018        0.24977        0.32144        0.33111        0.34292        0.31657        0.26595        0.25595        0.26343        0.24951        0.23070        0.23663        0.31272        0.29408        0.21875        0.32601        0.32335        0.25661        0.26150        0.20065        0.19173        0.24422        0.19254        0.22580        0.24183        0.22277        0.19264        0.27206        0.35405        0.33174        0.34134        0.24235        0.19730        0.17781        0.23998        0.24642        0.14245        0.19316        0.24509        0.16999        0.18902        0.14430        0.10820        0.16992        0.07505       -0.10068       -0.59979
2.656668 2.628743 2.600970 2.573349 2.545880 2.518563 2.491397 2.464384 2.437523 2.410814 2.384256 2.357851 2.331597 2.305496 2.279547 2.253749 2.228104 2.202610 2.177268 2.152079 2.127041 2.102155 2.077422 2.052840 2.028410 2.004132 1.980007 1.956033 1.932211 1.908541 1.885023 1.861657 1.838443 1.815381 1.792471 1.769713 1.747107 1.724653 1.702351 1.680200 1.658202 1.636356 1.614662 1.593119 1.571729 1.550491 1.529404 1.508470 1.487687 1.467057 1.446578 1.664486 2.079864 1.646307 1.154308 1.016778 0.427003 0.831073 0.559417 0.842542 0.790017 0.805827 0.755405 0.723602 0.578992 0.535304 0.489849 0.435165 0.227148 0.376449 0.205738 0.316014 0.230990 0.191275 0.155003 0.023459 0.030933 0.002592 -0.061888 0.117846 0.214957 0.187961 0.160856 0.334842 0.190539 0.500990 0.601520 0.586877 0.615699 0.876187 0.823585 0.938493 0.898819 0.994497 0.959789 1.078678 1.142387 1.054701 1.144217 0.929941 0.931287 0.790176 0.651780 0.784844 0.710056 0.471219 0.318015 0.248167 0.241172 0.144483 0.105250 0.144854 0.094104 0.136838 0.059458 0.260741 0.374731 0.351847 0.472748 0.557029 0.440429 0.572357 0.712082 0.714930 0.765738 0.714686 0.728386 0.684891 0.613127 0.540443 0.406206 0.279603 0.220612 0.080526 0.125740 -0.058446 -0.040949 -0.066807 -0.054241 -0.017653 0.149879 0.070166 0.265782 0.297071 0.346761 0.432264 0.516174 0.492900 0.508858 0.502177 0.323703 0.306355 0.282748 0.091639 0.046753 -0.039552 -0.017222 -0.046160 -0.081817 -0.095355 0.023453 0.064952 0.125291 0.177903 0.228983 0.291135 0.315117 0.411840 0.389989 0.283566 0.236979 0.220049 0.168950 0.121255 0.100378 0.008451 0.010138 0.036031 -0.008885 0.068257 0.152332 0.140098 0.245503 0.248175 0.298445 0.207999 0.218031 0.151704 0.205677 0.112509 0.042257 0.004880 -0.004970 -0.008869 -0.041000 0.035724 0.020504 0.140909 0.147228 0.175954 0.228814 0.183830 0.172001 0.189849 0.142663 0.077793 0.035118 0.061220 -0.000684 -0.001779 0.025547 0.054500 0.063738 0.060281 0.070572 0.113319 0.128910 0.178222 0.077003 0.081552 0.066376 0.009179 -0.009429 0.011098 0.013108 0.011224 0.010330 0.031418 0.060117 0.064158 0.137904 0.061392 0.126734 0.063281 0.021695 0.053617 -0.030246 -0.007148 0.046051 0.004859 0.052693 0.049510 0.031477 0.087560 0.055143 0.025594 0.042948 0.011861 0.023504 0.010829 -0.011100 0.051381 -0.000098 0.021567 0.060278 0.061272 0.043755 0.044680 0.039282 0.036440 0.022479 -0.009301 -0.017589 0.034698 0.059952 0.097301 0.073718 0.075950 0.083065 0.093822 0.043489 0.103724 0.101866 0.021542 0.041331 0.081680 0.074525 0.104275 0.116843 0.072429 0.140302 0.075987 0.030517 0.088837 -0.012626 0.016192 0.094362 0.086957 0.089410 0.066947 0.068017 0.035772 0.128973 0.079804 -0.010682 -0.027057 0.050708 0.085898 0.034054 0.040378 0.087222 0.102134 0.030028 0.059870 0.081721 0.054765 0.026470 -0.031179 0.073748 0.111180 0.114662 -0.012168 -0.010609 -0.019050 0.050823 -0.071537 0.029709 -0.035972 -0.023612 0.034085 0.076488 0.012959 0.006533 -0.046032 -0.035234 -0.063935 -0.025293 -0.081801 -0.068352 0.028175 0.081520 -0.093056 0.065160 0.013598 -0.050924 0.027129 -0.104015 -0.076258 -0.037135 -0.069515 -0.020246 -0.020777 0.007921 -0.084088 0.042391 0.200968 0.008364 0.172423 0.028377 0.210808 0.174753 0.268681 0.272911 0.134359 0.196545 0.292861 0.142874 0.209324 0.137570 0.137617 0.248857 0.077099 -0.636420
0.072396 0.072899 0.074406 0.076917 0.080433 0.084951 0.090471 0.096991 0.104509 0.113022 0.122527 0.133019 0.144493 0.156943 0.170361 0.184737 0.200062 0.216321 0.233501 0.251583 0.270548 0.290373 0.311031 0.332494 0.354728 0.377696 0.401358 0.425666 0.450571 0.476016 0.501940 0.528277 0.554953 0.581890 0.609002 0.636199 0.663381 0.690444 0.717275 0.743757 0.769763 0.795162 0.819814 0.843574 0.866292 0.887811 0.907968 0.926596 0.943525 0.958581 0.971588 0.982368 0.990742 0.996534 0.999568 0.999674 0.996685 0.990442 0.980795 0.967603 0.950739 0.930089 0.905558 0.877068 0.844562 0.808008 0.767396 0.722748 0.674113 0.621573 0.565242 0.505272 0.441850 0.375203 0.305595 0.233333 0.158762 0.082269 0.004280 0.074741 0.154289 0.233827 0.312786 0.390564 0.466537 0.540058 0.610466 0.677088 0.739250 0.796280 0.847519 0.892326 0.930091 0.960239 0.982242 0.995629 0.999996 0.995013 0.980433 0.956106 0.921980 0.878115 0.824685 0.761986 0.690440 0.610595 0.523130 0.428850 0.328686 0.223688 0.115019 0.003944 0.108182 0.219926 0.329800 0.436272 0.537795 0.632824 0.719844 0.797396 0.864103 0.918698 0.960051 0.987197 0.999361 0.995982 0.976738 0.941560 0.890651 0.824495 0.743865 0.649826 0.543724 0.427180 0.302076 0.170522 0.034834 0.102505 0.238885 0.371625 0.498013 0.615375 0.721125 0.812831 0.888274 0.945510 0.982928 0.999299 0.993828 0.966189 0.916561 0.845640 0.754652 0.645348 0.519978 0.381265 0.232354 0.076745 0.081771 0.239211 0.391491 0.534535 0.664385 0.777318 0.869959 0.939393 0.983266 0.999881 0.988271 0.948263 0.880514 0.786527 0.668638 0.529982 0.374424 0.206469 0.031142 0.146153 0.319795 0.484116 0.633603 0.763075 0.867881 0.944080 0.988602 0.999396 0.975535 0.917297 0.826202 0.704994 0.557600 0.389014 0.205156 0.012676 0.181270 0.369284 0.544008 0.698417 0.826109 0.921591 0.980533 0.999990 0.978574 0.916561 0.815947 0.680414 0.515238 0.327100 0.123856 0.085787 0.292620 0.487346 0.660990 0.805331 0.913309 0.979396 0.999905 0.973232 0.899998 0.783093 0.627605 0.440645 0.231047 0.008983 0.214516 0.428095 0.620655 0.781945 0.903123 0.977276 0.999845 0.968946 0.885557 0.753550 0.579562 0.372711 0.144157 0.093480 0.326786 0.542317 0.727377 0.870786 0.963588 0.999653 0.976122 0.893685 0.756632 0.572700 0.352682 0.109848 0.140836 0.383597 0.602857 0.784241 0.915551 0.987621 0.995013 0.936481 0.815170 0.638524 0.417898 0.167873 0.094648 0.351585 0.584889 0.777846 0.916293 0.989711 0.992080 0.922435 0.785072 0.589374 0.349224 0.082103 0.192157 0.452816 0.679800 0.855269 0.965055 0.999881 0.956204 0.836651 0.649955 0.410410 0.136844 0.148811 0.423232 0.663632 0.849650 0.965143 0.999639 0.949376 0.817787 0.615372 0.358961 0.070381 0.225327 0.502084 0.735049 0.902906 0.989855 0.987196 0.894287 0.718792 0.476161 0.188363 0.118022 0.414234 0.672004 0.866291 0.977771 0.994844 0.914942 0.744988 0.500919 0.206308 0.109849 0.415915 0.680785 0.877069 0.983992 0.989687 0.892629 0.702012 0.437024 0.125024 0.201211 0.506867 0.758824 0.929287 0.998926 0.959199 0.813513 0.577097 0.275551 0.057818 0.385611 0.670511 0.879558 0.988039 0.982524 0.862661 0.641494 0.344185 0.005290 0.335182 0.636455 0.861897 0.983540 0.985681 0.867045 0.641235 0.335340 0.013182 0.360998 0.664258 0.884149 0.991953 0.972923 0.828464 0.576274 0.248331 0.113020
1.000000 1.000000 1.000000 1.000000 1.000000 1.000000 1.000000 1.000000 1.000000 1.000000 1.000000 1.000000 1.000000 1.000000 1.000000 1.000000 1.000000 1.000000 1.000000 1.000000 1.000000 1.000000 1.000000 1.000000 1.000000 1.000000 1.000000 1.000000 1.000000 1.000000 1.000000 1.000000 1.000000 1.000000 1.000000 1.000000 1.000000 1.000000 1.000000 1.000000 1.000000 1.000000 1.000000 1.000000 1.000000 1.000000 1.000000 1.000000 1.000000 1.000000 1.000000 1.000000 0.919466 0.919466 0.919466 0.914515 0.914515 0.914515 0.914515 0.914515 0.914515 0.914515 0.914515 0.914515 0.914515 0.914515 0.914515 0.914515 0.914515 0.914515 0.914515 0.914515 0.914515 0.914515 0.914515 0.914515 0.914515 0.914515 0.914515 0.914515 0.914515 0.914515 0.914515 0.914515 0.914515 0.914515 0.914515 0.914515 0.914515 0.914515 0.914515 0.914515 0.914515 0.914515 0.914515 0.914515 0.942290 0.943747 0.951825 0.951672 0.951109 0.948944 0.947910 0.947437 0.947317 0.947628 0.948315 0.949259 0.958059 0.959250 0.962076 0.962941 0.963659 0.964270 0.964882 0.965480 0.956432 0.955353 0.954049 0.949885 0.952717 0.951904 0.951736 0.952696 0.952544 0.952920 0.953356 0.952584 0.951409 0.950364 0.949357 0.948752 0.948514 0.949264 0.949694 0.951227 0.954611 0.955175 0.955294 0.955450 0.955541 0.956846 0.955593 0.955276 0.951085 0.951344 0.950847 0.948493 0.954546 0.951728 0.952237 0.952809 0.954409 0.954731 0.949320 0.946185 0.936360 0.935201 0.929712 0.921808 0.918115 0.920091 0.922653 0.924007 0.924380 0.919072 0.919207 0.915472 0.910809 0.913921 0.912235 0.911329 0.912905 0.910586 0.906941 0.905944 0.902342 0.893184 0.884886 0.884862 0.889351 0.894321 0.896031 0.895041 0.894044 0.880374 0.860782 0.861212 0.856525 0.861091 0.854298 0.853769 0.854381 0.853834 0.857469 0.855523 0.855598 0.851804 0.839024 0.824139 0.814359 0.813431 0.819770 0.817600 0.810951 0.813202 0.826681 0.815076 0.828945 0.841481 0.833976 0.835041 0.835025 0.831176 0.814676 0.812913 0.815139 0.808931 0.809376 0.809030 0.803919 0.796295 0.801983 0.777400 0.768891 0.762297 0.766620 0.770756 0.768506 0.768398 0.768396 0.772932 0.776400 0.762535 0.750145 0.735413 0.741859 0.749762 0.754758 0.747461 0.728023 0.691538 0.635992 0.654587 0.703778 0.640132 0.662173 0.666338 0.652332 0.650920 0.642139 0.638665 0.622442 0.625960 0.632843 0.643219 0.650411 0.670929 0.662683 0.651220 0.659658 0.643693 0.640863 0.627147 0.630538 0.608599 0.601125 0.626498 0.627833 0.625084 0.635575 0.619065 0.608113 0.627685 0.637319 0.626181 0.622899 0.599923 0.560896 0.566417 0.571550 0.586455 0.610744 0.583642 0.557552 0.551868 0.547327 0.568839 0.550037 0.551719 0.561621 0.560250 0.542740 0.508304 0.511221 0.532470 0.534612 0.526594 0.497044 0.494691 0.500467 0.548016 0.537193 0.490239 0.505332 0.503138 0.504994 0.460567 0.472699 0.446028 0.429133 0.378572 0.369106 0.379942 0.367296 0.342418 0.314142 0.313210 0.316916 0.328420 0.321720 0.305984 0.286378 0.312193 0.314978 0.300685 0.242751 0.227352 0.213003 0.201511 0.204643 0.167846 0.192030 0.253354 0.255896 0.255896 0.255896 0.255896 0.255896 0.255896 0.271342 0.271342 0.271342 0.271342 0.271342 0.271342 0.271342 0.271342 0.271342 0.284163 0.284163 0.284163 0.284163 0.284163 0.284163 0.284163 0.284163 0.284163 0.284163 0.284163 0.284163 0.284163 0.284163
0.000000 0.000000 0.000000 0.000000 0.000000 0.000000 0.000000 0.000000 0.000000 0.000000 0.000000 0.000000 0.000000 0.000000 0.000000 0.000000 0.000000 0.000000 0.000000 0.000000 0.000000 0.000000 0.000000 0.000000 0.000000 7.000000 4.000000 0.000000 0.000000 0.000000 0.000000 0.000000 0.000000 0.000000 0.000000 0.000000 0.000000 0.000000 0.000000 0.000000 0.000000 0.000000 0.000000 0.000000 0.000000 0.000000 0.000000 0.000000 0.000000 0.000000 0.000000 0.000000 0.180334 0.180334 0.180334 0.199007 0.199007 0.199007 0.199007 0.199007 0.199007 0.199007 0.199007 0.199007 0.199007 0.199007 0.199007 0.199007 0.199007 0.199007 0.199007 0.199007 0.199007 0.199007 0.199007 0.199007 0.199007 0.199007 0.199007 0.199007 0.199007 0.199007 0.199007 0.199007 0.199007 0.199007 0.199007 0.199007 0.199007 0.199007 0.199007 0.199007 0.199007 0.199007 0.199007 0.199007 0.225018 0.225018 0.225018 0.225018 0.225018 0.225018 0.225018 0.225018 0.225018 0.225018 0.225018 0.225018 0.225018 0.225018 0.225018 0.225018 0.225018 0.225018 0.225018 0.225018 0.225018 0.225018 0.225018 0.225018 0.225018 0.225018 0.225018 0.225018 0.225018 0.244339 0.244339 0.244339 0.244339 0.244339 0.244339 0.244339 0.244339 0.244339 0.244339 0.244339 0.244339 0.244339 0.244339 0.244339 0.244339 0.244339 0.244339 0.244339 0.244339 0.244339 0.244339 0.244339 0.251976 0.251976 0.251976 0.251976 0.251976 0.251976 0.251976 0.251976 0.251976 0.251976 0.251976 0.251976 0.251976 0.251976 0.251976 0.251976 0.251976 0.251976 0.251976 0.251976 0.264906 0.264906 0.264906 0.264906 0.264906 0.264906 0.264906 0.264906 0.264906 0.264906 0.264906 0.264906 0.264906 0.264906 0.264906 0.264906 0.264906 0.264906 0.264906 0.264906 0.264906 0.264906 0.264906 0.264906 0.264906 0.264906 0.264906 0.264906 0.264906 0.264906 0.264906 0.264906 0.264906 0.264906 0.264906 0.264906 0.264906 0.264906 0.264906 0.264906 0.264906 0.264906 0.264906 0.264906 0.264906 0.264906 0.264906 0.264906 0.264906 0.264906 0.264906 0.264906 0.264906 0.264906 0.264906 0.264906 0.264906 0.264906 0.264906 0.264906 0.264906 0.264906 0.256074 0.256074 0.256074 0.256074 0.256074 0.256074 0.256074 0.256074 0.256074 0.256074 0.256074 0.256074 0.256074 0.256074 0.269680 0.269680 0.269680 0.269680 0.269680 0.269680 0.269680 0.269680 0.269680 0.269680 0.269680 0.269680 0.264906 0.264906 0.264906 0.264906 0.264906 0.264906 0.264906 0.264906 0.264906 0.264906 0.264906 0.264906 0.269680 0.269680 0.269680 0.269680 0.269680 0.269680 0.269680 0.269680 0.269680 0.269680 0.269680 0.264906 0.264906 0.264906 0.264906 0.264906 0.264906 0.264906 0.264906 0.264906 0.264906 0.264906 0.256074 0.256074 0.256074 0.256074 0.256074 0.256074 0.256074 0.256074 0.256074 0.256074 0.256074 0.264906 0.264906 0.264906 0.264906 0.264906 0.264906 0.264906 0.264906 0.264906 0.264906 0.260378 0.260378 0.260378 0.260378 0.260378 0.260378 0.260378 0.260378 0.260378 0.260378 0.256074 0.256074 0.256074 0.256074 0.256074 0.256074 0.256074 0.256074 0.256074 0.256074 0.260378 0.260378 0.260378 0.260378 0.260378 0.260378 0.260378 0.260378 0.260378 0.256074 0.256074 0.256074 0.256074 0.256074 0.256074 0.256074 0.256074 0.256074 0.251976 0.251976 0.251976 0.251976 0.251976 0.251976 0.251976 0.251976 0.251976 0.251976 0.251976 0.251976 0.251976 0.251976
