# Output from CTFFind version 4.1.9, run on 2019-11-03 19:39:12
# Input file: stack1_bm3d_averaged_1_4.75_0_750_half.mrc ; Number of micrographs: 1
# Pixel size: 3.000 Angstroms ; acceleration voltage: 300.0 keV ; spherical aberration: 0.00 mm ; amplitude contrast: 0.07
# Box size: 512 pixels ; min. res.: 30.0 Angstroms ; max. res.: 5.0 Angstroms ; min. def.: 5000.0 um; max. def. 50000.0 um; num. frames averaged: 1
# 6 lines per micrograph: #1 - spatial frequency (1/Angstroms); #2 - 1D rotational average of spectrum (assuming no astigmatism); #3 - 1D rotational average of spectrum; #4 - CTF fit; #5 - cross-correlation between spectrum and CTF fit; #6 - 2sigma of expected cross correlation of noise
0.000000 0.000651 0.001302 0.001953 0.002604 0.003255 0.003906 0.004557 0.005208 0.005859 0.006510 0.007161 0.007812 0.008464 0.009115 0.009766 0.010417 0.011068 0.011719 0.012370 0.013021 0.013672 0.014323 0.014974 0.015625 0.016276 0.016927 0.017578 0.018229 0.018880 0.019531 0.020182 0.020833 0.021484 0.022135 0.022786 0.023438 0.024089 0.024740 0.025391 0.026042 0.026693 0.027344 0.027995 0.028646 0.029297 0.029948 0.030599 0.031250 0.031901 0.032552 0.033203 0.033854 0.034505 0.035156 0.035807 0.036458 0.037109 0.037760 0.038411 0.039062 0.039714 0.040365 0.041016 0.041667 0.042318 0.042969 0.043620 0.044271 0.044922 0.045573 0.046224 0.046875 0.047526 0.048177 0.048828 0.049479 0.050130 0.050781 0.051432 0.052083 0.052734 0.053385 0.054036 0.054688 0.055339 0.055990 0.056641 0.057292 0.057943 0.058594 0.059245 0.059896 0.060547 0.061198 0.061849 0.062500 0.063151 0.063802 0.064453 0.065104 0.065755 0.066406 0.067057 0.067708 0.068359 0.069010 0.069661 0.070312 0.070964 0.071615 0.072266 0.072917 0.073568 0.074219 0.074870 0.075521 0.076172 0.076823 0.077474 0.078125 0.078776 0.079427 0.080078 0.080729 0.081380 0.082031 0.082682 0.083333 0.083984 0.084635 0.085286 0.085938 0.086589 0.087240 0.087891 0.088542 0.089193 0.089844 0.090495 0.091146 0.091797 0.092448 0.093099 0.093750 0.094401 0.095052 0.095703 0.096354 0.097005 0.097656 0.098307 0.098958 0.099609 0.100260 0.100911 0.101562 0.102214 0.102865 0.103516 0.104167 0.104818 0.105469 0.106120 0.106771 0.107422 0.108073 0.108724 0.109375 0.110026 0.110677 0.111328 0.111979 0.112630 0.113281 0.113932 0.114583 0.115234 0.115885 0.116536 0.117188 0.117839 0.118490 0.119141 0.119792 0.120443 0.121094 0.121745 0.122396 0.123047 0.123698 0.124349 0.125000 0.125651 0.126302 0.126953 0.127604 0.128255 0.128906 0.129557 0.130208 0.130859 0.131510 0.132161 0.132812 0.133464 0.134115 0.134766 0.135417 0.136068 0.136719 0.137370 0.138021 0.138672 0.139323 0.139974 0.140625 0.141276 0.141927 0.142578 0.143229 0.143880 0.144531 0.145182 0.145833 0.146484 0.147135 0.147786 0.148438 0.149089 0.149740 0.150391 0.151042 0.151693 0.152344 0.152995 0.153646 0.154297 0.154948 0.155599 0.156250 0.156901 0.157552 0.158203 0.158854 0.159505 0.160156 0.160807 0.161458 0.162109 0.162760 0.163411 0.164062 0.164714 0.165365 0.166016 0.166667 0.167318 0.167969 0.168620 0.169271 0.169922 0.170573 0.171224 0.171875 0.172526 0.173177 0.173828 0.174479 0.175130 0.175781 0.176432 0.177083 0.177734 0.178385 0.179036 0.179688 0.180339 0.180990 0.181641 0.182292 0.182943 0.183594 0.184245 0.184896 0.185547 0.186198 0.186849 0.187500 0.188151 0.188802 0.189453 0.190104 0.190755 0.191406 0.192057 0.192708 0.193359 0.194010 0.194661 0.195312 0.195964 0.196615 0.197266 0.197917 0.198568 0.199219 0.199870 0.200521 0.201172 0.201823 0.202474 0.203125 0.203776 0.204427 0.205078 0.205729 0.206380 0.207031 0.207682 0.208333 0.208984 0.209635 0.210286 0.210938 0.211589 0.212240 0.212891 0.213542 0.214193 0.214844 0.215495 0.216146 0.216797 0.217448 0.218099 0.218750 0.219401 0.220052 0.220703 0.221354 0.222005 0.222656 0.223307 0.223958 0.224609 0.225260 0.225911 0.226562 0.227214 0.227865 0.228516 0.229167 0.229818 0.230469 0.231120 0.231771 0.232422 0.233073 0.233724 0.234375 0.235026 0.235677
       0.35570        0.35570        0.35570        0.35570        0.35570        0.35570        0.35570        0.35570        0.35570        0.35570        0.35570        0.35570        0.35570        0.35570        0.35570        0.35570        0.35570        0.35570        0.35570        0.35570        0.35570        0.35570        0.35570        0.35570        0.35570        0.35570        0.35570        0.35570        0.35570        0.35570        0.35570        0.35570        0.35570        0.35570        0.35570        0.35570        0.35570        0.35570        0.35570        0.35570        0.35570        0.35570        0.35570        0.35570        0.35570        0.35570        0.35570        0.35570        0.35570        0.35570        0.35570        0.43621        0.63701        0.31570        0.15538       -0.01620       -0.25806       -0.07598       -0.15992       -0.17310        0.02111       -0.11479       -0.11219       -0.04796       -0.02847       -0.12174       -0.15330       -0.29932       -0.42460       -0.51572       -0.46807       -0.37471       -0.28344       -0.42165       -0.32950       -0.44041       -0.35710       -0.40657       -0.23566       -0.22512       -0.26470       -0.11651       -0.07020       -0.04956        0.08280        0.03595        0.20411        0.20494        0.33058        0.37793        0.48318        0.51307        0.56088        0.61080        0.70269        0.59936        0.56115        0.51529        0.50825        0.59371        0.49853        0.45881        0.41449        0.32689        0.28810        0.30649        0.29922        0.20239        0.18470        0.07201        0.12833        0.12312        0.12960        0.11642        0.16576        0.22963        0.30178        0.29661        0.32668        0.46975        0.45955        0.49632        0.64091        0.63972        0.57436        0.57675        0.58581        0.45069        0.48374        0.37884        0.33324        0.29474        0.23589        0.23932        0.20402        0.16694        0.18155        0.23699        0.24434        0.27535        0.33733        0.35540        0.39917        0.47848        0.49251        0.47252        0.47685        0.57038        0.49928        0.50032        0.45159        0.37709        0.34784        0.26666        0.29697        0.23236        0.22839        0.27707        0.22484        0.24500        0.32227        0.39405        0.41946        0.46599        0.44716        0.51162        0.49401        0.46774        0.42391        0.40810        0.38009        0.38186        0.40189        0.37873        0.28198        0.32215        0.29160        0.29475        0.29988        0.35405        0.38779        0.41283        0.46175        0.49496        0.44335        0.43331        0.45244        0.40465        0.35570        0.37754        0.32992        0.33811        0.31732        0.32801        0.29955        0.34052        0.35520        0.39465        0.43713        0.43700        0.41757        0.39764        0.38462        0.38773        0.30395        0.32344        0.35236        0.28327        0.33415        0.31999        0.34073        0.35456        0.35097        0.37911        0.38864        0.46205        0.39190        0.35936        0.37059        0.32557        0.33004        0.34015        0.32881        0.35943        0.33488        0.35986        0.34896        0.40298        0.37613        0.38724        0.41292        0.39682        0.35733        0.34188        0.34446        0.31639        0.36395        0.33086        0.34025        0.35390        0.37664        0.34232        0.35211        0.34097        0.30137        0.29523        0.28447        0.31570        0.35176        0.35214        0.34202        0.31511        0.36250        0.34619        0.34172        0.31809        0.33135        0.34660        0.32898        0.30769        0.35674        0.33936        0.33823        0.31600        0.33106        0.35652        0.33293        0.31112        0.33052        0.30004        0.30445        0.35925        0.33241        0.32639        0.36492        0.32474        0.32725        0.36842        0.34373        0.29109        0.29656        0.27527        0.33471        0.34409        0.35326        0.31983        0.30253        0.34174        0.32217        0.28625        0.32422        0.33434        0.33521        0.35034        0.31534        0.28537        0.32893        0.31680        0.35277        0.32616        0.29614        0.35587        0.38295        0.39223        0.31552        0.34648        0.31901        0.33193        0.29392        0.34781        0.33280        0.25445        0.28870        0.36225        0.33306        0.32480        0.30445        0.34214        0.31573        0.29883        0.29353        0.31672        0.30646        0.26251        0.26005        0.29798        0.33187        0.28740        0.28573        0.30984        0.32606        0.28128        0.34819        0.31014        0.30603        0.30050        0.24929        0.31237        0.28946        0.24994        0.21528        0.20797        0.21757        0.23563        0.30265        0.26906        0.34844        0.28338        0.30382        0.28405        0.22456        0.27254        0.29436        0.23767        0.17276        0.23330        0.31893        0.44766        0.36250       -0.05109        0.03347       -0.41655       -0.70957
2.924278 2.892515 2.860928 2.829514 2.798275 2.767211 2.736321 2.705605 2.675064 2.644697 2.614505 2.584488 2.554644 2.524975 2.495481 2.466161 2.437016 2.408045 2.379248 2.350626 2.322178 2.293905 2.265806 2.237882 2.210132 2.182557 2.155156 2.127929 2.100877 2.074000 2.047297 2.020768 1.994414 1.968234 1.942229 1.916398 1.890742 1.865260 1.839952 1.814819 1.789861 1.765076 1.740467 1.716032 1.691771 1.667685 1.643773 1.620035 1.596472 1.573084 1.549870 1.534966 1.897353 1.664059 1.008018 1.105688 0.436864 0.908870 0.539925 0.691632 0.877039 0.686310 0.579627 0.760082 0.711498 0.609508 0.539283 0.329341 0.075923 -0.011598 -0.019911 -0.023169 0.370714 -0.045240 0.094419 -0.036704 0.033294 -0.057576 0.158475 0.152008 0.078511 0.236295 0.334037 0.281037 0.468977 0.386956 0.652281 0.535471 0.780956 0.737792 0.891291 1.025519 0.932798 1.088183 1.106649 1.148350 0.955989 0.866363 0.869357 0.929719 0.832947 0.766424 0.656603 0.566649 0.483712 0.466901 0.474707 0.305619 0.314406 0.137726 0.117200 0.167084 0.142190 0.092209 0.148047 0.203037 0.327155 0.316478 0.368501 0.384844 0.575755 0.389743 0.674144 0.802252 0.619757 0.624909 0.648013 0.452266 0.404070 0.381823 0.212124 0.227929 0.044943 0.126973 -0.006174 0.004369 -0.061218 -0.011054 0.083392 0.032377 0.095425 0.180748 0.217049 0.246508 0.361100 0.292957 0.342046 0.411490 0.372664 0.341173 0.293959 0.223152 0.126265 0.058355 -0.020261 -0.007946 -0.113828 0.003108 -0.018231 -0.093127 -0.062007 0.086370 0.212793 0.177119 0.244787 0.202080 0.355822 0.247652 0.237156 0.250865 0.130588 0.095559 0.235647 0.096723 0.064476 0.012417 0.064579 -0.026976 0.050764 -0.007427 0.159332 0.084697 0.160977 0.270301 0.259948 0.105655 0.183878 0.159261 0.110435 0.064503 0.062647 0.033555 0.003103 0.020947 -0.023701 -0.051306 0.081237 0.020664 0.121519 0.156159 0.119503 0.049530 0.054797 0.071872 -0.001160 -0.094926 -0.008729 -0.020592 -0.083962 -0.028742 -0.044919 0.019610 -0.024551 0.002541 0.066424 0.105465 0.165071 -0.005990 0.051342 0.030706 -0.059379 0.007438 -0.008253 -0.011814 0.056991 -0.006769 0.005468 0.047079 0.083779 0.073119 0.088138 0.141689 0.042610 0.049311 0.018404 0.015511 -0.006350 0.068195 0.008534 0.027603 0.064158 0.029068 0.020721 0.053040 0.011330 -0.031176 -0.041746 -0.044533 0.001396 0.066453 0.065570 0.024878 -0.016975 0.096710 0.058116 0.067687 0.028064 0.038834 0.067400 0.021550 0.040851 0.084251 0.050848 0.039056 0.044696 0.019089 0.097472 0.043416 0.035907 0.050398 -0.029836 0.029445 0.096587 0.050563 0.041755 0.109575 0.016415 0.011196 0.071360 0.009601 -0.012644 -0.061785 -0.070805 0.044706 0.040612 0.006269 -0.000152 -0.039876 0.031462 -0.065693 -0.041001 -0.005372 0.019513 0.026421 0.012464 -0.051173 -0.037287 -0.019526 -0.027613 -0.045376 -0.013703 -0.062988 0.039686 0.063419 0.030157 -0.052124 -0.036154 -0.013705 -0.031344 -0.088764 -0.031923 -0.018577 -0.145539 -0.067320 0.055218 -0.048547 -0.036565 -0.053098 0.069076 -0.031856 -0.012338 -0.040335 0.050179 -0.037829 -0.034775 -0.050599 -0.002586 0.148682 0.074358 0.084769 0.078987 0.191010 0.020131 0.203302 0.098799 0.071763 0.127208 -0.025672 0.168217 0.016854 -0.007407 -0.068863 -0.050789 -0.043821 -0.205333 0.081292 -0.008194 0.082302 -0.113832 0.039574 -0.119979 -0.191439 -0.080498 -0.024425 0.344818 0.230611 0.310437 0.531442 0.666997 0.526947 -0.335302 0.051546 -0.965315
0.072396 0.072908 0.074444 0.077003 0.080584 0.085188 0.090811 0.097454 0.105113 0.113786 0.123469 0.134158 0.145846 0.158528 0.172195 0.186838 0.202444 0.219001 0.236493 0.254901 0.274204 0.294379 0.315397 0.337229 0.359839 0.383187 0.407231 0.431922 0.457207 0.483026 0.509316 0.536006 0.563018 0.590272 0.617675 0.645134 0.672543 0.699792 0.726765 0.753337 0.779376 0.804743 0.829294 0.852876 0.875332 0.896499 0.916207 0.934283 0.950550 0.964828 0.976934 0.986687 0.993902 0.998399 0.999999 0.998528 0.993820 0.985714 0.974063 0.958727 0.939584 0.916526 0.889467 0.858337 0.823093 0.783716 0.740215 0.692629 0.641029 0.585520 0.526245 0.463384 0.397155 0.327817 0.255673 0.181064 0.104377 0.026036 0.053490 0.133695 0.214036 0.293933 0.372777 0.449930 0.524732 0.596506 0.664562 0.728206 0.786747 0.839502 0.885812 0.925039 0.956589 0.979912 0.994514 0.999970 0.995931 0.982137 0.958421 0.924722 0.881092 0.827703 0.764852 0.692965 0.612603 0.524459 0.429358 0.328258 0.222238 0.112494 0.000329 0.112859 0.225598 0.336351 0.443543 0.545582 0.640881 0.727886 0.805103 0.871126 0.924667 0.964582 0.989904 0.999864 0.993923 0.971788 0.933434 0.879121 0.809402 0.725133 0.627465 0.517848 0.398011 0.269944 0.135874 0.001771 0.140397 0.277299 0.409701 0.534823 0.649934 0.752416 0.839832 0.909986 0.960989 0.991313 0.999848 0.985949 0.949473 0.890806 0.810879 0.711171 0.593698 0.460984 0.316022 0.162218 0.003316 0.156685 0.313626 0.463297 0.601550 0.724422 0.828250 0.909793 0.966345 0.995834 0.996915 0.969039 0.912506 0.828488 0.719031 0.587032 0.436173 0.270842 0.096020 0.082864 0.260087 0.429818 0.586310 0.724100 0.838208 0.924329 0.979018 0.999840 0.985501 0.935938 0.852367 0.737290 0.594448 0.428727 0.246007 0.052982 0.143077 0.334593 0.513967 0.673889 0.807643 0.909405 0.974524 0.999748 0.983422 0.925607 0.828147 0.694645 0.530365 0.342062 0.137722 0.073747 0.282899 0.480165 0.656294 0.802801 0.912390 0.979350 0.999879 0.972335 0.897388 0.778062 0.619659 0.429568 0.216957 0.007651 0.232865 0.447011 0.638730 0.797596 0.914705 0.983208 0.998749 0.959781 0.867740 0.727057 0.544999 0.331341 0.097877 0.142199 0.375027 0.586878 0.764969 0.898270 0.978212 0.999288 0.959479 0.860484 0.707718 0.510083 0.279499 0.030233 0.221961 0.460815 0.670608 0.837215 0.949091 0.998124 0.980274 0.895962 0.750171 0.552216 0.315223 0.055313 0.209476 0.460400 0.679351 0.850185 0.959951 0.999922 0.966370 0.860959 0.690773 0.467926 0.208750 0.067324 0.339206 0.585744 0.787380 0.927746 0.995037 0.983090 0.892011 0.728336 0.504655 0.238718 0.047899 0.331513 0.588274 0.796188 0.937033 0.998037 0.973103 0.863512 0.677983 0.432093 0.147049 0.152078 0.438520 0.686205 0.872156 0.978684 0.995148 0.919120 0.756797 0.522628 0.238127 0.070026 0.372434 0.639773 0.845660 0.969314 0.997738 0.927188 0.763766 0.523027 0.228600 0.090024 0.400404 0.670436 0.871700 0.982521 0.990401 0.893545 0.701294 0.433356 0.117913 0.211255 0.518363 0.769488 0.936379 0.999725 0.951502 0.796132 0.550228 0.240982 0.096761 0.424333 0.703683 0.901808 0.994755 0.970631 0.831271 0.592306 0.281559 0.064067 0.402881 0.693434 0.899600 0.995171 0.967323 0.818480 0.566332 0.241886 0.114205 0.456671 0.741341 0.930915 0.999939 0.938378 0.753247 0.468007 0.119764 0.245419 0.578573 0.834395 0.977470
1.000000 1.000000 1.000000 1.000000 1.000000 1.000000 1.000000 1.000000 1.000000 1.000000 1.000000 1.000000 1.000000 1.000000 1.000000 1.000000 1.000000 1.000000 1.000000 1.000000 1.000000 1.000000 1.000000 1.000000 1.000000 1.000000 1.000000 1.000000 1.000000 1.000000 1.000000 1.000000 1.000000 1.000000 1.000000 1.000000 1.000000 1.000000 1.000000 1.000000 1.000000 1.000000 1.000000 1.000000 1.000000 1.000000 1.000000 1.000000 1.000000 1.000000 1.000000 1.000000 0.848012 0.848012 0.848012 0.854981 0.854981 0.854981 0.854981 0.854981 0.854981 0.854981 0.854981 0.854981 0.854981 0.854981 0.854981 0.854981 0.854981 0.854981 0.854981 0.854981 0.854981 0.854981 0.854981 0.854981 0.854981 0.854981 0.854981 0.854981 0.854981 0.854981 0.854981 0.854981 0.854981 0.854981 0.854981 0.854981 0.854981 0.854981 0.854981 0.854981 0.854981 0.854981 0.854981 0.854981 0.866845 0.871182 0.873306 0.875498 0.877064 0.874119 0.873014 0.872766 0.872941 0.874405 0.885288 0.909703 0.921224 0.929962 0.937517 0.939245 0.944688 0.944646 0.953704 0.961040 0.960266 0.959029 0.958667 0.960740 0.945403 0.943491 0.938888 0.934410 0.962688 0.944809 0.941905 0.934731 0.928191 0.926648 0.926562 0.925882 0.926337 0.926821 0.928097 0.926817 0.924151 0.924031 0.923507 0.920007 0.903757 0.900917 0.900439 0.899021 0.886021 0.880615 0.880183 0.880051 0.870906 0.871389 0.871251 0.872467 0.873335 0.873770 0.854268 0.850794 0.848211 0.844977 0.843616 0.843572 0.844548 0.849275 0.851910 0.841913 0.812452 0.804435 0.788177 0.750796 0.739359 0.748889 0.750977 0.745816 0.744203 0.742821 0.740670 0.739977 0.738210 0.733099 0.732153 0.726431 0.712749 0.706220 0.685442 0.666046 0.675679 0.634401 0.655338 0.664591 0.664806 0.652442 0.653689 0.654484 0.664188 0.653900 0.650150 0.641055 0.632629 0.612171 0.590898 0.584807 0.616902 0.628652 0.619214 0.600828 0.623010 0.618987 0.620292 0.631927 0.642098 0.640441 0.629142 0.595157 0.560346 0.576510 0.592139 0.591046 0.591028 0.593105 0.603889 0.625944 0.621150 0.574480 0.557930 0.559080 0.549332 0.564090 0.576781 0.577147 0.549067 0.537325 0.516553 0.535143 0.539133 0.518942 0.508989 0.499810 0.488558 0.459413 0.469658 0.471592 0.471235 0.485316 0.484018 0.458005 0.454006 0.444431 0.446978 0.447198 0.449475 0.459649 0.441109 0.438893 0.447450 0.469878 0.480322 0.462928 0.459415 0.457194 0.456646 0.428981 0.448677 0.417459 0.413927 0.389312 0.316265 0.242444 0.255846 0.258005 0.228945 0.210030 0.177319 0.146041 0.125066 0.116675 0.098061 0.017167 -0.046219 -0.056089 -0.053305 -0.046643 -0.040356 -0.032869 -0.066224 -0.072350 -0.041328 -0.023932 -0.046390 -0.041399 -0.120377 -0.110348 -0.114583 -0.068542 -0.066132 -0.054314 -0.062988 -0.086770 -0.056578 -0.048492 -0.070067 -0.092283 -0.112751 -0.094866 -0.090009 -0.122223 -0.101032 -0.114402 -0.121538 -0.158792 -0.130901 -0.111084 -0.113382 -0.146410 -0.185640 -0.165378 -0.164074 -0.185185 -0.158248 -0.140558 -0.116416 -0.175920 -0.136499 -0.118921 -0.112589 -0.058568 -0.029085 -0.028825 -0.031367 -0.025431 0.003578 0.017977 0.025003 0.021523 0.030407 0.016768 -0.034628 -0.034628 -0.034628 -0.049221 -0.049221 -0.049221 -0.049221 -0.049221 -0.049221 -0.049221 -0.049221 -0.049221 -0.061513 -0.061513 -0.061513 -0.061513 -0.061513 -0.061513 -0.061513 -0.061513 -0.061513 -0.061513 -0.061513 -0.061513 -0.061513 -0.061513 -0.061513 -0.061513 -0.061513
0.000000 0.000000 0.000000 0.000000 0.000000 0.000000 0.000000 0.000000 0.000000 0.000000 0.000000 0.000000 0.000000 0.000000 0.000000 0.000000 0.000000 0.000000 0.000000 0.000000 0.000000 0.000000 0.000000 0.000000 0.000000 0.000000 0.000000 0.000000 0.000000 0.000000 0.000000 0.000000 0.000000 0.000000 0.000000 0.000000 0.000000 0.000000 0.000000 0.000000 0.000000 0.000000 0.000000 0.000000 0.000000 0.000000 0.000000 0.000000 0.000000 0.000000 0.000000 0.000000 0.180334 0.180334 0.180334 0.199007 0.199007 0.199007 0.199007 0.199007 0.199007 0.199007 0.199007 0.199007 0.199007 0.199007 0.199007 0.199007 0.199007 0.199007 0.199007 0.199007 0.199007 0.199007 0.199007 0.199007 0.199007 0.199007 0.199007 0.199007 0.199007 0.199007 0.199007 0.199007 0.199007 0.199007 0.199007 0.199007 0.199007 0.199007 0.199007 0.199007 0.199007 0.199007 0.199007 0.199007 0.230940 0.230940 0.230940 0.230940 0.230940 0.230940 0.230940 0.230940 0.230940 0.230940 0.230940 0.230940 0.230940 0.230940 0.230940 0.230940 0.230940 0.230940 0.230940 0.230940 0.230940 0.230940 0.230940 0.230940 0.230940 0.230940 0.230940 0.230940 0.248069 0.248069 0.248069 0.248069 0.248069 0.248069 0.248069 0.248069 0.248069 0.248069 0.248069 0.248069 0.248069 0.248069 0.248069 0.248069 0.248069 0.248069 0.248069 0.248069 0.248069 0.248069 0.251976 0.251976 0.251976 0.251976 0.251976 0.251976 0.251976 0.251976 0.251976 0.251976 0.251976 0.251976 0.251976 0.251976 0.251976 0.251976 0.251976 0.251976 0.251976 0.251976 0.256074 0.256074 0.256074 0.256074 0.256074 0.256074 0.256074 0.256074 0.256074 0.256074 0.256074 0.256074 0.256074 0.256074 0.256074 0.256074 0.256074 0.256074 0.264906 0.264906 0.264906 0.264906 0.264906 0.264906 0.264906 0.264906 0.264906 0.264906 0.264906 0.264906 0.264906 0.264906 0.264906 0.264906 0.269680 0.269680 0.269680 0.269680 0.269680 0.269680 0.269680 0.269680 0.269680 0.269680 0.269680 0.269680 0.269680 0.269680 0.264906 0.264906 0.264906 0.264906 0.264906 0.264906 0.264906 0.264906 0.264906 0.264906 0.264906 0.264906 0.264906 0.264906 0.264906 0.264906 0.264906 0.264906 0.264906 0.264906 0.264906 0.264906 0.264906 0.264906 0.264906 0.264906 0.264906 0.260378 0.260378 0.260378 0.260378 0.260378 0.260378 0.260378 0.260378 0.260378 0.260378 0.260378 0.260378 0.260378 0.264906 0.264906 0.264906 0.264906 0.264906 0.264906 0.264906 0.264906 0.264906 0.264906 0.264906 0.264906 0.269680 0.269680 0.269680 0.269680 0.269680 0.269680 0.269680 0.269680 0.269680 0.269680 0.269680 0.264906 0.264906 0.264906 0.264906 0.264906 0.264906 0.264906 0.264906 0.264906 0.264906 0.264906 0.269680 0.269680 0.269680 0.269680 0.269680 0.269680 0.269680 0.269680 0.269680 0.269680 0.264906 0.264906 0.264906 0.264906 0.264906 0.264906 0.264906 0.264906 0.264906 0.264906 0.260378 0.260378 0.260378 0.260378 0.260378 0.260378 0.260378 0.260378 0.260378 0.260378 0.256074 0.256074 0.256074 0.256074 0.256074 0.256074 0.256074 0.256074 0.256074 0.256074 0.260378 0.260378 0.260378 0.260378 0.260378 0.260378 0.260378 0.260378 0.260378 0.256074 0.256074 0.256074 0.256074 0.256074 0.256074 0.256074 0.256074 0.256074 0.251976 0.251976 0.251976 0.251976 0.251976 0.251976 0.251976 0.251976 0.251976 0.251976 0.251976 0.251976 0.251976 0.251976 0.251976 0.251976 0.251976
