# Output from CTFFind version 4.1.9, run on 2019-11-03 19:25:23
# Input file: stack16_bm3d_averaged_1_3.75_0_250_half.mrc ; Number of micrographs: 1
# Pixel size: 3.000 Angstroms ; acceleration voltage: 300.0 keV ; spherical aberration: 0.00 mm ; amplitude contrast: 0.07
# Box size: 512 pixels ; min. res.: 30.0 Angstroms ; max. res.: 5.0 Angstroms ; min. def.: 5000.0 um; max. def. 50000.0 um; num. frames averaged: 1
# 6 lines per micrograph: #1 - spatial frequency (1/Angstroms); #2 - 1D rotational average of spectrum (assuming no astigmatism); #3 - 1D rotational average of spectrum; #4 - CTF fit; #5 - cross-correlation between spectrum and CTF fit; #6 - 2sigma of expected cross correlation of noise
0.000000 0.000651 0.001302 0.001953 0.002604 0.003255 0.003906 0.004557 0.005208 0.005859 0.006510 0.007161 0.007812 0.008464 0.009115 0.009766 0.010417 0.011068 0.011719 0.012370 0.013021 0.013672 0.014323 0.014974 0.015625 0.016276 0.016927 0.017578 0.018229 0.018880 0.019531 0.020182 0.020833 0.021484 0.022135 0.022786 0.023438 0.024089 0.024740 0.025391 0.026042 0.026693 0.027344 0.027995 0.028646 0.029297 0.029948 0.030599 0.031250 0.031901 0.032552 0.033203 0.033854 0.034505 0.035156 0.035807 0.036458 0.037109 0.037760 0.038411 0.039062 0.039714 0.040365 0.041016 0.041667 0.042318 0.042969 0.043620 0.044271 0.044922 0.045573 0.046224 0.046875 0.047526 0.048177 0.048828 0.049479 0.050130 0.050781 0.051432 0.052083 0.052734 0.053385 0.054036 0.054688 0.055339 0.055990 0.056641 0.057292 0.057943 0.058594 0.059245 0.059896 0.060547 0.061198 0.061849 0.062500 0.063151 0.063802 0.064453 0.065104 0.065755 0.066406 0.067057 0.067708 0.068359 0.069010 0.069661 0.070312 0.070964 0.071615 0.072266 0.072917 0.073568 0.074219 0.074870 0.075521 0.076172 0.076823 0.077474 0.078125 0.078776 0.079427 0.080078 0.080729 0.081380 0.082031 0.082682 0.083333 0.083984 0.084635 0.085286 0.085938 0.086589 0.087240 0.087891 0.088542 0.089193 0.089844 0.090495 0.091146 0.091797 0.092448 0.093099 0.093750 0.094401 0.095052 0.095703 0.096354 0.097005 0.097656 0.098307 0.098958 0.099609 0.100260 0.100911 0.101562 0.102214 0.102865 0.103516 0.104167 0.104818 0.105469 0.106120 0.106771 0.107422 0.108073 0.108724 0.109375 0.110026 0.110677 0.111328 0.111979 0.112630 0.113281 0.113932 0.114583 0.115234 0.115885 0.116536 0.117188 0.117839 0.118490 0.119141 0.119792 0.120443 0.121094 0.121745 0.122396 0.123047 0.123698 0.124349 0.125000 0.125651 0.126302 0.126953 0.127604 0.128255 0.128906 0.129557 0.130208 0.130859 0.131510 0.132161 0.132812 0.133464 0.134115 0.134766 0.135417 0.136068 0.136719 0.137370 0.138021 0.138672 0.139323 0.139974 0.140625 0.141276 0.141927 0.142578 0.143229 0.143880 0.144531 0.145182 0.145833 0.146484 0.147135 0.147786 0.148438 0.149089 0.149740 0.150391 0.151042 0.151693 0.152344 0.152995 0.153646 0.154297 0.154948 0.155599 0.156250 0.156901 0.157552 0.158203 0.158854 0.159505 0.160156 0.160807 0.161458 0.162109 0.162760 0.163411 0.164062 0.164714 0.165365 0.166016 0.166667 0.167318 0.167969 0.168620 0.169271 0.169922 0.170573 0.171224 0.171875 0.172526 0.173177 0.173828 0.174479 0.175130 0.175781 0.176432 0.177083 0.177734 0.178385 0.179036 0.179688 0.180339 0.180990 0.181641 0.182292 0.182943 0.183594 0.184245 0.184896 0.185547 0.186198 0.186849 0.187500 0.188151 0.188802 0.189453 0.190104 0.190755 0.191406 0.192057 0.192708 0.193359 0.194010 0.194661 0.195312 0.195964 0.196615 0.197266 0.197917 0.198568 0.199219 0.199870 0.200521 0.201172 0.201823 0.202474 0.203125 0.203776 0.204427 0.205078 0.205729 0.206380 0.207031 0.207682 0.208333 0.208984 0.209635 0.210286 0.210938 0.211589 0.212240 0.212891 0.213542 0.214193 0.214844 0.215495 0.216146 0.216797 0.217448 0.218099 0.218750 0.219401 0.220052 0.220703 0.221354 0.222005 0.222656 0.223307 0.223958 0.224609 0.225260 0.225911 0.226562 0.227214 0.227865 0.228516 0.229167 0.229818 0.230469 0.231120 0.231771 0.232422 0.233073 0.233724 0.234375 0.235026 0.235677
       0.33573        0.33573        0.33573        0.33573        0.33573        0.33573        0.33573        0.33573        0.33573        0.33573        0.33573        0.33573        0.33573        0.33573        0.33573        0.33573        0.33573        0.33573        0.33573        0.33573        0.33573        0.33573        0.33573        0.33573        0.33573        0.33573        0.33573        0.33573        0.33573        0.33573        0.33573        0.33573        0.33573        0.33573        0.33573        0.33573        0.33573        0.33573        0.33573        0.33573        0.33573        0.33573        0.33573        0.33573        0.33573        0.33573        0.33573        0.33573        0.33573        0.33573        0.33573        0.42436        0.56925        0.35678       -0.19174       -0.45219       -0.55697       -0.65564       -0.72631       -0.74622       -0.85196       -0.91118       -0.70909       -0.87269       -0.84512       -0.99235       -1.03202       -0.91751       -0.87511       -0.81806       -0.74754       -0.66891       -0.58365       -0.49113       -0.41935       -0.19429       -0.08480        0.00962        0.23877        0.24505        0.30312        0.36719        0.39620        0.50289        0.54205        0.57455        0.53741        0.47829        0.51264        0.50473        0.42810        0.32095        0.19117        0.16894        0.10303       -0.02389       -0.04091       -0.04474        0.03444       -0.00484        0.05259        0.03162        0.14544        0.18770        0.40519        0.45866        0.55705        0.65871        0.69730        0.72193        0.64582        0.61954        0.53209        0.44291        0.38036        0.26199        0.20605        0.19372        0.07914        0.07245        0.05834        0.06599        0.08160        0.29672        0.40892        0.51172        0.54354        0.58181        0.61936        0.59470        0.59240        0.58983        0.56676        0.46998        0.28746        0.24794        0.22323        0.12198        0.07071        0.13105        0.15897        0.27082        0.35052        0.40998        0.47436        0.53847        0.60843        0.55635        0.51257        0.49782        0.35759        0.23746        0.22982        0.15851        0.14927        0.19951        0.24400        0.26408        0.31135        0.41595        0.43839        0.50526        0.45919        0.45363        0.47338        0.37649        0.31937        0.27356        0.23387        0.21104        0.21818        0.23054        0.32181        0.42652        0.41660        0.48877        0.54926        0.45278        0.41772        0.35736        0.30441        0.24698        0.25182        0.26878        0.28240        0.31835        0.33397        0.41191        0.46834        0.43813        0.45277        0.35397        0.37056        0.34967        0.23975        0.22888        0.23188        0.29467        0.35878        0.36582        0.38994        0.43386        0.43126        0.36692        0.34146        0.31321        0.33657        0.29630        0.27507        0.26794        0.32562        0.35886        0.37346        0.39862        0.37421        0.40241        0.38026        0.29544        0.27769        0.30753        0.33344        0.35660        0.35828        0.40819        0.33787        0.36885        0.38197        0.32274        0.34431        0.29389        0.29143        0.33858        0.32412        0.31753        0.33381        0.35683        0.31719        0.33394        0.29595        0.30454        0.27900        0.29749        0.29379        0.33447        0.37291        0.35808        0.34067        0.29119        0.27955        0.28250        0.31951        0.29257        0.30489        0.35766        0.36960        0.33495        0.30363        0.30773        0.30341        0.27027        0.28449        0.28909        0.31733        0.34438        0.32161        0.28341        0.32522        0.30624        0.29683        0.34898        0.33656        0.30906        0.33119        0.29285        0.32151        0.28060        0.30208        0.29275        0.31243        0.38118        0.32947        0.34180        0.30585        0.30821        0.31661        0.31795        0.28808        0.29009        0.32588        0.31795        0.32034        0.30798        0.30878        0.29227        0.29459        0.31628        0.33041        0.32354        0.32911        0.32584        0.28405        0.27014        0.27309        0.26637        0.35009        0.31634        0.36073        0.29822        0.27133        0.28831        0.35007        0.30639        0.28626        0.27545        0.30958        0.27918        0.25865        0.30471        0.27010        0.27010        0.30834        0.30589        0.33456        0.33526        0.29818        0.25965        0.24812        0.24732        0.26544        0.28400        0.32315        0.27679        0.20553        0.28803        0.27170        0.28911        0.23172        0.30776        0.29736        0.30129        0.26798        0.26924        0.27343        0.23348        0.29172        0.32480        0.35609        0.25843        0.26684        0.22446        0.24347        0.21025        0.32489        0.22908        0.21847        0.13002        0.24708        0.24447        0.20925        0.11539        0.03316       -0.60092       -0.94959
3.048064 3.009935 2.972052 2.934415 2.897024 2.859879 2.822980 2.786327 2.749920 2.713759 2.677843 2.642174 2.606750 2.571572 2.536641 2.501955 2.467515 2.433321 2.399373 2.365671 2.332215 2.299005 2.266040 2.233322 2.200849 2.168623 2.136642 2.104907 2.073419 2.042176 2.011179 1.980428 1.949923 1.919663 1.889650 1.859883 1.830361 1.801086 1.772056 1.743273 1.714735 1.686443 1.658397 1.630597 1.603043 1.575735 1.548673 1.521856 1.495286 1.468962 1.442883 1.479236 1.580513 1.521594 0.852858 0.585550 0.437931 0.369779 0.281384 0.196582 0.153067 -0.062813 0.184299 0.046024 -0.049104 -0.124142 -0.247839 -0.163552 -0.079074 -0.095175 -0.094177 0.027902 0.018338 0.209296 0.096944 0.340325 0.451830 0.470915 0.747882 0.684605 0.679567 0.825414 0.796744 0.824576 0.917481 0.868392 0.896636 0.732209 0.808488 0.840308 0.670921 0.599052 0.440678 0.418099 0.360306 0.179762 0.174158 0.113950 0.213783 0.117613 0.216552 0.103059 0.234881 0.236089 0.467868 0.415375 0.598587 0.631748 0.663948 0.730671 0.650768 0.617199 0.473423 0.431789 0.313002 0.280519 0.111490 0.175997 -0.015328 0.028582 -0.037169 -0.037981 -0.030277 0.044528 0.294218 0.314862 0.393087 0.341303 0.422028 0.460891 0.434595 0.441156 0.377353 0.370934 0.146972 0.094340 0.069026 -0.001655 -0.144865 -0.036923 -0.075391 0.045784 0.111067 0.174250 0.255006 0.251842 0.345908 0.443056 0.328345 0.392792 0.275421 0.144778 0.061859 0.058497 0.010957 0.038484 0.075777 0.108838 0.118463 0.209042 0.251173 0.299628 0.327271 0.245518 0.269723 0.240307 0.114354 0.095770 0.041872 0.039561 0.008818 0.011515 0.046500 0.173229 0.197060 0.191357 0.334966 0.198912 0.233257 0.100295 0.091443 -0.001165 -0.007049 0.008266 0.014835 0.044095 0.052855 0.090518 0.162184 0.165002 0.213806 0.118085 0.080652 0.103440 0.039946 -0.075286 -0.027765 0.008318 0.049169 0.063853 0.085439 0.159300 0.121119 0.163860 0.042866 0.059828 0.049689 0.047534 0.022862 -0.012293 0.023815 0.040318 0.082884 0.105025 0.107090 0.106066 0.122833 0.066959 -0.000078 0.006263 0.026037 0.078117 0.057248 0.114285 0.115701 0.043739 0.104673 0.065967 0.036525 0.070004 -0.032818 0.028941 0.060084 0.029472 0.026900 0.108732 0.044648 0.046566 0.044449 0.005502 0.024067 -0.017055 0.022710 0.000858 0.078314 0.075685 0.056067 0.037785 -0.015129 -0.010647 -0.007136 0.029217 -0.000335 0.013754 0.076841 0.072374 -0.008550 0.017458 -0.000089 0.006381 -0.033717 -0.018180 -0.009003 0.035375 0.007320 0.019983 -0.013552 0.012554 -0.009270 0.000171 0.049560 0.024134 0.029843 -0.034900 0.006374 0.005345 -0.040946 -0.004689 -0.016667 0.030016 0.081882 0.016325 0.013248 0.009339 0.014921 0.004690 0.030798 -0.017031 -0.009617 0.033886 -0.003068 0.035142 0.007582 0.052198 -0.025571 -0.001617 0.032637 0.033677 0.027163 0.060320 0.016808 0.005256 0.000632 -0.027791 0.006562 0.069352 0.042770 0.065030 0.004578 -0.010159 -0.003338 0.085466 0.004734 0.020121 -0.013642 0.029882 -0.016155 -0.007598 0.009172 0.001179 -0.023871 0.029094 0.031987 0.078844 0.044038 0.019178 -0.007248 -0.035867 -0.033311 0.008355 0.002119 0.076579 -0.028776 -0.095649 0.035273 -0.018862 -0.076047 -0.069229 -0.002987 -0.036283 -0.040162 -0.070071 -0.043479 -0.042695 -0.098678 -0.009634 -0.000182 0.043732 -0.109404 -0.015613 -0.013734 -0.045910 -0.105057 0.110599 -0.002321 0.044385 -0.071873 0.275330 0.218350 0.207406 0.048283 0.036988 -0.888242
0.072396 0.073048 0.075001 0.078257 0.082814 0.088671 0.095824 0.104272 0.114010 0.125033 0.137335 0.150907 0.165738 0.181817 0.199128 0.217652 0.237367 0.258247 0.280261 0.303373 0.327543 0.352722 0.378858 0.405890 0.433748 0.462356 0.491628 0.521470 0.551777 0.582435 0.613318 0.644289 0.675203 0.705899 0.736207 0.765947 0.794925 0.822937 0.849767 0.875192 0.898977 0.920879 0.940649 0.958031 0.972764 0.984587 0.993237 0.998453 0.999979 0.997567 0.990978 0.979989 0.964392 0.944003 0.918661 0.888236 0.852629 0.811780 0.765673 0.714335 0.657845 0.596336 0.529997 0.459079 0.383898 0.304833 0.222333 0.136912 0.049155 0.040290 0.130707 0.221322 0.311303 0.399769 0.485794 0.568420 0.646664 0.719532 0.786029 0.845177 0.896028 0.937679 0.969295 0.990120 0.999500 0.996900 0.981922 0.954319 0.914017 0.861126 0.795949 0.719000 0.631002 0.532895 0.425838 0.311196 0.190536 0.065612 0.061658 0.189211 0.314876 0.436406 0.551516 0.657930 0.753428 0.835894 0.903370 0.954111 0.986631 0.999758 0.992682 0.964991 0.916710 0.848327 0.760812 0.655619 0.534685 0.400408 0.255613 0.103510 0.052373 0.208259 0.360216 0.504247 0.636404 0.752895 0.850208 0.925220 0.975318 0.998499 0.993468 0.959711 0.897561 0.808226 0.693801 0.557249 0.402345 0.233601 0.056146 0.124411 0.302153 0.471043 0.625133 0.758779 0.866864 0.945010 0.989776 0.998837 0.971122 0.906920 0.807934 0.677275 0.519411 0.340044 0.145938 0.055321 0.255596 0.446532 0.619899 0.767959 0.883831 0.961837 0.997809 0.989353 0.936032 0.839470 0.703372 0.533425 0.337119 0.123443 0.097488 0.314901 0.517877 0.695912 0.839475 0.940552 0.993127 0.993595 0.941045 0.837420 0.687529 0.498883 0.281381 0.046832 0.191647 0.420356 0.625786 0.795448 0.918654 0.987241 0.996165 0.943934 0.832836 0.668929 0.461792 0.224039 0.029404 0.282192 0.517610 0.719678 0.874268 0.970143 0.999834 0.960296 0.853283 0.685382 0.467713 0.215272 0.054043 0.320649 0.564696 0.767558 0.913288 0.989943 0.990639 0.914261 0.765740 0.555859 0.300574 0.019887 0.263669 0.526810 0.747421 0.906450 0.989642 0.988892 0.903153 0.738741 0.509015 0.233397 0.064160 0.357217 0.619161 0.825659 0.956969 0.999929 0.949395 0.808963 0.590889 0.315164 0.007793 0.301581 0.582499 0.806706 0.951051 0.999987 0.947373 0.797385 0.564363 0.271613 0.050807 0.369094 0.649212 0.860559 0.979404 0.991675 0.894778 0.698209 0.422810 0.098728 0.237774 0.548308 0.796761 0.953546 0.999271 0.927294 0.744857 0.472578 0.142318 0.206422 0.531136 0.791506 0.954478 0.998593 0.917002 0.718709 0.427820 0.080828 0.277855 0.601468 0.847057 0.981245 0.984949 0.856306 0.611347 0.282256 0.086667 0.444848 0.742331 0.936806 0.999785 0.920988 0.710246 0.396572 0.024404 0.352528 0.678896 0.905921 0.998817 0.942336 0.743529 0.431196 0.051969 0.336440 0.673969 0.907507 0.999407 0.933797 0.719598 0.389653 0.004016 0.398237 0.728738 0.940695 0.997993 0.889670 0.632296 0.267790 0.143134 0.530890 0.828815 0.984697 0.970192 0.786280 0.463739 0.058311 0.358655 0.712679 0.939473 0.996851 0.872850 0.588588 0.195047 0.235772 0.623826 0.895946 0.999758 0.914090 0.653665 0.266985 0.172330 0.579372 0.874320 0.998237 0.925177 0.667996 0.276566 0.171535 0.586150 0.882667 0.999463 0.911013 0.633915 0.224240 0.233410 0.643172 0.917993 0.998327 0.865411 0.546093 0.107902 0.354876 0.741278
1.000000 1.000000 1.000000 1.000000 1.000000 1.000000 1.000000 1.000000 1.000000 1.000000 1.000000 1.000000 1.000000 1.000000 1.000000 1.000000 1.000000 1.000000 1.000000 1.000000 1.000000 1.000000 1.000000 1.000000 1.000000 1.000000 1.000000 1.000000 1.000000 1.000000 1.000000 1.000000 1.000000 1.000000 1.000000 1.000000 1.000000 1.000000 1.000000 1.000000 1.000000 1.000000 1.000000 1.000000 1.000000 1.000000 1.000000 1.000000 1.000000 1.000000 1.000000 1.000000 0.935642 0.935642 0.935642 0.935642 0.935642 0.935642 0.935642 0.935642 0.935642 0.935642 0.935642 0.935642 0.935642 0.935642 0.935642 0.935642 0.935642 0.935642 0.935642 0.935642 0.935642 0.935642 0.935642 0.935642 0.935642 0.935642 0.935642 0.935642 0.935642 0.935642 0.935642 0.935642 0.935642 0.922743 0.920706 0.923499 0.924454 0.924350 0.923886 0.923615 0.923915 0.925383 0.927181 0.948508 0.950782 0.951376 0.952517 0.953963 0.956596 0.954992 0.959752 0.970471 0.969854 0.970720 0.965177 0.965919 0.965595 0.965053 0.966978 0.966610 0.965398 0.963959 0.962866 0.962577 0.962374 0.963895 0.964321 0.964634 0.964964 0.964933 0.964848 0.964854 0.965121 0.967426 0.966763 0.965886 0.971542 0.970510 0.972745 0.972744 0.973434 0.974199 0.974367 0.974501 0.969829 0.969122 0.968230 0.955307 0.949703 0.946680 0.948887 0.951336 0.948109 0.942946 0.941523 0.944505 0.937372 0.936941 0.926348 0.924727 0.906927 0.899218 0.889933 0.891056 0.892619 0.893456 0.890786 0.881167 0.869050 0.864180 0.867051 0.861385 0.857586 0.873829 0.869346 0.871208 0.874559 0.876797 0.882479 0.876886 0.872752 0.868706 0.864547 0.862071 0.864289 0.867051 0.870377 0.857683 0.849762 0.853108 0.845230 0.842880 0.848602 0.848380 0.841499 0.838358 0.839649 0.840307 0.836585 0.841677 0.828411 0.821939 0.822389 0.818493 0.815681 0.808762 0.808424 0.807817 0.810630 0.797813 0.802873 0.761907 0.774945 0.768059 0.778154 0.778627 0.770019 0.771372 0.751330 0.738491 0.734786 0.746901 0.758724 0.745267 0.742369 0.739442 0.714686 0.722460 0.731133 0.725374 0.717994 0.704234 0.714507 0.715975 0.718766 0.708236 0.690964 0.694519 0.706522 0.714782 0.691087 0.686857 0.679878 0.683551 0.683007 0.677920 0.684278 0.654581 0.642832 0.611187 0.615147 0.630778 0.626375 0.599844 0.581470 0.528817 0.528905 0.527542 0.525913 0.507512 0.515261 0.501600 0.506255 0.544461 0.536117 0.549151 0.556840 0.551357 0.549616 0.436096 0.443377 0.430619 0.429696 0.441433 0.432419 0.395160 0.407947 0.411219 0.424780 0.416701 0.398585 0.413822 0.404400 0.404702 0.420713 0.404276 0.396903 0.404984 0.418420 0.417778 0.406550 0.397314 0.405368 0.435261 0.375663 0.363700 0.381601 0.342138 0.340642 0.316506 0.330393 0.322473 0.339799 0.331299 0.339060 0.344954 0.308574 0.323278 0.308773 0.335246 0.344523 0.347389 0.325905 0.318696 0.329820 0.264643 0.265670 0.293517 0.294268 0.367597 0.315112 0.300574 0.210472 0.273250 0.248561 0.255460 0.216247 0.179172 0.165396 0.167471 0.142126 0.142733 0.134890 0.120860 0.094870 0.048721 0.049460 0.044373 0.053182 0.068830 0.035328 0.037364 0.037364 0.037364 0.037364 0.009546 0.009546 0.009546 0.009546 0.009546 0.009546 0.009546 0.009546 0.009546 0.009546 0.009546 0.009546 0.009546 0.009546 -0.101524 -0.101524 -0.101524 -0.101524 -0.101524 -0.101524 -0.101524 -0.101524 -0.101524 -0.101524 -0.101524 -0.101524
0.000000 0.000000 0.000000 0.000000 0.000000 0.000000 0.000000 0.000000 0.000000 0.000000 0.000000 0.000000 0.000000 0.000000 0.000000 0.000000 0.000000 0.000000 0.000000 0.000000 0.000000 0.000000 0.000000 0.000000 0.000000 0.000000 0.000000 0.000000 0.000000 0.000000 0.000000 0.000000 0.000000 0.000000 0.000000 0.000000 0.000000 0.000000 0.000000 0.000000 0.000000 0.000000 0.000000 0.000000 0.000000 0.000000 0.000000 0.000000 0.000000 0.000000 0.000000 0.000000 0.209657 0.209657 0.209657 0.209657 0.209657 0.209657 0.209657 0.209657 0.209657 0.209657 0.209657 0.209657 0.209657 0.209657 0.209657 0.209657 0.209657 0.209657 0.209657 0.209657 0.209657 0.209657 0.209657 0.209657 0.209657 0.209657 0.209657 0.209657 0.209657 0.209657 0.209657 0.209657 0.209657 0.244339 0.244339 0.244339 0.244339 0.244339 0.244339 0.244339 0.244339 0.244339 0.244339 0.244339 0.244339 0.244339 0.244339 0.244339 0.244339 0.244339 0.244339 0.244339 0.244339 0.244339 0.244339 0.244339 0.244339 0.244339 0.260378 0.260378 0.260378 0.260378 0.260378 0.260378 0.260378 0.260378 0.260378 0.260378 0.260378 0.260378 0.260378 0.260378 0.260378 0.260378 0.260378 0.260378 0.260378 0.260378 0.269680 0.269680 0.269680 0.269680 0.269680 0.269680 0.269680 0.269680 0.269680 0.269680 0.269680 0.269680 0.269680 0.269680 0.269680 0.269680 0.269680 0.269680 0.269680 0.269680 0.269680 0.269680 0.269680 0.269680 0.269680 0.269680 0.269680 0.269680 0.269680 0.269680 0.269680 0.269680 0.269680 0.280056 0.280056 0.280056 0.280056 0.280056 0.280056 0.280056 0.280056 0.280056 0.280056 0.280056 0.280056 0.280056 0.280056 0.280056 0.280056 0.280056 0.280056 0.280056 0.280056 0.280056 0.280056 0.280056 0.280056 0.280056 0.280056 0.280056 0.285714 0.285714 0.285714 0.285714 0.285714 0.285714 0.285714 0.285714 0.285714 0.285714 0.285714 0.285714 0.274721 0.274721 0.274721 0.274721 0.274721 0.274721 0.274721 0.274721 0.274721 0.274721 0.274721 0.274721 0.280056 0.280056 0.280056 0.280056 0.280056 0.280056 0.280056 0.280056 0.280056 0.280056 0.280056 0.285714 0.285714 0.285714 0.285714 0.285714 0.285714 0.285714 0.285714 0.285714 0.285714 0.280056 0.280056 0.280056 0.280056 0.280056 0.280056 0.280056 0.280056 0.280056 0.280056 0.274721 0.274721 0.274721 0.274721 0.274721 0.274721 0.274721 0.274721 0.274721 0.274721 0.280056 0.280056 0.280056 0.280056 0.280056 0.280056 0.280056 0.280056 0.280056 0.274721 0.274721 0.274721 0.274721 0.274721 0.274721 0.274721 0.274721 0.274721 0.269680 0.269680 0.269680 0.269680 0.269680 0.269680 0.269680 0.269680 0.269680 0.280056 0.280056 0.280056 0.280056 0.280056 0.280056 0.280056 0.280056 0.260378 0.260378 0.260378 0.260378 0.260378 0.260378 0.260378 0.260378 0.260378 0.269680 0.269680 0.269680 0.269680 0.269680 0.269680 0.269680 0.269680 0.285714 0.285714 0.285714 0.285714 0.285714 0.285714 0.285714 0.264906 0.264906 0.264906 0.264906 0.264906 0.264906 0.264906 0.264906 0.274721 0.274721 0.274721 0.274721 0.274721 0.274721 0.274721 0.256074 0.256074 0.256074 0.256074 0.256074 0.256074 0.256074 0.256074 0.264906 0.264906 0.264906 0.264906 0.264906 0.264906 0.264906 0.264906 0.264906 0.264906 0.264906 0.264906 0.264906 0.264906 0.280056 0.280056 0.280056 0.280056 0.280056 0.280056 0.280056 0.280056 0.280056 0.280056 0.280056 0.280056
