# Output from CTFFind version 4.1.9, run on 2019-11-03 19:00:07
# Input file: stack1_bm3d_averaged_1_2.25_0_1500_half.mrc ; Number of micrographs: 1
# Pixel size: 3.000 Angstroms ; acceleration voltage: 300.0 keV ; spherical aberration: 0.00 mm ; amplitude contrast: 0.07
# Box size: 512 pixels ; min. res.: 30.0 Angstroms ; max. res.: 5.0 Angstroms ; min. def.: 5000.0 um; max. def. 50000.0 um; num. frames averaged: 1
# 6 lines per micrograph: #1 - spatial frequency (1/Angstroms); #2 - 1D rotational average of spectrum (assuming no astigmatism); #3 - 1D rotational average of spectrum; #4 - CTF fit; #5 - cross-correlation between spectrum and CTF fit; #6 - 2sigma of expected cross correlation of noise
0.000000 0.000651 0.001302 0.001953 0.002604 0.003255 0.003906 0.004557 0.005208 0.005859 0.006510 0.007161 0.007812 0.008464 0.009115 0.009766 0.010417 0.011068 0.011719 0.012370 0.013021 0.013672 0.014323 0.014974 0.015625 0.016276 0.016927 0.017578 0.018229 0.018880 0.019531 0.020182 0.020833 0.021484 0.022135 0.022786 0.023438 0.024089 0.024740 0.025391 0.026042 0.026693 0.027344 0.027995 0.028646 0.029297 0.029948 0.030599 0.031250 0.031901 0.032552 0.033203 0.033854 0.034505 0.035156 0.035807 0.036458 0.037109 0.037760 0.038411 0.039062 0.039714 0.040365 0.041016 0.041667 0.042318 0.042969 0.043620 0.044271 0.044922 0.045573 0.046224 0.046875 0.047526 0.048177 0.048828 0.049479 0.050130 0.050781 0.051432 0.052083 0.052734 0.053385 0.054036 0.054688 0.055339 0.055990 0.056641 0.057292 0.057943 0.058594 0.059245 0.059896 0.060547 0.061198 0.061849 0.062500 0.063151 0.063802 0.064453 0.065104 0.065755 0.066406 0.067057 0.067708 0.068359 0.069010 0.069661 0.070312 0.070964 0.071615 0.072266 0.072917 0.073568 0.074219 0.074870 0.075521 0.076172 0.076823 0.077474 0.078125 0.078776 0.079427 0.080078 0.080729 0.081380 0.082031 0.082682 0.083333 0.083984 0.084635 0.085286 0.085938 0.086589 0.087240 0.087891 0.088542 0.089193 0.089844 0.090495 0.091146 0.091797 0.092448 0.093099 0.093750 0.094401 0.095052 0.095703 0.096354 0.097005 0.097656 0.098307 0.098958 0.099609 0.100260 0.100911 0.101562 0.102214 0.102865 0.103516 0.104167 0.104818 0.105469 0.106120 0.106771 0.107422 0.108073 0.108724 0.109375 0.110026 0.110677 0.111328 0.111979 0.112630 0.113281 0.113932 0.114583 0.115234 0.115885 0.116536 0.117188 0.117839 0.118490 0.119141 0.119792 0.120443 0.121094 0.121745 0.122396 0.123047 0.123698 0.124349 0.125000 0.125651 0.126302 0.126953 0.127604 0.128255 0.128906 0.129557 0.130208 0.130859 0.131510 0.132161 0.132812 0.133464 0.134115 0.134766 0.135417 0.136068 0.136719 0.137370 0.138021 0.138672 0.139323 0.139974 0.140625 0.141276 0.141927 0.142578 0.143229 0.143880 0.144531 0.145182 0.145833 0.146484 0.147135 0.147786 0.148438 0.149089 0.149740 0.150391 0.151042 0.151693 0.152344 0.152995 0.153646 0.154297 0.154948 0.155599 0.156250 0.156901 0.157552 0.158203 0.158854 0.159505 0.160156 0.160807 0.161458 0.162109 0.162760 0.163411 0.164062 0.164714 0.165365 0.166016 0.166667 0.167318 0.167969 0.168620 0.169271 0.169922 0.170573 0.171224 0.171875 0.172526 0.173177 0.173828 0.174479 0.175130 0.175781 0.176432 0.177083 0.177734 0.178385 0.179036 0.179688 0.180339 0.180990 0.181641 0.182292 0.182943 0.183594 0.184245 0.184896 0.185547 0.186198 0.186849 0.187500 0.188151 0.188802 0.189453 0.190104 0.190755 0.191406 0.192057 0.192708 0.193359 0.194010 0.194661 0.195312 0.195964 0.196615 0.197266 0.197917 0.198568 0.199219 0.199870 0.200521 0.201172 0.201823 0.202474 0.203125 0.203776 0.204427 0.205078 0.205729 0.206380 0.207031 0.207682 0.208333 0.208984 0.209635 0.210286 0.210938 0.211589 0.212240 0.212891 0.213542 0.214193 0.214844 0.215495 0.216146 0.216797 0.217448 0.218099 0.218750 0.219401 0.220052 0.220703 0.221354 0.222005 0.222656 0.223307 0.223958 0.224609 0.225260 0.225911 0.226562 0.227214 0.227865 0.228516 0.229167 0.229818 0.230469 0.231120 0.231771 0.232422 0.233073 0.233724 0.234375 0.235026 0.235677
       0.34024        0.34024        0.34024        0.34024        0.34024        0.34024        0.34024        0.34024        0.34024        0.34024        0.34024        0.34024        0.34024        0.34024        0.34024        0.34024        0.34024        0.34024        0.34024        0.34024        0.34024        0.34024        0.34024        0.34024        0.34024        0.34024        0.34024        0.34024        0.34024        0.34024        0.34024        0.34024        0.34024        0.34024        0.34024        0.34024        0.34024        0.34024        0.34024        0.34024        0.34024        0.34024        0.34024        0.34024        0.34024        0.34024        0.34024        0.34024        0.34024        0.34024        0.34024        0.50526        0.72248        0.42432        0.20072       -0.06586       -0.24877       -0.06169       -0.12181       -0.06489        0.00419       -0.14366       -0.10528       -0.03712        0.00711       -0.14741       -0.22015       -0.32926       -0.46490       -0.57609       -0.52452       -0.46118       -0.36837       -0.55678       -0.44721       -0.61225       -0.49948       -0.47235       -0.39792       -0.36938       -0.32248       -0.23266       -0.16207       -0.13335        0.03185       -0.01162        0.12130        0.17987        0.32565        0.43066        0.48523        0.51544        0.55549        0.56525        0.70704        0.65910        0.68712        0.59390        0.56620        0.65321        0.52948        0.45224        0.41494        0.30735        0.25355        0.27367        0.25845        0.10294        0.08721        0.00952       -0.00140        0.03065       -0.01256        0.07283        0.09581        0.22507        0.28976        0.29696        0.40682        0.57393        0.55386        0.57575        0.67343        0.68712        0.63593        0.65466        0.64733        0.54085        0.56882        0.40010        0.36498        0.27616        0.18786        0.08762        0.14839        0.11715        0.12159        0.13237        0.20995        0.19286        0.31978        0.35592        0.41134        0.50267        0.55649        0.55231        0.56172        0.61311        0.54439        0.48144        0.48723        0.32975        0.26398        0.26422        0.25374        0.15493        0.15510        0.15986        0.23304        0.27179        0.34360        0.38959        0.41586        0.45552        0.45201        0.48373        0.44464        0.48338        0.44696        0.39050        0.36786        0.37793        0.34354        0.29883        0.21771        0.22710        0.23257        0.27958        0.26737        0.35698        0.39155        0.36688        0.41713        0.45266        0.44606        0.43663        0.44339        0.35883        0.34222        0.29247        0.26016        0.30324        0.26986        0.30191        0.31750        0.35310        0.33819        0.40931        0.39955        0.44166        0.40296        0.46163        0.41551        0.37765        0.28812        0.28491        0.28887        0.28268        0.28391        0.34521        0.36502        0.33776        0.36944        0.37878        0.35457        0.42213        0.40854        0.37001        0.35482        0.30577        0.30474        0.32523        0.31822        0.31833        0.30315        0.34342        0.36512        0.38341        0.35048        0.33799        0.33320        0.35813        0.32500        0.30352        0.32847        0.32784        0.33122        0.33567        0.34704        0.37268        0.33624        0.32816        0.35014        0.32155        0.27510        0.26472        0.28222        0.31014        0.32162        0.36121        0.29925        0.31202        0.33686        0.30381        0.32942        0.29810        0.28422        0.28061        0.28287        0.29290        0.34635        0.31913        0.33460        0.31886        0.35146        0.35500        0.32115        0.32832        0.33802        0.27510        0.30201        0.32431        0.28890        0.33396        0.32996        0.33470        0.32694        0.35869        0.34545        0.29420        0.25206        0.28896        0.34798        0.36141        0.35885        0.31334        0.30515        0.30312        0.31226        0.26862        0.29947        0.30942        0.33465        0.31320        0.29587        0.26986        0.34531        0.33822        0.34423        0.29833        0.30530        0.31626        0.40100        0.35631        0.34548        0.33509        0.30842        0.29449        0.31401        0.31834        0.28991        0.23078        0.27080        0.30860        0.31039        0.30148        0.27916        0.26181        0.23982        0.23207        0.29154        0.32469        0.30467        0.31411        0.32269        0.36380        0.24089        0.21231        0.26059        0.25567        0.28507        0.29794        0.33120        0.26603        0.29450        0.28224        0.23695        0.28395        0.28460        0.24173        0.20240        0.25322        0.25109        0.24009        0.30481        0.28970        0.35866        0.33860        0.28530        0.27638        0.21013        0.27248        0.30399        0.26770        0.18381        0.23699        0.26690        0.19350        0.24869        0.17204        0.11182       -0.50519       -0.82113
2.706256 2.677573 2.649045 2.620672 2.592455 2.564393 2.536487 2.508736 2.481141 2.453701 2.426417 2.399288 2.372315 2.345497 2.318835 2.292328 2.265976 2.239780 2.213740 2.187855 2.162126 2.136551 2.111133 2.085870 2.060762 2.035810 2.011013 1.986372 1.961886 1.937556 1.913381 1.889362 1.865498 1.841790 1.818237 1.794839 1.771598 1.748511 1.725580 1.702805 1.680185 1.657720 1.635411 1.613257 1.591259 1.569416 1.547729 1.526198 1.504821 1.483600 1.462535 1.524943 1.841246 1.505921 1.203666 0.947270 0.550153 0.916831 0.645356 0.850158 0.918069 0.598613 0.679095 0.787641 0.830152 0.617037 0.527325 0.364264 0.094061 0.049673 0.032374 0.042299 0.297093 -0.049215 0.061621 -0.126321 -0.030714 -0.016004 0.051948 0.071123 0.112550 0.184337 0.277396 0.245900 0.469919 0.393576 0.542781 0.536478 0.787156 0.795644 0.895818 0.956461 0.935365 0.967925 1.129935 0.954210 1.147178 0.941206 0.865010 1.012750 0.846340 0.771056 0.663290 0.571232 0.468433 0.433501 0.504235 0.258661 0.198761 0.165647 0.015029 0.187446 -0.022031 0.116819 0.164588 0.246427 0.338425 0.338817 0.443774 0.553382 0.690016 0.530993 0.737257 0.846669 0.628169 0.724175 0.689370 0.580493 0.527511 0.463800 0.317858 0.219090 0.122206 -0.021839 -0.020024 0.042529 -0.066444 -0.041619 0.072524 0.031330 0.096024 0.220755 0.235456 0.324461 0.431204 0.436591 0.453842 0.452028 0.464950 0.337589 0.339524 0.244390 0.053133 0.072250 0.022471 -0.036516 -0.093357 -0.085892 -0.026915 -0.013458 0.088375 0.141502 0.164039 0.251039 0.224651 0.248012 0.279838 0.233222 0.240258 0.215969 0.135359 0.122476 0.135094 0.036977 0.024844 -0.102158 -0.023981 0.007378 0.007737 0.019610 0.124296 0.093494 0.133566 0.202453 0.275894 0.168020 0.218852 0.120475 0.136545 0.043733 -0.022388 0.023558 0.006890 0.012833 0.013545 0.068775 0.070878 0.080702 0.165435 0.141324 0.172744 0.110222 0.207913 0.110599 0.028366 -0.023560 -0.021524 -0.014733 -0.039158 -0.011521 0.083668 0.076037 0.005010 0.117893 0.094962 0.082433 0.174034 0.094451 0.103567 0.070178 -0.015357 0.040822 0.028309 0.028040 0.043617 0.029664 0.066946 0.073844 0.092957 0.056736 0.054887 0.016918 0.096758 0.012451 0.017174 0.041921 0.028691 0.065712 0.057822 0.071524 0.083010 0.044155 0.028493 0.054591 0.014076 -0.047923 -0.023136 -0.007205 0.004648 0.026596 0.103881 -0.021789 0.053642 0.053748 0.007381 0.058047 0.019258 -0.004618 0.007494 0.020834 0.024671 0.085513 0.022095 0.083230 0.060856 0.109554 0.088981 0.082115 0.090055 0.065510 -0.001551 0.073747 0.063845 0.033374 0.110389 0.074773 0.041112 0.070128 0.099404 0.051085 0.025155 -0.061958 0.032531 0.111485 0.092812 0.087489 0.038807 0.011561 0.040126 0.036197 -0.037132 0.044535 0.035942 0.074407 0.065360 -0.027673 -0.012459 0.104835 0.041494 0.038594 0.006559 -0.017476 0.067743 0.127677 0.050397 0.027947 0.053438 0.006686 -0.038412 0.006946 -0.001351 -0.046152 -0.108073 -0.040452 -0.020714 0.009361 -0.031249 -0.065519 -0.027361 -0.065763 -0.039484 -0.042143 0.054218 0.018545 0.027575 0.042424 0.096405 -0.077603 -0.074754 -0.027100 -0.052580 0.027686 0.003081 0.082309 -0.051244 0.011903 0.014399 -0.045370 0.025693 0.038173 -0.043908 -0.110363 -0.006695 0.013028 -0.033806 0.046342 0.030020 0.164553 0.075551 0.054915 0.042696 -0.028071 0.015752 0.057632 0.319924 0.224405 0.290804 0.294105 0.241767 0.281208 0.097063 0.139898 -0.968323
0.072396 0.072910 0.074453 0.077023 0.080621 0.085245 0.090893 0.097566 0.105259 0.113970 0.123696 0.134432 0.146172 0.158910 0.172637 0.187343 0.203018 0.219646 0.237213 0.255699 0.275084 0.295343 0.316448 0.338368 0.361068 0.384507 0.408643 0.433426 0.458801 0.484710 0.511087 0.537860 0.564953 0.592281 0.619753 0.647272 0.674734 0.702026 0.729030 0.755621 0.781664 0.807020 0.831542 0.855077 0.877465 0.898542 0.918136 0.936072 0.952173 0.966257 0.978140 0.987637 0.994565 0.998742 0.999988 0.998129 0.992998 0.984435 0.972292 0.956432 0.936733 0.913089 0.885414 0.853644 0.817736 0.777677 0.733479 0.685186 0.632874 0.576657 0.516681 0.453134 0.386244 0.316276 0.243543 0.168395 0.091227 0.012476 0.067382 0.147830 0.228314 0.308245 0.387005 0.463947 0.538404 0.609689 0.677109 0.739963 0.797558 0.849210 0.894257 0.932069 0.962052 0.983665 0.996425 0.999917 0.993810 0.977860 0.951921 0.915956 0.870044 0.814384 0.749305 0.675266 0.592862 0.502820 0.406006 0.303409 0.196147 0.085449 0.027347 0.140816 0.253457 0.363711 0.469988 0.570682 0.664203 0.748998 0.823584 0.886574 0.936706 0.972874 0.994155 0.999836 0.989437 0.962738 0.919792 0.860942 0.786829 0.698400 0.596901 0.483874 0.361139 0.230771 0.095076 0.043448 0.182152 0.318283 0.449041 0.571635 0.683344 0.781584 0.863970 0.928380 0.973023 0.996490 0.997809 0.976491 0.932562 0.866591 0.779698 0.673552 0.550359 0.412825 0.264111 0.107769 0.052331 0.212097 0.367311 0.513744 0.647273 0.764001 0.860379 0.933325 0.980334 0.999578 0.989990 0.951326 0.884212 0.790158 0.671549 0.531607 0.374322 0.204353 0.026906 0.152419 0.327798 0.493368 0.643434 0.772663 0.876289 0.950306 0.991635 0.998276 0.969420 0.905527 0.808356 0.680948 0.527561 0.353554 0.165215 0.030440 0.225932 0.413580 0.585826 0.735527 0.856279 0.942699 0.990695 0.997679 0.962738 0.886727 0.772299 0.623848 0.447378 0.250285 0.041073 0.170990 0.376285 0.565275 0.728945 0.859261 0.949581 0.995025 0.992767 0.942249 0.845278 0.706015 0.530841 0.328108 0.107767 0.119094 0.340796 0.545663 0.722651 0.861952 0.955579 0.997847 0.985764 0.919284 0.801395 0.638046 0.437901 0.211914 0.027222 0.265781 0.489778 0.685789 0.841779 0.947870 0.997009 0.985481 0.913245 0.784034 0.605243 0.387547 0.144331 0.109107 0.356501 0.581641 0.769463 0.907078 0.984694 0.996376 0.940553 0.820247 0.642993 0.420437 0.167629 0.097955 0.357584 0.592598 0.785749 0.922523 0.992256 0.989041 0.912296 0.766949 0.563201 0.315906 0.043519 0.233211 0.492810 0.714765 0.881150 0.978141 0.997219 0.936006 0.798610 0.595448 0.342555 0.060379 0.227819 0.497848 0.726649 0.894260 0.985645 0.992103 0.912191 0.752025 0.524926 0.250405 0.047443 0.342010 0.606522 0.816508 0.952096 0.999987 0.954836 0.819952 0.607187 0.336007 0.031798 0.276454 0.558882 0.787660 0.939785 0.999463 0.959861 0.823990 0.604625 0.323231 0.007956 0.309109 0.595190 0.820210 0.960024 0.999091 0.932327 0.765872 0.516674 0.210903 0.118714 0.436335 0.706881 0.899955 0.993336 0.975649 0.847882 0.623544 0.327374 0.007252 0.342011 0.637997 0.860252 0.981979 0.987889 0.876258 0.659422 0.362573 0.020970 0.324147 0.630525 0.860054 0.983621 0.984906 0.862702 0.631368 0.319321 0.034313 0.384515 0.686074 0.899449 0.996057 0.962247 0.801390 0.533783 0.194241 0.172267 0.516514 0.791616 0.959483 0.996209
1.000000 1.000000 1.000000 1.000000 1.000000 1.000000 1.000000 1.000000 1.000000 1.000000 1.000000 1.000000 1.000000 1.000000 1.000000 1.000000 1.000000 1.000000 1.000000 1.000000 1.000000 1.000000 1.000000 1.000000 1.000000 1.000000 1.000000 1.000000 1.000000 1.000000 1.000000 1.000000 1.000000 1.000000 1.000000 1.000000 1.000000 1.000000 1.000000 1.000000 1.000000 1.000000 1.000000 1.000000 1.000000 1.000000 1.000000 1.000000 1.000000 1.000000 1.000000 1.000000 0.912193 0.912193 0.901618 0.901618 0.901618 0.901618 0.901618 0.901618 0.901618 0.901618 0.901618 0.901618 0.901618 0.901618 0.901618 0.901618 0.901618 0.901618 0.901618 0.901618 0.901618 0.901618 0.901618 0.901618 0.901618 0.901618 0.901618 0.901618 0.901618 0.901618 0.901618 0.901618 0.901618 0.901618 0.901618 0.901618 0.901618 0.901618 0.901618 0.901618 0.901618 0.901618 0.901618 0.897684 0.902719 0.905291 0.903862 0.907441 0.907500 0.905413 0.904854 0.904498 0.904851 0.906302 0.916822 0.931317 0.938761 0.940839 0.946043 0.950300 0.952705 0.953441 0.957123 0.967208 0.964541 0.964074 0.964794 0.966302 0.968442 0.968651 0.970037 0.969186 0.969880 0.969987 0.969563 0.968965 0.968379 0.968493 0.968141 0.968023 0.969100 0.969585 0.969170 0.968790 0.968935 0.966931 0.965575 0.960774 0.963453 0.964820 0.964728 0.963408 0.961044 0.964816 0.965149 0.964918 0.964928 0.964607 0.964932 0.950346 0.945356 0.945464 0.939113 0.938061 0.934829 0.933710 0.932996 0.933959 0.934482 0.935615 0.931861 0.919849 0.909833 0.892779 0.913756 0.905831 0.888019 0.867405 0.865685 0.861658 0.861569 0.855085 0.846225 0.842223 0.839471 0.841852 0.847343 0.852468 0.849299 0.840627 0.843575 0.837167 0.800366 0.790006 0.779217 0.771288 0.770184 0.771551 0.767381 0.761860 0.770526 0.762567 0.758946 0.750290 0.738099 0.716927 0.706828 0.712775 0.720292 0.734020 0.728330 0.702285 0.651046 0.667122 0.684903 0.687239 0.689809 0.687979 0.681093 0.685824 0.688046 0.684279 0.681089 0.681726 0.681511 0.689242 0.690963 0.676571 0.672165 0.662749 0.649702 0.625338 0.637431 0.649082 0.629623 0.625061 0.617033 0.611862 0.618015 0.620959 0.623264 0.597644 0.579892 0.573879 0.568618 0.572240 0.579307 0.580024 0.570378 0.592081 0.580681 0.606460 0.578546 0.573881 0.573229 0.584001 0.567936 0.565155 0.564428 0.563253 0.564895 0.585102 0.591367 0.576947 0.571526 0.566209 0.573392 0.559816 0.574128 0.606102 0.583746 0.534318 0.497365 0.494025 0.458497 0.449019 0.411923 0.385270 0.399207 0.380300 0.371236 0.354615 0.350078 0.316497 0.278034 0.261687 0.256463 0.271625 0.297872 0.294570 0.285731 0.317852 0.357741 0.358817 0.349495 0.309371 0.282602 0.235919 0.220735 0.233531 0.194515 0.199052 0.185519 0.190596 0.193270 0.146209 0.187856 0.096990 0.083023 0.084990 0.110313 0.087902 0.086334 0.084082 0.052426 0.062232 0.062000 0.031591 0.029427 0.042648 0.014440 0.010494 0.027858 0.035918 0.039034 -0.000938 0.004675 0.007083 0.010525 -0.002368 -0.004467 0.034784 0.077571 0.081772 0.087056 0.087055 0.073058 0.072383 0.068825 0.029565 0.011625 -0.032857 -0.056677 -0.056677 -0.039302 -0.039302 -0.039302 -0.039302 -0.039302 -0.039302 -0.039302 -0.039302 -0.039302 -0.041422 -0.041422 -0.041422 -0.041422 -0.041422 -0.041422 -0.041422 -0.041422 -0.041422 -0.032314 -0.032314 -0.032314 -0.032314 -0.032314 -0.032314 -0.032314 -0.032314 -0.032314
0.000000 0.000000 0.000000 0.000000 0.000000 0.000000 0.000000 0.000000 0.000000 0.000000 0.000000 0.000000 0.000000 0.000000 0.000000 0.000000 0.000000 0.000000 0.000000 0.000000 0.000000 0.000000 0.000000 0.000000 0.000000 0.000000 0.000000 0.000000 0.000000 0.000000 0.000000 0.000000 0.000000 0.000000 0.000000 0.000000 0.000000 0.000000 0.000000 0.000000 0.000000 0.000000 0.000000 0.000000 0.000000 0.000000 0.000000 0.000000 0.000000 0.000000 0.000000 0.000000 0.181818 0.181818 0.199007 0.199007 0.199007 0.199007 0.199007 0.199007 0.199007 0.199007 0.199007 0.199007 0.199007 0.199007 0.199007 0.199007 0.199007 0.199007 0.199007 0.199007 0.199007 0.199007 0.199007 0.199007 0.199007 0.199007 0.199007 0.199007 0.199007 0.199007 0.199007 0.199007 0.199007 0.199007 0.199007 0.199007 0.199007 0.199007 0.199007 0.199007 0.199007 0.199007 0.199007 0.230940 0.230940 0.230940 0.230940 0.230940 0.230940 0.230940 0.230940 0.230940 0.230940 0.230940 0.230940 0.230940 0.230940 0.230940 0.230940 0.230940 0.230940 0.230940 0.230940 0.230940 0.230940 0.230940 0.230940 0.230940 0.230940 0.230940 0.230940 0.244339 0.244339 0.244339 0.244339 0.244339 0.244339 0.244339 0.244339 0.244339 0.244339 0.244339 0.244339 0.244339 0.244339 0.244339 0.244339 0.244339 0.244339 0.244339 0.244339 0.244339 0.244339 0.244339 0.251976 0.251976 0.251976 0.251976 0.251976 0.251976 0.251976 0.251976 0.251976 0.251976 0.251976 0.251976 0.251976 0.251976 0.251976 0.251976 0.251976 0.251976 0.251976 0.251976 0.264906 0.264906 0.264906 0.264906 0.264906 0.264906 0.264906 0.264906 0.264906 0.264906 0.264906 0.264906 0.264906 0.264906 0.264906 0.264906 0.264906 0.264906 0.264906 0.264906 0.264906 0.264906 0.264906 0.264906 0.264906 0.264906 0.264906 0.264906 0.264906 0.264906 0.264906 0.264906 0.264906 0.264906 0.264906 0.264906 0.264906 0.264906 0.264906 0.264906 0.264906 0.264906 0.264906 0.264906 0.264906 0.264906 0.264906 0.264906 0.264906 0.264906 0.264906 0.264906 0.264906 0.264906 0.264906 0.264906 0.264906 0.264906 0.264906 0.264906 0.264906 0.264906 0.264906 0.264906 0.264906 0.264906 0.264906 0.264906 0.264906 0.264906 0.264906 0.264906 0.264906 0.264906 0.264906 0.269680 0.269680 0.269680 0.269680 0.269680 0.269680 0.269680 0.269680 0.269680 0.269680 0.269680 0.269680 0.264906 0.264906 0.264906 0.264906 0.264906 0.264906 0.264906 0.264906 0.264906 0.264906 0.264906 0.264906 0.269680 0.269680 0.269680 0.269680 0.269680 0.269680 0.269680 0.269680 0.269680 0.269680 0.269680 0.264906 0.264906 0.264906 0.264906 0.264906 0.264906 0.264906 0.264906 0.264906 0.264906 0.264906 0.256074 0.256074 0.256074 0.256074 0.256074 0.256074 0.256074 0.256074 0.256074 0.256074 0.256074 0.264906 0.264906 0.264906 0.264906 0.264906 0.264906 0.264906 0.264906 0.264906 0.264906 0.269680 0.269680 0.269680 0.269680 0.269680 0.269680 0.269680 0.269680 0.269680 0.256074 0.256074 0.256074 0.256074 0.256074 0.256074 0.256074 0.256074 0.256074 0.256074 0.260378 0.260378 0.260378 0.260378 0.260378 0.260378 0.260378 0.260378 0.260378 0.256074 0.256074 0.256074 0.256074 0.256074 0.256074 0.256074 0.256074 0.256074 0.251976 0.251976 0.251976 0.251976 0.251976 0.251976 0.251976 0.251976 0.251976 0.264906 0.264906 0.264906 0.264906 0.264906 0.264906 0.264906 0.264906 0.264906
