# Output from CTFFind version 4.1.9, run on 2019-11-03 20:08:07
# Input file: stack11_bm3d_averaged_1_5.5_0_1500_half.mrc ; Number of micrographs: 1
# Pixel size: 3.000 Angstroms ; acceleration voltage: 300.0 keV ; spherical aberration: 0.00 mm ; amplitude contrast: 0.07
# Box size: 512 pixels ; min. res.: 30.0 Angstroms ; max. res.: 5.0 Angstroms ; min. def.: 5000.0 um; max. def. 50000.0 um; num. frames averaged: 1
# 6 lines per micrograph: #1 - spatial frequency (1/Angstroms); #2 - 1D rotational average of spectrum (assuming no astigmatism); #3 - 1D rotational average of spectrum; #4 - CTF fit; #5 - cross-correlation between spectrum and CTF fit; #6 - 2sigma of expected cross correlation of noise
0.000000 0.000651 0.001302 0.001953 0.002604 0.003255 0.003906 0.004557 0.005208 0.005859 0.006510 0.007161 0.007812 0.008464 0.009115 0.009766 0.010417 0.011068 0.011719 0.012370 0.013021 0.013672 0.014323 0.014974 0.015625 0.016276 0.016927 0.017578 0.018229 0.018880 0.019531 0.020182 0.020833 0.021484 0.022135 0.022786 0.023438 0.024089 0.024740 0.025391 0.026042 0.026693 0.027344 0.027995 0.028646 0.029297 0.029948 0.030599 0.031250 0.031901 0.032552 0.033203 0.033854 0.034505 0.035156 0.035807 0.036458 0.037109 0.037760 0.038411 0.039062 0.039714 0.040365 0.041016 0.041667 0.042318 0.042969 0.043620 0.044271 0.044922 0.045573 0.046224 0.046875 0.047526 0.048177 0.048828 0.049479 0.050130 0.050781 0.051432 0.052083 0.052734 0.053385 0.054036 0.054688 0.055339 0.055990 0.056641 0.057292 0.057943 0.058594 0.059245 0.059896 0.060547 0.061198 0.061849 0.062500 0.063151 0.063802 0.064453 0.065104 0.065755 0.066406 0.067057 0.067708 0.068359 0.069010 0.069661 0.070312 0.070964 0.071615 0.072266 0.072917 0.073568 0.074219 0.074870 0.075521 0.076172 0.076823 0.077474 0.078125 0.078776 0.079427 0.080078 0.080729 0.081380 0.082031 0.082682 0.083333 0.083984 0.084635 0.085286 0.085938 0.086589 0.087240 0.087891 0.088542 0.089193 0.089844 0.090495 0.091146 0.091797 0.092448 0.093099 0.093750 0.094401 0.095052 0.095703 0.096354 0.097005 0.097656 0.098307 0.098958 0.099609 0.100260 0.100911 0.101562 0.102214 0.102865 0.103516 0.104167 0.104818 0.105469 0.106120 0.106771 0.107422 0.108073 0.108724 0.109375 0.110026 0.110677 0.111328 0.111979 0.112630 0.113281 0.113932 0.114583 0.115234 0.115885 0.116536 0.117188 0.117839 0.118490 0.119141 0.119792 0.120443 0.121094 0.121745 0.122396 0.123047 0.123698 0.124349 0.125000 0.125651 0.126302 0.126953 0.127604 0.128255 0.128906 0.129557 0.130208 0.130859 0.131510 0.132161 0.132812 0.133464 0.134115 0.134766 0.135417 0.136068 0.136719 0.137370 0.138021 0.138672 0.139323 0.139974 0.140625 0.141276 0.141927 0.142578 0.143229 0.143880 0.144531 0.145182 0.145833 0.146484 0.147135 0.147786 0.148438 0.149089 0.149740 0.150391 0.151042 0.151693 0.152344 0.152995 0.153646 0.154297 0.154948 0.155599 0.156250 0.156901 0.157552 0.158203 0.158854 0.159505 0.160156 0.160807 0.161458 0.162109 0.162760 0.163411 0.164062 0.164714 0.165365 0.166016 0.166667 0.167318 0.167969 0.168620 0.169271 0.169922 0.170573 0.171224 0.171875 0.172526 0.173177 0.173828 0.174479 0.175130 0.175781 0.176432 0.177083 0.177734 0.178385 0.179036 0.179688 0.180339 0.180990 0.181641 0.182292 0.182943 0.183594 0.184245 0.184896 0.185547 0.186198 0.186849 0.187500 0.188151 0.188802 0.189453 0.190104 0.190755 0.191406 0.192057 0.192708 0.193359 0.194010 0.194661 0.195312 0.195964 0.196615 0.197266 0.197917 0.198568 0.199219 0.199870 0.200521 0.201172 0.201823 0.202474 0.203125 0.203776 0.204427 0.205078 0.205729 0.206380 0.207031 0.207682 0.208333 0.208984 0.209635 0.210286 0.210938 0.211589 0.212240 0.212891 0.213542 0.214193 0.214844 0.215495 0.216146 0.216797 0.217448 0.218099 0.218750 0.219401 0.220052 0.220703 0.221354 0.222005 0.222656 0.223307 0.223958 0.224609 0.225260 0.225911 0.226562 0.227214 0.227865 0.228516 0.229167 0.229818 0.230469 0.231120 0.231771 0.232422 0.233073 0.233724 0.234375 0.235026 0.235677
       0.34179        0.34179        0.34179        0.34179        0.34179        0.34179        0.34179        0.34179        0.34179        0.34179        0.34179        0.34179        0.34179        0.34179        0.34179        0.34179        0.34179        0.34179        0.34179        0.34179        0.34179        0.34179        0.34179        0.34179        0.34179        0.34179        0.34179        0.34179        0.34179        0.34179        0.34179        0.34179        0.34179        0.34179        0.34179        0.34179        0.34179        0.34179        0.34179        0.34179        0.34179        0.34179        0.34179        0.34179        0.34179        0.34179        0.34179        0.34179        0.34179        0.34179        0.34179        0.69747        0.85881        0.53658        0.10512       -0.02987       -0.39044       -0.18119       -0.28733       -0.11365       -0.05546       -0.11116       -0.05342       -0.17014       -0.20671       -0.21724       -0.30856       -0.32025       -0.44737       -0.36288       -0.42940       -0.42339       -0.39711       -0.41502       -0.45597       -0.51258       -0.56057       -0.55737       -0.53151       -0.36138       -0.33244       -0.29558       -0.27583       -0.18718       -0.17366        0.05756        0.13687        0.16876        0.26167        0.38141        0.45744        0.52241        0.59612        0.59360        0.58071        0.69820        0.80581        0.70625        0.74232        0.62367        0.56844        0.48304        0.42978        0.51167        0.39581        0.26328        0.11311        0.10578        0.08460       -0.02010        0.03494        0.04575        0.00312        0.02427        0.02365        0.23751        0.27000        0.29521        0.43341        0.45317        0.41341        0.59263        0.62305        0.64389        0.72810        0.67797        0.64790        0.66189        0.56236        0.46485        0.41945        0.30245        0.26127        0.17965        0.13377        0.05262        0.05897        0.06585        0.09672        0.15452        0.24075        0.29262        0.41492        0.46314        0.48247        0.57158        0.60584        0.63794        0.61892        0.56147        0.45968        0.47307        0.37884        0.27127        0.20886        0.15745        0.16791        0.15046        0.15131        0.17950        0.31487        0.32816        0.39975        0.44046        0.42790        0.48570        0.56145        0.55406        0.49974        0.45671        0.41074        0.36600        0.33638        0.30319        0.25507        0.24343        0.24457        0.25145        0.22259        0.30696        0.36296        0.38635        0.43954        0.45608        0.47043        0.42573        0.40777        0.40154        0.36085        0.32725        0.27331        0.27336        0.26522        0.23802        0.28821        0.28641        0.34799        0.37936        0.42732        0.47682        0.41005        0.42417        0.43313        0.40966        0.34825        0.32536        0.29369        0.32011        0.27144        0.31737        0.31000        0.32758        0.33614        0.36031        0.31759        0.39320        0.41552        0.38010        0.34875        0.37115        0.31543        0.29260        0.30289        0.32026        0.30650        0.31885        0.33910        0.35071        0.33983        0.36711        0.36692        0.41454        0.38601        0.33615        0.34402        0.29794        0.28880        0.32360        0.31836        0.32854        0.33915        0.33683        0.38223        0.32992        0.32987        0.33598        0.34220        0.30298        0.31186        0.27889        0.30214        0.32681        0.30502        0.32713        0.35250        0.36087        0.29443        0.33368        0.29570        0.29938        0.27991        0.24499        0.30212        0.30278        0.34265        0.33722        0.33988        0.32485        0.34869        0.31216        0.34528        0.31278        0.31786        0.28508        0.33138        0.32073        0.36291        0.32528        0.33554        0.34150        0.29405        0.27447        0.30978        0.24902        0.22763        0.33999        0.32082        0.36037        0.34294        0.35837        0.32877        0.33642        0.34634        0.26320        0.25759        0.31441        0.30218        0.31021        0.32028        0.34040        0.33223        0.29502        0.29186        0.34376        0.32057        0.31221        0.28776        0.32151        0.34179        0.39600        0.35301        0.31267        0.27844        0.30262        0.28582        0.29779        0.27171        0.26218        0.31293        0.33208        0.34465        0.35317        0.32636        0.28838        0.29995        0.26730        0.27318        0.25262        0.31296        0.26971        0.23793        0.30229        0.29777        0.26551        0.29444        0.21361        0.21480        0.24813        0.19027        0.26450        0.33873        0.24887        0.23222        0.31566        0.31271        0.31928        0.31622        0.26199        0.24213        0.19043        0.21248        0.19372        0.24893        0.23120        0.27673        0.34593        0.33722        0.24298        0.14399        0.07752       -0.01187       -0.10249       -0.61869
2.768364 2.738937 2.709670 2.680565 2.651621 2.622838 2.594216 2.565756 2.537456 2.509318 2.481341 2.453525 2.425871 2.398378 2.371046 2.343875 2.316865 2.290016 2.263329 2.236803 2.210438 2.184234 2.158192 2.132311 2.106590 2.081032 2.055634 2.030397 2.005322 1.980408 1.955655 1.931063 1.906633 1.882363 1.858255 1.834308 1.810523 1.786898 1.763435 1.740132 1.716992 1.694012 1.671193 1.648536 1.626040 1.603705 1.581531 1.559519 1.537667 1.515977 1.494448 1.711273 2.131404 1.691733 1.181008 1.046361 0.449121 0.846151 0.562644 0.844932 0.809563 0.816424 0.756644 0.748353 0.594580 0.556725 0.499629 0.429137 0.245834 0.368065 0.200676 0.328831 0.221563 0.205512 0.179684 0.040441 0.009495 0.017537 -0.069032 0.131541 0.230367 0.188191 0.175459 0.327310 0.184470 0.516321 0.620312 0.624088 0.641214 0.874191 0.831491 0.940269 0.928058 1.026263 0.992135 1.079545 1.164819 1.042529 1.155888 0.908605 0.926292 0.791724 0.649762 0.801461 0.696528 0.486943 0.330716 0.249736 0.263490 0.146951 0.129896 0.161787 0.106235 0.123565 0.077382 0.251488 0.355223 0.341467 0.474153 0.545453 0.418262 0.589598 0.726073 0.660420 0.726281 0.707827 0.717158 0.651306 0.597001 0.499786 0.373723 0.276942 0.220915 0.087015 0.118471 -0.102958 -0.046646 -0.062178 -0.076866 -0.019042 0.133488 0.070820 0.241693 0.307015 0.338032 0.384668 0.502018 0.463200 0.478916 0.489598 0.303237 0.290683 0.283914 0.085218 0.043177 -0.075898 -0.013751 -0.062132 -0.094396 -0.080411 0.037754 0.089766 0.122992 0.218503 0.227688 0.231130 0.280234 0.445843 0.397870 0.263993 0.239350 0.227279 0.149585 0.149832 0.120359 0.002866 0.022382 0.076831 -0.000552 0.057528 0.143653 0.146038 0.228415 0.246524 0.265308 0.200654 0.222101 0.145685 0.157697 0.125510 0.050104 -0.006437 0.017840 -0.000803 -0.037829 0.068704 0.023796 0.123035 0.154667 0.202910 0.189640 0.139135 0.157472 0.178408 0.128625 0.055352 -0.003996 0.050378 0.035042 -0.022837 0.044272 0.037648 0.060211 0.051679 0.064235 0.056219 0.145780 0.138533 0.055296 0.050387 0.054519 0.013794 -0.023411 0.017188 0.017125 0.005959 0.014764 0.052916 0.058900 0.056958 0.070147 0.056746 0.151523 0.059508 0.033346 0.037702 -0.036898 0.005092 0.040815 0.002563 0.031151 0.050524 0.025330 0.126882 0.024130 -0.004081 0.058787 0.003370 0.005380 0.004121 -0.026278 0.018483 0.005462 0.000435 0.051011 0.052219 0.060350 0.032835 0.038792 0.024729 0.016129 -0.023558 -0.028375 0.029491 0.048636 0.078754 0.081294 0.056919 0.073435 0.109351 0.052354 0.105097 0.076482 0.044053 0.030358 0.105794 0.068761 0.118571 0.088772 0.060894 0.117278 0.044388 0.009010 0.088630 -0.033501 -0.016539 0.105125 0.049038 0.156791 0.095685 0.090169 0.052765 0.067474 0.091611 -0.021792 -0.028926 0.054691 0.047349 0.039577 0.034055 0.105797 0.047629 -0.002660 0.055176 0.049345 0.051824 0.054876 -0.016630 0.065044 0.063483 0.125576 0.048940 0.021029 -0.028576 -0.012551 -0.011765 -0.001161 -0.052629 -0.030905 0.007697 0.025254 0.026536 0.042502 0.000955 -0.041224 -0.035730 -0.025397 -0.072410 -0.058157 -0.015064 -0.025156 -0.084097 -0.008455 -0.047878 -0.074658 -0.000343 -0.139734 -0.088114 -0.097977 -0.182746 -0.059010 0.057742 -0.060354 -0.156339 0.034680 0.033680 -0.049650 0.042090 -0.078448 0.264995 0.163901 0.218129 0.259987 0.301335 0.251506 0.313821 0.335728 0.387234 0.222693 0.261155 0.096587 -0.017506 -0.679537
0.072396 0.072899 0.074407 0.076921 0.080439 0.084961 0.090486 0.097011 0.104535 0.113055 0.122568 0.133068 0.144552 0.157012 0.170441 0.184829 0.200166 0.216439 0.233632 0.251728 0.270708 0.290548 0.311222 0.332701 0.354952 0.377937 0.401615 0.425940 0.450861 0.476323 0.502263 0.528615 0.555306 0.582257 0.609383 0.636591 0.663783 0.690855 0.717693 0.744179 0.770187 0.795585 0.820233 0.843987 0.866694 0.888198 0.908335 0.926941 0.943842 0.958865 0.971833 0.982569 0.990894 0.996630 0.999603 0.999641 0.996579 0.990255 0.980522 0.967237 0.950274 0.929521 0.904880 0.876275 0.843650 0.806973 0.766235 0.721459 0.672694 0.620023 0.563563 0.503464 0.439918 0.373150 0.303429 0.231061 0.156393 0.079814 0.001753 0.077325 0.156914 0.236476 0.315437 0.393196 0.469127 0.542581 0.612896 0.679398 0.741412 0.798266 0.849300 0.893873 0.931377 0.961235 0.982924 0.995972 0.999979 0.994615 0.979640 0.954905 0.920364 0.876080 0.822233 0.759126 0.687184 0.606963 0.519148 0.424550 0.324107 0.218876 0.110026 0.001173 0.113359 0.225096 0.334890 0.441208 0.542498 0.637216 0.723846 0.800931 0.867097 0.921082 0.961762 0.988179 0.999568 0.995380 0.975303 0.939283 0.887536 0.820565 0.739157 0.644393 0.537637 0.420528 0.294959 0.163059 0.027156 0.110255 0.246557 0.379061 0.505055 0.621862 0.726901 0.817748 0.892196 0.948317 0.984518 0.999595 0.992777 0.963771 0.912784 0.840548 0.748322 0.637891 0.511540 0.372023 0.222511 0.066535 0.092099 0.249391 0.401252 0.543601 0.672491 0.784212 0.875413 0.943209 0.985287 0.999993 0.986413 0.944430 0.874762 0.778970 0.659452 0.519402 0.362737 0.194009 0.018282 0.159012 0.332234 0.495717 0.643956 0.771797 0.874632 0.948574 0.990621 0.998801 0.972276 0.911419 0.817843 0.694397 0.545093 0.375013 0.190148 0.002792 0.196617 0.383912 0.557326 0.709861 0.835174 0.927849 0.983659 0.999776 0.974944 0.909583 0.805834 0.667522 0.500054 0.310233 0.106008 0.103844 0.310083 0.503406 0.674879 0.816356 0.920889 0.983092 0.999451 0.968552 0.891220 0.770551 0.611832 0.422348 0.211086 0.011670 0.234821 0.446999 0.637145 0.795104 0.912182 0.981660 0.999216 0.963229 0.874954 0.738539 0.560882 0.351334 0.121232 0.116677 0.348926 0.562093 0.743582 0.882391 0.969806 0.999998 0.970454 0.882224 0.739963 0.551749 0.328670 0.084221 0.166482 0.407624 0.623685 0.800456 0.925998 0.991497 0.991930 0.926509 0.798848 0.616842 0.392233 0.139921 0.122985 0.378327 0.608116 0.795840 0.927665 0.993513 0.987893 0.910415 0.765964 0.564465 0.320274 0.051220 0.222655 0.480590 0.702657 0.871344 0.972967 0.998859 0.946169 0.818244 0.624505 0.379858 0.103591 0.182074 0.453759 0.688827 0.867308 0.973638 0.998091 0.937745 0.796901 0.586885 0.325233 0.034292 0.260619 0.533421 0.759549 0.918239 0.994473 0.980497 0.876700 0.691768 0.442070 0.150292 0.156538 0.449534 0.700649 0.885414 0.985358 0.989969 0.897884 0.717238 0.465073 0.165821 0.150961 0.453494 0.710937 0.896580 0.990679 0.982654 0.872396 0.670506 0.397410 0.081397 0.244234 0.544635 0.787158 0.944945 0.999999 0.945348 0.786050 0.538890 0.230739 0.104264 0.428429 0.704742 0.901133 0.994271 0.972459 0.837240 0.603488 0.297919 0.043841 0.381325 0.674000 0.886165 0.991380 0.975895 0.840588 0.601154 0.286440 0.064883 0.409018 0.702453 0.907505 0.997262 0.959250 0.797319 0.531478 0.195566 0.166898
1.000000 1.000000 1.000000 1.000000 1.000000 1.000000 1.000000 1.000000 1.000000 1.000000 1.000000 1.000000 1.000000 1.000000 1.000000 1.000000 1.000000 1.000000 1.000000 1.000000 1.000000 1.000000 1.000000 1.000000 1.000000 1.000000 1.000000 1.000000 1.000000 1.000000 1.000000 1.000000 1.000000 1.000000 1.000000 1.000000 1.000000 1.000000 1.000000 1.000000 1.000000 1.000000 1.000000 1.000000 1.000000 1.000000 1.000000 1.000000 1.000000 1.000000 1.000000 1.000000 0.918881 0.918881 0.918881 0.912398 0.912398 0.912398 0.912398 0.912398 0.912398 0.912398 0.912398 0.912398 0.912398 0.912398 0.912398 0.912398 0.912398 0.912398 0.912398 0.912398 0.912398 0.912398 0.912398 0.912398 0.912398 0.912398 0.912398 0.912398 0.912398 0.912398 0.912398 0.912398 0.912398 0.912398 0.912398 0.912398 0.912398 0.912398 0.912398 0.912398 0.912398 0.912398 0.912398 0.912398 0.941397 0.942818 0.951057 0.950646 0.950056 0.948025 0.946823 0.946477 0.946381 0.946716 0.947426 0.948391 0.954623 0.955858 0.960272 0.961948 0.962125 0.963848 0.964541 0.964155 0.955631 0.955412 0.954020 0.953471 0.955998 0.955079 0.954318 0.955289 0.955185 0.955591 0.955571 0.954901 0.953843 0.952771 0.951849 0.951445 0.951245 0.951969 0.952382 0.953837 0.957107 0.957697 0.957831 0.956198 0.955031 0.956310 0.955462 0.954860 0.942927 0.942527 0.941261 0.941296 0.944379 0.944415 0.945000 0.945616 0.947378 0.947746 0.944689 0.944128 0.936764 0.934339 0.931960 0.926647 0.922029 0.923831 0.925471 0.926042 0.926285 0.921240 0.921209 0.919361 0.915380 0.917874 0.918163 0.919483 0.920833 0.916318 0.915261 0.914273 0.912513 0.904387 0.892140 0.891085 0.888608 0.893543 0.894092 0.892933 0.895694 0.884175 0.868219 0.841972 0.844425 0.847917 0.838672 0.834661 0.834850 0.835565 0.839637 0.832409 0.830273 0.825303 0.814386 0.808114 0.801369 0.792315 0.792538 0.784469 0.774725 0.770641 0.795078 0.789063 0.799464 0.804008 0.803673 0.801077 0.794435 0.785709 0.761181 0.761239 0.743009 0.715983 0.716727 0.715324 0.715034 0.713132 0.719029 0.709798 0.708300 0.690474 0.687790 0.693150 0.697350 0.695194 0.695001 0.699998 0.705574 0.686611 0.675429 0.666145 0.672184 0.672719 0.672220 0.678641 0.655984 0.637192 0.623748 0.632412 0.641364 0.618490 0.630268 0.643898 0.619783 0.616278 0.606753 0.609173 0.598047 0.600634 0.598698 0.597648 0.603755 0.618649 0.608894 0.609977 0.620276 0.625576 0.637505 0.639636 0.642119 0.604900 0.608139 0.629402 0.634014 0.615313 0.630975 0.619580 0.636374 0.676009 0.666544 0.633220 0.626831 0.614267 0.576566 0.559934 0.555255 0.563426 0.596765 0.601845 0.579535 0.552174 0.555180 0.562710 0.567014 0.566952 0.551319 0.559930 0.548054 0.524886 0.534379 0.541167 0.539917 0.525608 0.512654 0.513757 0.514708 0.529256 0.524863 0.494504 0.513453 0.509556 0.497909 0.425222 0.439572 0.427387 0.417049 0.367810 0.378212 0.386503 0.372566 0.296281 0.284148 0.285067 0.284017 0.265749 0.246132 0.222904 0.210485 0.168017 0.173293 0.157994 0.131980 0.135263 0.119837 0.110784 0.115560 0.087102 0.142106 0.205302 0.207021 0.207021 0.207021 0.207021 0.207021 0.207021 0.188894 0.188894 0.188894 0.188894 0.188894 0.188894 0.188894 0.188894 0.188894 0.214754 0.214754 0.214754 0.214754 0.214754 0.214754 0.214754 0.214754 0.214754 0.214754 0.214754 0.214754 0.214754 0.214754
0.000000 0.000000 0.000000 0.000000 0.000000 0.000000 0.000000 0.000000 0.000000 0.000000 0.000000 0.000000 0.000000 0.000000 0.000000 0.000000 0.000000 0.000000 0.000000 0.000000 0.000000 0.000000 0.000000 0.000000 0.000000 0.000000 0.000000 0.000000 0.000000 0.000000 0.000000 0.000000 0.000000 0.000000 0.000000 0.000000 0.000000 0.000000 0.000000 0.000000 0.000000 0.000000 0.000000 0.000000 0.000000 0.000000 0.000000 0.000000 0.000000 0.000000 0.000000 0.000000 0.180334 0.180334 0.180334 0.199007 0.199007 0.199007 0.199007 0.199007 0.199007 0.199007 0.199007 0.199007 0.199007 0.199007 0.199007 0.199007 0.199007 0.199007 0.199007 0.199007 0.199007 0.199007 0.199007 0.199007 0.199007 0.199007 0.199007 0.199007 0.199007 0.199007 0.199007 0.199007 0.199007 0.199007 0.199007 0.199007 0.199007 0.199007 0.199007 0.199007 0.199007 0.199007 0.199007 0.199007 0.225018 0.225018 0.225018 0.225018 0.225018 0.225018 0.225018 0.225018 0.225018 0.225018 0.225018 0.225018 0.225018 0.225018 0.225018 0.225018 0.225018 0.225018 0.225018 0.225018 0.225018 0.225018 0.225018 0.225018 0.225018 0.225018 0.225018 0.225018 0.225018 0.244339 0.244339 0.244339 0.244339 0.244339 0.244339 0.244339 0.244339 0.244339 0.244339 0.244339 0.244339 0.244339 0.244339 0.244339 0.244339 0.244339 0.244339 0.244339 0.244339 0.244339 0.244339 0.244339 0.251976 0.251976 0.251976 0.251976 0.251976 0.251976 0.251976 0.251976 0.251976 0.251976 0.251976 0.251976 0.251976 0.251976 0.251976 0.251976 0.251976 0.251976 0.251976 0.251976 0.264906 0.264906 0.264906 0.264906 0.264906 0.264906 0.264906 0.264906 0.264906 0.264906 0.264906 0.264906 0.264906 0.264906 0.264906 0.264906 0.264906 0.264906 0.264906 0.264906 0.264906 0.264906 0.264906 0.264906 0.264906 0.264906 0.264906 0.264906 0.264906 0.264906 0.264906 0.264906 0.264906 0.264906 0.264906 0.264906 0.264906 0.264906 0.264906 0.264906 0.264906 0.264906 0.264906 0.264906 0.264906 0.264906 0.264906 0.264906 0.264906 0.264906 0.264906 0.264906 0.264906 0.264906 0.264906 0.264906 0.264906 0.264906 0.264906 0.264906 0.264906 0.264906 0.256074 0.256074 0.256074 0.256074 0.256074 0.256074 0.256074 0.256074 0.256074 0.256074 0.256074 0.256074 0.256074 0.256074 0.269680 0.269680 0.269680 0.269680 0.269680 0.269680 0.269680 0.269680 0.269680 0.269680 0.269680 0.269680 0.264906 0.264906 0.264906 0.264906 0.264906 0.264906 0.264906 0.264906 0.264906 0.264906 0.264906 0.264906 0.269680 0.269680 0.269680 0.269680 0.269680 0.269680 0.269680 0.269680 0.269680 0.269680 0.269680 0.264906 0.264906 0.264906 0.264906 0.264906 0.264906 0.264906 0.264906 0.264906 0.264906 0.264906 0.256074 0.256074 0.256074 0.256074 0.256074 0.256074 0.256074 0.256074 0.256074 0.256074 0.256074 0.264906 0.264906 0.264906 0.264906 0.264906 0.264906 0.264906 0.264906 0.264906 0.264906 0.260378 0.260378 0.260378 0.260378 0.260378 0.260378 0.260378 0.260378 0.260378 0.260378 0.256074 0.256074 0.256074 0.256074 0.256074 0.256074 0.256074 0.256074 0.256074 0.256074 0.260378 0.260378 0.260378 0.260378 0.260378 0.260378 0.260378 0.260378 0.260378 0.256074 0.256074 0.256074 0.256074 0.256074 0.256074 0.256074 0.256074 0.256074 0.251976 0.251976 0.251976 0.251976 0.251976 0.251976 0.251976 0.251976 0.251976 0.251976 0.251976 0.251976 0.251976 0.251976
