# Output from CTFFind version 4.1.9, run on 2019-11-04 22:09:21
# Input file: stack11_bm3d_averaged_1_0_0_2500_half.mrc ; Number of micrographs: 1
# Pixel size: 3.000 Angstroms ; acceleration voltage: 300.0 keV ; spherical aberration: 0.00 mm ; amplitude contrast: 0.07
# Box size: 512 pixels ; min. res.: 30.0 Angstroms ; max. res.: 5.0 Angstroms ; min. def.: 5000.0 um; max. def. 50000.0 um; num. frames averaged: 1
# 6 lines per micrograph: #1 - spatial frequency (1/Angstroms); #2 - 1D rotational average of spectrum (assuming no astigmatism); #3 - 1D rotational average of spectrum; #4 - CTF fit; #5 - cross-correlation between spectrum and CTF fit; #6 - 2sigma of expected cross correlation of noise
0.000000 0.000651 0.001302 0.001953 0.002604 0.003255 0.003906 0.004557 0.005208 0.005859 0.006510 0.007161 0.007812 0.008464 0.009115 0.009766 0.010417 0.011068 0.011719 0.012370 0.013021 0.013672 0.014323 0.014974 0.015625 0.016276 0.016927 0.017578 0.018229 0.018880 0.019531 0.020182 0.020833 0.021484 0.022135 0.022786 0.023438 0.024089 0.024740 0.025391 0.026042 0.026693 0.027344 0.027995 0.028646 0.029297 0.029948 0.030599 0.031250 0.031901 0.032552 0.033203 0.033854 0.034505 0.035156 0.035807 0.036458 0.037109 0.037760 0.038411 0.039062 0.039714 0.040365 0.041016 0.041667 0.042318 0.042969 0.043620 0.044271 0.044922 0.045573 0.046224 0.046875 0.047526 0.048177 0.048828 0.049479 0.050130 0.050781 0.051432 0.052083 0.052734 0.053385 0.054036 0.054688 0.055339 0.055990 0.056641 0.057292 0.057943 0.058594 0.059245 0.059896 0.060547 0.061198 0.061849 0.062500 0.063151 0.063802 0.064453 0.065104 0.065755 0.066406 0.067057 0.067708 0.068359 0.069010 0.069661 0.070312 0.070964 0.071615 0.072266 0.072917 0.073568 0.074219 0.074870 0.075521 0.076172 0.076823 0.077474 0.078125 0.078776 0.079427 0.080078 0.080729 0.081380 0.082031 0.082682 0.083333 0.083984 0.084635 0.085286 0.085938 0.086589 0.087240 0.087891 0.088542 0.089193 0.089844 0.090495 0.091146 0.091797 0.092448 0.093099 0.093750 0.094401 0.095052 0.095703 0.096354 0.097005 0.097656 0.098307 0.098958 0.099609 0.100260 0.100911 0.101562 0.102214 0.102865 0.103516 0.104167 0.104818 0.105469 0.106120 0.106771 0.107422 0.108073 0.108724 0.109375 0.110026 0.110677 0.111328 0.111979 0.112630 0.113281 0.113932 0.114583 0.115234 0.115885 0.116536 0.117188 0.117839 0.118490 0.119141 0.119792 0.120443 0.121094 0.121745 0.122396 0.123047 0.123698 0.124349 0.125000 0.125651 0.126302 0.126953 0.127604 0.128255 0.128906 0.129557 0.130208 0.130859 0.131510 0.132161 0.132812 0.133464 0.134115 0.134766 0.135417 0.136068 0.136719 0.137370 0.138021 0.138672 0.139323 0.139974 0.140625 0.141276 0.141927 0.142578 0.143229 0.143880 0.144531 0.145182 0.145833 0.146484 0.147135 0.147786 0.148438 0.149089 0.149740 0.150391 0.151042 0.151693 0.152344 0.152995 0.153646 0.154297 0.154948 0.155599 0.156250 0.156901 0.157552 0.158203 0.158854 0.159505 0.160156 0.160807 0.161458 0.162109 0.162760 0.163411 0.164062 0.164714 0.165365 0.166016 0.166667 0.167318 0.167969 0.168620 0.169271 0.169922 0.170573 0.171224 0.171875 0.172526 0.173177 0.173828 0.174479 0.175130 0.175781 0.176432 0.177083 0.177734 0.178385 0.179036 0.179688 0.180339 0.180990 0.181641 0.182292 0.182943 0.183594 0.184245 0.184896 0.185547 0.186198 0.186849 0.187500 0.188151 0.188802 0.189453 0.190104 0.190755 0.191406 0.192057 0.192708 0.193359 0.194010 0.194661 0.195312 0.195964 0.196615 0.197266 0.197917 0.198568 0.199219 0.199870 0.200521 0.201172 0.201823 0.202474 0.203125 0.203776 0.204427 0.205078 0.205729 0.206380 0.207031 0.207682 0.208333 0.208984 0.209635 0.210286 0.210938 0.211589 0.212240 0.212891 0.213542 0.214193 0.214844 0.215495 0.216146 0.216797 0.217448 0.218099 0.218750 0.219401 0.220052 0.220703 0.221354 0.222005 0.222656 0.223307 0.223958 0.224609 0.225260 0.225911 0.226562 0.227214 0.227865 0.228516 0.229167 0.229818 0.230469 0.231120 0.231771 0.232422 0.233073 0.233724 0.234375 0.235026 0.235677
       0.31574        0.31574        0.31574        0.31574        0.31574        0.31574        0.31574        0.31574        0.31574        0.31574        0.31574        0.31574        0.31574        0.31574        0.31574        0.31574        0.31574        0.31574        0.31574        0.31574        0.31574        0.31574        0.31574        0.31574        0.31574        0.31574        0.31574        0.31574        0.31574        0.31574        0.31574        0.31574        0.31574        0.31574        0.31574        0.31574        0.31574        0.31574        0.31574        0.31574        0.31574        0.31574        0.31574        0.31574        0.31574        0.31574        0.31574        0.31574        0.31574        0.31574        0.31574        0.68445        0.87244        0.52052        0.08413       -0.07036       -0.42864       -0.21034       -0.29905       -0.11997       -0.08092       -0.11934       -0.07156       -0.21291       -0.24075       -0.26322       -0.33272       -0.33894       -0.49637       -0.38649       -0.46955       -0.45440       -0.42304       -0.47286       -0.55264       -0.56717       -0.59091       -0.63151       -0.58295       -0.41975       -0.38101       -0.33171       -0.31942       -0.21602       -0.20130        0.01940        0.06433        0.09914        0.22099        0.37101        0.44106        0.51581        0.55807        0.55328        0.57229        0.69864        0.81535        0.74795        0.73477        0.67609        0.58285        0.48674        0.40517        0.49140        0.36902        0.19688        0.07556        0.04215        0.00336       -0.06195       -0.04367       -0.03077       -0.07652       -0.00709       -0.02433        0.20772        0.24683        0.29153        0.42993        0.46847        0.40300        0.52884        0.63140        0.70463        0.76953        0.69150        0.66334        0.70128        0.58930        0.50829        0.41758        0.28815        0.18329        0.15604        0.10777        0.03389        0.01142       -0.00290        0.07453        0.13054        0.20041        0.28413        0.40441        0.41460        0.50998        0.60082        0.63609        0.61065        0.63063        0.55261        0.44423        0.44039        0.34975        0.22933        0.18564        0.14906        0.10101        0.11669        0.06097        0.09722        0.21682        0.26177        0.33756        0.34281        0.45281        0.51120        0.53576        0.55176        0.46703        0.42536        0.39355        0.37914        0.30961        0.24952        0.19889        0.18173        0.15983        0.18906        0.17528        0.26758        0.33139        0.36176        0.41880        0.46168        0.47684        0.44608        0.39132        0.41110        0.37654        0.29150        0.27565        0.22999        0.21092        0.19192        0.20937        0.23025        0.32743        0.37074        0.36495        0.45530        0.43817        0.44021        0.43054        0.39466        0.34205        0.32926        0.27729        0.23130        0.23342        0.26513        0.26714        0.29764        0.29497        0.33920        0.32868        0.41053        0.41535        0.37295        0.34206        0.36162        0.27912        0.27775        0.26268        0.27568        0.25819        0.28053        0.29370        0.31674        0.35292        0.35700        0.35873        0.33092        0.35054        0.28624        0.32312        0.26566        0.24866        0.27968        0.27897        0.30519        0.31524        0.33192        0.32298        0.31045        0.31788        0.28678        0.28297        0.25899        0.28172        0.26948        0.31092        0.28279        0.25837        0.30674        0.31074        0.31549        0.29237        0.29690        0.29376        0.24119        0.23491        0.21772        0.27568        0.26931        0.30336        0.31789        0.31923        0.31021        0.30023        0.27550        0.28103        0.33166        0.27640        0.27008        0.29275        0.29669        0.34161        0.33922        0.36352        0.33048        0.31060        0.27979        0.26168        0.26219        0.22431        0.26402        0.29805        0.29740        0.27662        0.29482        0.27012        0.32109        0.33557        0.25124        0.21625        0.26556        0.33693        0.27908        0.31405        0.32668        0.32841        0.29679        0.31766        0.34569        0.29661        0.29562        0.26380        0.27294        0.34710        0.34840        0.25709        0.26849        0.25391        0.27159        0.22892        0.28983        0.22170        0.25247        0.32147        0.31356        0.34059        0.29749        0.23366        0.23719        0.24214        0.24536        0.17617        0.21491        0.25808        0.28650        0.28183        0.29957        0.28698        0.28044        0.28437        0.20913        0.18196        0.18141        0.23434        0.20141        0.22347        0.23232        0.20915        0.24649        0.32923        0.29219        0.30318        0.21843        0.27003        0.23663        0.28045        0.30347        0.14904        0.21015        0.22704        0.14137        0.24329        0.11130        0.17227        0.18522        0.13027       -0.12124       -0.65573
2.586594 2.559601 2.532754 2.506054 2.479500 2.453092 2.426830 2.400716 2.374747 2.348924 2.323248 2.297719 2.272335 2.247098 2.222007 2.197063 2.172265 2.147613 2.123107 2.098748 2.074535 2.050469 2.026548 2.002775 1.979147 1.955666 1.932331 1.909142 1.886100 1.863204 1.840455 1.817851 1.795394 1.773084 1.750919 1.728902 1.707030 1.685305 1.663726 1.642293 1.621007 1.599867 1.578873 1.558026 1.537325 1.516770 1.496361 1.476099 1.455984 1.436014 1.416191 1.639264 2.043920 1.615113 1.127949 0.985985 0.423123 0.811786 0.562657 0.835825 0.771876 0.788400 0.753105 0.710257 0.559534 0.510911 0.486587 0.448285 0.203261 0.380395 0.205480 0.303485 0.240339 0.181739 0.129006 0.002960 0.044926 -0.015534 -0.054973 0.104366 0.206622 0.199216 0.153764 0.331644 0.198318 0.502005 0.571268 0.545039 0.589691 0.879032 0.807249 0.947220 0.889338 0.973625 0.940225 1.082106 1.143094 1.083024 1.126316 0.958945 0.944715 0.787101 0.651769 0.768918 0.701173 0.458445 0.306765 0.253630 0.208554 0.148774 0.088293 0.124845 0.064905 0.158119 0.049023 0.261140 0.376649 0.362260 0.478057 0.587612 0.472187 0.538002 0.699829 0.752659 0.779918 0.737127 0.737509 0.720655 0.628519 0.575496 0.432231 0.284657 0.207133 0.076841 0.133981 -0.043373 -0.027415 -0.082294 -0.036045 0.008039 0.140286 0.094544 0.306825 0.277441 0.366818 0.451497 0.526356 0.508976 0.517376 0.505676 0.333375 0.305825 0.275981 0.101932 0.048860 0.002011 -0.037949 -0.042378 -0.095973 -0.101625 -0.020533 0.053703 0.137595 0.131933 0.226168 0.334676 0.303525 0.413238 0.397656 0.282102 0.233044 0.254879 0.215423 0.101526 0.071313 0.017730 0.002544 0.005723 -0.019025 0.059123 0.148176 0.141827 0.223425 0.250883 0.306088 0.261570 0.219812 0.188185 0.209298 0.155030 0.046177 0.054331 -0.008105 -0.011152 -0.031255 0.015113 0.018218 0.172211 0.121615 0.186878 0.233367 0.204566 0.195728 0.200888 0.134466 0.107410 0.067797 0.043652 -0.041480 0.007120 0.018783 0.052403 0.045797 0.077398 0.099846 0.119122 0.140085 0.182946 0.076025 0.096231 0.068635 -0.001207 0.004390 0.008770 -0.010351 0.016487 0.004597 0.033573 0.072509 0.092557 0.094596 0.052668 0.093407 0.055749 0.013665 0.061989 -0.036766 -0.014721 0.017381 -0.000350 0.048244 0.057245 0.046051 0.056360 0.043766 0.046405 0.016123 -0.005352 0.001304 0.016339 -0.014731 0.067282 -0.016667 0.002505 0.051663 0.048148 0.027716 0.045218 0.037369 0.016581 -0.028647 -0.048642 -0.020160 0.014398 0.015568 0.054505 0.062703 0.051649 0.080502 0.059504 0.023400 0.061490 0.089031 0.026046 0.028470 0.056863 0.058652 0.104802 0.114193 0.118930 0.111562 0.063973 0.046489 0.033200 0.009864 -0.003842 0.048097 0.079431 0.050898 0.031892 0.034756 0.032994 0.084072 0.075551 -0.044316 -0.051356 0.031523 0.095072 0.015368 0.037531 0.066005 0.090035 0.020716 0.057882 0.091046 0.035039 0.043170 -0.022850 0.008995 0.108216 0.067428 -0.060055 -0.019409 -0.050756 -0.000114 -0.099401 0.031157 -0.114032 -0.035175 0.037637 0.019563 0.025838 -0.046167 -0.070812 -0.094678 -0.080079 -0.064807 -0.139493 -0.099763 -0.041215 0.000429 -0.029270 0.028707 -0.027482 -0.043699 0.053276 -0.114104 -0.093504 -0.105949 -0.007034 -0.059604 -0.024539 -0.012135 0.009927 0.009656 0.166204 -0.010017 0.137946 -0.007120 0.276979 0.247828 0.320479 0.278826 0.116335 0.212705 0.273103 0.063207 0.267947 0.115124 0.159129 0.236622 0.132228 -0.675719
0.072396 0.072898 0.074405 0.076917 0.080431 0.084949 0.090468 0.096987 0.104504 0.113015 0.122518 0.133009 0.144481 0.156929 0.170345 0.184720 0.200042 0.216299 0.233475 0.251555 0.270517 0.290338 0.310994 0.332453 0.354684 0.377650 0.401308 0.425613 0.450514 0.475956 0.501877 0.528210 0.554884 0.581818 0.608928 0.636122 0.663302 0.690363 0.717193 0.743674 0.769680 0.795079 0.819732 0.843494 0.866214 0.887735 0.907896 0.926529 0.943463 0.958526 0.971540 0.982328 0.990712 0.996515 0.999561 0.999680 0.996706 0.990479 0.980848 0.967674 0.950829 0.930200 0.905690 0.877223 0.844740 0.808209 0.767623 0.723000 0.674390 0.621875 0.565570 0.505625 0.442227 0.375603 0.306018 0.233776 0.159224 0.082748 0.004773 0.074236 0.153776 0.233310 0.312268 0.390050 0.466031 0.539565 0.609991 0.676637 0.738827 0.795892 0.847170 0.892023 0.929839 0.960043 0.982107 0.995561 0.999998 0.995089 0.980586 0.956338 0.922293 0.878510 0.825162 0.762543 0.691074 0.611303 0.523906 0.429688 0.329579 0.224627 0.115993 0.004943 0.107171 0.218916 0.328805 0.435307 0.536875 0.631964 0.719060 0.796703 0.863515 0.918228 0.959712 0.987000 0.999315 0.996095 0.977013 0.942000 0.891254 0.825258 0.744781 0.650883 0.544909 0.428477 0.303463 0.171977 0.036333 0.100990 0.237386 0.370169 0.496635 0.614104 0.719992 0.811864 0.887500 0.944954 0.982609 0.999232 0.994023 0.966652 0.917289 0.846625 0.755880 0.646796 0.521620 0.383066 0.234272 0.078737 0.079753 0.237220 0.389581 0.532758 0.662793 0.775961 0.868882 0.938634 0.982857 0.999843 0.988618 0.948996 0.881622 0.787988 0.670419 0.532039 0.376700 0.208899 0.033652 0.143640 0.317359 0.481841 0.631569 0.761357 0.866544 0.943181 0.988185 0.999489 0.976148 0.918423 0.827812 0.707046 0.560028 0.391737 0.208080 0.015695 0.178268 0.366418 0.541392 0.696162 0.824313 0.920339 0.979891 0.999999 0.979249 0.917891 0.817893 0.682908 0.518182 0.330381 0.127336 0.082258 0.289199 0.484190 0.658250 0.803144 0.911791 0.978632 0.999950 0.974103 0.901671 0.785505 0.630657 0.444196 0.234933 0.013013 0.210541 0.424382 0.617403 0.779333 0.901305 0.976366 0.999911 0.970007 0.887576 0.756436 0.583174 0.376863 0.148623 0.088944 0.322442 0.538420 0.724165 0.868461 0.962308 0.999515 0.977159 0.895858 0.759832 0.576748 0.357345 0.114842 0.135816 0.378874 0.598740 0.781011 0.913435 0.986781 0.995529 0.938345 0.818283 0.642701 0.422872 0.173316 0.089106 0.346329 0.580297 0.774254 0.913980 0.988868 0.992795 0.924685 0.788721 0.594174 0.354837 0.088123 0.186179 0.447342 0.675258 0.852028 0.963395 0.999958 0.958046 0.840140 0.654841 0.416322 0.143318 0.142293 0.417216 0.658621 0.846084 0.963349 0.999799 0.951511 0.821745 0.620845 0.365493 0.077419 0.218401 0.495886 0.730150 0.899767 0.988792 0.988341 0.897572 0.723946 0.482736 0.195764 0.110480 0.407268 0.666289 0.862399 0.976108 0.995609 0.918099 0.750263 0.507823 0.214170 0.101799 0.408491 0.674758 0.873076 0.982479 0.990849 0.896385 0.708012 0.444666 0.133516 0.192762 0.499377 0.753116 0.926009 0.998478 0.961673 0.818679 0.584416 0.284234 0.048729 0.377148 0.663651 0.875113 0.986560 0.984225 0.867392 0.648740 0.353123 0.014883 0.326074 0.628940 0.856906 0.981718 0.987298 0.871950 0.648870 0.344789 0.003077 0.351502 0.656587 0.879303 0.990592 0.975272 0.834273 0.584828 0.258553 0.102454
1.000000 1.000000 1.000000 1.000000 1.000000 1.000000 1.000000 1.000000 1.000000 1.000000 1.000000 1.000000 1.000000 1.000000 1.000000 1.000000 1.000000 1.000000 1.000000 1.000000 1.000000 1.000000 1.000000 1.000000 1.000000 1.000000 1.000000 1.000000 1.000000 1.000000 1.000000 1.000000 1.000000 1.000000 1.000000 1.000000 1.000000 1.000000 1.000000 1.000000 1.000000 1.000000 1.000000 1.000000 1.000000 1.000000 1.000000 1.000000 1.000000 1.000000 1.000000 1.000000 0.931943 0.931943 0.931943 0.923853 0.923853 0.923853 0.923853 0.923853 0.923853 0.923853 0.923853 0.923853 0.923853 0.923853 0.923853 0.923853 0.923853 0.923853 0.923853 0.923853 0.923853 0.923853 0.923853 0.923853 0.923853 0.923853 0.923853 0.923853 0.923853 0.923853 0.923853 0.923853 0.923853 0.923853 0.923853 0.923853 0.923853 0.923853 0.923853 0.923853 0.923853 0.923853 0.923853 0.923853 0.949865 0.951089 0.958939 0.958763 0.958250 0.956116 0.955216 0.954071 0.953625 0.953896 0.954501 0.955336 0.967101 0.968118 0.969661 0.970457 0.971156 0.971797 0.971636 0.972419 0.971647 0.971090 0.970569 0.966560 0.967217 0.967797 0.967940 0.967684 0.967239 0.971124 0.971276 0.970683 0.969829 0.967585 0.966614 0.966193 0.965907 0.966009 0.966469 0.967772 0.970957 0.970355 0.970071 0.970228 0.970326 0.970498 0.970915 0.971741 0.967723 0.966187 0.964403 0.962139 0.966320 0.963395 0.963194 0.964563 0.964964 0.965386 0.964251 0.960086 0.954335 0.953520 0.951263 0.942099 0.941249 0.941991 0.944472 0.945025 0.943590 0.936687 0.937206 0.930058 0.931813 0.935104 0.929003 0.929362 0.930536 0.930484 0.929825 0.929316 0.926473 0.924124 0.922681 0.922358 0.925302 0.925004 0.926205 0.926155 0.920595 0.912781 0.901559 0.899495 0.895234 0.898237 0.886884 0.889793 0.888423 0.883621 0.886923 0.886642 0.887589 0.884241 0.868583 0.852726 0.846888 0.851004 0.855801 0.855843 0.852202 0.845307 0.856613 0.828706 0.840603 0.849228 0.844716 0.844706 0.842606 0.840948 0.836630 0.838401 0.839823 0.840886 0.837726 0.834857 0.835270 0.815861 0.817240 0.759954 0.742896 0.731229 0.735996 0.743862 0.744311 0.743005 0.751173 0.755642 0.748024 0.732344 0.725919 0.722706 0.727195 0.720899 0.721667 0.701869 0.669943 0.665455 0.637986 0.654670 0.665283 0.628964 0.652444 0.663508 0.664251 0.662932 0.656829 0.653889 0.648606 0.650232 0.654919 0.666584 0.683829 0.706847 0.699920 0.690279 0.683685 0.664244 0.657548 0.653793 0.675678 0.651814 0.649172 0.669429 0.668217 0.649802 0.623464 0.611977 0.607484 0.602680 0.613333 0.598230 0.592329 0.582321 0.559225 0.554959 0.587679 0.602730 0.627118 0.598816 0.587270 0.577971 0.560211 0.570875 0.506406 0.506971 0.529263 0.537376 0.516472 0.504939 0.515845 0.518267 0.514554 0.504904 0.498799 0.491137 0.508293 0.547425 0.534426 0.515645 0.516603 0.516314 0.508567 0.417543 0.412316 0.388693 0.355073 0.296302 0.279133 0.270722 0.255059 0.243077 0.206480 0.203355 0.213019 0.216472 0.230352 0.232882 0.213705 0.225836 0.222893 0.209327 0.146523 0.136199 0.128276 0.117440 0.114947 0.090521 0.118931 0.191047 0.193077 0.193077 0.193077 0.193077 0.193077 0.193077 0.198954 0.198954 0.198954 0.198954 0.198954 0.198954 0.198954 0.198954 0.198954 0.210782 0.210782 0.210782 0.210782 0.210782 0.210782 0.210782 0.210782 0.210782 0.210782 0.210782 0.210782 0.210782 0.210782
0.000000 0.000000 0.000000 0.000000 0.000000 0.000000 0.000000 0.000000 0.000000 0.000000 0.000000 0.000000 0.000000 0.000000 0.000000 0.000000 0.000000 0.000000 0.000000 0.000000 0.000000 0.000000 0.000000 0.000000 0.000000 0.000000 0.000000 0.000000 0.000000 0.000000 0.000000 0.000000 0.000000 0.000000 0.000000 0.000000 0.000000 0.000000 0.000000 0.000000 0.000000 0.000000 0.000000 0.000000 0.000000 0.000000 0.000000 0.000000 0.000000 0.000000 0.000000 0.000000 0.180334 0.180334 0.180334 0.199007 0.199007 0.199007 0.199007 0.199007 0.199007 0.199007 0.199007 0.199007 0.199007 0.199007 0.199007 0.199007 0.199007 0.199007 0.199007 0.199007 0.199007 0.199007 0.199007 0.199007 0.199007 0.199007 0.199007 0.199007 0.199007 0.199007 0.199007 0.199007 0.199007 0.199007 0.199007 0.199007 0.199007 0.199007 0.199007 0.199007 0.199007 0.199007 0.199007 0.199007 0.225018 0.225018 0.225018 0.225018 0.225018 0.225018 0.225018 0.225018 0.225018 0.225018 0.225018 0.225018 0.225018 0.225018 0.225018 0.225018 0.225018 0.225018 0.225018 0.225018 0.225018 0.225018 0.225018 0.225018 0.225018 0.225018 0.225018 0.225018 0.225018 0.244339 0.244339 0.244339 0.244339 0.244339 0.244339 0.244339 0.244339 0.244339 0.244339 0.244339 0.244339 0.244339 0.244339 0.244339 0.244339 0.244339 0.244339 0.244339 0.244339 0.244339 0.244339 0.244339 0.251976 0.251976 0.251976 0.251976 0.251976 0.251976 0.251976 0.251976 0.251976 0.251976 0.251976 0.251976 0.251976 0.251976 0.251976 0.251976 0.251976 0.251976 0.251976 0.251976 0.264906 0.264906 0.264906 0.264906 0.264906 0.264906 0.264906 0.264906 0.264906 0.264906 0.264906 0.264906 0.264906 0.264906 0.264906 0.264906 0.264906 0.264906 0.264906 0.264906 0.264906 0.264906 0.264906 0.264906 0.264906 0.264906 0.264906 0.264906 0.264906 0.264906 0.264906 0.264906 0.264906 0.264906 0.264906 0.264906 0.264906 0.264906 0.264906 0.264906 0.264906 0.264906 0.264906 0.264906 0.264906 0.264906 0.264906 0.264906 0.264906 0.264906 0.264906 0.264906 0.264906 0.264906 0.264906 0.264906 0.264906 0.264906 0.264906 0.264906 0.264906 0.264906 0.256074 0.256074 0.256074 0.256074 0.256074 0.256074 0.256074 0.256074 0.256074 0.256074 0.256074 0.256074 0.256074 0.256074 0.269680 0.269680 0.269680 0.269680 0.269680 0.269680 0.269680 0.269680 0.269680 0.269680 0.269680 0.269680 0.264906 0.264906 0.264906 0.264906 0.264906 0.264906 0.264906 0.264906 0.264906 0.264906 0.264906 0.264906 0.269680 0.269680 0.269680 0.269680 0.269680 0.269680 0.269680 0.269680 0.269680 0.269680 0.269680 0.264906 0.264906 0.264906 0.264906 0.264906 0.264906 0.264906 0.264906 0.264906 0.264906 0.264906 0.256074 0.256074 0.256074 0.256074 0.256074 0.256074 0.256074 0.256074 0.256074 0.256074 0.256074 0.264906 0.264906 0.264906 0.264906 0.264906 0.264906 0.264906 0.264906 0.264906 0.264906 0.260378 0.260378 0.260378 0.260378 0.260378 0.260378 0.260378 0.260378 0.260378 0.260378 0.256074 0.256074 0.256074 0.256074 0.256074 0.256074 0.256074 0.256074 0.256074 0.256074 0.260378 0.260378 0.260378 0.260378 0.260378 0.260378 0.260378 0.260378 0.260378 0.256074 0.256074 0.256074 0.256074 0.256074 0.256074 0.256074 0.256074 0.256074 0.251976 0.251976 0.251976 0.251976 0.251976 0.251976 0.251976 0.251976 0.251976 0.251976 0.251976 0.251976 0.251976 0.251976
