# Output from CTFFind version 4.1.9, run on 2019-11-02 17:47:04
# Input file: stack16_bm3d_averaged_1_0.75_0_1250_half.mrc ; Number of micrographs: 1
# Pixel size: 3.000 Angstroms ; acceleration voltage: 300.0 keV ; spherical aberration: 0.00 mm ; amplitude contrast: 0.07
# Box size: 512 pixels ; min. res.: 30.0 Angstroms ; max. res.: 5.0 Angstroms ; min. def.: 5000.0 um; max. def. 50000.0 um; num. frames averaged: 1
# 6 lines per micrograph: #1 - spatial frequency (1/Angstroms); #2 - 1D rotational average of spectrum (assuming no astigmatism); #3 - 1D rotational average of spectrum; #4 - CTF fit; #5 - cross-correlation between spectrum and CTF fit; #6 - 2sigma of expected cross correlation of noise
0.000000 0.000651 0.001302 0.001953 0.002604 0.003255 0.003906 0.004557 0.005208 0.005859 0.006510 0.007161 0.007812 0.008464 0.009115 0.009766 0.010417 0.011068 0.011719 0.012370 0.013021 0.013672 0.014323 0.014974 0.015625 0.016276 0.016927 0.017578 0.018229 0.018880 0.019531 0.020182 0.020833 0.021484 0.022135 0.022786 0.023438 0.024089 0.024740 0.025391 0.026042 0.026693 0.027344 0.027995 0.028646 0.029297 0.029948 0.030599 0.031250 0.031901 0.032552 0.033203 0.033854 0.034505 0.035156 0.035807 0.036458 0.037109 0.037760 0.038411 0.039062 0.039714 0.040365 0.041016 0.041667 0.042318 0.042969 0.043620 0.044271 0.044922 0.045573 0.046224 0.046875 0.047526 0.048177 0.048828 0.049479 0.050130 0.050781 0.051432 0.052083 0.052734 0.053385 0.054036 0.054688 0.055339 0.055990 0.056641 0.057292 0.057943 0.058594 0.059245 0.059896 0.060547 0.061198 0.061849 0.062500 0.063151 0.063802 0.064453 0.065104 0.065755 0.066406 0.067057 0.067708 0.068359 0.069010 0.069661 0.070312 0.070964 0.071615 0.072266 0.072917 0.073568 0.074219 0.074870 0.075521 0.076172 0.076823 0.077474 0.078125 0.078776 0.079427 0.080078 0.080729 0.081380 0.082031 0.082682 0.083333 0.083984 0.084635 0.085286 0.085938 0.086589 0.087240 0.087891 0.088542 0.089193 0.089844 0.090495 0.091146 0.091797 0.092448 0.093099 0.093750 0.094401 0.095052 0.095703 0.096354 0.097005 0.097656 0.098307 0.098958 0.099609 0.100260 0.100911 0.101562 0.102214 0.102865 0.103516 0.104167 0.104818 0.105469 0.106120 0.106771 0.107422 0.108073 0.108724 0.109375 0.110026 0.110677 0.111328 0.111979 0.112630 0.113281 0.113932 0.114583 0.115234 0.115885 0.116536 0.117188 0.117839 0.118490 0.119141 0.119792 0.120443 0.121094 0.121745 0.122396 0.123047 0.123698 0.124349 0.125000 0.125651 0.126302 0.126953 0.127604 0.128255 0.128906 0.129557 0.130208 0.130859 0.131510 0.132161 0.132812 0.133464 0.134115 0.134766 0.135417 0.136068 0.136719 0.137370 0.138021 0.138672 0.139323 0.139974 0.140625 0.141276 0.141927 0.142578 0.143229 0.143880 0.144531 0.145182 0.145833 0.146484 0.147135 0.147786 0.148438 0.149089 0.149740 0.150391 0.151042 0.151693 0.152344 0.152995 0.153646 0.154297 0.154948 0.155599 0.156250 0.156901 0.157552 0.158203 0.158854 0.159505 0.160156 0.160807 0.161458 0.162109 0.162760 0.163411 0.164062 0.164714 0.165365 0.166016 0.166667 0.167318 0.167969 0.168620 0.169271 0.169922 0.170573 0.171224 0.171875 0.172526 0.173177 0.173828 0.174479 0.175130 0.175781 0.176432 0.177083 0.177734 0.178385 0.179036 0.179688 0.180339 0.180990 0.181641 0.182292 0.182943 0.183594 0.184245 0.184896 0.185547 0.186198 0.186849 0.187500 0.188151 0.188802 0.189453 0.190104 0.190755 0.191406 0.192057 0.192708 0.193359 0.194010 0.194661 0.195312 0.195964 0.196615 0.197266 0.197917 0.198568 0.199219 0.199870 0.200521 0.201172 0.201823 0.202474 0.203125 0.203776 0.204427 0.205078 0.205729 0.206380 0.207031 0.207682 0.208333 0.208984 0.209635 0.210286 0.210938 0.211589 0.212240 0.212891 0.213542 0.214193 0.214844 0.215495 0.216146 0.216797 0.217448 0.218099 0.218750 0.219401 0.220052 0.220703 0.221354 0.222005 0.222656 0.223307 0.223958 0.224609 0.225260 0.225911 0.226562 0.227214 0.227865 0.228516 0.229167 0.229818 0.230469 0.231120 0.231771 0.232422 0.233073 0.233724 0.234375 0.235026 0.235677
       0.34308        0.34308        0.34308        0.34308        0.34308        0.34308        0.34308        0.34308        0.34308        0.34308        0.34308        0.34308        0.34308        0.34308        0.34308        0.34308        0.34308        0.34308        0.34308        0.34308        0.34308        0.34308        0.34308        0.34308        0.34308        0.34308        0.34308        0.34308        0.34308        0.34308        0.34308        0.34308        0.34308        0.34308        0.34308        0.34308        0.34308        0.34308        0.34308        0.34308        0.34308        0.34308        0.34308        0.34308        0.34308        0.34308        0.34308        0.34308        0.34308        0.34308        0.34308        0.48919        0.70293        0.45562       -0.11074       -0.41293       -0.57108       -0.66094       -0.74541       -0.76218       -0.86874       -0.91365       -0.75943       -0.92466       -0.87159       -1.02416       -1.09611       -0.98870       -0.96141       -0.88343       -0.86162       -0.75102       -0.64083       -0.50000       -0.42307       -0.21813       -0.11794       -0.02278        0.20328        0.24384        0.30888        0.38585        0.43900        0.51609        0.58092        0.59602        0.59206        0.50221        0.54645        0.48651        0.39135        0.32445        0.20725        0.17319        0.10281       -0.06133       -0.11151       -0.09212        0.00993       -0.01749        0.01136        0.02940        0.21033        0.21935        0.39062        0.45703        0.56153        0.70059        0.76086        0.72969        0.70687        0.70306        0.58457        0.54351        0.40020        0.27325        0.19387        0.14475        0.06679        0.02332        0.02303        0.06169        0.07852        0.27140        0.41813        0.50558        0.58811        0.63886        0.70523        0.66095        0.65168        0.67170        0.60972        0.48046        0.28443        0.23433        0.20559        0.13039        0.04629        0.09271        0.12198        0.25037        0.34048        0.41498        0.50089        0.53924        0.66225        0.61028        0.55557        0.50897        0.36569        0.20955        0.21170        0.15245        0.11358        0.12040        0.21548        0.25356        0.36038        0.44311        0.43992        0.56642        0.51159        0.44793        0.45377        0.38374        0.32377        0.27687        0.21851        0.23720        0.21070        0.21161        0.32463        0.44929        0.48680        0.48034        0.55101        0.49635        0.45600        0.39543        0.29365        0.22473        0.23244        0.24658        0.26742        0.27277        0.32502        0.44265        0.49925        0.48684        0.45963        0.41824        0.38744        0.36259        0.24905        0.22713        0.24713        0.29347        0.35410        0.36309        0.39232        0.40912        0.44387        0.37102        0.34827        0.31380        0.30453        0.26610        0.25922        0.31070        0.34593        0.41652        0.41717        0.39804        0.39420        0.40758        0.34961        0.28745        0.29095        0.27644        0.31078        0.35985        0.36651        0.41532        0.36015        0.36740        0.39021        0.34610        0.31573        0.28049        0.29573        0.34041        0.33167        0.32628        0.37650        0.39567        0.33460        0.35233        0.29547        0.30814        0.28846        0.28248        0.30139        0.33131        0.38332        0.36656        0.34764        0.32811        0.28559        0.27739        0.29706        0.28225        0.31371        0.36858        0.39428        0.33778        0.31726        0.31131        0.29832        0.28241        0.27815        0.29911        0.34125        0.33560        0.34422        0.31754        0.34762        0.32397        0.28769        0.31592        0.32264        0.33338        0.33677        0.31987        0.31637        0.30625        0.32808        0.31383        0.33650        0.38941        0.33631        0.36187        0.32138        0.31401        0.28932        0.31016        0.29059        0.31033        0.31747        0.35226        0.36305        0.31696        0.32251        0.31532        0.29414        0.29288        0.28980        0.33390        0.34235        0.35738        0.33561        0.32475        0.25940        0.26755        0.31313        0.34994        0.31736        0.29816        0.28561        0.28800        0.32561        0.30778        0.30740        0.33415        0.34399        0.31342        0.24282        0.28781        0.28340        0.28725        0.32175        0.32213        0.34576        0.34230        0.27976        0.26661        0.29404        0.26803        0.28873        0.27544        0.24641        0.26464        0.24958        0.27868        0.28041        0.27616        0.26706        0.31678        0.32733        0.31474        0.28817        0.30703        0.24466        0.27100        0.25566        0.33570        0.34531        0.23262        0.25817        0.27373        0.24794        0.25148        0.30130        0.23119        0.14246        0.17274        0.24815        0.27774        0.23055        0.14333        0.02870       -0.41724       -0.75335
3.044654 3.006832 2.969253 2.931917 2.894823 2.857973 2.821366 2.785001 2.748879 2.713000 2.677365 2.641972 2.606822 2.571914 2.537250 2.502829 2.468650 2.434715 2.401022 2.367572 2.334365 2.301401 2.268680 2.236202 2.203967 2.171975 2.140225 2.108719 2.077455 2.046434 2.015656 1.985121 1.954829 1.924780 1.894974 1.865411 1.836090 1.807013 1.778178 1.749586 1.721238 1.693132 1.665269 1.637649 1.610271 1.583137 1.556246 1.529597 1.503192 1.477029 1.451109 1.507904 1.696511 1.608332 0.963650 0.680863 0.475465 0.430526 0.320209 0.264020 0.199725 0.021394 0.197036 0.081157 -0.006473 -0.058282 -0.197456 -0.150785 -0.090519 -0.091159 -0.097507 0.010335 0.031689 0.233755 0.149654 0.364605 0.444792 0.476519 0.714171 0.698388 0.707426 0.836980 0.820624 0.851737 0.920561 0.890773 0.937811 0.750872 0.835047 0.838950 0.620163 0.606881 0.457061 0.436227 0.386535 0.209424 0.120625 0.100817 0.205656 0.146123 0.193991 0.111937 0.313086 0.288096 0.457267 0.414754 0.579290 0.642702 0.763698 0.703059 0.653893 0.667305 0.531534 0.505267 0.369067 0.293076 0.118195 0.146581 0.002800 -0.012436 -0.037610 -0.027871 -0.000646 0.033522 0.274557 0.332187 0.386732 0.395541 0.467949 0.520946 0.468438 0.505047 0.400533 0.388954 0.155268 0.067883 0.073180 -0.000215 -0.122817 -0.041921 -0.108746 0.017875 0.136394 0.156536 0.253337 0.256686 0.382240 0.462200 0.354815 0.388920 0.282953 0.127050 0.050094 0.052021 0.013015 0.002846 0.007638 0.108112 0.129209 0.263668 0.236654 0.305920 0.369012 0.239724 0.243005 0.218709 0.132234 0.081816 0.053268 0.026972 0.039183 -0.012866 0.029237 0.185857 0.222241 0.247673 0.280400 0.230483 0.239144 0.147386 0.105882 -0.022070 -0.016818 -0.004837 0.017416 0.009304 0.027806 0.104689 0.188186 0.201759 0.218540 0.138252 0.145686 0.079625 0.056673 -0.058862 -0.014477 -0.006701 0.054107 0.066114 0.077698 0.154214 0.089383 0.162874 0.068878 0.053780 0.045851 0.027554 0.002126 0.009734 0.055145 0.084227 0.133672 0.141027 0.070424 0.131669 0.101198 0.018433 0.008270 0.006108 -0.004047 0.058880 0.061596 0.099431 0.099028 0.070552 0.070855 0.081980 0.035236 0.014095 -0.012100 0.012865 0.060861 0.026654 0.041027 0.081268 0.085875 0.055535 0.033209 0.008118 0.015215 -0.005859 -0.011358 0.015332 0.053660 0.104236 0.060765 0.058067 0.040028 -0.013743 -0.000362 0.014991 0.011084 0.027936 0.104763 0.061171 0.024030 0.043490 0.003079 0.026671 -0.011680 -0.003704 0.023001 0.065530 0.031594 0.046225 0.030662 0.055342 0.026700 -0.004754 0.030171 0.043677 0.041148 0.037449 0.026125 0.005105 -0.006639 0.028515 0.010205 0.046409 0.077524 0.046101 0.026034 0.017665 0.002657 -0.004395 0.008866 0.004067 0.014859 -0.003471 0.083289 0.055670 0.035362 0.044164 0.002321 0.011030 0.010634 -0.004589 0.055821 0.061910 0.086847 0.048801 0.050542 -0.024334 0.015981 0.036570 0.075001 0.033350 0.033606 0.008055 0.006379 0.050955 0.046853 0.036899 0.059349 0.073918 0.056809 -0.022978 0.017813 0.041711 0.022985 0.040744 0.079639 0.075401 0.070201 0.015895 0.004704 0.016331 -0.000861 0.019564 -0.016801 -0.029551 -0.010687 -0.046359 -0.000198 -0.006065 0.006786 -0.073077 0.002825 0.012991 -0.001050 -0.037016 0.027911 -0.093727 -0.021056 -0.042009 0.034196 0.067862 -0.105214 -0.017540 0.036563 0.016374 -0.037267 0.046499 0.032096 -0.002512 -0.045202 0.076690 0.240433 0.201488 0.103610 0.028219 -0.659523
0.072396 0.073046 0.074995 0.078243 0.082788 0.088629 0.095765 0.104191 0.113905 0.124900 0.137171 0.150709 0.165504 0.181543 0.198811 0.217289 0.236956 0.257785 0.279746 0.302804 0.326918 0.352040 0.378118 0.405090 0.432889 0.461439 0.490655 0.520441 0.550696 0.581304 0.612141 0.643073 0.673953 0.704622 0.734912 0.764643 0.793623 0.821648 0.848506 0.873972 0.897815 0.919792 0.939655 0.957150 0.972017 0.983996 0.992825 0.998243 0.999997 0.997836 0.991524 0.980836 0.965566 0.945526 0.920556 0.890522 0.855327 0.814906 0.769240 0.718352 0.662317 0.601264 0.535377 0.464900 0.390144 0.311480 0.229351 0.144262 0.056791 0.032422 0.122669 0.213185 0.303145 0.391675 0.477859 0.560742 0.639349 0.712688 0.779770 0.839616 0.891278 0.933854 0.966501 0.988458 0.999063 0.997769 0.984163 0.957984 0.919137 0.867711 0.803986 0.728450 0.641798 0.544944 0.439014 0.325344 0.205475 0.081129 0.045798 0.173271 0.299138 0.421166 0.537084 0.644618 0.741547 0.825748 0.895246 0.948270 0.983304 0.999134 0.994900 0.970134 0.924800 0.859318 0.774583 0.671975 0.553355 0.421047 0.277804 0.126771 0.028580 0.184520 0.337148 0.482487 0.616587 0.735640 0.836095 0.914772 0.968978 0.996614 0.996268 0.967298 0.909891 0.825103 0.714877 0.582018 0.430155 0.263663 0.087557 0.092650 0.271103 0.441793 0.598764 0.736324 0.849262 0.933070 0.984135 0.999922 0.979125 0.921773 0.829295 0.704529 0.551672 0.376185 0.184615 0.015617 0.216492 0.409699 0.586986 0.740519 0.863241 0.949228 0.993999 0.994791 0.950753 0.863077 0.735022 0.571856 0.380678 0.170158 0.049832 0.268656 0.475423 0.659532 0.811228 0.922151 0.985832 0.998114 0.957469 0.865191 0.725432 0.545082 0.333497 0.102053 0.136427 0.368355 0.580161 0.759093 0.894008 0.976118 0.999610 0.962121 0.865011 0.713418 0.516067 0.284839 0.034115 0.220083 0.461089 0.672698 0.840269 0.951787 0.998787 0.977064 0.887120 0.734293 0.528539 0.283871 0.017476 0.251451 0.503060 0.718329 0.880522 0.976555 0.998128 0.942530 0.813034 0.618842 0.374527 0.099039 0.185702 0.456515 0.690854 0.868696 0.974338 0.997858 0.936152 0.793426 0.581038 0.316743 0.023273 0.273515 0.546907 0.771751 0.926806 0.996846 0.974259 0.860002 0.663759 0.403274 0.102864 0.208754 0.501171 0.745249 0.916069 0.995578 0.974618 0.854112 0.645267 0.368691 0.052503 0.270441 0.565904 0.801926 0.952335 0.999767 0.937826 0.772088 0.519803 0.208285 0.127932 0.450824 0.723182 0.912932 0.997032 0.964422 0.817657 0.572952 0.258605 0.088139 0.425383 0.711634 0.910940 0.997537 0.959339 0.799825 0.537992 0.206308 0.153148 0.493939 0.771231 0.947792 0.999109 0.917009 0.711157 0.408188 0.048471 0.319113 0.643742 0.879717 0.993006 0.966351 0.802126 0.522472 0.166567 0.214674 0.565768 0.834748 0.980949 0.981355 0.834468 0.561042 0.201431 0.190144 0.553649 0.832429 0.982139 0.978020 0.819249 0.529620 0.154286 0.247063 0.609557 0.873652 0.995036 0.952309 0.751045 0.423472 0.023599 0.381454 0.722661 0.940882 0.997314 0.880680 0.609801 0.230909 0.189923 0.578163 0.864010 0.995043 0.946142 0.724628 0.369601 0.054606 0.469876 0.798604 0.978301 0.973729 0.784157 0.444221 0.017974 0.412928 0.764719 0.967930 0.981318 0.800628 0.460169 0.026729 0.413256 0.770796 0.972434 0.975609 0.778015 0.418899 0.028342 0.470822 0.815394 0.988333 0.951451 0.710931 0.316872 0.146735 0.579624
1.000000 1.000000 1.000000 1.000000 1.000000 1.000000 1.000000 1.000000 1.000000 1.000000 1.000000 1.000000 1.000000 1.000000 1.000000 1.000000 1.000000 1.000000 1.000000 1.000000 1.000000 1.000000 1.000000 1.000000 1.000000 1.000000 1.000000 1.000000 1.000000 1.000000 1.000000 1.000000 1.000000 1.000000 1.000000 1.000000 1.000000 1.000000 1.000000 1.000000 1.000000 1.000000 1.000000 1.000000 1.000000 1.000000 1.000000 1.000000 1.000000 1.000000 1.000000 1.000000 0.933108 0.933108 0.933108 0.933108 0.933108 0.933108 0.933108 0.933108 0.933108 0.933108 0.933108 0.933108 0.933108 0.933108 0.933108 0.933108 0.933108 0.933108 0.933108 0.933108 0.933108 0.933108 0.933108 0.933108 0.933108 0.933108 0.933108 0.933108 0.933108 0.933108 0.933108 0.933108 0.933108 0.922422 0.923908 0.926880 0.927951 0.927911 0.927454 0.927139 0.927358 0.929074 0.931394 0.948004 0.950184 0.950756 0.952045 0.952285 0.954802 0.953054 0.952887 0.963438 0.962261 0.962976 0.956042 0.957614 0.956707 0.955784 0.956284 0.956523 0.954598 0.952459 0.950777 0.950143 0.949771 0.951537 0.952012 0.951980 0.953449 0.953417 0.953143 0.949798 0.948363 0.949830 0.951861 0.951006 0.956714 0.956547 0.964588 0.965384 0.963983 0.963884 0.964082 0.964278 0.954636 0.948238 0.942831 0.931148 0.921876 0.919813 0.922698 0.924623 0.923553 0.918993 0.917940 0.915424 0.910165 0.909315 0.909057 0.910637 0.906753 0.903117 0.886764 0.886110 0.888557 0.888030 0.885883 0.877459 0.872662 0.873359 0.876513 0.873972 0.870564 0.886570 0.881849 0.886887 0.890007 0.893138 0.897024 0.893087 0.892078 0.888344 0.884796 0.879685 0.881177 0.871303 0.874100 0.869431 0.860724 0.853791 0.856826 0.865941 0.873788 0.881757 0.880804 0.880581 0.879797 0.871898 0.872718 0.864900 0.865904 0.871175 0.877128 0.873187 0.870541 0.874711 0.872938 0.875163 0.877716 0.873833 0.872050 0.863178 0.863513 0.865563 0.882440 0.882324 0.870521 0.862888 0.853855 0.861167 0.864518 0.863657 0.865290 0.856704 0.858247 0.847570 0.835903 0.837403 0.842094 0.836852 0.838414 0.836316 0.839821 0.841944 0.840063 0.835139 0.833904 0.838589 0.815976 0.822655 0.825504 0.820164 0.824264 0.816517 0.810364 0.805194 0.805192 0.799096 0.809979 0.808243 0.775559 0.765591 0.773444 0.755781 0.747010 0.742960 0.743934 0.718870 0.698991 0.671552 0.666623 0.655265 0.656655 0.656070 0.650738 0.637034 0.623594 0.616932 0.632239 0.635017 0.601130 0.601298 0.595638 0.591028 0.586229 0.583031 0.581856 0.589216 0.594424 0.558761 0.554495 0.560503 0.535821 0.533920 0.531162 0.522847 0.494674 0.501055 0.497327 0.514845 0.542023 0.506400 0.501342 0.511093 0.524658 0.536211 0.536223 0.522206 0.503467 0.515664 0.490974 0.475647 0.492417 0.499996 0.492094 0.507695 0.497698 0.528611 0.521064 0.502085 0.527644 0.541635 0.539317 0.529479 0.542866 0.527324 0.530576 0.516755 0.472674 0.480544 0.463919 0.411266 0.407057 0.425708 0.412351 0.410730 0.383479 0.386814 0.361632 0.327294 0.336480 0.332957 0.295977 0.256412 0.258640 0.260526 0.228463 0.201366 0.221930 0.172701 0.165799 0.185377 0.194435 0.187944 0.183942 0.205851 0.205851 0.205851 0.205851 0.205851 0.205851 0.205851 0.205851 0.205851 0.205851 0.205851 0.205851 0.205851 0.205851 0.231079 0.231079 0.231079 0.231079 0.231079 0.231079 0.231079 0.231079 0.231079 0.231079 0.231079 0.231079
0.000000 0.000000 0.000000 0.000000 0.000000 0.000000 0.000000 0.000000 0.000000 0.000000 0.000000 0.000000 0.000000 0.000000 0.000000 0.000000 0.000000 0.000000 0.000000 0.000000 0.000000 0.000000 0.000000 0.000000 0.000000 7.000000 4.000000 0.000000 0.000000 0.000000 0.000000 0.000000 0.000000 0.000000 0.000000 0.000000 0.000000 0.000000 0.000000 0.000000 0.000000 0.000000 0.000000 0.000000 0.000000 0.000000 0.000000 0.000000 0.000000 0.000000 0.000000 0.000000 0.209657 0.209657 0.209657 0.209657 0.209657 0.209657 0.209657 0.209657 0.209657 0.209657 0.209657 0.209657 0.209657 0.209657 0.209657 0.209657 0.209657 0.209657 0.209657 0.209657 0.209657 0.209657 0.209657 0.209657 0.209657 0.209657 0.209657 0.209657 0.209657 0.209657 0.209657 0.209657 0.209657 0.244339 0.244339 0.244339 0.244339 0.244339 0.244339 0.244339 0.244339 0.244339 0.244339 0.244339 0.244339 0.244339 0.244339 0.244339 0.244339 0.244339 0.244339 0.244339 0.244339 0.244339 0.244339 0.244339 0.244339 0.244339 0.260378 0.260378 0.260378 0.260378 0.260378 0.260378 0.260378 0.260378 0.260378 0.260378 0.260378 0.260378 0.260378 0.260378 0.260378 0.260378 0.260378 0.260378 0.260378 0.260378 0.269680 0.269680 0.269680 0.269680 0.269680 0.269680 0.269680 0.269680 0.269680 0.269680 0.269680 0.269680 0.269680 0.269680 0.269680 0.269680 0.269680 0.269680 0.269680 0.269680 0.269680 0.269680 0.269680 0.269680 0.269680 0.269680 0.269680 0.269680 0.269680 0.269680 0.269680 0.269680 0.269680 0.280056 0.280056 0.280056 0.280056 0.280056 0.280056 0.280056 0.280056 0.280056 0.280056 0.280056 0.280056 0.280056 0.280056 0.280056 0.280056 0.280056 0.280056 0.280056 0.280056 0.280056 0.280056 0.280056 0.280056 0.280056 0.280056 0.280056 0.274721 0.274721 0.274721 0.274721 0.274721 0.274721 0.274721 0.274721 0.274721 0.274721 0.274721 0.274721 0.274721 0.285714 0.285714 0.285714 0.285714 0.285714 0.285714 0.285714 0.285714 0.285714 0.285714 0.285714 0.280056 0.280056 0.280056 0.280056 0.280056 0.280056 0.280056 0.280056 0.280056 0.280056 0.280056 0.274721 0.274721 0.274721 0.274721 0.274721 0.274721 0.274721 0.274721 0.274721 0.274721 0.274721 0.280056 0.280056 0.280056 0.280056 0.280056 0.280056 0.280056 0.280056 0.280056 0.280056 0.285714 0.285714 0.285714 0.285714 0.285714 0.285714 0.285714 0.285714 0.285714 0.269680 0.269680 0.269680 0.269680 0.269680 0.269680 0.269680 0.269680 0.269680 0.269680 0.274721 0.274721 0.274721 0.274721 0.274721 0.274721 0.274721 0.274721 0.274721 0.285714 0.285714 0.285714 0.285714 0.285714 0.285714 0.285714 0.285714 0.264906 0.264906 0.264906 0.264906 0.264906 0.264906 0.264906 0.264906 0.264906 0.274721 0.274721 0.274721 0.274721 0.274721 0.274721 0.274721 0.274721 0.269680 0.269680 0.269680 0.269680 0.269680 0.269680 0.269680 0.269680 0.269680 0.269680 0.269680 0.269680 0.269680 0.269680 0.269680 0.269680 0.280056 0.280056 0.280056 0.280056 0.280056 0.280056 0.280056 0.260378 0.260378 0.260378 0.260378 0.260378 0.260378 0.260378 0.260378 0.269680 0.269680 0.269680 0.269680 0.269680 0.269680 0.269680 0.264906 0.264906 0.264906 0.264906 0.264906 0.264906 0.264906 0.264906 0.264906 0.264906 0.264906 0.264906 0.264906 0.264906 0.260378 0.260378 0.260378 0.260378 0.260378 0.260378 0.260378 0.260378 0.260378 0.260378 0.260378 0.260378
