# Output from CTFFind version 4.1.9, run on 2019-11-02 17:50:06
# Input file: stack6_bm3d_averaged_1_1.0_0_3000_half.mrc ; Number of micrographs: 1
# Pixel size: 3.000 Angstroms ; acceleration voltage: 300.0 keV ; spherical aberration: 0.00 mm ; amplitude contrast: 0.07
# Box size: 512 pixels ; min. res.: 30.0 Angstroms ; max. res.: 5.0 Angstroms ; min. def.: 5000.0 um; max. def. 50000.0 um; num. frames averaged: 1
# 6 lines per micrograph: #1 - spatial frequency (1/Angstroms); #2 - 1D rotational average of spectrum (assuming no astigmatism); #3 - 1D rotational average of spectrum; #4 - CTF fit; #5 - cross-correlation between spectrum and CTF fit; #6 - 2sigma of expected cross correlation of noise
0.000000 0.000651 0.001302 0.001953 0.002604 0.003255 0.003906 0.004557 0.005208 0.005859 0.006510 0.007161 0.007812 0.008464 0.009115 0.009766 0.010417 0.011068 0.011719 0.012370 0.013021 0.013672 0.014323 0.014974 0.015625 0.016276 0.016927 0.017578 0.018229 0.018880 0.019531 0.020182 0.020833 0.021484 0.022135 0.022786 0.023438 0.024089 0.024740 0.025391 0.026042 0.026693 0.027344 0.027995 0.028646 0.029297 0.029948 0.030599 0.031250 0.031901 0.032552 0.033203 0.033854 0.034505 0.035156 0.035807 0.036458 0.037109 0.037760 0.038411 0.039062 0.039714 0.040365 0.041016 0.041667 0.042318 0.042969 0.043620 0.044271 0.044922 0.045573 0.046224 0.046875 0.047526 0.048177 0.048828 0.049479 0.050130 0.050781 0.051432 0.052083 0.052734 0.053385 0.054036 0.054688 0.055339 0.055990 0.056641 0.057292 0.057943 0.058594 0.059245 0.059896 0.060547 0.061198 0.061849 0.062500 0.063151 0.063802 0.064453 0.065104 0.065755 0.066406 0.067057 0.067708 0.068359 0.069010 0.069661 0.070312 0.070964 0.071615 0.072266 0.072917 0.073568 0.074219 0.074870 0.075521 0.076172 0.076823 0.077474 0.078125 0.078776 0.079427 0.080078 0.080729 0.081380 0.082031 0.082682 0.083333 0.083984 0.084635 0.085286 0.085938 0.086589 0.087240 0.087891 0.088542 0.089193 0.089844 0.090495 0.091146 0.091797 0.092448 0.093099 0.093750 0.094401 0.095052 0.095703 0.096354 0.097005 0.097656 0.098307 0.098958 0.099609 0.100260 0.100911 0.101562 0.102214 0.102865 0.103516 0.104167 0.104818 0.105469 0.106120 0.106771 0.107422 0.108073 0.108724 0.109375 0.110026 0.110677 0.111328 0.111979 0.112630 0.113281 0.113932 0.114583 0.115234 0.115885 0.116536 0.117188 0.117839 0.118490 0.119141 0.119792 0.120443 0.121094 0.121745 0.122396 0.123047 0.123698 0.124349 0.125000 0.125651 0.126302 0.126953 0.127604 0.128255 0.128906 0.129557 0.130208 0.130859 0.131510 0.132161 0.132812 0.133464 0.134115 0.134766 0.135417 0.136068 0.136719 0.137370 0.138021 0.138672 0.139323 0.139974 0.140625 0.141276 0.141927 0.142578 0.143229 0.143880 0.144531 0.145182 0.145833 0.146484 0.147135 0.147786 0.148438 0.149089 0.149740 0.150391 0.151042 0.151693 0.152344 0.152995 0.153646 0.154297 0.154948 0.155599 0.156250 0.156901 0.157552 0.158203 0.158854 0.159505 0.160156 0.160807 0.161458 0.162109 0.162760 0.163411 0.164062 0.164714 0.165365 0.166016 0.166667 0.167318 0.167969 0.168620 0.169271 0.169922 0.170573 0.171224 0.171875 0.172526 0.173177 0.173828 0.174479 0.175130 0.175781 0.176432 0.177083 0.177734 0.178385 0.179036 0.179688 0.180339 0.180990 0.181641 0.182292 0.182943 0.183594 0.184245 0.184896 0.185547 0.186198 0.186849 0.187500 0.188151 0.188802 0.189453 0.190104 0.190755 0.191406 0.192057 0.192708 0.193359 0.194010 0.194661 0.195312 0.195964 0.196615 0.197266 0.197917 0.198568 0.199219 0.199870 0.200521 0.201172 0.201823 0.202474 0.203125 0.203776 0.204427 0.205078 0.205729 0.206380 0.207031 0.207682 0.208333 0.208984 0.209635 0.210286 0.210938 0.211589 0.212240 0.212891 0.213542 0.214193 0.214844 0.215495 0.216146 0.216797 0.217448 0.218099 0.218750 0.219401 0.220052 0.220703 0.221354 0.222005 0.222656 0.223307 0.223958 0.224609 0.225260 0.225911 0.226562 0.227214 0.227865 0.228516 0.229167 0.229818 0.230469 0.231120 0.231771 0.232422 0.233073 0.233724 0.234375 0.235026 0.235677
       0.31388        0.31388        0.31388        0.31388        0.31388        0.31388        0.31388        0.31388        0.31388        0.31388        0.31388        0.31388        0.31388        0.31388        0.31388        0.31388        0.31388        0.31388        0.31388        0.31388        0.31388        0.31388        0.31388        0.31388        0.31388        0.31388        0.31388        0.31388        0.31388        0.31388        0.31388        0.31388        0.31388        0.31388        0.31388        0.31388        0.31388        0.31388        0.31388        0.31388        0.31388        0.31388        0.31388        0.31388        0.31388        0.31388        0.31388        0.31388        0.31388        0.31388        0.31388        0.63865        0.82128        0.41783        0.31479        0.19333       -0.10293        0.11467        0.00025        0.03623        0.12016        0.33956        0.42973        0.41158        0.22835       -0.00704        0.05015        0.07568       -0.16357       -0.17530       -0.08800       -0.10580       -0.29117       -0.18400       -0.30068       -0.25347       -0.28066       -0.39833       -0.47349       -0.47536       -0.41928       -0.33744       -0.43638       -0.36616       -0.40767       -0.34861       -0.27062       -0.19690       -0.19132       -0.13231       -0.09210        0.03841        0.08657        0.25097        0.28453        0.37455        0.40384        0.51808        0.58970        0.60827        0.74432        0.70145        0.74158        0.65129        0.66735        0.70061        0.63588        0.61703        0.61044        0.43806        0.40041        0.36193        0.32703        0.22588        0.13898        0.06332        0.06071       -0.00118       -0.07720       -0.03159       -0.02882       -0.06688        0.06524        0.16773        0.25793        0.32275        0.34002        0.43355        0.54647        0.59182        0.54465        0.66925        0.56679        0.54373        0.60084        0.64215        0.53344        0.46067        0.40918        0.37966        0.25598        0.21869        0.13371        0.11701        0.05817        0.06539        0.11330        0.16969        0.15139        0.18200        0.22002        0.24039        0.33593        0.45758        0.49808        0.49955        0.52467        0.57994        0.57331        0.52539        0.42599        0.38837        0.36887        0.27146        0.25090        0.22055        0.20894        0.20873        0.18526        0.15947        0.12515        0.19038        0.24900        0.35067        0.38471        0.40759        0.46313        0.53771        0.48073        0.48651        0.42371        0.40202        0.38476        0.36565        0.29177        0.26307        0.20611        0.23788        0.22082        0.19583        0.21931        0.22747        0.24525        0.30029        0.40263        0.40153        0.37308        0.39190        0.45703        0.48513        0.43061        0.35770        0.32851        0.28633        0.26372        0.24676        0.21421        0.28543        0.29543        0.29468        0.31754        0.31269        0.35133        0.37426        0.37535        0.37714        0.35674        0.32113        0.33783        0.32188        0.30330        0.28469        0.27306        0.21885        0.27414        0.27667        0.30482        0.32333        0.34494        0.37506        0.34042        0.32065        0.36017        0.37275        0.27224        0.29992        0.30924        0.24624        0.21488        0.26232        0.27303        0.27908        0.30126        0.30700        0.33574        0.33714        0.36400        0.33121        0.32792        0.31173        0.29318        0.27187        0.24650        0.25633        0.26216        0.27626        0.30252        0.29439        0.29842        0.31550        0.33280        0.26802        0.30701        0.26860        0.26394        0.27897        0.26636        0.26100        0.26760        0.31568        0.29004        0.32148        0.29074        0.27914        0.31179        0.31276        0.33387        0.31658        0.29790        0.25718        0.27011        0.27818        0.26700        0.31303        0.31946        0.34079        0.32645        0.30748        0.26357        0.28750        0.21561        0.20470        0.24519        0.26881        0.25578        0.29171        0.31218        0.29517        0.35195        0.31047        0.27093        0.23523        0.23490        0.28689        0.30691        0.30695        0.26826        0.27668        0.25158        0.32178        0.28691        0.25122        0.26895        0.25589        0.29242        0.25273        0.29352        0.33011        0.28895        0.21387        0.22579        0.27772        0.32744        0.27803        0.26753        0.24358        0.28057        0.28842        0.37614        0.30293        0.28941        0.26341        0.26633        0.22462        0.18459        0.25811        0.23018        0.20746        0.19341        0.19404        0.23688        0.23163        0.24647        0.19614        0.24877        0.22899        0.20602        0.18261        0.16334        0.19969        0.23717        0.15633        0.08294        0.20540        0.19837        0.15121        0.24862        0.15209        0.24519        0.21151       -0.10681       -0.51262       -0.98136
2.855352 2.827230 2.799253 2.771420 2.743732 2.716189 2.688791 2.661537 2.634428 2.607464 2.580645 2.553970 2.527440 2.501055 2.474814 2.448718 2.422767 2.396961 2.371299 2.345782 2.320410 2.295183 2.270100 2.245162 2.220369 2.195721 2.171217 2.146858 2.122644 2.098574 2.074649 2.050869 2.027234 2.003743 1.980397 1.957196 1.934140 1.911228 1.888461 1.865839 1.843361 1.821028 1.798840 1.776797 1.754898 1.733145 1.711535 1.690071 1.668751 1.647577 1.626546 1.923738 2.277166 1.697545 1.743834 1.385575 0.946709 1.202983 1.024160 1.076674 1.033503 1.493894 1.523048 1.551584 1.280675 0.949409 0.826832 1.014014 0.721517 0.497326 0.584438 0.680954 0.422223 0.493561 0.327655 0.371936 0.252522 0.167233 -0.034799 0.003374 0.030937 0.079828 0.042766 0.075762 -0.039081 0.027633 0.114359 0.228458 0.288894 0.210120 0.322428 0.549266 0.451737 0.727424 0.791803 0.882995 0.908249 1.114136 1.137442 1.171818 1.329228 1.233842 1.365670 1.193674 1.111784 1.296674 1.142374 1.052608 1.123169 0.887969 0.741414 0.679701 0.672054 0.460613 0.399722 0.261861 0.231094 0.087919 -0.010041 0.085101 0.026027 -0.062630 0.114277 0.254141 0.306147 0.466220 0.484498 0.558533 0.717003 0.814098 0.661686 0.949215 0.799040 0.662408 0.764586 0.797951 0.708176 0.636301 0.446917 0.498835 0.285142 0.196563 0.140413 0.004357 -0.022430 -0.098801 -0.012594 0.020867 0.099338 -0.052470 0.249015 0.089095 0.211189 0.373893 0.437924 0.528435 0.436394 0.565906 0.649256 0.505022 0.386907 0.334193 0.321878 0.143637 0.135076 0.021090 0.089741 0.034909 -0.000784 -0.026271 -0.126841 -0.015010 0.016623 0.105810 0.294536 0.199962 0.348989 0.369630 0.428072 0.413491 0.386763 0.322740 0.224895 0.303420 0.162987 0.155419 0.015837 0.047846 0.066290 -0.024388 -0.010664 0.016389 0.059082 0.072152 0.209326 0.304886 0.236393 0.205422 0.375034 0.401754 0.350327 0.242106 0.174813 0.153491 0.082846 0.073149 0.019627 0.018622 0.134815 0.047738 0.186948 0.085262 0.144142 0.226576 0.211733 0.229713 0.202445 0.190958 0.122529 0.163586 0.122945 0.100034 0.107488 -0.001167 0.027027 0.087418 0.048637 0.149925 0.116043 0.208085 0.198203 0.127784 0.130429 0.226174 0.123696 0.076364 0.088918 0.059227 -0.000852 -0.023757 0.044183 0.070570 0.030391 0.112141 0.107874 0.120357 0.130182 0.178211 0.121443 0.083276 0.098773 0.078395 0.010542 0.009759 0.031237 0.001570 0.065265 0.103984 0.056485 0.059170 0.133025 0.098106 0.015086 0.111906 0.015692 0.031312 0.058936 0.018469 0.010364 0.061508 0.086728 0.033477 0.112821 0.057104 0.035683 0.115737 0.075883 0.091968 0.094219 0.030680 -0.005524 0.008668 0.052062 0.012740 0.069365 0.098369 0.100145 0.064222 0.132080 -0.001287 0.040040 -0.086548 -0.019665 -0.035313 0.020000 0.016535 0.042352 0.069481 0.077076 0.114885 0.013722 -0.003615 -0.065012 -0.083911 0.070510 0.036928 0.057521 -0.022905 -0.006627 -0.042181 0.065538 0.019689 -0.062482 -0.015940 -0.070588 0.030113 -0.039789 0.033835 0.066005 -0.014178 -0.077458 -0.060962 0.089574 0.058244 0.011549 0.003416 -0.049544 0.084864 0.064899 0.174586 0.059098 0.031050 0.039104 0.064332 -0.054528 -0.036525 0.059284 0.018596 -0.030657 -0.035196 -0.050093 0.087118 -0.057010 0.085078 -0.006647 0.099661 -0.016886 0.041455 -0.084598 -0.040763 -0.050102 0.081128 -0.028580 -0.221667 0.287307 0.281234 0.212669 0.421317 0.182847 0.317382 0.352625 -0.147711 -1.369491
0.072396 0.072834 0.074148 0.076338 0.079404 0.083344 0.088158 0.093844 0.100402 0.107829 0.116122 0.125279 0.135295 0.146167 0.157889 0.170454 0.183855 0.198084 0.213129 0.228979 0.245620 0.263037 0.281211 0.300124 0.319751 0.340069 0.361048 0.382658 0.404864 0.427629 0.450909 0.474660 0.498832 0.523370 0.548217 0.573309 0.598579 0.623953 0.649354 0.674699 0.699900 0.724864 0.749492 0.773681 0.797322 0.820302 0.842501 0.863798 0.884065 0.903169 0.920977 0.937350 0.952148 0.965227 0.976443 0.985651 0.992706 0.997465 0.999786 0.999529 0.996561 0.990752 0.981979 0.970127 0.955092 0.936778 0.915104 0.890000 0.861414 0.829309 0.793668 0.754492 0.711807 0.665659 0.616120 0.563287 0.507286 0.448269 0.386417 0.321944 0.255091 0.186130 0.115367 0.043135 0.030201 0.104249 0.178587 0.252768 0.326321 0.398752 0.469550 0.538188 0.604126 0.666817 0.725712 0.780263 0.829931 0.874187 0.912523 0.944459 0.969542 0.987362 0.997552 0.999799 0.993847 0.979509 0.956666 0.925278 0.885388 0.837128 0.780719 0.716479 0.644822 0.566258 0.481398 0.390948 0.295707 0.196562 0.094486 0.009475 0.114206 0.218537 0.321253 0.421110 0.516846 0.607203 0.690939 0.766849 0.833783 0.890668 0.936523 0.970482 0.991812 0.999932 0.994427 0.975064 0.941810 0.894834 0.834522 0.761480 0.676533 0.580721 0.475302 0.361728 0.241641 0.116847 0.010707 0.138956 0.265754 0.388905 0.506204 0.615477 0.714623 0.801653 0.874743 0.932268 0.972849 0.995389 0.999106 0.983568 0.948714 0.894872 0.822770 0.733537 0.628698 0.510155 0.380164 0.241298 0.096405 0.051449 0.199039 0.343049 0.480148 0.607067 0.720680 0.818089 0.896700 0.954301 0.989134 0.999957 0.986096 0.947485 0.884690 0.798923 0.692031 0.566470 0.425265 0.271946 0.110471 0.054872 0.219571 0.379013 0.528610 0.663937 0.780873 0.875722 0.945353 0.987307 0.999902 0.982307 0.934605 0.857818 0.753909 0.625753 0.477074 0.312353 0.136709 0.044257 0.224627 0.398359 0.559492 0.702352 0.821763 0.913245 0.973195 0.999049 0.989405 0.944117 0.864338 0.752521 0.612367 0.448729 0.267458 0.075218 0.120760 0.312930 0.493733 0.655888 0.792694 0.898330 0.968109 0.998713 0.988374 0.936989 0.846182 0.719284 0.561242 0.378449 0.178515 0.030041 0.238135 0.436517 0.616177 0.768770 0.887011 0.965047 0.998775 0.986080 0.926995 0.823761 0.680781 0.504469 0.302985 0.085896 0.136271 0.352530 0.551974 0.724332 0.860514 0.953115 0.996845 0.988862 0.928991 0.819806 0.666563 0.476989 0.260930 0.029861 0.203697 0.426852 0.627055 0.792806 0.914354 0.984289 0.998030 0.954170 0.854636 0.704661 0.512557 0.289304 0.047941 0.197158 0.431138 0.639564 0.809315 0.929450 0.991938 0.992245 0.929704 0.807652 0.633321 0.417443 0.173664 0.082320 0.333725 0.563791 0.756904 0.899681 0.981927 0.997422 0.944432 0.825943 0.649558 0.427079 0.173749 0.092733 0.353443 0.589554 0.783729 0.921398 0.991916 0.989429 0.913420 0.768875 0.566020 0.319672 0.048200 0.227809 0.487086 0.709332 0.876831 0.975896 0.998052 0.940823 0.808063 0.609781 0.361461 0.082909 0.203278 0.473526 0.705237 0.878683 0.978759 0.996336 0.929181 0.782292 0.567608 0.303140 0.011492 0.282001 0.551474 0.772810 0.925844 0.996249 0.976951 0.868930 0.681285 0.430562 0.139381 0.165554 0.455873 0.704180 0.886653 0.985404 0.990288 0.900052 0.722618 0.474500 0.179360 0.134199 0.435348 0.694068 0.884164
1.000000 1.000000 1.000000 1.000000 1.000000 1.000000 1.000000 1.000000 1.000000 1.000000 1.000000 1.000000 1.000000 1.000000 1.000000 1.000000 1.000000 1.000000 1.000000 1.000000 1.000000 1.000000 1.000000 1.000000 1.000000 1.000000 1.000000 1.000000 1.000000 1.000000 1.000000 1.000000 1.000000 1.000000 1.000000 1.000000 1.000000 1.000000 1.000000 1.000000 1.000000 1.000000 1.000000 1.000000 1.000000 1.000000 1.000000 1.000000 1.000000 1.000000 1.000000 1.000000 0.836078 0.836078 0.836078 0.836078 0.836078 0.836078 0.836078 0.813705 0.813705 0.813705 0.813705 0.813705 0.813705 0.813705 0.813705 0.813705 0.813705 0.813705 0.813705 0.813705 0.813705 0.813705 0.813705 0.813705 0.813705 0.813705 0.813705 0.813705 0.813705 0.813705 0.813705 0.813705 0.813705 0.813705 0.813705 0.813705 0.813705 0.813705 0.813705 0.813705 0.813705 0.813705 0.813705 0.813705 0.813705 0.813705 0.813705 0.813705 0.813705 0.813705 0.813705 0.953516 0.954163 0.946536 0.945430 0.943694 0.940451 0.936031 0.935569 0.936920 0.937131 0.937770 0.939938 0.940986 0.942693 0.943935 0.944811 0.945652 0.953722 0.957360 0.956993 0.956586 0.952148 0.958839 0.956878 0.956717 0.957481 0.957773 0.958482 0.958368 0.958205 0.957673 0.956508 0.957216 0.957066 0.956348 0.955328 0.953038 0.953018 0.952571 0.952694 0.953647 0.954339 0.954974 0.955483 0.955447 0.955626 0.955612 0.955516 0.950543 0.950571 0.944017 0.944659 0.945819 0.945506 0.944471 0.943065 0.943119 0.942990 0.942908 0.942715 0.942936 0.924086 0.923610 0.923637 0.923954 0.916866 0.906412 0.900019 0.893917 0.894793 0.898747 0.903527 0.903767 0.900269 0.899399 0.882595 0.886337 0.873949 0.870526 0.859558 0.869842 0.871421 0.872436 0.867392 0.866793 0.865551 0.863361 0.854853 0.858944 0.859981 0.856146 0.852552 0.850501 0.848356 0.850169 0.854887 0.850140 0.846530 0.843784 0.833056 0.824119 0.822981 0.825487 0.833519 0.845552 0.845913 0.845250 0.837727 0.833844 0.826889 0.820282 0.818156 0.819871 0.817707 0.821388 0.820651 0.828369 0.818616 0.814491 0.819684 0.830288 0.836112 0.838798 0.841412 0.839553 0.835773 0.814820 0.815557 0.815165 0.767046 0.768892 0.753522 0.753538 0.742719 0.740644 0.737726 0.736777 0.729823 0.718617 0.730243 0.727466 0.708263 0.715325 0.710240 0.698769 0.674342 0.676764 0.690493 0.697936 0.695827 0.698983 0.688263 0.686733 0.698126 0.698936 0.705589 0.701054 0.697708 0.692228 0.694706 0.685899 0.683629 0.677314 0.676779 0.677450 0.673214 0.661212 0.668543 0.663711 0.661065 0.652554 0.612464 0.583678 0.565019 0.558534 0.540486 0.513895 0.529998 0.538248 0.519654 0.508594 0.488035 0.446802 0.436033 0.434128 0.410965 0.402346 0.381887 0.341569 0.341465 0.340729 0.349273 0.335740 0.333930 0.318838 0.269411 0.270060 0.232434 0.252077 0.272797 0.259211 0.238722 0.236481 0.244867 0.243937 0.251999 0.249945 0.265908 0.221978 0.168299 0.191036 0.187482 0.197435 0.181975 0.154773 0.181027 0.176301 0.186615 0.189756 0.147200 0.116568 0.094359 0.071799 0.079356 0.103247 0.116498 0.110699 0.089859 -0.001243 0.029763 0.054331 0.054331 0.054331 0.054331 0.054331 0.054331 0.054331 0.054331 0.054331 0.054331 0.054331 -0.004939 -0.004939 -0.004939 -0.004939 -0.004939 -0.004939 -0.004939 -0.004939 -0.004939 -0.004939 -0.004939 -0.004939 -0.004939 -0.004939 -0.004939 -0.004939 -0.004939 -0.004939 -0.004939
0.000000 0.000000 0.000000 0.000000 0.000000 0.000000 0.000000 0.000000 0.000000 0.000000 0.000000 0.000000 0.000000 0.000000 0.000000 0.000000 0.000000 0.000000 0.000000 0.000000 0.000000 0.000000 0.000000 0.000000 0.000000 0.000000 0.000000 0.000000 0.000000 0.000000 0.000000 0.000000 0.000000 0.000000 0.000000 0.000000 0.000000 0.000000 0.000000 0.000000 0.000000 0.000000 0.000000 0.000000 0.000000 0.000000 0.000000 0.000000 0.000000 0.000000 0.000000 0.000000 0.173422 0.173422 0.173422 0.173422 0.173422 0.173422 0.173422 0.191565 0.191565 0.191565 0.191565 0.191565 0.191565 0.191565 0.191565 0.191565 0.191565 0.191565 0.191565 0.191565 0.191565 0.191565 0.191565 0.191565 0.191565 0.191565 0.191565 0.191565 0.191565 0.191565 0.191565 0.191565 0.191565 0.191565 0.191565 0.191565 0.191565 0.191565 0.191565 0.191565 0.191565 0.191565 0.191565 0.191565 0.191565 0.191565 0.191565 0.191565 0.191565 0.191565 0.191565 0.219529 0.219529 0.219529 0.219529 0.219529 0.219529 0.219529 0.219529 0.219529 0.219529 0.219529 0.219529 0.219529 0.219529 0.219529 0.219529 0.219529 0.219529 0.219529 0.219529 0.219529 0.219529 0.219529 0.219529 0.219529 0.219529 0.219529 0.219529 0.219529 0.219529 0.219529 0.237356 0.237356 0.237356 0.237356 0.237356 0.237356 0.237356 0.237356 0.237356 0.237356 0.237356 0.237356 0.237356 0.237356 0.237356 0.237356 0.237356 0.237356 0.237356 0.237356 0.237356 0.237356 0.237356 0.237356 0.244339 0.244339 0.244339 0.244339 0.244339 0.244339 0.244339 0.244339 0.244339 0.244339 0.244339 0.244339 0.244339 0.244339 0.244339 0.244339 0.244339 0.244339 0.244339 0.244339 0.244339 0.248069 0.248069 0.248069 0.248069 0.248069 0.248069 0.248069 0.248069 0.248069 0.248069 0.248069 0.248069 0.248069 0.248069 0.248069 0.248069 0.248069 0.248069 0.248069 0.248069 0.248069 0.248069 0.248069 0.248069 0.248069 0.248069 0.248069 0.248069 0.248069 0.248069 0.248069 0.248069 0.248069 0.248069 0.248069 0.248069 0.248069 0.256074 0.256074 0.256074 0.256074 0.256074 0.256074 0.256074 0.256074 0.256074 0.256074 0.256074 0.256074 0.256074 0.256074 0.256074 0.256074 0.256074 0.256074 0.256074 0.256074 0.256074 0.256074 0.256074 0.256074 0.256074 0.256074 0.256074 0.256074 0.256074 0.256074 0.256074 0.256074 0.256074 0.256074 0.256074 0.256074 0.256074 0.256074 0.256074 0.256074 0.256074 0.256074 0.256074 0.256074 0.256074 0.260378 0.260378 0.260378 0.260378 0.260378 0.260378 0.260378 0.260378 0.260378 0.260378 0.260378 0.260378 0.260378 0.256074 0.256074 0.256074 0.256074 0.256074 0.256074 0.256074 0.256074 0.256074 0.256074 0.256074 0.256074 0.256074 0.260378 0.260378 0.260378 0.260378 0.260378 0.260378 0.260378 0.260378 0.260378 0.260378 0.260378 0.260378 0.251976 0.251976 0.251976 0.251976 0.251976 0.251976 0.251976 0.251976 0.251976 0.251976 0.251976 0.251976 0.256074 0.256074 0.256074 0.256074 0.256074 0.256074 0.256074 0.256074 0.256074 0.256074 0.256074 0.251976 0.251976 0.251976 0.251976 0.251976 0.251976 0.251976 0.251976 0.251976 0.251976 0.251976 0.248069 0.248069 0.248069 0.248069 0.248069 0.248069 0.248069 0.248069 0.248069 0.248069 0.248069 0.256074 0.256074 0.256074 0.256074 0.256074 0.256074 0.256074 0.256074 0.256074 0.256074 0.256074 0.256074 0.256074 0.256074 0.256074 0.256074 0.256074 0.256074 0.256074
