# Output from CTFFind version 4.1.9, run on 2019-11-03 19:43:16
# Input file: stack16_bm3d_averaged_1_4.75_0_2500_half.mrc ; Number of micrographs: 1
# Pixel size: 3.000 Angstroms ; acceleration voltage: 300.0 keV ; spherical aberration: 0.00 mm ; amplitude contrast: 0.07
# Box size: 512 pixels ; min. res.: 30.0 Angstroms ; max. res.: 5.0 Angstroms ; min. def.: 5000.0 um; max. def. 50000.0 um; num. frames averaged: 1
# 6 lines per micrograph: #1 - spatial frequency (1/Angstroms); #2 - 1D rotational average of spectrum (assuming no astigmatism); #3 - 1D rotational average of spectrum; #4 - CTF fit; #5 - cross-correlation between spectrum and CTF fit; #6 - 2sigma of expected cross correlation of noise
0.000000 0.000651 0.001302 0.001953 0.002604 0.003255 0.003906 0.004557 0.005208 0.005859 0.006510 0.007161 0.007812 0.008464 0.009115 0.009766 0.010417 0.011068 0.011719 0.012370 0.013021 0.013672 0.014323 0.014974 0.015625 0.016276 0.016927 0.017578 0.018229 0.018880 0.019531 0.020182 0.020833 0.021484 0.022135 0.022786 0.023438 0.024089 0.024740 0.025391 0.026042 0.026693 0.027344 0.027995 0.028646 0.029297 0.029948 0.030599 0.031250 0.031901 0.032552 0.033203 0.033854 0.034505 0.035156 0.035807 0.036458 0.037109 0.037760 0.038411 0.039062 0.039714 0.040365 0.041016 0.041667 0.042318 0.042969 0.043620 0.044271 0.044922 0.045573 0.046224 0.046875 0.047526 0.048177 0.048828 0.049479 0.050130 0.050781 0.051432 0.052083 0.052734 0.053385 0.054036 0.054688 0.055339 0.055990 0.056641 0.057292 0.057943 0.058594 0.059245 0.059896 0.060547 0.061198 0.061849 0.062500 0.063151 0.063802 0.064453 0.065104 0.065755 0.066406 0.067057 0.067708 0.068359 0.069010 0.069661 0.070312 0.070964 0.071615 0.072266 0.072917 0.073568 0.074219 0.074870 0.075521 0.076172 0.076823 0.077474 0.078125 0.078776 0.079427 0.080078 0.080729 0.081380 0.082031 0.082682 0.083333 0.083984 0.084635 0.085286 0.085938 0.086589 0.087240 0.087891 0.088542 0.089193 0.089844 0.090495 0.091146 0.091797 0.092448 0.093099 0.093750 0.094401 0.095052 0.095703 0.096354 0.097005 0.097656 0.098307 0.098958 0.099609 0.100260 0.100911 0.101562 0.102214 0.102865 0.103516 0.104167 0.104818 0.105469 0.106120 0.106771 0.107422 0.108073 0.108724 0.109375 0.110026 0.110677 0.111328 0.111979 0.112630 0.113281 0.113932 0.114583 0.115234 0.115885 0.116536 0.117188 0.117839 0.118490 0.119141 0.119792 0.120443 0.121094 0.121745 0.122396 0.123047 0.123698 0.124349 0.125000 0.125651 0.126302 0.126953 0.127604 0.128255 0.128906 0.129557 0.130208 0.130859 0.131510 0.132161 0.132812 0.133464 0.134115 0.134766 0.135417 0.136068 0.136719 0.137370 0.138021 0.138672 0.139323 0.139974 0.140625 0.141276 0.141927 0.142578 0.143229 0.143880 0.144531 0.145182 0.145833 0.146484 0.147135 0.147786 0.148438 0.149089 0.149740 0.150391 0.151042 0.151693 0.152344 0.152995 0.153646 0.154297 0.154948 0.155599 0.156250 0.156901 0.157552 0.158203 0.158854 0.159505 0.160156 0.160807 0.161458 0.162109 0.162760 0.163411 0.164062 0.164714 0.165365 0.166016 0.166667 0.167318 0.167969 0.168620 0.169271 0.169922 0.170573 0.171224 0.171875 0.172526 0.173177 0.173828 0.174479 0.175130 0.175781 0.176432 0.177083 0.177734 0.178385 0.179036 0.179688 0.180339 0.180990 0.181641 0.182292 0.182943 0.183594 0.184245 0.184896 0.185547 0.186198 0.186849 0.187500 0.188151 0.188802 0.189453 0.190104 0.190755 0.191406 0.192057 0.192708 0.193359 0.194010 0.194661 0.195312 0.195964 0.196615 0.197266 0.197917 0.198568 0.199219 0.199870 0.200521 0.201172 0.201823 0.202474 0.203125 0.203776 0.204427 0.205078 0.205729 0.206380 0.207031 0.207682 0.208333 0.208984 0.209635 0.210286 0.210938 0.211589 0.212240 0.212891 0.213542 0.214193 0.214844 0.215495 0.216146 0.216797 0.217448 0.218099 0.218750 0.219401 0.220052 0.220703 0.221354 0.222005 0.222656 0.223307 0.223958 0.224609 0.225260 0.225911 0.226562 0.227214 0.227865 0.228516 0.229167 0.229818 0.230469 0.231120 0.231771 0.232422 0.233073 0.233724 0.234375 0.235026 0.235677
       0.33088        0.33088        0.33088        0.33088        0.33088        0.33088        0.33088        0.33088        0.33088        0.33088        0.33088        0.33088        0.33088        0.33088        0.33088        0.33088        0.33088        0.33088        0.33088        0.33088        0.33088        0.33088        0.33088        0.33088        0.33088        0.33088        0.33088        0.33088        0.33088        0.33088        0.33088        0.33088        0.33088        0.33088        0.33088        0.33088        0.33088        0.33088        0.33088        0.33088        0.33088        0.33088        0.33088        0.33088        0.33088        0.33088        0.33088        0.33088        0.33088        0.33088        0.33088        0.41712        0.56070        0.34720       -0.19852       -0.45879       -0.56005       -0.65655       -0.73016       -0.74725       -0.85278       -0.91250       -0.71130       -0.87248       -0.84664       -0.99725       -1.03223       -0.91607       -0.87374       -0.81945       -0.74778       -0.67314       -0.58657       -0.49143       -0.42168       -0.19598       -0.08878        0.00278        0.23162        0.24077        0.29901        0.36521        0.39030        0.49595        0.53353        0.56876        0.53172        0.47074        0.50866        0.50043        0.42094        0.31740        0.19003        0.16614        0.09958       -0.02844       -0.04215       -0.04764        0.02924       -0.00856        0.04792        0.02699        0.14068        0.18262        0.39733        0.45499        0.55013        0.65577        0.69415        0.71345        0.63473        0.61300        0.52532        0.43337        0.37514        0.25551        0.20098        0.18957        0.07888        0.07353        0.05512        0.06147        0.07977        0.29245        0.40299        0.50432        0.53514        0.57617        0.61355        0.58937        0.58271        0.58251        0.56024        0.46011        0.28391        0.24519        0.22037        0.11941        0.06830        0.13139        0.15647        0.26297        0.34455        0.40732        0.46615        0.52903        0.60143        0.54907        0.50859        0.48545        0.35124        0.23689        0.22954        0.15763        0.14601        0.19204        0.24218        0.26489        0.30666        0.41158        0.43718        0.50248        0.45439        0.44529        0.46731        0.36922        0.31472        0.27065        0.23208        0.20912        0.21731        0.22787        0.32121        0.42408        0.41661        0.48354        0.54380        0.43969        0.41118        0.35138        0.29009        0.24211        0.25128        0.26225        0.27568        0.30916        0.32554        0.41080        0.46359        0.43308        0.44319        0.35114        0.36543        0.34829        0.23966        0.22535        0.22938        0.29121        0.35770        0.36465        0.38565        0.42848        0.42880        0.35701        0.33243        0.30725        0.33084        0.28920        0.26276        0.26567        0.32721        0.35674        0.36874        0.39031        0.37077        0.39721        0.37310        0.28807        0.27301        0.30405        0.33176        0.35014        0.34882        0.39992        0.33246        0.36624        0.38056        0.31856        0.33697        0.29488        0.28385        0.33148        0.32262        0.31437        0.32767        0.35156        0.31371        0.33258        0.29777        0.30274        0.27267        0.29463        0.29020        0.32709        0.36281        0.35180        0.33230        0.28886        0.27422        0.27558        0.31373        0.28601        0.30100        0.35357        0.36217        0.32820        0.30149        0.29911        0.29947        0.26381        0.27940        0.28720        0.31126        0.34529        0.31855        0.27650        0.31973        0.30154        0.30006        0.34464        0.33229        0.30269        0.32630        0.28516        0.31684        0.27458        0.29705        0.29164        0.30845        0.37149        0.32248        0.33976        0.29439        0.30333        0.31349        0.31549        0.28665        0.28307        0.31361        0.30893        0.31016        0.29608        0.30416        0.28673        0.29396        0.31121        0.31878        0.32230        0.32740        0.32442        0.29138        0.27037        0.26730        0.25781        0.34451        0.30672        0.34809        0.29042        0.26118        0.28856        0.34446        0.29787        0.28196        0.26472        0.30181        0.27729        0.26431        0.30819        0.27062        0.26170        0.29776        0.29985        0.32955        0.32502        0.28936        0.26341        0.24265        0.25101        0.26343        0.27401        0.32381        0.26773        0.21050        0.28787        0.26299        0.28784        0.22779        0.30628        0.29681        0.29932        0.26783        0.25426        0.26464        0.21881        0.27717        0.32747        0.36434        0.23954        0.25885        0.21982        0.21642        0.19567        0.32631        0.23303        0.23652        0.14534        0.24553        0.23180        0.22512        0.13288        0.02662       -0.62666       -0.93727
3.039563 3.001565 2.963811 2.926302 2.889038 2.852020 2.815246 2.778717 2.742433 2.706393 2.670599 2.635050 2.599745 2.564686 2.529871 2.495302 2.460977 2.426897 2.393062 2.359472 2.326127 2.293027 2.260172 2.227562 2.195196 2.163076 2.131200 2.099570 2.068184 2.037043 2.006148 1.975497 1.945091 1.914930 1.885014 1.855342 1.825916 1.796735 1.767798 1.739107 1.710660 1.682458 1.654502 1.626790 1.599323 1.572101 1.545124 1.518392 1.491904 1.465662 1.439665 1.473679 1.574544 1.514543 0.847288 0.580024 0.438145 0.371314 0.279424 0.197389 0.153477 -0.060978 0.183697 0.048258 -0.046416 -0.127961 -0.245740 -0.158411 -0.075402 -0.094983 -0.089627 0.025467 0.019258 0.210340 0.099276 0.341698 0.452571 0.467634 0.744876 0.682815 0.678935 0.827615 0.794099 0.823970 0.917959 0.860450 0.894298 0.728576 0.808588 0.840980 0.666789 0.600822 0.440994 0.422177 0.359972 0.179097 0.174928 0.117573 0.212932 0.118700 0.212974 0.108201 0.231797 0.237033 0.462093 0.417830 0.595960 0.632861 0.682361 0.736840 0.627775 0.613954 0.475857 0.424885 0.312263 0.278711 0.111750 0.173955 -0.012957 0.037015 -0.036025 -0.035545 -0.027947 0.044825 0.294749 0.310216 0.392695 0.338238 0.419236 0.450619 0.443127 0.438775 0.375043 0.366097 0.146362 0.098167 0.069182 0.003932 -0.145791 -0.030135 -0.073445 0.046938 0.105911 0.177255 0.247219 0.256841 0.341909 0.441545 0.335931 0.381480 0.274911 0.144719 0.068551 0.061904 0.011368 0.037464 0.076296 0.113636 0.124299 0.205046 0.252827 0.302957 0.323880 0.242790 0.269624 0.234998 0.115288 0.094677 0.044390 0.041859 0.010136 0.012497 0.049650 0.177477 0.196034 0.203137 0.317251 0.200864 0.224571 0.101029 0.083816 -0.009333 -0.003947 0.007818 0.012974 0.040494 0.045056 0.091035 0.162618 0.161447 0.210613 0.121719 0.079776 0.106290 0.045969 -0.073462 -0.025379 0.009474 0.047565 0.071734 0.090569 0.148812 0.149425 0.149117 0.040768 0.058035 0.047905 0.046639 0.020318 -0.018280 0.032834 0.042681 0.085741 0.110234 0.102465 0.103798 0.123606 0.060848 0.003241 0.004145 0.031264 0.079464 0.057207 0.105136 0.098965 0.057779 0.109137 0.071127 0.037797 0.071071 -0.027417 0.025941 0.059023 0.034061 0.041774 0.036374 0.069651 0.049682 0.049218 0.010442 0.021595 -0.015790 0.023873 0.002715 0.055563 0.076287 0.062295 0.032303 -0.018106 -0.016834 -0.010563 0.023101 -0.007456 0.013828 0.068804 0.063766 -0.014326 0.013833 -0.011401 0.005384 -0.043255 -0.023770 -0.014207 0.024088 0.039882 0.005443 -0.025110 0.009865 -0.015631 0.002014 0.038265 0.017388 0.017055 -0.059527 0.007902 0.000933 -0.050421 -0.012262 -0.015101 0.021320 0.075850 0.004791 0.010612 -0.002370 0.013070 0.002485 0.028878 -0.013860 -0.010406 0.005004 0.045483 0.014694 0.002784 0.054751 -0.020306 0.002037 0.029702 0.026196 0.051436 0.049692 0.018365 0.018190 -0.002914 -0.029978 -0.002741 0.066835 0.010641 0.059739 -0.012411 -0.021188 -0.012619 0.078532 -0.006466 0.003277 0.013485 0.020040 -0.006403 -0.004700 0.027152 0.006199 -0.009775 0.023191 0.040374 0.095338 0.053653 0.027534 0.013689 -0.023306 -0.006346 0.006011 -0.004716 0.088047 -0.028413 -0.080673 0.053721 -0.018339 0.012722 -0.046748 0.028493 0.003895 -0.002142 -0.022535 -0.026173 -0.026206 -0.063174 0.010947 0.045719 0.084100 -0.098844 0.029878 -0.022588 -0.031952 -0.089186 0.137930 0.029457 0.087053 -0.027976 0.124496 0.242600 0.209690 0.068698 0.031589 -0.876661
0.072396 0.073047 0.074999 0.078252 0.082805 0.088657 0.095804 0.104245 0.113975 0.124988 0.137280 0.150840 0.165660 0.181725 0.199022 0.217530 0.237229 0.258092 0.280088 0.303182 0.327333 0.352494 0.378610 0.405622 0.433460 0.462049 0.491302 0.521126 0.551415 0.582056 0.612924 0.643882 0.674784 0.705471 0.735774 0.765511 0.794489 0.822505 0.849345 0.874784 0.898588 0.920516 0.940317 0.957736 0.972515 0.984390 0.993100 0.998384 0.999987 0.997659 0.991163 0.980275 0.964788 0.944516 0.919298 0.889004 0.853535 0.812830 0.766870 0.715683 0.659346 0.597989 0.531801 0.461031 0.385992 0.307062 0.224685 0.139375 0.051713 0.037654 0.128016 0.218598 0.308573 0.397061 0.483140 0.565853 0.644220 0.717247 0.783941 0.843324 0.894448 0.936410 0.968372 0.989577 0.999369 0.997207 0.982689 0.955563 0.915749 0.863348 0.798657 0.722180 0.634632 0.536944 0.430262 0.315943 0.195545 0.070812 0.056347 0.183877 0.309614 0.431315 0.546700 0.653493 0.749475 0.832526 0.900683 0.952192 0.985557 0.999592 0.993469 0.966759 0.919464 0.852051 0.765464 0.661133 0.540969 0.407344 0.263062 0.111309 0.044405 0.200319 0.352512 0.496992 0.629811 0.747171 0.845545 0.921793 0.973274 0.997952 0.994492 0.962339 0.901775 0.813957 0.700930 0.565603 0.411704 0.243697 0.066676 0.113784 0.291786 0.461300 0.616376 0.751353 0.861081 0.941137 0.988023 0.999342 0.973945 0.912033 0.815215 0.686513 0.530304 0.352210 0.158922 0.042028 0.242540 0.434275 0.608989 0.758914 0.877108 0.957808 0.996742 0.991388 0.941171 0.847570 0.714140 0.546429 0.351796 0.139127 0.081544 0.299487 0.503789 0.683912 0.830244 0.934654 0.990973 0.995407 0.946836 0.846988 0.700450 0.514528 0.298940 0.065353 0.173209 0.403079 0.610724 0.783560 0.910744 0.983897 0.997715 0.950413 0.843965 0.684123 0.480183 0.244516 0.008128 0.261504 0.498907 0.704274 0.863298 0.964473 0.999990 0.966414 0.865076 0.702147 0.488360 0.238388 0.030099 0.297638 0.544368 0.751517 0.902865 0.986076 0.993783 0.924334 0.782104 0.577351 0.325577 0.046439 0.237717 0.503625 0.729006 0.894475 0.985270 0.992671 0.914937 0.757677 0.533588 0.261542 0.034896 0.329455 0.595476 0.808321 0.947727 0.999825 0.958632 0.826859 0.615909 0.345031 0.039689 0.270755 0.555829 0.786947 0.940344 0.999606 0.957571 0.817320 0.592158 0.304503 0.016209 0.336443 0.622058 0.841962 0.971564 0.995669 0.910395 0.723929 0.455930 0.135629 0.201244 0.516369 0.773212 0.941307 1.000000 0.941150 0.770428 0.507003 0.181577 0.167045 0.496493 0.765994 0.941455 0.999931 0.932793 0.747198 0.465570 0.123106 0.236486 0.566473 0.823184 0.971878 0.991605 0.878369 0.646084 0.325121 0.041457 0.403535 0.710772 0.919622 0.999666 0.938242 0.742690 0.439765 0.072225 0.307025 0.642475 0.884157 0.995217 0.957748 0.775931 0.475915 0.102335 0.288132 0.635283 0.884667 0.996278 0.951196 0.755077 0.437799 0.049198 0.348544 0.690773 0.920906 0.999962 0.913410 0.674159 0.320979 0.087493 0.482305 0.795760 0.973152 0.982503 0.820656 0.514446 0.116588 0.303113 0.669901 0.917400 0.999811 0.900683 0.636540 0.254532 0.175665 0.574373 0.866622 0.996429 0.937777 0.700213 0.327752 0.108945 0.525711 0.841059 0.992252 0.948051 0.715574 0.339639 0.105487 0.530519 0.848973 0.994941 0.937016 0.685462 0.290925 0.165400 0.588195 0.887911 0.999919 0.898773 0.604455 0.178928 0.286520 0.690649
1.000000 1.000000 1.000000 1.000000 1.000000 1.000000 1.000000 1.000000 1.000000 1.000000 1.000000 1.000000 1.000000 1.000000 1.000000 1.000000 1.000000 1.000000 1.000000 1.000000 1.000000 1.000000 1.000000 1.000000 1.000000 1.000000 1.000000 1.000000 1.000000 1.000000 1.000000 1.000000 1.000000 1.000000 1.000000 1.000000 1.000000 1.000000 1.000000 1.000000 1.000000 1.000000 1.000000 1.000000 1.000000 1.000000 1.000000 1.000000 1.000000 1.000000 1.000000 1.000000 0.934306 0.934306 0.934306 0.934306 0.934306 0.934306 0.934306 0.934306 0.934306 0.934306 0.934306 0.934306 0.934306 0.934306 0.934306 0.934306 0.934306 0.934306 0.934306 0.934306 0.934306 0.934306 0.934306 0.934306 0.934306 0.934306 0.934306 0.934306 0.934306 0.934306 0.934306 0.934306 0.934306 0.921842 0.919982 0.922909 0.923936 0.923858 0.923390 0.923100 0.923379 0.924802 0.926656 0.948141 0.950319 0.950916 0.952101 0.953604 0.956307 0.954611 0.959101 0.969792 0.969035 0.969818 0.963800 0.964803 0.964300 0.963643 0.965635 0.965495 0.964109 0.962501 0.961269 0.960896 0.960653 0.962216 0.962666 0.962861 0.963252 0.963181 0.963042 0.963004 0.963263 0.965417 0.964519 0.963743 0.969537 0.968364 0.970499 0.970478 0.971194 0.971895 0.972069 0.972218 0.967444 0.966807 0.965645 0.952281 0.945867 0.942490 0.944774 0.947640 0.945273 0.941063 0.939901 0.942610 0.937287 0.936840 0.928974 0.927748 0.911421 0.902968 0.891601 0.892448 0.893875 0.894671 0.892551 0.883548 0.873560 0.870358 0.872885 0.867155 0.863149 0.879520 0.875207 0.876540 0.880185 0.882537 0.887822 0.881240 0.876837 0.872847 0.869255 0.867150 0.869547 0.873718 0.876857 0.864784 0.857515 0.860478 0.851164 0.845791 0.851999 0.853682 0.849717 0.848660 0.849463 0.850117 0.842512 0.839014 0.840165 0.849740 0.850204 0.840435 0.835463 0.829597 0.829717 0.827680 0.828189 0.826790 0.824098 0.817720 0.828781 0.800636 0.823040 0.818644 0.807020 0.793390 0.782909 0.783726 0.796118 0.799104 0.796623 0.776330 0.774400 0.774040 0.757175 0.762822 0.769848 0.767315 0.756412 0.734237 0.741756 0.750143 0.740786 0.731417 0.733602 0.733350 0.700938 0.714145 0.717697 0.705489 0.718613 0.716703 0.708540 0.703076 0.703274 0.704748 0.689376 0.652674 0.652824 0.662380 0.647765 0.600194 0.598505 0.601416 0.590952 0.518171 0.513134 0.499632 0.501432 0.500101 0.533815 0.514524 0.504807 0.532041 0.503389 0.412712 0.425742 0.414163 0.406470 0.420968 0.400948 0.375673 0.368793 0.398690 0.380859 0.351326 0.294479 0.329051 0.339732 0.392569 0.375706 0.381160 0.403557 0.386423 0.374121 0.364625 0.380348 0.372948 0.407539 0.349856 0.319435 0.333176 0.341288 0.349604 0.351658 0.338213 0.265602 0.308706 0.240840 0.261062 0.240695 0.220546 0.219551 0.250245 0.242280 0.248637 0.238474 0.271004 0.270578 0.268238 0.253769 0.255803 0.278978 0.213035 0.230631 0.262084 0.255901 0.331632 0.315072 0.288220 0.182452 0.246070 0.222100 0.231019 0.212077 0.131389 0.137171 0.146233 0.111254 0.117073 0.105418 0.071322 0.043968 0.005508 0.007228 -0.016635 -0.009982 0.010278 -0.002031 -0.003615 -0.003615 -0.003615 -0.003615 -0.032797 -0.032797 -0.032797 -0.032797 -0.032797 -0.032797 -0.032797 -0.032797 -0.032797 -0.032797 -0.032797 -0.032797 -0.032797 -0.032797 -0.010844 -0.010844 -0.010844 -0.010844 -0.010844 -0.010844 -0.010844 -0.010844 -0.010844 -0.010844 -0.010844 -0.010844
0.000000 0.000000 0.000000 0.000000 0.000000 0.000000 0.000000 0.000000 0.000000 0.000000 0.000000 0.000000 0.000000 0.000000 0.000000 0.000000 0.000000 0.000000 0.000000 0.000000 0.000000 0.000000 0.000000 0.000000 0.000000 7.000000 4.000000 0.000000 0.000000 0.000000 0.000000 0.000000 0.000000 0.000000 0.000000 0.000000 0.000000 0.000000 0.000000 0.000000 0.000000 0.000000 0.000000 0.000000 0.000000 0.000000 0.000000 0.000000 0.000000 0.000000 0.000000 0.000000 0.209657 0.209657 0.209657 0.209657 0.209657 0.209657 0.209657 0.209657 0.209657 0.209657 0.209657 0.209657 0.209657 0.209657 0.209657 0.209657 0.209657 0.209657 0.209657 0.209657 0.209657 0.209657 0.209657 0.209657 0.209657 0.209657 0.209657 0.209657 0.209657 0.209657 0.209657 0.209657 0.209657 0.244339 0.244339 0.244339 0.244339 0.244339 0.244339 0.244339 0.244339 0.244339 0.244339 0.244339 0.244339 0.244339 0.244339 0.244339 0.244339 0.244339 0.244339 0.244339 0.244339 0.244339 0.244339 0.244339 0.244339 0.244339 0.260378 0.260378 0.260378 0.260378 0.260378 0.260378 0.260378 0.260378 0.260378 0.260378 0.260378 0.260378 0.260378 0.260378 0.260378 0.260378 0.260378 0.260378 0.260378 0.260378 0.269680 0.269680 0.269680 0.269680 0.269680 0.269680 0.269680 0.269680 0.269680 0.269680 0.269680 0.269680 0.269680 0.269680 0.269680 0.269680 0.269680 0.269680 0.269680 0.269680 0.269680 0.269680 0.269680 0.269680 0.269680 0.269680 0.269680 0.269680 0.269680 0.269680 0.269680 0.269680 0.269680 0.280056 0.280056 0.280056 0.280056 0.280056 0.280056 0.280056 0.280056 0.280056 0.280056 0.280056 0.280056 0.280056 0.280056 0.280056 0.280056 0.280056 0.280056 0.280056 0.280056 0.280056 0.280056 0.280056 0.280056 0.280056 0.280056 0.280056 0.274721 0.274721 0.274721 0.274721 0.274721 0.274721 0.274721 0.274721 0.274721 0.274721 0.274721 0.274721 0.274721 0.285714 0.285714 0.285714 0.285714 0.285714 0.285714 0.285714 0.285714 0.285714 0.285714 0.285714 0.280056 0.280056 0.280056 0.280056 0.280056 0.280056 0.280056 0.280056 0.280056 0.280056 0.280056 0.274721 0.274721 0.274721 0.274721 0.274721 0.274721 0.274721 0.274721 0.274721 0.274721 0.274721 0.280056 0.280056 0.280056 0.280056 0.280056 0.280056 0.280056 0.280056 0.280056 0.280056 0.285714 0.285714 0.285714 0.285714 0.285714 0.285714 0.285714 0.285714 0.285714 0.269680 0.269680 0.269680 0.269680 0.269680 0.269680 0.269680 0.269680 0.269680 0.269680 0.291730 0.291730 0.291730 0.291730 0.291730 0.291730 0.291730 0.291730 0.269680 0.269680 0.269680 0.269680 0.269680 0.269680 0.269680 0.269680 0.269680 0.264906 0.264906 0.264906 0.264906 0.264906 0.264906 0.264906 0.264906 0.264906 0.274721 0.274721 0.274721 0.274721 0.274721 0.274721 0.274721 0.274721 0.269680 0.269680 0.269680 0.269680 0.269680 0.269680 0.269680 0.269680 0.285714 0.285714 0.285714 0.285714 0.285714 0.285714 0.285714 0.264906 0.264906 0.264906 0.264906 0.264906 0.264906 0.264906 0.264906 0.274721 0.274721 0.274721 0.274721 0.274721 0.274721 0.274721 0.256074 0.256074 0.256074 0.256074 0.256074 0.256074 0.256074 0.256074 0.264906 0.264906 0.264906 0.264906 0.264906 0.264906 0.264906 0.264906 0.264906 0.264906 0.264906 0.264906 0.264906 0.264906 0.260378 0.260378 0.260378 0.260378 0.260378 0.260378 0.260378 0.260378 0.260378 0.260378 0.260378 0.260378
