# Output from CTFFind version 4.1.9, run on 2019-11-03 20:08:34
# Input file: stack1_bm3d_averaged_1_5.5_0_2000_half.mrc ; Number of micrographs: 1
# Pixel size: 3.000 Angstroms ; acceleration voltage: 300.0 keV ; spherical aberration: 0.00 mm ; amplitude contrast: 0.07
# Box size: 512 pixels ; min. res.: 30.0 Angstroms ; max. res.: 5.0 Angstroms ; min. def.: 5000.0 um; max. def. 50000.0 um; num. frames averaged: 1
# 6 lines per micrograph: #1 - spatial frequency (1/Angstroms); #2 - 1D rotational average of spectrum (assuming no astigmatism); #3 - 1D rotational average of spectrum; #4 - CTF fit; #5 - cross-correlation between spectrum and CTF fit; #6 - 2sigma of expected cross correlation of noise
0.000000 0.000651 0.001302 0.001953 0.002604 0.003255 0.003906 0.004557 0.005208 0.005859 0.006510 0.007161 0.007812 0.008464 0.009115 0.009766 0.010417 0.011068 0.011719 0.012370 0.013021 0.013672 0.014323 0.014974 0.015625 0.016276 0.016927 0.017578 0.018229 0.018880 0.019531 0.020182 0.020833 0.021484 0.022135 0.022786 0.023438 0.024089 0.024740 0.025391 0.026042 0.026693 0.027344 0.027995 0.028646 0.029297 0.029948 0.030599 0.031250 0.031901 0.032552 0.033203 0.033854 0.034505 0.035156 0.035807 0.036458 0.037109 0.037760 0.038411 0.039062 0.039714 0.040365 0.041016 0.041667 0.042318 0.042969 0.043620 0.044271 0.044922 0.045573 0.046224 0.046875 0.047526 0.048177 0.048828 0.049479 0.050130 0.050781 0.051432 0.052083 0.052734 0.053385 0.054036 0.054688 0.055339 0.055990 0.056641 0.057292 0.057943 0.058594 0.059245 0.059896 0.060547 0.061198 0.061849 0.062500 0.063151 0.063802 0.064453 0.065104 0.065755 0.066406 0.067057 0.067708 0.068359 0.069010 0.069661 0.070312 0.070964 0.071615 0.072266 0.072917 0.073568 0.074219 0.074870 0.075521 0.076172 0.076823 0.077474 0.078125 0.078776 0.079427 0.080078 0.080729 0.081380 0.082031 0.082682 0.083333 0.083984 0.084635 0.085286 0.085938 0.086589 0.087240 0.087891 0.088542 0.089193 0.089844 0.090495 0.091146 0.091797 0.092448 0.093099 0.093750 0.094401 0.095052 0.095703 0.096354 0.097005 0.097656 0.098307 0.098958 0.099609 0.100260 0.100911 0.101562 0.102214 0.102865 0.103516 0.104167 0.104818 0.105469 0.106120 0.106771 0.107422 0.108073 0.108724 0.109375 0.110026 0.110677 0.111328 0.111979 0.112630 0.113281 0.113932 0.114583 0.115234 0.115885 0.116536 0.117188 0.117839 0.118490 0.119141 0.119792 0.120443 0.121094 0.121745 0.122396 0.123047 0.123698 0.124349 0.125000 0.125651 0.126302 0.126953 0.127604 0.128255 0.128906 0.129557 0.130208 0.130859 0.131510 0.132161 0.132812 0.133464 0.134115 0.134766 0.135417 0.136068 0.136719 0.137370 0.138021 0.138672 0.139323 0.139974 0.140625 0.141276 0.141927 0.142578 0.143229 0.143880 0.144531 0.145182 0.145833 0.146484 0.147135 0.147786 0.148438 0.149089 0.149740 0.150391 0.151042 0.151693 0.152344 0.152995 0.153646 0.154297 0.154948 0.155599 0.156250 0.156901 0.157552 0.158203 0.158854 0.159505 0.160156 0.160807 0.161458 0.162109 0.162760 0.163411 0.164062 0.164714 0.165365 0.166016 0.166667 0.167318 0.167969 0.168620 0.169271 0.169922 0.170573 0.171224 0.171875 0.172526 0.173177 0.173828 0.174479 0.175130 0.175781 0.176432 0.177083 0.177734 0.178385 0.179036 0.179688 0.180339 0.180990 0.181641 0.182292 0.182943 0.183594 0.184245 0.184896 0.185547 0.186198 0.186849 0.187500 0.188151 0.188802 0.189453 0.190104 0.190755 0.191406 0.192057 0.192708 0.193359 0.194010 0.194661 0.195312 0.195964 0.196615 0.197266 0.197917 0.198568 0.199219 0.199870 0.200521 0.201172 0.201823 0.202474 0.203125 0.203776 0.204427 0.205078 0.205729 0.206380 0.207031 0.207682 0.208333 0.208984 0.209635 0.210286 0.210938 0.211589 0.212240 0.212891 0.213542 0.214193 0.214844 0.215495 0.216146 0.216797 0.217448 0.218099 0.218750 0.219401 0.220052 0.220703 0.221354 0.222005 0.222656 0.223307 0.223958 0.224609 0.225260 0.225911 0.226562 0.227214 0.227865 0.228516 0.229167 0.229818 0.230469 0.231120 0.231771 0.232422 0.233073 0.233724 0.234375 0.235026 0.235677
       0.34937        0.34937        0.34937        0.34937        0.34937        0.34937        0.34937        0.34937        0.34937        0.34937        0.34937        0.34937        0.34937        0.34937        0.34937        0.34937        0.34937        0.34937        0.34937        0.34937        0.34937        0.34937        0.34937        0.34937        0.34937        0.34937        0.34937        0.34937        0.34937        0.34937        0.34937        0.34937        0.34937        0.34937        0.34937        0.34937        0.34937        0.34937        0.34937        0.34937        0.34937        0.34937        0.34937        0.34937        0.34937        0.34937        0.34937        0.34937        0.34937        0.34937        0.34937        0.39433        0.57537        0.26776        0.11468       -0.01452       -0.27323       -0.10317       -0.17657       -0.21183        0.01600       -0.13526       -0.10815       -0.05881       -0.03912       -0.13080       -0.15793       -0.29158       -0.38590       -0.49472       -0.43365       -0.33276       -0.26539       -0.38051       -0.29352       -0.38627       -0.32849       -0.37186       -0.19158       -0.18851       -0.24894       -0.08041       -0.03170       -0.04419        0.08280        0.02897        0.20399        0.22600        0.33629        0.36401        0.43948        0.47473        0.53311        0.59745        0.65393        0.55832        0.51782        0.50613        0.47779        0.56322        0.47435        0.41835        0.40623        0.33381        0.28698        0.31029        0.32813        0.22620        0.19615        0.09798        0.13169        0.13846        0.16501        0.13039        0.19959        0.24744        0.30096        0.29892        0.33742        0.46270        0.41303        0.48415        0.63125        0.61772        0.54981        0.54959        0.58046        0.42474        0.48283        0.37042        0.31498        0.29128        0.25304        0.25444        0.18830        0.17285        0.14498        0.21870        0.25250        0.27981        0.34581        0.32117        0.41079        0.47058        0.46758        0.45213        0.48559        0.54710        0.49037        0.47083        0.42065        0.34719        0.33814        0.27291        0.30143        0.23603        0.22137        0.28535        0.23886        0.26237        0.32521        0.42033        0.41778        0.44188        0.41893        0.49956        0.49548        0.46843        0.44306        0.38793        0.38209        0.40048        0.39963        0.33310        0.28163        0.31555        0.29268        0.29452        0.29776        0.33961        0.36791        0.39112        0.45393        0.49011        0.39967        0.43266        0.42953        0.38633        0.32072        0.36616        0.32270        0.31533        0.33530        0.28148        0.25606        0.31938        0.33684        0.42593        0.42229        0.40689        0.39978        0.40140        0.36932        0.36963        0.31843        0.31929        0.33847        0.30821        0.30672        0.33856        0.35094        0.34697        0.35374        0.39311        0.38783        0.45541        0.39938        0.34264        0.36237        0.35041        0.33352        0.32911        0.33638        0.37816        0.33862        0.35790        0.35122        0.41867        0.37834        0.35770        0.36993        0.37685        0.36444        0.33924        0.33214        0.30998        0.34147        0.33048        0.31101        0.32393        0.35516        0.35513        0.34270        0.33616        0.30330        0.30178        0.28199        0.31824        0.32484        0.35299        0.33290        0.33164        0.37200        0.33257        0.33771        0.32504        0.29393        0.34324        0.31512        0.31970        0.33204        0.32235        0.31675        0.30019        0.34079        0.36920        0.33148        0.32210        0.31531        0.32905        0.29912        0.35010        0.32111        0.27817        0.32861        0.30165        0.34728        0.34629        0.38596        0.32245        0.31776        0.26751        0.33354        0.36945        0.34473        0.31170        0.32048        0.32505        0.32266        0.29747        0.31703        0.31013        0.30873        0.29242        0.29679        0.31081        0.29595        0.29971        0.31382        0.26647        0.31749        0.34747        0.36506        0.34684        0.31359        0.32260        0.27935        0.30483        0.29601        0.32391        0.33954        0.28024        0.26876        0.32466        0.34439        0.33310        0.28334        0.28123        0.32309        0.28770        0.30897        0.34861        0.34307        0.28789        0.25524        0.30915        0.33694        0.28591        0.24658        0.26857        0.26466        0.30705        0.35277        0.30091        0.34282        0.28388        0.27050        0.30645        0.29140        0.22307        0.26039        0.30134        0.25265        0.21730        0.24227        0.29001        0.41406        0.30294        0.24964        0.18414        0.24301        0.25960        0.25882        0.35660        0.20592        0.14147        0.27880        0.33532        0.29206        0.17972        0.04073       -0.59562       -1.09013
2.467329 2.443264 2.419319 2.395495 2.371791 2.348208 2.324746 2.301404 2.278183 2.255082 2.232102 2.209243 2.186504 2.163886 2.141388 2.119011 2.096755 2.074619 2.052603 2.030709 2.008935 1.987281 1.965748 1.944336 1.923044 1.901873 1.880823 1.859893 1.839083 1.818394 1.797826 1.777379 1.757052 1.736845 1.716760 1.696794 1.676950 1.657226 1.637622 1.618139 1.598777 1.579536 1.560414 1.541414 1.522534 1.503775 1.485136 1.466618 1.448220 1.429944 1.411787 1.366212 1.843173 1.396702 0.909720 0.754957 -0.020502 0.602898 0.141490 0.320898 0.633843 0.383743 0.272095 0.499169 0.430970 0.347873 0.227204 0.004282 -0.239862 -0.415640 -0.399228 -0.339570 0.136572 -0.392099 -0.168307 -0.315916 -0.226879 -0.388432 -0.032672 -0.064013 -0.176679 0.068354 0.235376 0.094273 0.344646 0.247244 0.617749 0.494650 0.806018 0.756445 0.873604 1.093669 0.974115 1.232788 1.290267 1.144075 0.984419 0.996343 0.962397 0.990629 0.960757 0.801567 0.692709 0.639756 0.548671 0.493419 0.562914 0.391720 0.327345 0.139613 0.092202 0.152135 0.191167 0.109434 0.158402 0.290446 0.375230 0.386098 0.471130 0.500588 0.654413 0.462692 0.878867 0.987369 0.798853 0.714780 0.844681 0.575415 0.543703 0.517167 0.267652 0.290493 0.108408 0.235030 0.013051 0.029026 -0.063526 -0.046571 0.183070 0.083355 0.201047 0.258766 0.304088 0.424646 0.486025 0.437080 0.431204 0.554587 0.509029 0.400690 0.376017 0.241893 0.201896 0.096387 0.024522 0.041622 -0.111625 0.034360 0.040709 -0.072742 -0.018000 0.189647 0.347540 0.240761 0.337987 0.193869 0.549333 0.342855 0.312213 0.309795 0.173292 0.123380 0.347643 0.051186 0.061891 -0.013766 0.071585 -0.030738 0.074978 -0.017028 0.167303 0.020395 0.236053 0.343371 0.252511 0.171648 0.204844 0.165099 0.061551 0.072614 0.068240 -0.030973 -0.007634 0.040393 -0.148652 -0.108025 -0.011028 0.076942 0.261393 0.122188 0.183217 0.113948 0.156931 0.070154 0.069203 -0.053833 0.021763 0.012109 -0.049693 0.005583 0.035679 0.061791 0.009805 0.068469 0.099112 0.158397 0.276597 0.017240 0.045056 0.055474 -0.010453 0.012721 -0.018899 0.049345 0.100247 -0.019081 0.036129 0.057598 0.139133 0.053118 0.053814 0.095312 0.043562 0.072722 -0.016155 0.020489 -0.039300 0.016313 -0.012464 -0.020528 -0.013352 0.037473 0.034856 0.031548 -0.018505 -0.076406 -0.037820 -0.101645 -0.012704 -0.003642 0.052266 -0.027661 0.004529 0.098595 -0.062305 0.016953 -0.066815 -0.087130 0.010031 -0.075176 -0.020020 -0.012037 -0.035015 -0.049479 -0.083346 0.015450 0.043300 -0.002360 -0.036757 -0.020933 -0.067801 -0.044153 0.024095 -0.036605 -0.088265 -0.007816 -0.080000 0.036670 0.025305 0.095564 -0.009451 -0.059700 -0.131314 0.032279 0.102685 -0.047721 -0.027387 -0.034001 0.036889 -0.044303 -0.097227 -0.014185 -0.019040 -0.046580 -0.066590 -0.093128 -0.010362 -0.072755 -0.013642 -0.119501 -0.120956 0.043029 0.064160 0.104058 0.021287 0.034308 -0.044853 -0.057263 -0.029923 -0.040480 0.000613 0.065786 -0.104860 -0.095518 0.038785 0.044651 0.040310 -0.087785 -0.048279 -0.048460 -0.059719 -0.084405 0.080857 -0.014187 -0.067971 -0.135329 -0.067169 0.053258 -0.100279 -0.135991 -0.130755 -0.030571 -0.037731 0.027184 -0.085245 0.042760 0.012902 -0.086426 0.009752 -0.057347 -0.189468 -0.065046 0.037991 -0.089899 -0.082806 -0.060776 0.056591 0.278306 -0.014667 0.055275 -0.249134 0.021508 0.039698 0.008442 0.258197 -0.037456 0.262988 0.597832 0.612604 0.504040 0.265895 0.083597 -1.984221
0.072396 0.072904 0.074427 0.076966 0.080519 0.085086 0.090666 0.097256 0.104855 0.113460 0.123066 0.133671 0.145268 0.157851 0.171411 0.185940 0.201426 0.217856 0.235215 0.253483 0.272642 0.292668 0.313532 0.335207 0.357656 0.380843 0.404724 0.429252 0.454374 0.480035 0.506169 0.532708 0.559578 0.586698 0.613978 0.641326 0.668640 0.695812 0.722727 0.749263 0.775290 0.800674 0.825271 0.848934 0.871506 0.892827 0.912731 0.931048 0.947604 0.962220 0.974717 0.984915 0.992632 0.997689 0.999909 0.999119 0.995152 0.987850 0.977061 0.962648 0.944485 0.922463 0.896489 0.866492 0.832421 0.794253 0.751987 0.705656 0.655321 0.601076 0.543053 0.481418 0.416377 0.348175 0.277097 0.203470 0.127663 0.050085 0.028816 0.108550 0.188590 0.268376 0.347315 0.424784 0.500139 0.572715 0.641833 0.706809 0.766958 0.821601 0.870078 0.911750 0.946014 0.972308 0.990123 0.999013 0.998605 0.988606 0.968814 0.939130 0.899559 0.850223 0.791367 0.723361 0.646703 0.562024 0.470088 0.371786 0.268133 0.160264 0.049424 0.063046 0.175722 0.287110 0.395669 0.499829 0.598018 0.688681 0.770312 0.841476 0.900843 0.947212 0.979539 0.996969 0.998854 0.984783 0.954599 0.908418 0.846640 0.769958 0.679362 0.576135 0.461845 0.338325 0.207659 0.072145 0.065738 0.203367 0.338032 0.466980 0.587478 0.696869 0.792639 0.872476 0.934334 0.976493 0.997615 0.996792 0.973591 0.928084 0.860873 0.773101 0.666444 0.543099 0.405751 0.257524 0.101921 0.057249 0.215962 0.370078 0.515444 0.648017 0.763974 0.859831 0.932562 0.979702 0.999446 0.990728 0.953286 0.887704 0.795430 0.678766 0.540832 0.385503 0.217314 0.041341 0.136944 0.311834 0.477570 0.628537 0.759453 0.865572 0.942866 0.988195 0.999453 0.975688 0.917172 0.825448 0.703311 0.554762 0.384893 0.199735 0.006065 0.188833 0.377443 0.552292 0.706264 0.832897 0.926670 0.983267 0.999800 0.974980 0.909227 0.804717 0.665345 0.496615 0.305453 0.099948 0.110971 0.317920 0.511466 0.682560 0.822988 0.925767 0.985532 0.998842 0.964409 0.883234 0.758633 0.596147 0.403333 0.189451 0.034965 0.258593 0.469899 0.657733 0.811931 0.923888 0.987069 0.997430 0.953717 0.857620 0.713770 0.529567 0.314847 0.081392 0.157689 0.388682 0.598051 0.773253 0.903498 0.980459 0.998852 0.956834 0.856230 0.702518 0.504596 0.274318 0.025825 0.225292 0.462960 0.671655 0.837431 0.948894 0.998021 0.980803 0.897620 0.753336 0.557097 0.321800 0.063313 0.200564 0.451321 0.671011 0.843583 0.956069 0.999632 0.970313 0.869458 0.703750 0.484863 0.228690 0.045745 0.317672 0.566133 0.771602 0.917569 0.991910 0.987963 0.905203 0.749440 0.532504 0.271433 0.012815 0.296982 0.557411 0.772022 0.922220 0.994574 0.982083 0.884951 0.710736 0.473873 0.194553 0.102912 0.392193 0.647232 0.844644 0.965894 0.999115 0.940371 0.794202 0.573396 0.297986 0.006500 0.311338 0.587301 0.807474 0.949931 0.999994 0.951849 0.809323 0.585724 0.302700 0.011743 0.325962 0.607834 0.828068 0.963288 0.998619 0.929430 0.762049 0.513326 0.209072 0.118547 0.434330 0.703836 0.897156 0.992324 0.977915 0.854547 0.635070 0.343369 0.011886 0.321911 0.619731 0.846870 0.976324 0.992114 0.891388 0.685036 0.396672 0.060071 0.284697 0.595999 0.835667 0.973758 0.992411 0.888298 0.673340 0.373507 0.025839 0.326053 0.637391 0.867976 0.987438 0.979390 0.843823 0.597430 0.271735 0.090791 0.442200 0.735361
1.000000 1.000000 1.000000 1.000000 1.000000 1.000000 1.000000 1.000000 1.000000 1.000000 1.000000 1.000000 1.000000 1.000000 1.000000 1.000000 1.000000 1.000000 1.000000 1.000000 1.000000 1.000000 1.000000 1.000000 1.000000 1.000000 1.000000 1.000000 1.000000 1.000000 1.000000 1.000000 1.000000 1.000000 1.000000 1.000000 1.000000 1.000000 1.000000 1.000000 1.000000 1.000000 1.000000 1.000000 1.000000 1.000000 1.000000 1.000000 1.000000 1.000000 1.000000 1.000000 0.821737 0.821737 0.821737 0.816499 0.816499 0.816499 0.816499 0.816499 0.816499 0.816499 0.816499 0.816499 0.816499 0.816499 0.816499 0.816499 0.816499 0.816499 0.816499 0.816499 0.816499 0.816499 0.816499 0.816499 0.816499 0.816499 0.816499 0.816499 0.816499 0.816499 0.816499 0.816499 0.816499 0.816499 0.816499 0.816499 0.816499 0.816499 0.816499 0.816499 0.816499 0.816499 0.816499 0.816499 0.827418 0.834616 0.835320 0.840888 0.844292 0.842624 0.840502 0.839722 0.839385 0.840402 0.849493 0.874802 0.892166 0.899790 0.913588 0.917871 0.922112 0.924210 0.931157 0.931026 0.963030 0.958074 0.957693 0.958599 0.950274 0.945001 0.944036 0.942470 0.951432 0.945675 0.943243 0.940470 0.939233 0.934789 0.935853 0.935795 0.931989 0.932439 0.932864 0.930538 0.931136 0.929730 0.928965 0.915828 0.915193 0.914642 0.917440 0.892354 0.887763 0.876869 0.876723 0.878130 0.873827 0.872808 0.864862 0.866325 0.867489 0.865578 0.856123 0.851722 0.847082 0.839283 0.836224 0.834566 0.837417 0.835440 0.834860 0.829143 0.816367 0.807274 0.795686 0.788585 0.776916 0.770014 0.773603 0.774133 0.777243 0.771179 0.769579 0.759883 0.753053 0.736901 0.735563 0.735235 0.746253 0.749549 0.750106 0.748978 0.728276 0.707823 0.691709 0.693878 0.694403 0.656668 0.643601 0.646549 0.648873 0.655172 0.668834 0.663808 0.653942 0.629573 0.605519 0.584548 0.598187 0.615662 0.607101 0.612314 0.591147 0.630595 0.632894 0.651351 0.666086 0.673395 0.668765 0.645657 0.611660 0.607544 0.607795 0.606710 0.600517 0.590873 0.593576 0.612084 0.584664 0.577699 0.567180 0.559237 0.562200 0.573740 0.552245 0.556088 0.528683 0.494714 0.457679 0.454647 0.405466 0.367076 0.360581 0.359518 0.335068 0.332261 0.352919 0.362913 0.361023 0.366034 0.370661 0.302965 0.308764 0.300750 0.279354 0.272739 0.295254 0.306983 0.312881 0.295948 0.262388 0.275439 0.233881 0.249337 0.219407 0.192949 0.193194 0.189327 0.210234 0.204955 0.182499 0.168136 0.154029 0.122709 0.138112 0.148035 0.185165 0.174114 0.146850 0.141938 0.109208 0.085708 0.089768 0.055388 0.016924 0.000434 -0.009218 -0.007274 -0.011826 -0.019587 -0.040496 -0.009766 -0.037118 0.001049 -0.026539 -0.041468 -0.061621 -0.032306 -0.045605 -0.055603 -0.043152 -0.077067 -0.120863 -0.144194 -0.146836 -0.129609 -0.119767 -0.147989 -0.146532 -0.152043 -0.201154 -0.195699 -0.164632 -0.158536 -0.161326 -0.131266 -0.108422 -0.124063 -0.249721 -0.193071 -0.156547 -0.158310 -0.160162 -0.200682 -0.230749 -0.228808 -0.214367 -0.179514 -0.152881 -0.130295 -0.131373 -0.129545 -0.124523 -0.166978 -0.206600 -0.210502 -0.200519 -0.183748 -0.146409 -0.118933 -0.102999 -0.090011 -0.112497 -0.112497 -0.112497 -0.112497 -0.105889 -0.105889 -0.105889 -0.105889 -0.105889 -0.105889 -0.105889 -0.105889 -0.105889 -0.142576 -0.142576 -0.142576 -0.142576 -0.142576 -0.142576 -0.142576 -0.142576 -0.142576 -0.142576 -0.142576 -0.142576 -0.142576 -0.142576 -0.142576 -0.142576
0.000000 0.000000 0.000000 0.000000 0.000000 0.000000 0.000000 0.000000 0.000000 0.000000 0.000000 0.000000 0.000000 0.000000 0.000000 0.000000 0.000000 0.000000 0.000000 0.000000 0.000000 0.000000 0.000000 0.000000 0.000000 0.000000 0.000000 0.000000 0.000000 0.000000 0.000000 0.000000 0.000000 0.000000 0.000000 0.000000 0.000000 0.000000 0.000000 0.000000 0.000000 0.000000 0.000000 0.000000 0.000000 0.000000 0.000000 0.000000 0.000000 0.000000 0.000000 0.000000 0.180334 0.180334 0.180334 0.199007 0.199007 0.199007 0.199007 0.199007 0.199007 0.199007 0.199007 0.199007 0.199007 0.199007 0.199007 0.199007 0.199007 0.199007 0.199007 0.199007 0.199007 0.199007 0.199007 0.199007 0.199007 0.199007 0.199007 0.199007 0.199007 0.199007 0.199007 0.199007 0.199007 0.199007 0.199007 0.199007 0.199007 0.199007 0.199007 0.199007 0.199007 0.199007 0.199007 0.199007 0.230940 0.230940 0.230940 0.230940 0.230940 0.230940 0.230940 0.230940 0.230940 0.230940 0.230940 0.230940 0.230940 0.230940 0.230940 0.230940 0.230940 0.230940 0.230940 0.230940 0.230940 0.230940 0.230940 0.230940 0.230940 0.230940 0.230940 0.230940 0.244339 0.244339 0.244339 0.244339 0.244339 0.244339 0.244339 0.244339 0.244339 0.244339 0.244339 0.244339 0.244339 0.244339 0.244339 0.244339 0.244339 0.244339 0.244339 0.244339 0.244339 0.244339 0.244339 0.251976 0.251976 0.251976 0.251976 0.251976 0.251976 0.251976 0.251976 0.251976 0.251976 0.251976 0.251976 0.251976 0.251976 0.251976 0.251976 0.251976 0.251976 0.251976 0.251976 0.264906 0.264906 0.264906 0.264906 0.264906 0.264906 0.264906 0.264906 0.264906 0.264906 0.264906 0.264906 0.264906 0.264906 0.264906 0.264906 0.264906 0.264906 0.264906 0.264906 0.264906 0.264906 0.264906 0.264906 0.264906 0.264906 0.264906 0.264906 0.264906 0.264906 0.264906 0.264906 0.264906 0.264906 0.264906 0.264906 0.264906 0.264906 0.264906 0.264906 0.264906 0.264906 0.264906 0.264906 0.264906 0.264906 0.264906 0.264906 0.264906 0.264906 0.264906 0.264906 0.264906 0.264906 0.264906 0.264906 0.264906 0.264906 0.264906 0.264906 0.264906 0.264906 0.264906 0.264906 0.264906 0.264906 0.264906 0.264906 0.264906 0.264906 0.264906 0.264906 0.264906 0.264906 0.264906 0.260378 0.260378 0.260378 0.260378 0.260378 0.260378 0.260378 0.260378 0.260378 0.260378 0.260378 0.260378 0.260378 0.264906 0.264906 0.264906 0.264906 0.264906 0.264906 0.264906 0.264906 0.264906 0.264906 0.264906 0.264906 0.269680 0.269680 0.269680 0.269680 0.269680 0.269680 0.269680 0.269680 0.269680 0.269680 0.269680 0.264906 0.264906 0.264906 0.264906 0.264906 0.264906 0.264906 0.264906 0.264906 0.264906 0.264906 0.269680 0.269680 0.269680 0.269680 0.269680 0.269680 0.269680 0.269680 0.269680 0.269680 0.251976 0.251976 0.251976 0.251976 0.251976 0.251976 0.251976 0.251976 0.251976 0.251976 0.251976 0.269680 0.269680 0.269680 0.269680 0.269680 0.269680 0.269680 0.269680 0.269680 0.256074 0.256074 0.256074 0.256074 0.256074 0.256074 0.256074 0.256074 0.256074 0.256074 0.260378 0.260378 0.260378 0.260378 0.260378 0.260378 0.260378 0.260378 0.260378 0.256074 0.256074 0.256074 0.256074 0.256074 0.256074 0.256074 0.256074 0.256074 0.251976 0.251976 0.251976 0.251976 0.251976 0.251976 0.251976 0.251976 0.251976 0.251976 0.251976 0.251976 0.251976 0.251976 0.251976 0.251976
