# Output from CTFFind version 4.1.9, run on 2019-11-02 17:47:56
# Input file: stack16_bm3d_averaged_1_1.0_0_1500_half.mrc ; Number of micrographs: 1
# Pixel size: 3.000 Angstroms ; acceleration voltage: 300.0 keV ; spherical aberration: 0.00 mm ; amplitude contrast: 0.07
# Box size: 512 pixels ; min. res.: 30.0 Angstroms ; max. res.: 5.0 Angstroms ; min. def.: 5000.0 um; max. def. 50000.0 um; num. frames averaged: 1
# 6 lines per micrograph: #1 - spatial frequency (1/Angstroms); #2 - 1D rotational average of spectrum (assuming no astigmatism); #3 - 1D rotational average of spectrum; #4 - CTF fit; #5 - cross-correlation between spectrum and CTF fit; #6 - 2sigma of expected cross correlation of noise
0.000000 0.000651 0.001302 0.001953 0.002604 0.003255 0.003906 0.004557 0.005208 0.005859 0.006510 0.007161 0.007812 0.008464 0.009115 0.009766 0.010417 0.011068 0.011719 0.012370 0.013021 0.013672 0.014323 0.014974 0.015625 0.016276 0.016927 0.017578 0.018229 0.018880 0.019531 0.020182 0.020833 0.021484 0.022135 0.022786 0.023438 0.024089 0.024740 0.025391 0.026042 0.026693 0.027344 0.027995 0.028646 0.029297 0.029948 0.030599 0.031250 0.031901 0.032552 0.033203 0.033854 0.034505 0.035156 0.035807 0.036458 0.037109 0.037760 0.038411 0.039062 0.039714 0.040365 0.041016 0.041667 0.042318 0.042969 0.043620 0.044271 0.044922 0.045573 0.046224 0.046875 0.047526 0.048177 0.048828 0.049479 0.050130 0.050781 0.051432 0.052083 0.052734 0.053385 0.054036 0.054688 0.055339 0.055990 0.056641 0.057292 0.057943 0.058594 0.059245 0.059896 0.060547 0.061198 0.061849 0.062500 0.063151 0.063802 0.064453 0.065104 0.065755 0.066406 0.067057 0.067708 0.068359 0.069010 0.069661 0.070312 0.070964 0.071615 0.072266 0.072917 0.073568 0.074219 0.074870 0.075521 0.076172 0.076823 0.077474 0.078125 0.078776 0.079427 0.080078 0.080729 0.081380 0.082031 0.082682 0.083333 0.083984 0.084635 0.085286 0.085938 0.086589 0.087240 0.087891 0.088542 0.089193 0.089844 0.090495 0.091146 0.091797 0.092448 0.093099 0.093750 0.094401 0.095052 0.095703 0.096354 0.097005 0.097656 0.098307 0.098958 0.099609 0.100260 0.100911 0.101562 0.102214 0.102865 0.103516 0.104167 0.104818 0.105469 0.106120 0.106771 0.107422 0.108073 0.108724 0.109375 0.110026 0.110677 0.111328 0.111979 0.112630 0.113281 0.113932 0.114583 0.115234 0.115885 0.116536 0.117188 0.117839 0.118490 0.119141 0.119792 0.120443 0.121094 0.121745 0.122396 0.123047 0.123698 0.124349 0.125000 0.125651 0.126302 0.126953 0.127604 0.128255 0.128906 0.129557 0.130208 0.130859 0.131510 0.132161 0.132812 0.133464 0.134115 0.134766 0.135417 0.136068 0.136719 0.137370 0.138021 0.138672 0.139323 0.139974 0.140625 0.141276 0.141927 0.142578 0.143229 0.143880 0.144531 0.145182 0.145833 0.146484 0.147135 0.147786 0.148438 0.149089 0.149740 0.150391 0.151042 0.151693 0.152344 0.152995 0.153646 0.154297 0.154948 0.155599 0.156250 0.156901 0.157552 0.158203 0.158854 0.159505 0.160156 0.160807 0.161458 0.162109 0.162760 0.163411 0.164062 0.164714 0.165365 0.166016 0.166667 0.167318 0.167969 0.168620 0.169271 0.169922 0.170573 0.171224 0.171875 0.172526 0.173177 0.173828 0.174479 0.175130 0.175781 0.176432 0.177083 0.177734 0.178385 0.179036 0.179688 0.180339 0.180990 0.181641 0.182292 0.182943 0.183594 0.184245 0.184896 0.185547 0.186198 0.186849 0.187500 0.188151 0.188802 0.189453 0.190104 0.190755 0.191406 0.192057 0.192708 0.193359 0.194010 0.194661 0.195312 0.195964 0.196615 0.197266 0.197917 0.198568 0.199219 0.199870 0.200521 0.201172 0.201823 0.202474 0.203125 0.203776 0.204427 0.205078 0.205729 0.206380 0.207031 0.207682 0.208333 0.208984 0.209635 0.210286 0.210938 0.211589 0.212240 0.212891 0.213542 0.214193 0.214844 0.215495 0.216146 0.216797 0.217448 0.218099 0.218750 0.219401 0.220052 0.220703 0.221354 0.222005 0.222656 0.223307 0.223958 0.224609 0.225260 0.225911 0.226562 0.227214 0.227865 0.228516 0.229167 0.229818 0.230469 0.231120 0.231771 0.232422 0.233073 0.233724 0.234375 0.235026 0.235677
       0.34318        0.34318        0.34318        0.34318        0.34318        0.34318        0.34318        0.34318        0.34318        0.34318        0.34318        0.34318        0.34318        0.34318        0.34318        0.34318        0.34318        0.34318        0.34318        0.34318        0.34318        0.34318        0.34318        0.34318        0.34318        0.34318        0.34318        0.34318        0.34318        0.34318        0.34318        0.34318        0.34318        0.34318        0.34318        0.34318        0.34318        0.34318        0.34318        0.34318        0.34318        0.34318        0.34318        0.34318        0.34318        0.34318        0.34318        0.34318        0.34318        0.34318        0.34318        0.48930        0.70282        0.45595       -0.11000       -0.41337       -0.57113       -0.66055       -0.74479       -0.76123       -0.86907       -0.91393       -0.75999       -0.92485       -0.87159       -1.02463       -1.09592       -0.98872       -0.96132       -0.88362       -0.86028       -0.75018       -0.64112       -0.50000       -0.42287       -0.21862       -0.11811       -0.02358        0.20294        0.24347        0.30901        0.38548        0.43854        0.51617        0.58102        0.59695        0.59169        0.50151        0.54675        0.48565        0.39195        0.32597        0.20717        0.17300        0.10147       -0.06126       -0.11250       -0.09145        0.01054       -0.01754        0.01162        0.02892        0.20916        0.21879        0.39016        0.45732        0.56182        0.70162        0.76221        0.73003        0.70711        0.70393        0.58482        0.54308        0.40002        0.27441        0.19486        0.14503        0.06683        0.02450        0.02353        0.06176        0.07928        0.27375        0.41813        0.50493        0.58792        0.63876        0.70493        0.66035        0.65185        0.67215        0.60970        0.48097        0.28448        0.23498        0.20485        0.13038        0.04634        0.09281        0.11994        0.25052        0.34150        0.41505        0.50194        0.54024        0.66223        0.60935        0.55454        0.50852        0.36435        0.20828        0.21076        0.15333        0.11582        0.12031        0.21420        0.25452        0.36122        0.44354        0.43934        0.56517        0.51176        0.44890        0.45458        0.38368        0.32351        0.27638        0.21726        0.23613        0.21164        0.21062        0.32369        0.45037        0.48785        0.48115        0.55168        0.49672        0.45612        0.39682        0.29390        0.22525        0.23295        0.24546        0.26672        0.27196        0.32585        0.44266        0.49932        0.48744        0.45904        0.41868        0.38842        0.36250        0.25019        0.22750        0.24764        0.29399        0.35455        0.36358        0.39321        0.40911        0.44368        0.37190        0.34793        0.31422        0.30607        0.26701        0.25883        0.31096        0.34684        0.41611        0.41774        0.39735        0.39384        0.40652        0.34854        0.28680        0.29208        0.27765        0.31069        0.35970        0.36696        0.41543        0.36014        0.36611        0.38942        0.34505        0.31432        0.28177        0.29451        0.33952        0.33091        0.32525        0.37556        0.39547        0.33505        0.35253        0.29712        0.30847        0.28885        0.28157        0.30187        0.33081        0.38383        0.36651        0.34805        0.32881        0.28629        0.27710        0.29753        0.28310        0.31427        0.36974        0.39490        0.33717        0.31753        0.31155        0.29884        0.28513        0.27859        0.29958        0.34111        0.33553        0.34484        0.31895        0.34778        0.32305        0.28826        0.31430        0.32187        0.33388        0.33630        0.31868        0.31464        0.30501        0.33020        0.31549        0.33818        0.39093        0.33731        0.36146        0.32023        0.31176        0.28909        0.31062        0.29024        0.31035        0.31886        0.35259        0.36309        0.31431        0.32057        0.31379        0.29635        0.29310        0.28951        0.33271        0.34151        0.35748        0.33772        0.32411        0.25975        0.26675        0.31276        0.35128        0.31713        0.29768        0.28442        0.28852        0.32684        0.30864        0.30572        0.33363        0.34213        0.31442        0.24383        0.28745        0.28619        0.28714        0.32079        0.32425        0.34835        0.34198        0.28092        0.26779        0.29501        0.26714        0.29095        0.27511        0.24735        0.26397        0.25152        0.27806        0.28257        0.27680        0.26733        0.31700        0.32706        0.31458        0.28812        0.30375        0.24399        0.27196        0.25648        0.33157        0.34623        0.23145        0.25662        0.27909        0.24764        0.24757        0.30249        0.23208        0.14182        0.17260        0.24061        0.27250        0.22918        0.14317        0.03420       -0.41226       -0.76041
3.048718 3.010818 2.973162 2.935750 2.898581 2.861656 2.824975 2.788537 2.752342 2.716391 2.680683 2.645219 2.609999 2.575022 2.540288 2.505798 2.471552 2.437549 2.403789 2.370274 2.337001 2.303973 2.271187 2.238645 2.206347 2.174293 2.142481 2.110914 2.079590 2.048509 2.017672 1.987079 1.956729 1.926622 1.896759 1.867140 1.837764 1.808631 1.779743 1.751097 1.722695 1.694537 1.666622 1.638951 1.611524 1.584339 1.557399 1.530702 1.504248 1.478038 1.452071 1.509093 1.696702 1.609404 0.965398 0.681095 0.476202 0.431444 0.321271 0.265469 0.200321 0.021892 0.196812 0.081637 -0.006132 -0.058665 -0.196784 -0.150431 -0.089755 -0.091351 -0.095871 0.010918 0.032262 0.232787 0.150446 0.364237 0.444512 0.475542 0.713617 0.698114 0.707535 0.836486 0.819668 0.850748 0.920459 0.891395 0.936993 0.749985 0.834403 0.837798 0.620204 0.607557 0.456608 0.436515 0.383830 0.209047 0.119238 0.100247 0.206161 0.144817 0.194259 0.111389 0.310903 0.286910 0.456042 0.413966 0.578883 0.642698 0.763637 0.703382 0.653228 0.667166 0.531163 0.503766 0.367682 0.293225 0.118249 0.146690 0.001414 -0.011656 -0.037897 -0.028831 -0.001256 0.034483 0.274851 0.330211 0.385761 0.394310 0.467156 0.518968 0.467916 0.504714 0.398981 0.388839 0.154195 0.067399 0.072593 -0.002146 -0.123082 -0.042403 -0.111276 0.016649 0.136507 0.155793 0.252991 0.256892 0.382001 0.460846 0.352833 0.388152 0.281948 0.125524 0.048266 0.051558 0.014891 0.003001 0.006201 0.107989 0.129256 0.264678 0.236535 0.303971 0.368781 0.239954 0.243627 0.218849 0.131251 0.081869 0.052046 0.025509 0.039890 -0.013620 0.028641 0.185393 0.223284 0.248908 0.280523 0.231201 0.239050 0.148477 0.106704 -0.022527 -0.015273 -0.005982 0.017378 0.008416 0.027939 0.104973 0.187935 0.202263 0.218592 0.137999 0.146538 0.079916 0.057827 -0.058083 -0.014262 -0.005438 0.054369 0.065967 0.078273 0.154721 0.088724 0.163190 0.068344 0.053109 0.046482 0.028342 0.002342 0.009312 0.054771 0.084783 0.131957 0.140733 0.069424 0.129855 0.098920 0.016089 0.008100 0.005844 -0.004074 0.057113 0.060210 0.098855 0.098215 0.067993 0.069859 0.080449 0.033134 0.012674 -0.011118 0.010118 0.059788 0.025149 0.038586 0.080059 0.084989 0.054910 0.033159 0.008235 0.014543 -0.006183 -0.013091 0.014487 0.052243 0.104059 0.059884 0.058587 0.039418 -0.013539 -0.001108 0.014843 0.011144 0.027182 0.104901 0.061443 0.021432 0.043588 0.003003 0.026469 -0.010464 -0.004464 0.022970 0.063534 0.031567 0.045297 0.030601 0.053440 0.024621 -0.005635 0.027178 0.042072 0.039700 0.036419 0.023561 0.001779 -0.007183 0.029053 0.010908 0.047134 0.077349 0.045209 0.025683 0.016113 0.000189 -0.004045 0.009148 0.002961 0.013891 -0.001558 0.082332 0.055251 0.032585 0.042398 0.001314 0.012833 0.009664 -0.004202 0.054227 0.062404 0.086252 0.051815 0.050549 -0.024262 0.014962 0.036028 0.076635 0.033870 0.034065 0.006100 0.007553 0.052122 0.047897 0.034490 0.058681 0.072053 0.056607 -0.023409 0.016312 0.044406 0.020891 0.039065 0.080599 0.077917 0.067670 0.014844 0.004635 0.014925 -0.003224 0.020477 -0.018191 -0.027834 -0.014589 -0.044279 -0.003041 -0.005433 0.005905 -0.074140 0.002489 0.011723 -0.001907 -0.038019 0.023892 -0.095548 -0.020801 -0.042749 0.029055 0.066819 -0.107137 -0.019355 0.039276 0.011722 -0.039177 0.046174 0.030791 -0.007562 -0.041984 0.066703 0.236208 0.201984 0.102883 0.032935 -0.665599
0.072396 0.073046 0.074995 0.078243 0.082788 0.088629 0.095765 0.104191 0.113904 0.124900 0.137171 0.150708 0.165503 0.181542 0.198810 0.217288 0.236955 0.257784 0.279745 0.302803 0.326917 0.352039 0.378116 0.405089 0.432888 0.461438 0.490653 0.520439 0.550694 0.581302 0.612139 0.643071 0.673950 0.704620 0.734910 0.764641 0.793620 0.821646 0.848504 0.873970 0.897813 0.919790 0.939653 0.957148 0.972016 0.983995 0.992824 0.998243 0.999997 0.997837 0.991525 0.980838 0.965568 0.945529 0.920559 0.890527 0.855332 0.814912 0.769246 0.718359 0.662326 0.601273 0.535386 0.464911 0.390155 0.311493 0.229363 0.144276 0.056805 0.032407 0.122655 0.213170 0.303130 0.391661 0.477844 0.560728 0.639335 0.712676 0.779758 0.839606 0.891270 0.933846 0.966495 0.988455 0.999062 0.997771 0.984167 0.957991 0.919147 0.867723 0.804000 0.728467 0.641817 0.544965 0.439037 0.325370 0.205502 0.081157 0.045770 0.173243 0.299109 0.421138 0.537057 0.644594 0.741525 0.825729 0.895231 0.948259 0.983297 0.999132 0.994903 0.970143 0.924815 0.859337 0.774607 0.672004 0.553389 0.421084 0.277844 0.126814 0.028536 0.184477 0.337105 0.482447 0.616550 0.735609 0.836069 0.914752 0.968966 0.996610 0.996273 0.967311 0.909912 0.825134 0.714914 0.582062 0.430205 0.263717 0.087614 0.092592 0.271046 0.441740 0.598716 0.736282 0.849230 0.933048 0.984123 0.999923 0.979138 0.921799 0.829333 0.704577 0.551730 0.376250 0.184685 0.015546 0.216421 0.409632 0.586926 0.740467 0.863201 0.949203 0.993990 0.994799 0.950778 0.863117 0.735077 0.571923 0.380756 0.170243 0.049744 0.268572 0.475345 0.659464 0.811174 0.922116 0.985817 0.998119 0.957497 0.865240 0.725497 0.545164 0.333590 0.102151 0.136325 0.368259 0.580077 0.759025 0.893961 0.976095 0.999613 0.962151 0.865067 0.713497 0.516163 0.284949 0.034230 0.219970 0.460986 0.672610 0.840204 0.951750 0.998781 0.977091 0.887179 0.734379 0.528646 0.283995 0.017606 0.251324 0.502946 0.718236 0.880457 0.976525 0.998136 0.942576 0.813117 0.618953 0.374658 0.099181 0.185559 0.456386 0.690747 0.868622 0.974305 0.997868 0.936206 0.793519 0.581166 0.316891 0.023433 0.273360 0.546773 0.771647 0.926746 0.996833 0.974297 0.860088 0.663885 0.403432 0.103035 0.208586 0.501020 0.745129 0.915997 0.995561 0.974658 0.854207 0.645407 0.368865 0.052690 0.270261 0.565747 0.801812 0.952276 0.999771 0.937894 0.772211 0.519973 0.208479 0.127731 0.450644 0.723039 0.912847 0.997015 0.964478 0.817777 0.573127 0.258815 0.087922 0.425186 0.711478 0.910849 0.997521 0.959403 0.799961 0.538185 0.206532 0.152922 0.493737 0.771083 0.947717 0.999119 0.917105 0.711329 0.408411 0.048715 0.318878 0.643552 0.879597 0.992976 0.966416 0.802279 0.522693 0.166823 0.214421 0.565554 0.834603 0.980898 0.981406 0.834617 0.561267 0.201700 0.189874 0.553420 0.832274 0.982086 0.978078 0.819410 0.529863 0.154572 0.246782 0.609324 0.873509 0.995007 0.952397 0.751242 0.423749 0.023904 0.381172 0.722450 0.940778 0.997336 0.880828 0.610049 0.231221 0.189608 0.577902 0.863848 0.995011 0.946249 0.724854 0.369913 0.054278 0.469579 0.798401 0.978232 0.973806 0.784370 0.444528 0.018317 0.412609 0.764493 0.967840 0.981385 0.800843 0.460488 0.027087 0.412923 0.770563 0.972348 0.975689 0.778250 0.419239 0.027968 0.470492 0.815173 0.988275 0.951568 0.711204 0.317241 0.146350 0.579307
1.000000 1.000000 1.000000 1.000000 1.000000 1.000000 1.000000 1.000000 1.000000 1.000000 1.000000 1.000000 1.000000 1.000000 1.000000 1.000000 1.000000 1.000000 1.000000 1.000000 1.000000 1.000000 1.000000 1.000000 1.000000 1.000000 1.000000 1.000000 1.000000 1.000000 1.000000 1.000000 1.000000 1.000000 1.000000 1.000000 1.000000 1.000000 1.000000 1.000000 1.000000 1.000000 1.000000 1.000000 1.000000 1.000000 1.000000 1.000000 1.000000 1.000000 1.000000 1.000000 0.933098 0.933098 0.933098 0.933098 0.933098 0.933098 0.933098 0.933098 0.933098 0.933098 0.933098 0.933098 0.933098 0.933098 0.933098 0.933098 0.933098 0.933098 0.933098 0.933098 0.933098 0.933098 0.933098 0.933098 0.933098 0.933098 0.933098 0.933098 0.933098 0.933098 0.933098 0.933098 0.933098 0.922416 0.923903 0.926875 0.927947 0.927906 0.927449 0.927134 0.927353 0.929069 0.931389 0.948000 0.950180 0.950751 0.952041 0.952282 0.954798 0.953050 0.952880 0.963432 0.962254 0.962968 0.956032 0.957605 0.956697 0.955773 0.956274 0.956514 0.954588 0.952447 0.950764 0.950130 0.949757 0.951524 0.951999 0.951967 0.953436 0.953404 0.953129 0.949782 0.948348 0.949816 0.951848 0.950993 0.956702 0.956534 0.964575 0.965371 0.963969 0.963870 0.964067 0.964264 0.954721 0.948453 0.943108 0.931334 0.922162 0.920042 0.922920 0.924714 0.923644 0.919086 0.918031 0.915564 0.910394 0.909544 0.909314 0.910878 0.907135 0.903601 0.887201 0.886683 0.889199 0.888649 0.886479 0.878115 0.873361 0.874039 0.877179 0.874662 0.871266 0.887229 0.882413 0.887448 0.890528 0.893628 0.897477 0.893649 0.892578 0.888875 0.885316 0.880232 0.881729 0.871361 0.874176 0.869106 0.860068 0.853118 0.856072 0.865232 0.873119 0.881072 0.880112 0.880094 0.879309 0.871064 0.872243 0.863556 0.864533 0.869910 0.875842 0.872158 0.869392 0.873827 0.872029 0.873678 0.876211 0.872689 0.870965 0.861926 0.862185 0.864571 0.881286 0.881712 0.870211 0.862115 0.851835 0.858939 0.862127 0.861373 0.863196 0.853792 0.855201 0.844605 0.833457 0.835001 0.839798 0.834375 0.836122 0.834198 0.837919 0.840390 0.838591 0.833376 0.831992 0.836910 0.812083 0.818771 0.821532 0.816462 0.820698 0.812755 0.806507 0.801233 0.800791 0.795750 0.806659 0.805114 0.772103 0.763297 0.771000 0.754693 0.745799 0.741594 0.742628 0.717487 0.696559 0.666843 0.661934 0.649007 0.648639 0.648169 0.640495 0.622780 0.609466 0.602718 0.618871 0.621629 0.590632 0.590882 0.585108 0.580232 0.575290 0.573781 0.573913 0.579218 0.583788 0.549465 0.544926 0.551447 0.525725 0.524523 0.522537 0.512680 0.483859 0.489523 0.485454 0.504695 0.530532 0.494288 0.488847 0.498107 0.512239 0.524036 0.523812 0.510353 0.491448 0.502670 0.477344 0.458320 0.474400 0.480844 0.473685 0.488583 0.480616 0.509516 0.501862 0.483953 0.511078 0.523706 0.521048 0.518422 0.532781 0.522501 0.525823 0.513630 0.470941 0.480423 0.464066 0.407491 0.401909 0.418775 0.404747 0.402912 0.377009 0.380672 0.354801 0.322850 0.330407 0.325753 0.288793 0.252606 0.255696 0.257569 0.225370 0.197651 0.219143 0.170289 0.163488 0.182730 0.190780 0.184740 0.180636 0.203033 0.203033 0.203033 0.203033 0.203033 0.203033 0.203033 0.203033 0.203033 0.203033 0.203033 0.203033 0.203033 0.203033 0.228116 0.228116 0.228116 0.228116 0.228116 0.228116 0.228116 0.228116 0.228116 0.228116 0.228116 0.228116
0.000000 0.000000 0.000000 0.000000 0.000000 0.000000 0.000000 0.000000 0.000000 0.000000 0.000000 0.000000 0.000000 0.000000 0.000000 0.000000 0.000000 0.000000 0.000000 0.000000 0.000000 0.000000 0.000000 0.000000 0.000000 0.000000 0.000000 0.000000 0.000000 0.000000 0.000000 0.000000 0.000000 0.000000 0.000000 0.000000 0.000000 0.000000 0.000000 0.000000 0.000000 0.000000 0.000000 0.000000 0.000000 0.000000 0.000000 0.000000 0.000000 0.000000 0.000000 0.000000 0.209657 0.209657 0.209657 0.209657 0.209657 0.209657 0.209657 0.209657 0.209657 0.209657 0.209657 0.209657 0.209657 0.209657 0.209657 0.209657 0.209657 0.209657 0.209657 0.209657 0.209657 0.209657 0.209657 0.209657 0.209657 0.209657 0.209657 0.209657 0.209657 0.209657 0.209657 0.209657 0.209657 0.244339 0.244339 0.244339 0.244339 0.244339 0.244339 0.244339 0.244339 0.244339 0.244339 0.244339 0.244339 0.244339 0.244339 0.244339 0.244339 0.244339 0.244339 0.244339 0.244339 0.244339 0.244339 0.244339 0.244339 0.244339 0.260378 0.260378 0.260378 0.260378 0.260378 0.260378 0.260378 0.260378 0.260378 0.260378 0.260378 0.260378 0.260378 0.260378 0.260378 0.260378 0.260378 0.260378 0.260378 0.260378 0.269680 0.269680 0.269680 0.269680 0.269680 0.269680 0.269680 0.269680 0.269680 0.269680 0.269680 0.269680 0.269680 0.269680 0.269680 0.269680 0.269680 0.269680 0.269680 0.269680 0.269680 0.269680 0.269680 0.269680 0.269680 0.269680 0.269680 0.269680 0.269680 0.269680 0.269680 0.269680 0.269680 0.280056 0.280056 0.280056 0.280056 0.280056 0.280056 0.280056 0.280056 0.280056 0.280056 0.280056 0.280056 0.280056 0.280056 0.280056 0.280056 0.280056 0.280056 0.280056 0.280056 0.280056 0.280056 0.280056 0.280056 0.280056 0.280056 0.280056 0.274721 0.274721 0.274721 0.274721 0.274721 0.274721 0.274721 0.274721 0.274721 0.274721 0.274721 0.274721 0.274721 0.285714 0.285714 0.285714 0.285714 0.285714 0.285714 0.285714 0.285714 0.285714 0.285714 0.285714 0.280056 0.280056 0.280056 0.280056 0.280056 0.280056 0.280056 0.280056 0.280056 0.280056 0.280056 0.274721 0.274721 0.274721 0.274721 0.274721 0.274721 0.274721 0.274721 0.274721 0.274721 0.274721 0.280056 0.280056 0.280056 0.280056 0.280056 0.280056 0.280056 0.280056 0.280056 0.280056 0.285714 0.285714 0.285714 0.285714 0.285714 0.285714 0.285714 0.285714 0.285714 0.269680 0.269680 0.269680 0.269680 0.269680 0.269680 0.269680 0.269680 0.269680 0.269680 0.274721 0.274721 0.274721 0.274721 0.274721 0.274721 0.274721 0.274721 0.274721 0.285714 0.285714 0.285714 0.285714 0.285714 0.285714 0.285714 0.285714 0.264906 0.264906 0.264906 0.264906 0.264906 0.264906 0.264906 0.264906 0.264906 0.274721 0.274721 0.274721 0.274721 0.274721 0.274721 0.274721 0.274721 0.269680 0.269680 0.269680 0.269680 0.269680 0.269680 0.269680 0.269680 0.269680 0.269680 0.269680 0.269680 0.269680 0.269680 0.269680 0.269680 0.280056 0.280056 0.280056 0.280056 0.280056 0.280056 0.280056 0.260378 0.260378 0.260378 0.260378 0.260378 0.260378 0.260378 0.260378 0.269680 0.269680 0.269680 0.269680 0.269680 0.269680 0.269680 0.264906 0.264906 0.264906 0.264906 0.264906 0.264906 0.264906 0.264906 0.264906 0.264906 0.264906 0.264906 0.264906 0.264906 0.260378 0.260378 0.260378 0.260378 0.260378 0.260378 0.260378 0.260378 0.260378 0.260378 0.260378 0.260378
