# Output from CTFFind version 4.1.9, run on 2019-11-03 19:28:45
# Input file: stack6_bm3d_averaged_1_3.75_0_1500_half.mrc ; Number of micrographs: 1
# Pixel size: 3.000 Angstroms ; acceleration voltage: 300.0 keV ; spherical aberration: 0.00 mm ; amplitude contrast: 0.07
# Box size: 512 pixels ; min. res.: 30.0 Angstroms ; max. res.: 5.0 Angstroms ; min. def.: 5000.0 um; max. def. 50000.0 um; num. frames averaged: 1
# 6 lines per micrograph: #1 - spatial frequency (1/Angstroms); #2 - 1D rotational average of spectrum (assuming no astigmatism); #3 - 1D rotational average of spectrum; #4 - CTF fit; #5 - cross-correlation between spectrum and CTF fit; #6 - 2sigma of expected cross correlation of noise
0.000000 0.000651 0.001302 0.001953 0.002604 0.003255 0.003906 0.004557 0.005208 0.005859 0.006510 0.007161 0.007812 0.008464 0.009115 0.009766 0.010417 0.011068 0.011719 0.012370 0.013021 0.013672 0.014323 0.014974 0.015625 0.016276 0.016927 0.017578 0.018229 0.018880 0.019531 0.020182 0.020833 0.021484 0.022135 0.022786 0.023438 0.024089 0.024740 0.025391 0.026042 0.026693 0.027344 0.027995 0.028646 0.029297 0.029948 0.030599 0.031250 0.031901 0.032552 0.033203 0.033854 0.034505 0.035156 0.035807 0.036458 0.037109 0.037760 0.038411 0.039062 0.039714 0.040365 0.041016 0.041667 0.042318 0.042969 0.043620 0.044271 0.044922 0.045573 0.046224 0.046875 0.047526 0.048177 0.048828 0.049479 0.050130 0.050781 0.051432 0.052083 0.052734 0.053385 0.054036 0.054688 0.055339 0.055990 0.056641 0.057292 0.057943 0.058594 0.059245 0.059896 0.060547 0.061198 0.061849 0.062500 0.063151 0.063802 0.064453 0.065104 0.065755 0.066406 0.067057 0.067708 0.068359 0.069010 0.069661 0.070312 0.070964 0.071615 0.072266 0.072917 0.073568 0.074219 0.074870 0.075521 0.076172 0.076823 0.077474 0.078125 0.078776 0.079427 0.080078 0.080729 0.081380 0.082031 0.082682 0.083333 0.083984 0.084635 0.085286 0.085938 0.086589 0.087240 0.087891 0.088542 0.089193 0.089844 0.090495 0.091146 0.091797 0.092448 0.093099 0.093750 0.094401 0.095052 0.095703 0.096354 0.097005 0.097656 0.098307 0.098958 0.099609 0.100260 0.100911 0.101562 0.102214 0.102865 0.103516 0.104167 0.104818 0.105469 0.106120 0.106771 0.107422 0.108073 0.108724 0.109375 0.110026 0.110677 0.111328 0.111979 0.112630 0.113281 0.113932 0.114583 0.115234 0.115885 0.116536 0.117188 0.117839 0.118490 0.119141 0.119792 0.120443 0.121094 0.121745 0.122396 0.123047 0.123698 0.124349 0.125000 0.125651 0.126302 0.126953 0.127604 0.128255 0.128906 0.129557 0.130208 0.130859 0.131510 0.132161 0.132812 0.133464 0.134115 0.134766 0.135417 0.136068 0.136719 0.137370 0.138021 0.138672 0.139323 0.139974 0.140625 0.141276 0.141927 0.142578 0.143229 0.143880 0.144531 0.145182 0.145833 0.146484 0.147135 0.147786 0.148438 0.149089 0.149740 0.150391 0.151042 0.151693 0.152344 0.152995 0.153646 0.154297 0.154948 0.155599 0.156250 0.156901 0.157552 0.158203 0.158854 0.159505 0.160156 0.160807 0.161458 0.162109 0.162760 0.163411 0.164062 0.164714 0.165365 0.166016 0.166667 0.167318 0.167969 0.168620 0.169271 0.169922 0.170573 0.171224 0.171875 0.172526 0.173177 0.173828 0.174479 0.175130 0.175781 0.176432 0.177083 0.177734 0.178385 0.179036 0.179688 0.180339 0.180990 0.181641 0.182292 0.182943 0.183594 0.184245 0.184896 0.185547 0.186198 0.186849 0.187500 0.188151 0.188802 0.189453 0.190104 0.190755 0.191406 0.192057 0.192708 0.193359 0.194010 0.194661 0.195312 0.195964 0.196615 0.197266 0.197917 0.198568 0.199219 0.199870 0.200521 0.201172 0.201823 0.202474 0.203125 0.203776 0.204427 0.205078 0.205729 0.206380 0.207031 0.207682 0.208333 0.208984 0.209635 0.210286 0.210938 0.211589 0.212240 0.212891 0.213542 0.214193 0.214844 0.215495 0.216146 0.216797 0.217448 0.218099 0.218750 0.219401 0.220052 0.220703 0.221354 0.222005 0.222656 0.223307 0.223958 0.224609 0.225260 0.225911 0.226562 0.227214 0.227865 0.228516 0.229167 0.229818 0.230469 0.231120 0.231771 0.232422 0.233073 0.233724 0.234375 0.235026 0.235677
       0.30044        0.30044        0.30044        0.30044        0.30044        0.30044        0.30044        0.30044        0.30044        0.30044        0.30044        0.30044        0.30044        0.30044        0.30044        0.30044        0.30044        0.30044        0.30044        0.30044        0.30044        0.30044        0.30044        0.30044        0.30044        0.30044        0.30044        0.30044        0.30044        0.30044        0.30044        0.30044        0.30044        0.30044        0.30044        0.30044        0.30044        0.30044        0.30044        0.30044        0.30044        0.30044        0.30044        0.30044        0.30044        0.30044        0.30044        0.30044        0.30044        0.30044        0.30044        0.61220        0.76089        0.36656        0.22925        0.13902       -0.14480        0.11770        0.02446        0.03841        0.09886        0.33006        0.37430        0.31282        0.18580       -0.02559        0.01136        0.05179       -0.16509       -0.17477       -0.09232       -0.12149       -0.27763       -0.17052       -0.30761       -0.29297       -0.30453       -0.38038       -0.45458       -0.43135       -0.35020       -0.30959       -0.40184       -0.30446       -0.37031       -0.30646       -0.24026       -0.18614       -0.14918       -0.06224       -0.03612        0.08334        0.11866        0.21971        0.32498        0.38861        0.37285        0.47715        0.56596        0.58503        0.66785        0.63470        0.68983        0.60831        0.63986        0.64332        0.57909        0.57922        0.58768        0.39967        0.34077        0.35590        0.34075        0.18320        0.12624        0.07585        0.07079        0.05462       -0.04457        0.02001       -0.02014       -0.06472        0.06571        0.16088        0.26138        0.33250        0.32646        0.38132        0.49748        0.52698        0.47286        0.64909        0.52454        0.50432        0.55651        0.53061        0.51322        0.45868        0.38206        0.34455        0.24330        0.19641        0.15273        0.15467        0.12231        0.06939        0.11239        0.14927        0.18206        0.17068        0.23006        0.26593        0.33469        0.44758        0.42773        0.43046        0.48784        0.53876        0.52736        0.48421        0.37715        0.40379        0.35822        0.27776        0.22749        0.22763        0.18594        0.17116        0.16016        0.18051        0.16009        0.21197        0.26302        0.33354        0.37866        0.39579        0.45247        0.47932        0.44581        0.43332        0.40089        0.40371        0.39695        0.34670        0.28506        0.27267        0.22067        0.24526        0.23464        0.19462        0.22742        0.23332        0.24833        0.31999        0.35430        0.37548        0.38538        0.39474        0.42135        0.41088        0.40745        0.30345        0.29465        0.26062        0.27664        0.23716        0.19736        0.25438        0.31059        0.29608        0.28134        0.33024        0.29111        0.37301        0.34061        0.35265        0.36228        0.35525        0.31511        0.30233        0.28374        0.27627        0.25346        0.24484        0.25012        0.27973        0.28467        0.30948        0.34441        0.36486        0.33197        0.32511        0.34338        0.31084        0.27690        0.28398        0.26412        0.26425        0.26392        0.29297        0.27749        0.26733        0.29908        0.30215        0.32180        0.32558        0.33012        0.27185        0.26683        0.28476        0.27909        0.26547        0.25695        0.22598        0.24449        0.25520        0.25574        0.27219        0.27607        0.31507        0.32915        0.30785        0.30185        0.23056        0.23504        0.26852        0.23152        0.20977        0.26007        0.31106        0.24714        0.29547        0.29657        0.29238        0.31270        0.26577        0.28035        0.28579        0.27182        0.26316        0.22597        0.24772        0.24417        0.28774        0.29544        0.30573        0.29798        0.32166        0.24563        0.29784        0.28937        0.22288        0.29131        0.26963        0.28627        0.29051        0.30296        0.30356        0.34396        0.28802        0.24572        0.24515        0.21671        0.24373        0.27710        0.29736        0.27639        0.27719        0.26916        0.26740        0.26172        0.27416        0.22741        0.27184        0.24752        0.23716        0.23414        0.29696        0.30251        0.27313        0.27411        0.22635        0.29016        0.23151        0.19888        0.22842        0.27484        0.26976        0.31065        0.24365        0.21239        0.25926        0.22836        0.23625        0.19292        0.20694        0.20290        0.25972        0.25706        0.19747        0.26009        0.23434        0.29096        0.23409        0.22783        0.24424        0.20929        0.13326        0.17937        0.13332        0.16675        0.17952        0.09672        0.29830        0.13429        0.06495        0.11613        0.11516        0.21492        0.23227       -0.01614       -0.70404       -0.98718
3.008357 2.978560 2.948915 2.919424 2.890084 2.860899 2.831865 2.802985 2.774257 2.745682 2.717260 2.688991 2.660875 2.632911 2.605101 2.577443 2.549938 2.522586 2.495386 2.468340 2.441446 2.414705 2.388117 2.361682 2.335399 2.309269 2.283293 2.257469 2.231798 2.206279 2.180914 2.155701 2.130641 2.105734 2.080980 2.056379 2.031930 2.007634 1.983491 1.959501 1.935664 1.911980 1.888448 1.865069 1.841843 1.818770 1.795850 1.773082 1.750468 1.728006 1.705697 2.047756 2.383370 1.743227 1.701254 1.385162 0.858240 1.243637 1.100072 1.141593 0.999291 1.598721 1.528276 1.524209 1.269220 0.939740 0.776671 1.018677 0.749579 0.431220 0.568994 0.666686 0.393154 0.460352 0.281455 0.241396 0.161323 0.155859 -0.099264 -0.044943 0.055824 0.039736 0.009579 0.108159 -0.055643 -0.006598 0.130431 0.202729 0.248970 0.326667 0.354354 0.634925 0.535958 0.678909 0.911543 0.960599 0.919356 1.178418 1.187340 1.265526 1.349768 1.219697 1.437241 1.195218 1.190863 1.356511 1.146354 1.082953 1.196100 0.934626 0.672854 0.700197 0.746854 0.448849 0.377320 0.257249 0.187678 0.150901 0.008378 0.127611 0.030262 -0.087558 0.075294 0.212985 0.334118 0.501343 0.516842 0.517361 0.717943 0.808142 0.596396 0.981467 0.873957 0.634036 0.782319 0.691912 0.734021 0.696719 0.442179 0.464817 0.267616 0.194197 0.127187 -0.000796 0.052191 -0.093193 -0.034006 -0.029998 0.099494 -0.039780 0.209184 0.153548 0.199390 0.394932 0.472950 0.407794 0.383109 0.610917 0.607996 0.487896 0.348554 0.343901 0.322816 0.177704 0.063090 0.045904 0.019812 -0.025888 -0.083612 -0.046249 -0.110323 0.012564 0.013200 0.129062 0.237132 0.238382 0.360050 0.347142 0.403688 0.361324 0.433969 0.366539 0.266703 0.342190 0.140199 0.183048 0.051113 0.090157 0.044461 0.038738 -0.048324 0.060281 0.034677 0.114943 0.231300 0.242237 0.256805 0.273102 0.322975 0.323494 0.322490 0.207980 0.094679 0.133194 0.049218 0.058664 -0.032996 -0.035772 0.076322 0.126496 0.095996 0.091199 0.119206 0.178803 0.203463 0.159673 0.190397 0.219413 0.138436 0.114688 0.079233 0.059391 0.062868 -0.031947 0.028046 0.064104 0.010484 0.101697 0.115293 0.195625 0.210036 0.152998 0.132082 0.171371 0.088906 0.059432 0.087404 0.024008 0.020990 0.068839 0.073763 0.062898 0.031023 0.120799 0.094054 0.137291 0.141901 0.114426 0.065527 0.019509 0.077302 0.044339 0.051013 -0.008232 -0.039803 0.011684 0.000950 0.011249 0.068970 0.014358 0.112037 0.148100 0.050598 0.066949 -0.054629 0.008478 0.021603 -0.062695 -0.066154 0.054556 0.078814 -0.039214 0.070234 0.052607 0.081632 0.056270 -0.002648 0.011431 0.098476 -0.048519 0.017176 -0.047270 -0.010916 -0.045356 0.062607 0.050819 0.069917 0.019810 0.111999 -0.053925 0.069385 -0.008275 -0.068078 0.042957 -0.013254 0.027458 0.009724 0.103861 0.048767 0.070343 0.040462 -0.112615 -0.021412 -0.113173 -0.017971 0.010290 0.017554 0.009706 -0.028048 0.000017 -0.014004 -0.051727 -0.010782 -0.127660 0.000625 -0.051861 -0.089614 -0.043196 0.027427 0.004541 -0.002080 0.023602 -0.051429 0.058476 -0.033258 -0.109042 -0.030341 0.050544 0.065785 0.084284 0.000249 -0.031481 0.048655 0.010704 -0.058443 -0.009825 -0.102760 0.015987 0.089621 0.066486 -0.028941 0.113232 0.044451 0.221292 0.017235 0.105825 0.113168 0.070658 -0.122217 0.048729 -0.103487 0.090740 0.042092 -0.015319 0.483276 0.163224 0.099638 0.244636 0.212232 0.302403 0.316142 -0.013021 -1.580649
0.072396 0.072835 0.074150 0.076341 0.079409 0.083352 0.088169 0.093860 0.100422 0.107854 0.116153 0.125317 0.135340 0.146220 0.157950 0.170524 0.183935 0.198173 0.213229 0.229090 0.245743 0.263171 0.281358 0.300283 0.319924 0.340255 0.361248 0.382872 0.405092 0.427870 0.451164 0.474928 0.499113 0.523664 0.548524 0.573628 0.598908 0.624292 0.649702 0.675055 0.700262 0.725231 0.749862 0.774052 0.797692 0.820669 0.842862 0.864151 0.884406 0.903496 0.921286 0.937637 0.952410 0.965459 0.976642 0.985812 0.992826 0.997538 0.999807 0.999495 0.996466 0.990591 0.981748 0.969821 0.954707 0.936309 0.914546 0.889350 0.860669 0.828465 0.792722 0.753443 0.710652 0.664397 0.614752 0.561813 0.505707 0.446588 0.384638 0.320070 0.253128 0.184087 0.113250 0.040953 0.032437 0.106527 0.180894 0.255089 0.328641 0.401054 0.471816 0.540399 0.606262 0.668858 0.727636 0.782049 0.831557 0.875631 0.913764 0.945475 0.970314 0.987869 0.997777 0.999726 0.993462 0.978799 0.955622 0.923895 0.883663 0.835062 0.778317 0.713749 0.641777 0.562917 0.477783 0.387086 0.291629 0.192305 0.090090 0.013964 0.118740 0.223064 0.325718 0.425455 0.521012 0.611131 0.694569 0.770120 0.836639 0.893054 0.938388 0.971780 0.992503 0.999982 0.993810 0.973766 0.939823 0.892162 0.831181 0.757496 0.671943 0.575579 0.469669 0.355677 0.235257 0.110224 0.017464 0.145737 0.272441 0.395379 0.512343 0.621158 0.719727 0.806067 0.878361 0.934996 0.974606 0.996108 0.998740 0.982090 0.946118 0.891174 0.818013 0.727787 0.622044 0.502713 0.372070 0.232709 0.087496 0.060489 0.208009 0.351741 0.488353 0.614579 0.727301 0.823634 0.901004 0.957222 0.990561 0.999811 0.984337 0.944112 0.879746 0.792494 0.684244 0.557496 0.415314 0.261262 0.099328 0.066175 0.230722 0.389689 0.538493 0.672720 0.788270 0.881478 0.949253 0.989187 0.999651 0.979879 0.930020 0.851166 0.745348 0.615510 0.465438 0.299669 0.123371 0.057823 0.237971 0.411022 0.571023 0.712329 0.829798 0.919010 0.976431 0.999581 0.987150 0.939092 0.856664 0.742420 0.600165 0.434838 0.252373 0.059490 0.136533 0.328134 0.507750 0.668131 0.802632 0.905509 0.972174 0.999428 0.985635 0.930838 0.836804 0.707012 0.546542 0.361909 0.160818 0.048133 0.255828 0.453007 0.630693 0.780607 0.895567 0.969859 0.999540 0.982680 0.919507 0.812460 0.666136 0.487123 0.283739 0.065665 0.156502 0.371745 0.569177 0.738608 0.871071 0.959335 0.998317 0.985417 0.920718 0.807053 0.649931 0.457305 0.239213 0.007266 0.225935 0.447483 0.644887 0.806779 0.923599 0.988186 0.996255 0.946723 0.841849 0.687194 0.491370 0.265597 0.023105 0.221635 0.453747 0.658874 0.824068 0.938641 0.994890 0.988661 0.919699 0.791758 0.612466 0.392902 0.146984 0.109407 0.359426 0.586359 0.774761 0.911536 0.986866 0.994987 0.934669 0.809411 0.627308 0.400584 0.144827 0.122053 0.381050 0.613422 0.802049 0.932738 0.995321 0.984518 0.900428 0.748648 0.539980 0.289713 0.016560 0.258707 0.514829 0.731699 0.891975 0.982503 0.995463 0.929102 0.788015 0.582905 0.329849 0.049087 0.236548 0.503464 0.729287 0.894732 0.985324 0.992715 0.915532 0.759639 0.537786 0.268642 0.024722 0.316758 0.581666 0.795675 0.939217 0.998783 0.968258 0.849642 0.653019 0.395806 0.101271 0.203501 0.490085 0.731366 0.904129 0.991358 0.983985 0.881928 0.694271 0.438559 0.139252 0.174566 0.471960 0.723209 0.902803
1.000000 1.000000 1.000000 1.000000 1.000000 1.000000 1.000000 1.000000 1.000000 1.000000 1.000000 1.000000 1.000000 1.000000 1.000000 1.000000 1.000000 1.000000 1.000000 1.000000 1.000000 1.000000 1.000000 1.000000 1.000000 1.000000 1.000000 1.000000 1.000000 1.000000 1.000000 1.000000 1.000000 1.000000 1.000000 1.000000 1.000000 1.000000 1.000000 1.000000 1.000000 1.000000 1.000000 1.000000 1.000000 1.000000 1.000000 1.000000 1.000000 1.000000 1.000000 1.000000 0.828928 0.828928 0.828928 0.828928 0.828928 0.828928 0.828928 0.802445 0.802445 0.802445 0.802445 0.802445 0.802445 0.802445 0.802445 0.802445 0.802445 0.802445 0.802445 0.802445 0.802445 0.802445 0.802445 0.802445 0.802445 0.802445 0.802445 0.802445 0.802445 0.802445 0.802445 0.802445 0.802445 0.802445 0.802445 0.802445 0.802445 0.802445 0.802445 0.802445 0.802445 0.802445 0.802445 0.802445 0.802445 0.802445 0.802445 0.802445 0.802445 0.802445 0.802445 0.945580 0.946447 0.946826 0.947466 0.945869 0.945565 0.943849 0.942946 0.945633 0.945844 0.945796 0.946736 0.947293 0.948459 0.949903 0.951807 0.951778 0.960055 0.963832 0.963220 0.962981 0.962015 0.975771 0.975692 0.975435 0.975368 0.975476 0.975461 0.975381 0.975300 0.975913 0.975208 0.975630 0.975557 0.975194 0.974603 0.974392 0.974029 0.973427 0.973760 0.974491 0.974560 0.975026 0.977641 0.976721 0.977331 0.975950 0.975243 0.974117 0.972271 0.972994 0.973338 0.974825 0.972922 0.971188 0.972254 0.970499 0.970418 0.970344 0.970591 0.970832 0.969394 0.969457 0.969478 0.970282 0.967256 0.955003 0.952993 0.949673 0.950777 0.952596 0.954795 0.954477 0.954003 0.952356 0.946499 0.943372 0.932316 0.929525 0.925304 0.924854 0.925523 0.926399 0.925094 0.924951 0.923478 0.922985 0.919979 0.922667 0.921244 0.919757 0.913318 0.912295 0.910770 0.912015 0.913906 0.914792 0.911643 0.907525 0.895754 0.880413 0.879433 0.878524 0.885017 0.878505 0.877350 0.877575 0.860833 0.858248 0.849352 0.848319 0.849530 0.850874 0.851474 0.853188 0.853053 0.837213 0.827112 0.822409 0.819727 0.822644 0.832104 0.834339 0.831227 0.821940 0.819131 0.796618 0.797181 0.800040 0.795156 0.801136 0.783637 0.783522 0.775454 0.776772 0.772590 0.766606 0.766134 0.744843 0.749353 0.752717 0.757353 0.757072 0.742261 0.734947 0.696124 0.702326 0.682967 0.692184 0.693023 0.680622 0.669292 0.670030 0.674880 0.666658 0.670659 0.649607 0.638080 0.620454 0.615775 0.623270 0.592600 0.600520 0.599692 0.592616 0.584563 0.598154 0.610337 0.613922 0.593005 0.591518 0.580670 0.549612 0.525138 0.507811 0.494757 0.497696 0.513926 0.514069 0.522247 0.508928 0.481229 0.452208 0.460391 0.464587 0.455023 0.449547 0.440627 0.429204 0.445461 0.430258 0.453910 0.447515 0.440627 0.409613 0.334797 0.309706 0.267601 0.283837 0.290559 0.291761 0.287936 0.288542 0.266616 0.206520 0.201673 0.203933 0.224999 0.194707 0.160463 0.172676 0.168388 0.165987 0.163116 0.161327 0.215309 0.206622 0.233251 0.231685 0.174480 0.150139 0.089905 0.093775 0.096181 0.126653 0.150818 0.141283 0.114119 0.017982 0.043971 0.076790 0.076790 0.076790 0.076790 0.076790 0.076790 0.076790 0.076790 0.076790 0.076790 0.076790 0.002833 0.002833 0.002833 0.002833 0.002833 0.002833 0.002833 0.002833 0.002833 0.002833 0.002833 0.002833 0.002833 0.002833 0.002833 0.002833 0.002833 0.002833 0.002833
0.000000 0.000000 0.000000 0.000000 0.000000 0.000000 0.000000 0.000000 0.000000 0.000000 0.000000 0.000000 0.000000 0.000000 0.000000 0.000000 0.000000 0.000000 0.000000 0.000000 0.000000 0.000000 0.000000 0.000000 0.000000 0.000000 0.000000 0.000000 0.000000 0.000000 0.000000 0.000000 0.000000 0.000000 0.000000 0.000000 0.000000 0.000000 0.000000 0.000000 0.000000 0.000000 0.000000 0.000000 0.000000 0.000000 0.000000 0.000000 0.000000 0.000000 0.000000 0.000000 0.173422 0.173422 0.173422 0.173422 0.173422 0.173422 0.173422 0.191565 0.191565 0.191565 0.191565 0.191565 0.191565 0.191565 0.191565 0.191565 0.191565 0.191565 0.191565 0.191565 0.191565 0.191565 0.191565 0.191565 0.191565 0.191565 0.191565 0.191565 0.191565 0.191565 0.191565 0.191565 0.191565 0.191565 0.191565 0.191565 0.191565 0.191565 0.191565 0.191565 0.191565 0.191565 0.191565 0.191565 0.191565 0.191565 0.191565 0.191565 0.191565 0.191565 0.191565 0.219529 0.219529 0.219529 0.219529 0.219529 0.219529 0.219529 0.219529 0.219529 0.219529 0.219529 0.219529 0.219529 0.219529 0.219529 0.219529 0.219529 0.219529 0.219529 0.219529 0.219529 0.219529 0.219529 0.219529 0.219529 0.219529 0.219529 0.219529 0.219529 0.219529 0.219529 0.237356 0.237356 0.237356 0.237356 0.237356 0.237356 0.237356 0.237356 0.237356 0.237356 0.237356 0.237356 0.237356 0.237356 0.237356 0.237356 0.237356 0.237356 0.237356 0.237356 0.237356 0.237356 0.237356 0.237356 0.244339 0.244339 0.244339 0.244339 0.244339 0.244339 0.244339 0.244339 0.244339 0.244339 0.244339 0.244339 0.244339 0.244339 0.244339 0.244339 0.244339 0.244339 0.244339 0.244339 0.244339 0.248069 0.248069 0.248069 0.248069 0.248069 0.248069 0.248069 0.248069 0.248069 0.248069 0.248069 0.248069 0.248069 0.248069 0.248069 0.248069 0.248069 0.248069 0.248069 0.248069 0.248069 0.248069 0.248069 0.248069 0.248069 0.248069 0.248069 0.248069 0.248069 0.248069 0.248069 0.248069 0.248069 0.248069 0.248069 0.248069 0.248069 0.256074 0.256074 0.256074 0.256074 0.256074 0.256074 0.256074 0.256074 0.256074 0.256074 0.256074 0.256074 0.256074 0.256074 0.256074 0.256074 0.256074 0.256074 0.256074 0.256074 0.256074 0.256074 0.256074 0.256074 0.256074 0.256074 0.256074 0.256074 0.256074 0.256074 0.256074 0.256074 0.256074 0.256074 0.256074 0.256074 0.256074 0.256074 0.256074 0.256074 0.256074 0.256074 0.256074 0.256074 0.256074 0.260378 0.260378 0.260378 0.260378 0.260378 0.260378 0.260378 0.260378 0.260378 0.260378 0.260378 0.260378 0.260378 0.256074 0.256074 0.256074 0.256074 0.256074 0.256074 0.256074 0.256074 0.256074 0.256074 0.256074 0.256074 0.256074 0.260378 0.260378 0.260378 0.260378 0.260378 0.260378 0.260378 0.260378 0.260378 0.260378 0.260378 0.260378 0.251976 0.251976 0.251976 0.251976 0.251976 0.251976 0.251976 0.251976 0.251976 0.251976 0.251976 0.251976 0.256074 0.256074 0.256074 0.256074 0.256074 0.256074 0.256074 0.256074 0.256074 0.256074 0.256074 0.251976 0.251976 0.251976 0.251976 0.251976 0.251976 0.251976 0.251976 0.251976 0.251976 0.251976 0.248069 0.248069 0.248069 0.248069 0.248069 0.248069 0.248069 0.248069 0.248069 0.248069 0.248069 0.256074 0.256074 0.256074 0.256074 0.256074 0.256074 0.256074 0.256074 0.256074 0.256074 0.256074 0.256074 0.256074 0.256074 0.256074 0.256074 0.256074 0.256074 0.256074
