# Output from CTFFind version 4.1.9, run on 2019-11-03 19:44:19
# Input file: stack6_bm3d_averaged_1_5.25_0_50_half.mrc ; Number of micrographs: 1
# Pixel size: 3.000 Angstroms ; acceleration voltage: 300.0 keV ; spherical aberration: 0.00 mm ; amplitude contrast: 0.07
# Box size: 512 pixels ; min. res.: 30.0 Angstroms ; max. res.: 5.0 Angstroms ; min. def.: 5000.0 um; max. def. 50000.0 um; num. frames averaged: 1
# 6 lines per micrograph: #1 - spatial frequency (1/Angstroms); #2 - 1D rotational average of spectrum (assuming no astigmatism); #3 - 1D rotational average of spectrum; #4 - CTF fit; #5 - cross-correlation between spectrum and CTF fit; #6 - 2sigma of expected cross correlation of noise
0.000000 0.000651 0.001302 0.001953 0.002604 0.003255 0.003906 0.004557 0.005208 0.005859 0.006510 0.007161 0.007812 0.008464 0.009115 0.009766 0.010417 0.011068 0.011719 0.012370 0.013021 0.013672 0.014323 0.014974 0.015625 0.016276 0.016927 0.017578 0.018229 0.018880 0.019531 0.020182 0.020833 0.021484 0.022135 0.022786 0.023438 0.024089 0.024740 0.025391 0.026042 0.026693 0.027344 0.027995 0.028646 0.029297 0.029948 0.030599 0.031250 0.031901 0.032552 0.033203 0.033854 0.034505 0.035156 0.035807 0.036458 0.037109 0.037760 0.038411 0.039062 0.039714 0.040365 0.041016 0.041667 0.042318 0.042969 0.043620 0.044271 0.044922 0.045573 0.046224 0.046875 0.047526 0.048177 0.048828 0.049479 0.050130 0.050781 0.051432 0.052083 0.052734 0.053385 0.054036 0.054688 0.055339 0.055990 0.056641 0.057292 0.057943 0.058594 0.059245 0.059896 0.060547 0.061198 0.061849 0.062500 0.063151 0.063802 0.064453 0.065104 0.065755 0.066406 0.067057 0.067708 0.068359 0.069010 0.069661 0.070312 0.070964 0.071615 0.072266 0.072917 0.073568 0.074219 0.074870 0.075521 0.076172 0.076823 0.077474 0.078125 0.078776 0.079427 0.080078 0.080729 0.081380 0.082031 0.082682 0.083333 0.083984 0.084635 0.085286 0.085938 0.086589 0.087240 0.087891 0.088542 0.089193 0.089844 0.090495 0.091146 0.091797 0.092448 0.093099 0.093750 0.094401 0.095052 0.095703 0.096354 0.097005 0.097656 0.098307 0.098958 0.099609 0.100260 0.100911 0.101562 0.102214 0.102865 0.103516 0.104167 0.104818 0.105469 0.106120 0.106771 0.107422 0.108073 0.108724 0.109375 0.110026 0.110677 0.111328 0.111979 0.112630 0.113281 0.113932 0.114583 0.115234 0.115885 0.116536 0.117188 0.117839 0.118490 0.119141 0.119792 0.120443 0.121094 0.121745 0.122396 0.123047 0.123698 0.124349 0.125000 0.125651 0.126302 0.126953 0.127604 0.128255 0.128906 0.129557 0.130208 0.130859 0.131510 0.132161 0.132812 0.133464 0.134115 0.134766 0.135417 0.136068 0.136719 0.137370 0.138021 0.138672 0.139323 0.139974 0.140625 0.141276 0.141927 0.142578 0.143229 0.143880 0.144531 0.145182 0.145833 0.146484 0.147135 0.147786 0.148438 0.149089 0.149740 0.150391 0.151042 0.151693 0.152344 0.152995 0.153646 0.154297 0.154948 0.155599 0.156250 0.156901 0.157552 0.158203 0.158854 0.159505 0.160156 0.160807 0.161458 0.162109 0.162760 0.163411 0.164062 0.164714 0.165365 0.166016 0.166667 0.167318 0.167969 0.168620 0.169271 0.169922 0.170573 0.171224 0.171875 0.172526 0.173177 0.173828 0.174479 0.175130 0.175781 0.176432 0.177083 0.177734 0.178385 0.179036 0.179688 0.180339 0.180990 0.181641 0.182292 0.182943 0.183594 0.184245 0.184896 0.185547 0.186198 0.186849 0.187500 0.188151 0.188802 0.189453 0.190104 0.190755 0.191406 0.192057 0.192708 0.193359 0.194010 0.194661 0.195312 0.195964 0.196615 0.197266 0.197917 0.198568 0.199219 0.199870 0.200521 0.201172 0.201823 0.202474 0.203125 0.203776 0.204427 0.205078 0.205729 0.206380 0.207031 0.207682 0.208333 0.208984 0.209635 0.210286 0.210938 0.211589 0.212240 0.212891 0.213542 0.214193 0.214844 0.215495 0.216146 0.216797 0.217448 0.218099 0.218750 0.219401 0.220052 0.220703 0.221354 0.222005 0.222656 0.223307 0.223958 0.224609 0.225260 0.225911 0.226562 0.227214 0.227865 0.228516 0.229167 0.229818 0.230469 0.231120 0.231771 0.232422 0.233073 0.233724 0.234375 0.235026 0.235677
       0.30894        0.30894        0.30894        0.30894        0.30894        0.30894        0.30894        0.30894        0.30894        0.30894        0.30894        0.30894        0.30894        0.30894        0.30894        0.30894        0.30894        0.30894        0.30894        0.30894        0.30894        0.30894        0.30894        0.30894        0.30894        0.30894        0.30894        0.30894        0.30894        0.30894        0.30894        0.30894        0.30894        0.30894        0.30894        0.30894        0.30894        0.30894        0.30894        0.30894        0.30894        0.30894        0.30894        0.30894        0.30894        0.30894        0.30894        0.30894        0.30894        0.30894        0.30894        0.59648        0.72076        0.35494        0.18087        0.12514       -0.14956        0.10473        0.02656        0.03106        0.08711        0.30433        0.32362        0.25143        0.14658       -0.04227       -0.01533        0.03928       -0.13170       -0.14011       -0.08654       -0.10526       -0.22518       -0.14708       -0.26329       -0.27701       -0.27950       -0.34454       -0.42050       -0.36299       -0.27004       -0.23846       -0.33862       -0.25215       -0.30861       -0.24597       -0.17094       -0.12062       -0.08443       -0.01599        0.01763        0.11951        0.16227        0.21126        0.33237        0.39739        0.35253        0.46175        0.54764        0.55606        0.63533        0.57497        0.60988        0.59785        0.60933        0.60996        0.55314        0.57077        0.54975        0.39149        0.32958        0.36051        0.34040        0.19202        0.15875        0.12866        0.08381        0.08657       -0.00179        0.05697        0.03495       -0.00587        0.09612        0.15909        0.25785        0.34837        0.34044        0.36970        0.45514        0.48795        0.41987        0.64565        0.53483        0.47861        0.56627        0.49860        0.53193        0.49160        0.36749        0.30388        0.26897        0.22194        0.20878        0.19189        0.17033        0.12002        0.19924        0.18845        0.22776        0.19650        0.25904        0.30249        0.32488        0.44294        0.42579        0.40725        0.42834        0.47083        0.44420        0.43533        0.38965        0.39636        0.33271        0.27948        0.23527        0.24382        0.23814        0.18675        0.15734        0.21230        0.21936        0.26612        0.33748        0.35411        0.40979        0.39094        0.43555        0.45321        0.45108        0.41985        0.38736        0.40711        0.36650        0.32722        0.32859        0.30920        0.25321        0.27015        0.26951        0.22519        0.29027        0.27061        0.28037        0.31689        0.36789        0.40513        0.39832        0.41707        0.37350        0.40748        0.38968        0.30361        0.28284        0.23794        0.25456        0.21831        0.20065        0.28273        0.33423        0.30995        0.27902        0.33503        0.26078        0.32393        0.37116        0.36465        0.35744        0.37618        0.32181        0.33320        0.31440        0.28111        0.27743        0.24187        0.28358        0.29625        0.30842        0.33013        0.37288        0.37358        0.36700        0.32960        0.35004        0.33266        0.31662        0.31376        0.28057        0.28094        0.25189        0.31247        0.32156        0.31243        0.28893        0.32367        0.32669        0.32836        0.34000        0.31006        0.27897        0.28914        0.28413        0.26430        0.24233        0.23059        0.24362        0.25854        0.24371        0.27955        0.27738        0.31862        0.31462        0.26778        0.29868        0.25975        0.20512        0.26290        0.24147        0.22996        0.27274        0.29850        0.29341        0.29192        0.29684        0.29567        0.30951        0.31994        0.26496        0.30854        0.30377        0.34932        0.27719        0.26500        0.25584        0.30634        0.31266        0.32165        0.33524        0.30998        0.22243        0.27925        0.25280        0.24640        0.23987        0.24836        0.28069        0.23589        0.29539        0.30475        0.34156        0.30456        0.28828        0.24481        0.26053        0.25847        0.23512        0.26149        0.27742        0.31134        0.33048        0.29340        0.28717        0.26508        0.29966        0.26632        0.22918        0.19343        0.27524        0.32702        0.31766        0.31009        0.28351        0.22855        0.22271        0.24396        0.22083        0.22502        0.26827        0.27325        0.25584        0.22847        0.21859        0.25734        0.23707        0.25076        0.27032        0.25469        0.18196        0.22532        0.25425        0.24012        0.27919        0.24459        0.22925        0.18495        0.25970        0.28086        0.19970        0.21200        0.12840        0.14403        0.30197        0.16979        0.19380        0.30957        0.19564        0.18063        0.12249        0.20604        0.13662        0.14326       -0.05860       -0.61059       -0.98366
2.492936 2.470202 2.447579 2.425066 2.402664 2.380373 2.358192 2.336121 2.314162 2.292313 2.270574 2.248946 2.227429 2.206022 2.184726 2.163540 2.142465 2.121500 2.100646 2.079903 2.059270 2.038748 2.018336 1.998036 1.977845 1.957765 1.937796 1.917937 1.898189 1.878551 1.859024 1.839608 1.820302 1.801107 1.782022 1.763048 1.744185 1.725432 1.706789 1.688257 1.669836 1.651526 1.633326 1.615236 1.597257 1.579389 1.561631 1.543984 1.526447 1.509021 1.491706 1.867785 2.211925 1.530511 1.389014 1.119895 0.546106 0.943807 0.829504 0.874404 0.724958 1.412703 1.253269 1.264957 1.013908 0.649413 0.497579 0.769970 0.567498 0.231396 0.301581 0.473333 0.209814 0.239766 0.090788 -0.010002 -0.049927 -0.050962 -0.337676 -0.221575 -0.055122 -0.083912 -0.146239 -0.049863 -0.186919 -0.156304 0.031476 0.121793 0.191811 0.239513 0.314391 0.575868 0.522960 0.603210 0.821542 1.000559 0.797508 1.200641 1.171344 1.239299 1.337386 1.247708 1.199252 1.353905 1.214278 1.348597 1.172042 1.106756 1.199215 0.948387 0.649213 0.707389 0.764336 0.453980 0.373065 0.309740 0.162377 0.153468 -0.006887 0.130541 0.094781 -0.042639 0.070152 0.192578 0.312771 0.581930 0.572482 0.543788 0.700230 0.865573 0.572600 1.025699 0.964405 0.772144 0.889634 0.743035 0.829768 0.848911 0.564370 0.386483 0.354032 0.288444 0.178073 0.135056 0.141394 -0.058958 0.131644 0.111318 0.194207 0.075157 0.238825 0.284662 0.246298 0.474903 0.574869 0.488252 0.384017 0.585861 0.581025 0.474563 0.487249 0.427794 0.291032 0.310895 0.089979 0.148734 0.028018 0.159649 -0.096666 0.011877 -0.006783 0.216534 0.082072 0.356796 0.307750 0.370082 0.415805 0.405262 0.611715 0.413184 0.406979 0.475801 0.265477 0.363348 0.204526 0.299294 0.122139 0.162743 0.128886 0.116818 0.065141 0.189998 0.089156 0.179828 0.279881 0.313688 0.374341 0.300251 0.377437 0.304421 0.322989 0.221353 0.130548 0.068304 0.011713 0.033259 -0.058629 -0.026148 0.117160 0.224007 0.093778 0.128463 0.117329 0.063610 0.216626 0.268642 0.229440 0.282965 0.176754 0.169966 0.152130 0.134674 0.090751 -0.020749 0.021539 0.176566 0.027143 0.170926 0.152571 0.283067 0.197988 0.261736 0.217988 0.241538 0.130756 0.172648 0.157995 0.087119 0.038274 0.072176 0.159757 0.175210 0.144590 0.097852 0.185560 0.162441 0.130055 0.159504 0.056076 0.017051 0.073707 0.016268 0.011040 -0.053756 -0.070952 0.008253 -0.024359 -0.051583 0.032386 0.043047 0.107996 0.069825 -0.023087 0.064247 -0.069092 -0.104989 0.027712 -0.075109 -0.089293 0.050620 0.053583 0.025630 0.076981 -0.055538 0.062557 0.142736 -0.025010 -0.012293 0.110538 0.036490 0.141677 -0.036688 -0.009708 -0.048850 0.132010 0.044026 0.076829 0.125050 0.027149 -0.096180 -0.006548 -0.032961 -0.047671 -0.067551 -0.041616 -0.002505 -0.097577 0.073817 0.121020 0.161931 0.054824 0.007839 -0.018731 0.005284 0.021234 -0.052906 0.046755 0.027232 0.147860 0.130395 0.085368 0.068457 0.049691 0.159450 -0.008579 -0.000185 -0.110351 0.127634 0.181321 0.082412 0.189492 0.016876 -0.028815 -0.036651 -0.010984 -0.031916 -0.017717 0.059386 0.098932 0.028850 -0.004979 -0.020783 0.087594 0.059187 0.079172 0.113726 0.045887 -0.005361 0.028911 0.137993 0.061372 0.204547 0.092469 0.063057 0.078043 0.174400 0.230337 0.090641 0.133878 -0.060113 -0.114045 0.490726 0.320083 0.399013 0.597128 0.295173 0.333812 0.149469 0.479064 0.257087 0.297085 -0.099780 -1.829187
0.072396 0.072837 0.074160 0.076365 0.079451 0.083418 0.088265 0.093990 0.100592 0.108069 0.116418 0.125637 0.135721 0.146666 0.158467 0.171116 0.184607 0.198929 0.214074 0.230028 0.246777 0.264307 0.282598 0.301630 0.321380 0.341823 0.362930 0.384668 0.407004 0.429897 0.453306 0.477184 0.501479 0.526138 0.551101 0.576303 0.601674 0.627142 0.652627 0.678044 0.703304 0.728313 0.752969 0.777167 0.800798 0.823745 0.845888 0.867103 0.887259 0.906224 0.923860 0.940028 0.954585 0.967385 0.978284 0.987135 0.993792 0.998109 0.999943 0.999156 0.995613 0.989183 0.979745 0.967184 0.951397 0.932289 0.909782 0.883809 0.854319 0.821281 0.784682 0.744528 0.700850 0.653701 0.603159 0.549330 0.492348 0.432374 0.369599 0.304245 0.236567 0.166847 0.095401 0.022576 0.051253 0.125680 0.200271 0.274569 0.348090 0.420329 0.490766 0.558862 0.624071 0.685838 0.743610 0.796833 0.844966 0.887483 0.923877 0.953671 0.976422 0.991730 0.999243 0.998662 0.989753 0.972349 0.946359 0.911773 0.868664 0.817199 0.757637 0.690335 0.615747 0.534427 0.447031 0.354306 0.257095 0.156331 0.053025 0.051737 0.156805 0.260976 0.363010 0.461641 0.555593 0.643600 0.724420 0.796859 0.859785 0.912151 0.953016 0.981561 0.997112 0.999153 0.987347 0.961550 0.921818 0.868424 0.801859 0.722839 0.632300 0.531397 0.421498 0.304163 0.181133 0.054306 0.074289 0.202521 0.328195 0.449080 0.562960 0.667671 0.761143 0.841446 0.906838 0.955801 0.987085 0.999748 0.993183 0.967151 0.921801 0.857682 0.775750 0.677366 0.564284 0.438627 0.302858 0.159739 0.012278 0.136329 0.282763 0.423653 0.555664 0.675566 0.780326 0.867188 0.933751 0.978044 0.998599 0.994499 0.965433 0.911720 0.834332 0.734890 0.615645 0.479443 0.329667 0.170165 0.005159 0.160862 0.323259 0.477373 0.618662 0.742837 0.846003 0.924786 0.976459 0.999049 0.991423 0.953354 0.885564 0.789731 0.668471 0.525281 0.364463 0.191000 0.010423 0.171370 0.348291 0.514273 0.663477 0.790507 0.890618 0.959902 0.995461 0.995547 0.959658 0.888606 0.784522 0.650823 0.492123 0.314094 0.123279 0.073136 0.267580 0.452390 0.620118 0.763828 0.877412 0.955851 0.995465 0.994109 0.951304 0.868317 0.748155 0.595484 0.416486 0.218619 0.010337 0.199265 0.400846 0.585222 0.743811 0.869029 0.954687 0.996310 0.991406 0.939639 0.842910 0.705323 0.533051 0.334093 0.117925 0.104936 0.323420 0.526467 0.703580 0.845386 0.944161 0.994268 0.992519 0.938409 0.834214 0.684948 0.498160 0.283588 0.052682 0.181986 0.407396 0.610807 0.780487 0.906405 0.980860 0.998985 0.959111 0.862940 0.715533 0.525099 0.302572 0.061029 0.185071 0.420719 0.631290 0.803456 0.926056 0.990856 0.993143 0.932118 0.811044 0.637127 0.421149 0.176838 0.079966 0.332315 0.563280 0.757076 0.900181 0.982312 0.997206 0.943161 0.823254 0.645238 0.421109 0.166340 0.101146 0.362213 0.597875 0.790690 0.926089 0.993506 0.987273 0.907147 0.758456 0.551818 0.302448 0.029092 0.247358 0.505439 0.724776 0.887739 0.980893 0.996159 0.931591 0.791660 0.587038 0.333850 0.052466 0.234094 0.502036 0.728755 0.894778 0.985492 0.992487 0.914413 0.757244 0.533921 0.263347 0.031128 0.323703 0.588367 0.801208 0.942647 0.999268 0.965183 0.842725 0.642400 0.382076 0.085468 0.219968 0.505548 0.744069 0.912415 0.993872 0.979864 0.870944 0.676924 0.416094 0.113589 0.200988 0.496401 0.742914 0.915305 0.995510
1.000000 1.000000 1.000000 1.000000 1.000000 1.000000 1.000000 1.000000 1.000000 1.000000 1.000000 1.000000 1.000000 1.000000 1.000000 1.000000 1.000000 1.000000 1.000000 1.000000 1.000000 1.000000 1.000000 1.000000 1.000000 1.000000 1.000000 1.000000 1.000000 1.000000 1.000000 1.000000 1.000000 1.000000 1.000000 1.000000 1.000000 1.000000 1.000000 1.000000 1.000000 1.000000 1.000000 1.000000 1.000000 1.000000 1.000000 1.000000 1.000000 1.000000 1.000000 1.000000 0.785357 0.785357 0.785357 0.785357 0.785357 0.785357 0.785357 0.771603 0.771603 0.771603 0.771603 0.771603 0.771603 0.771603 0.771603 0.771603 0.771603 0.771603 0.771603 0.771603 0.771603 0.771603 0.771603 0.771603 0.771603 0.771603 0.771603 0.771603 0.771603 0.771603 0.771603 0.771603 0.771603 0.771603 0.771603 0.771603 0.771603 0.771603 0.771603 0.771603 0.771603 0.771603 0.771603 0.771603 0.771603 0.771603 0.771603 0.771603 0.771603 0.771603 0.771603 0.922766 0.922976 0.925265 0.919315 0.921020 0.918765 0.912843 0.915812 0.914937 0.914831 0.915608 0.916641 0.918357 0.921646 0.928075 0.930928 0.938952 0.942615 0.943863 0.943801 0.941357 0.948145 0.946029 0.943958 0.933027 0.935936 0.935107 0.935542 0.934043 0.934461 0.935893 0.936142 0.933733 0.932277 0.929944 0.928412 0.928711 0.928258 0.928181 0.928325 0.928427 0.928574 0.929234 0.924877 0.926255 0.924597 0.921978 0.917422 0.917150 0.917867 0.910005 0.909119 0.899344 0.890028 0.890142 0.892323 0.889345 0.888605 0.890478 0.891216 0.891905 0.889544 0.889652 0.887603 0.887863 0.884360 0.880635 0.876128 0.875359 0.878088 0.884595 0.888115 0.888126 0.885238 0.879763 0.870754 0.869087 0.852764 0.827294 0.827770 0.830338 0.831852 0.832895 0.831430 0.830267 0.827319 0.822875 0.817801 0.823083 0.823362 0.816248 0.802545 0.802279 0.799536 0.806959 0.811336 0.803462 0.805786 0.804947 0.810203 0.810841 0.807842 0.806947 0.803257 0.806060 0.814147 0.814920 0.805690 0.799841 0.795054 0.777603 0.779793 0.784873 0.796977 0.799678 0.794653 0.782486 0.791529 0.787649 0.797296 0.809599 0.810464 0.809740 0.795346 0.758086 0.745540 0.740036 0.741713 0.743220 0.733875 0.730848 0.729692 0.732172 0.691248 0.682518 0.673370 0.668976 0.677187 0.679907 0.682072 0.632416 0.649608 0.647302 0.627009 0.622470 0.584267 0.570931 0.514625 0.519870 0.518883 0.493491 0.480079 0.468713 0.483858 0.496175 0.495416 0.488353 0.465599 0.450265 0.445817 0.446079 0.457341 0.458074 0.460293 0.417953 0.396233 0.395228 0.416289 0.419872 0.419142 0.432765 0.442480 0.445444 0.432259 0.412361 0.408334 0.424613 0.435558 0.444934 0.445943 0.430814 0.411428 0.391163 0.394638 0.433975 0.425958 0.419872 0.405159 0.412488 0.400618 0.371063 0.348221 0.329286 0.373335 0.383440 0.385860 0.347152 0.314545 0.326339 0.322601 0.318804 0.305795 0.344604 0.367952 0.365371 0.369445 0.360133 0.401029 0.475682 0.464883 0.459241 0.474678 0.463784 0.446042 0.427522 0.405759 0.404682 0.394755 0.386327 0.369870 0.361476 0.350828 0.347422 0.365003 0.370675 0.400378 0.383313 0.335314 0.194025 0.245490 0.245490 0.245490 0.245490 0.245490 0.245490 0.245490 0.245490 0.245490 0.245490 0.245490 0.190804 0.190804 0.190804 0.190804 0.190804 0.190804 0.190804 0.190804 0.190804 0.190804 0.190804 0.190804 0.190804 0.190804 0.190804 0.190804 0.190804 0.190804 0.190804 0.190804
0.000000 0.000000 0.000000 0.000000 0.000000 0.000000 0.000000 0.000000 0.000000 0.000000 0.000000 0.000000 0.000000 0.000000 0.000000 0.000000 0.000000 0.000000 0.000000 0.000000 0.000000 0.000000 0.000000 0.000000 0.000000 0.000000 0.000000 0.000000 0.000000 0.000000 0.000000 0.000000 0.000000 0.000000 0.000000 0.000000 0.000000 0.000000 0.000000 0.000000 0.000000 0.000000 0.000000 0.000000 0.000000 0.000000 0.000000 0.000000 0.000000 0.000000 0.000000 0.000000 0.173422 0.173422 0.173422 0.173422 0.173422 0.173422 0.173422 0.191565 0.191565 0.191565 0.191565 0.191565 0.191565 0.191565 0.191565 0.191565 0.191565 0.191565 0.191565 0.191565 0.191565 0.191565 0.191565 0.191565 0.191565 0.191565 0.191565 0.191565 0.191565 0.191565 0.191565 0.191565 0.191565 0.191565 0.191565 0.191565 0.191565 0.191565 0.191565 0.191565 0.191565 0.191565 0.191565 0.191565 0.191565 0.191565 0.191565 0.191565 0.191565 0.191565 0.191565 0.222222 0.222222 0.222222 0.222222 0.222222 0.222222 0.222222 0.222222 0.222222 0.222222 0.222222 0.222222 0.222222 0.222222 0.222222 0.222222 0.222222 0.222222 0.222222 0.222222 0.222222 0.222222 0.222222 0.222222 0.222222 0.222222 0.222222 0.222222 0.222222 0.222222 0.234082 0.234082 0.234082 0.234082 0.234082 0.234082 0.234082 0.234082 0.234082 0.234082 0.234082 0.234082 0.234082 0.234082 0.234082 0.234082 0.234082 0.234082 0.234082 0.234082 0.234082 0.234082 0.234082 0.234082 0.234082 0.244339 0.244339 0.244339 0.244339 0.244339 0.244339 0.244339 0.244339 0.244339 0.244339 0.244339 0.244339 0.244339 0.244339 0.244339 0.244339 0.244339 0.244339 0.244339 0.244339 0.244339 0.248069 0.248069 0.248069 0.248069 0.248069 0.248069 0.248069 0.248069 0.248069 0.248069 0.248069 0.248069 0.248069 0.248069 0.248069 0.248069 0.248069 0.248069 0.248069 0.256074 0.256074 0.256074 0.256074 0.256074 0.256074 0.256074 0.256074 0.256074 0.256074 0.256074 0.256074 0.256074 0.256074 0.256074 0.256074 0.256074 0.256074 0.256074 0.256074 0.256074 0.256074 0.256074 0.256074 0.256074 0.256074 0.256074 0.256074 0.256074 0.256074 0.256074 0.256074 0.256074 0.256074 0.256074 0.256074 0.256074 0.256074 0.256074 0.256074 0.256074 0.256074 0.256074 0.256074 0.256074 0.256074 0.256074 0.256074 0.256074 0.256074 0.256074 0.256074 0.256074 0.256074 0.256074 0.256074 0.256074 0.256074 0.256074 0.256074 0.256074 0.256074 0.260378 0.260378 0.260378 0.260378 0.260378 0.260378 0.260378 0.260378 0.260378 0.260378 0.260378 0.260378 0.260378 0.256074 0.256074 0.256074 0.256074 0.256074 0.256074 0.256074 0.256074 0.256074 0.256074 0.256074 0.256074 0.256074 0.260378 0.260378 0.260378 0.260378 0.260378 0.260378 0.260378 0.260378 0.260378 0.260378 0.260378 0.260378 0.251976 0.251976 0.251976 0.251976 0.251976 0.251976 0.251976 0.251976 0.251976 0.251976 0.251976 0.251976 0.256074 0.256074 0.256074 0.256074 0.256074 0.256074 0.256074 0.256074 0.256074 0.256074 0.256074 0.251976 0.251976 0.251976 0.251976 0.251976 0.251976 0.251976 0.251976 0.251976 0.251976 0.251976 0.248069 0.248069 0.248069 0.248069 0.248069 0.248069 0.248069 0.248069 0.248069 0.248069 0.248069 0.256074 0.256074 0.256074 0.256074 0.256074 0.256074 0.256074 0.256074 0.256074 0.256074 0.256074 0.256074 0.256074 0.256074 0.256074 0.256074 0.256074 0.256074 0.256074 0.256074
