# Output from CTFFind version 4.1.9, run on 2019-11-03 19:43:47
# Input file: stack11_bm3d_averaged_1_4.75_0_3000_half.mrc ; Number of micrographs: 1
# Pixel size: 3.000 Angstroms ; acceleration voltage: 300.0 keV ; spherical aberration: 0.00 mm ; amplitude contrast: 0.07
# Box size: 512 pixels ; min. res.: 30.0 Angstroms ; max. res.: 5.0 Angstroms ; min. def.: 5000.0 um; max. def. 50000.0 um; num. frames averaged: 1
# 6 lines per micrograph: #1 - spatial frequency (1/Angstroms); #2 - 1D rotational average of spectrum (assuming no astigmatism); #3 - 1D rotational average of spectrum; #4 - CTF fit; #5 - cross-correlation between spectrum and CTF fit; #6 - 2sigma of expected cross correlation of noise
0.000000 0.000651 0.001302 0.001953 0.002604 0.003255 0.003906 0.004557 0.005208 0.005859 0.006510 0.007161 0.007812 0.008464 0.009115 0.009766 0.010417 0.011068 0.011719 0.012370 0.013021 0.013672 0.014323 0.014974 0.015625 0.016276 0.016927 0.017578 0.018229 0.018880 0.019531 0.020182 0.020833 0.021484 0.022135 0.022786 0.023438 0.024089 0.024740 0.025391 0.026042 0.026693 0.027344 0.027995 0.028646 0.029297 0.029948 0.030599 0.031250 0.031901 0.032552 0.033203 0.033854 0.034505 0.035156 0.035807 0.036458 0.037109 0.037760 0.038411 0.039062 0.039714 0.040365 0.041016 0.041667 0.042318 0.042969 0.043620 0.044271 0.044922 0.045573 0.046224 0.046875 0.047526 0.048177 0.048828 0.049479 0.050130 0.050781 0.051432 0.052083 0.052734 0.053385 0.054036 0.054688 0.055339 0.055990 0.056641 0.057292 0.057943 0.058594 0.059245 0.059896 0.060547 0.061198 0.061849 0.062500 0.063151 0.063802 0.064453 0.065104 0.065755 0.066406 0.067057 0.067708 0.068359 0.069010 0.069661 0.070312 0.070964 0.071615 0.072266 0.072917 0.073568 0.074219 0.074870 0.075521 0.076172 0.076823 0.077474 0.078125 0.078776 0.079427 0.080078 0.080729 0.081380 0.082031 0.082682 0.083333 0.083984 0.084635 0.085286 0.085938 0.086589 0.087240 0.087891 0.088542 0.089193 0.089844 0.090495 0.091146 0.091797 0.092448 0.093099 0.093750 0.094401 0.095052 0.095703 0.096354 0.097005 0.097656 0.098307 0.098958 0.099609 0.100260 0.100911 0.101562 0.102214 0.102865 0.103516 0.104167 0.104818 0.105469 0.106120 0.106771 0.107422 0.108073 0.108724 0.109375 0.110026 0.110677 0.111328 0.111979 0.112630 0.113281 0.113932 0.114583 0.115234 0.115885 0.116536 0.117188 0.117839 0.118490 0.119141 0.119792 0.120443 0.121094 0.121745 0.122396 0.123047 0.123698 0.124349 0.125000 0.125651 0.126302 0.126953 0.127604 0.128255 0.128906 0.129557 0.130208 0.130859 0.131510 0.132161 0.132812 0.133464 0.134115 0.134766 0.135417 0.136068 0.136719 0.137370 0.138021 0.138672 0.139323 0.139974 0.140625 0.141276 0.141927 0.142578 0.143229 0.143880 0.144531 0.145182 0.145833 0.146484 0.147135 0.147786 0.148438 0.149089 0.149740 0.150391 0.151042 0.151693 0.152344 0.152995 0.153646 0.154297 0.154948 0.155599 0.156250 0.156901 0.157552 0.158203 0.158854 0.159505 0.160156 0.160807 0.161458 0.162109 0.162760 0.163411 0.164062 0.164714 0.165365 0.166016 0.166667 0.167318 0.167969 0.168620 0.169271 0.169922 0.170573 0.171224 0.171875 0.172526 0.173177 0.173828 0.174479 0.175130 0.175781 0.176432 0.177083 0.177734 0.178385 0.179036 0.179688 0.180339 0.180990 0.181641 0.182292 0.182943 0.183594 0.184245 0.184896 0.185547 0.186198 0.186849 0.187500 0.188151 0.188802 0.189453 0.190104 0.190755 0.191406 0.192057 0.192708 0.193359 0.194010 0.194661 0.195312 0.195964 0.196615 0.197266 0.197917 0.198568 0.199219 0.199870 0.200521 0.201172 0.201823 0.202474 0.203125 0.203776 0.204427 0.205078 0.205729 0.206380 0.207031 0.207682 0.208333 0.208984 0.209635 0.210286 0.210938 0.211589 0.212240 0.212891 0.213542 0.214193 0.214844 0.215495 0.216146 0.216797 0.217448 0.218099 0.218750 0.219401 0.220052 0.220703 0.221354 0.222005 0.222656 0.223307 0.223958 0.224609 0.225260 0.225911 0.226562 0.227214 0.227865 0.228516 0.229167 0.229818 0.230469 0.231120 0.231771 0.232422 0.233073 0.233724 0.234375 0.235026 0.235677
       0.33643        0.33643        0.33643        0.33643        0.33643        0.33643        0.33643        0.33643        0.33643        0.33643        0.33643        0.33643        0.33643        0.33643        0.33643        0.33643        0.33643        0.33643        0.33643        0.33643        0.33643        0.33643        0.33643        0.33643        0.33643        0.33643        0.33643        0.33643        0.33643        0.33643        0.33643        0.33643        0.33643        0.33643        0.33643        0.33643        0.33643        0.33643        0.33643        0.33643        0.33643        0.33643        0.33643        0.33643        0.33643        0.33643        0.33643        0.33643        0.33643        0.33643        0.33643        0.69393        0.85910        0.53322        0.10354       -0.03338       -0.39792       -0.18405       -0.28913       -0.11420       -0.05794       -0.11115       -0.05482       -0.17737       -0.21192       -0.22534       -0.31351       -0.32493       -0.45356       -0.36642       -0.43516       -0.42983       -0.40243       -0.42501       -0.46912       -0.51964       -0.56321       -0.56828       -0.54137       -0.37011       -0.34302       -0.30415       -0.28365       -0.19187       -0.18042        0.05155        0.12831        0.15964        0.25445        0.37861        0.45473        0.51967        0.58698        0.58525        0.57605        0.69543        0.80525        0.71074        0.74007        0.62954        0.56744        0.48227        0.42404        0.50843        0.39137        0.25086        0.10679        0.09519        0.07211       -0.02891        0.02074        0.03458       -0.00970        0.01697        0.01206        0.23654        0.26669        0.29222        0.42756        0.44958        0.40934        0.58028        0.62611        0.65243        0.73220        0.67984        0.65016        0.66718        0.56379        0.46793        0.41780        0.29838        0.24756        0.17198        0.13114        0.05306        0.04929        0.05343        0.09086        0.14850        0.23510        0.28367        0.40627        0.45724        0.48330        0.57818        0.60973        0.63740        0.62088        0.56151        0.45594        0.46894        0.37463        0.26040        0.20192        0.15713        0.16045        0.14450        0.13848        0.16584        0.30064        0.31272        0.39025        0.42891        0.42885        0.49267        0.55554        0.55170        0.49189        0.45297        0.40542        0.35726        0.32766        0.29347        0.24191        0.23539        0.22771        0.24090        0.21663        0.30174        0.35937        0.38789        0.43904        0.45564        0.47265        0.42369        0.40168        0.40285        0.35906        0.31199        0.26992        0.26037        0.25727        0.22597        0.27485        0.27671        0.34338        0.37453        0.41402        0.47457        0.41386        0.42697        0.43156        0.40476        0.34435        0.32162        0.29101        0.31002        0.26712        0.30680        0.30146        0.32078        0.32823        0.35188        0.31770        0.39765        0.41595        0.37817        0.34439        0.37111        0.30941        0.28796        0.29306        0.31887        0.29934        0.31176        0.32868        0.34154        0.34026        0.36740        0.36932        0.40029        0.37774        0.32811        0.33578        0.29314        0.27946        0.31925        0.31407        0.32422        0.33156        0.32874        0.37095        0.32671        0.32653        0.32678        0.33212        0.29891        0.30706        0.27085        0.29767        0.31906        0.30071        0.32135        0.34221        0.34885        0.28511        0.32107        0.28885        0.30092        0.27950        0.23865        0.29385        0.29547        0.34105        0.33197        0.33142        0.32223        0.34489        0.30461        0.34130        0.31853        0.30340        0.27647        0.32418        0.30954        0.35398        0.32283        0.33410        0.34191        0.29458        0.27437        0.30936        0.24478        0.22321        0.33087        0.31683        0.34522        0.33289        0.34781        0.32019        0.34105        0.34187        0.26214        0.24734        0.30590        0.30406        0.30673        0.31939        0.33835        0.33320        0.30018        0.29165        0.34072        0.31654        0.29772        0.27463        0.31941        0.34704        0.39314        0.33200        0.29654        0.27494        0.30408        0.27400        0.29167        0.26777        0.25183        0.31084        0.33280        0.34452        0.34748        0.31215        0.28242        0.29172        0.25839        0.26304        0.24677        0.31638        0.27933        0.22658        0.31754        0.31172        0.26505        0.28570        0.20851        0.21483        0.25215        0.18607        0.25040        0.31283        0.23471        0.21390        0.31007        0.32692        0.32277        0.31965        0.25584        0.22376        0.18507        0.21706        0.19016        0.20682        0.21841        0.26083        0.30292        0.27848        0.21485        0.10804        0.06278       -0.01108       -0.09693       -0.61051
2.716979 2.688222 2.659622 2.631180 2.602894 2.574765 2.546794 2.518980 2.491322 2.463822 2.436478 2.409292 2.382263 2.355390 2.328675 2.302117 2.275716 2.249472 2.223385 2.197455 2.171682 2.146066 2.120607 2.095305 2.070160 2.045172 2.020342 1.995668 1.971151 1.946792 1.922589 1.898543 1.874655 1.850923 1.827349 1.803931 1.780671 1.757568 1.734621 1.711832 1.689200 1.666725 1.644407 1.622245 1.600241 1.578394 1.556704 1.535171 1.513795 1.492577 1.471515 1.687567 2.103625 1.666853 1.167641 1.034086 0.439902 0.839505 0.559256 0.840105 0.800092 0.810282 0.754231 0.736990 0.587562 0.546799 0.494560 0.428059 0.240819 0.369539 0.201382 0.324152 0.223857 0.200344 0.172898 0.038420 0.018574 0.015982 -0.066740 0.127645 0.226133 0.186509 0.170525 0.329521 0.184768 0.510508 0.614480 0.612455 0.630231 0.869688 0.825907 0.935749 0.913441 1.011833 0.977574 1.070786 1.155732 1.040099 1.144965 0.910905 0.923224 0.787146 0.645996 0.792011 0.698121 0.476449 0.327821 0.249541 0.256828 0.147741 0.121273 0.156079 0.103698 0.127946 0.071292 0.255132 0.361149 0.343434 0.468802 0.545934 0.420122 0.579822 0.719405 0.676639 0.739292 0.702373 0.719085 0.658624 0.598573 0.510450 0.380129 0.277132 0.220278 0.081346 0.121374 -0.084367 -0.044162 -0.059291 -0.071091 -0.018515 0.141720 0.069180 0.242601 0.304408 0.338864 0.395665 0.503016 0.479006 0.483418 0.493237 0.308970 0.293102 0.283799 0.087187 0.043763 -0.064409 -0.007989 -0.059036 -0.088828 -0.086085 0.037293 0.079211 0.122848 0.210229 0.228908 0.246544 0.291979 0.435504 0.389818 0.267219 0.240615 0.220700 0.151956 0.142935 0.112523 0.003148 0.019034 0.062977 -0.000049 0.061916 0.144240 0.148339 0.235673 0.246700 0.287084 0.183035 0.215445 0.146148 0.170406 0.115460 0.050009 -0.005614 0.011752 -0.001825 -0.043842 0.060023 0.024702 0.125139 0.151065 0.188889 0.196594 0.153589 0.160004 0.177566 0.127751 0.060050 0.002376 0.053181 0.024245 -0.017506 0.033460 0.040269 0.057392 0.050425 0.062500 0.076933 0.129098 0.152260 0.055985 0.056905 0.055685 0.015084 -0.024085 0.015253 0.022300 0.006172 0.015180 0.042751 0.058965 0.054442 0.092454 0.061575 0.140595 0.059979 0.027270 0.038466 -0.032754 0.002885 0.042383 0.003882 0.037542 0.050295 0.022466 0.116408 0.031328 0.007963 0.054729 0.004785 0.015734 0.005061 -0.021699 0.029206 0.007878 0.007333 0.057065 0.058597 0.048344 0.033963 0.035594 0.035373 0.025482 -0.012095 -0.024427 0.032387 0.054162 0.083494 0.086828 0.063567 0.078856 0.116988 0.057229 0.116704 0.090245 0.036437 0.039883 0.101826 0.075438 0.115466 0.101192 0.064160 0.136190 0.061276 0.022276 0.098443 -0.025764 -0.001685 0.111249 0.060149 0.148326 0.092641 0.103905 0.049334 0.098401 0.092837 -0.010793 -0.028798 0.059724 0.072183 0.039543 0.046214 0.099546 0.076399 0.003851 0.049286 0.072144 0.056550 0.045814 -0.021733 0.074678 0.084877 0.133606 0.022177 0.009333 -0.021794 0.015801 -0.024086 0.005815 -0.042782 -0.033944 0.012271 0.054428 0.011225 0.034571 -0.012181 -0.036648 -0.044281 -0.031783 -0.072630 -0.064764 0.006480 0.008165 -0.096013 0.020188 -0.025574 -0.063910 0.006509 -0.128198 -0.074526 -0.078058 -0.174076 -0.034232 0.043062 -0.042663 -0.150518 0.050072 0.088975 -0.029052 0.080205 -0.037246 0.243034 0.152323 0.228424 0.240007 0.233905 0.232309 0.294272 0.293387 0.316665 0.195548 0.192247 0.091087 -0.016335 -0.659498
0.072396 0.072899 0.074406 0.076919 0.080435 0.084955 0.090477 0.096999 0.104520 0.113036 0.122544 0.133040 0.144518 0.156972 0.170395 0.184776 0.200106 0.216371 0.233556 0.251644 0.270616 0.290447 0.311112 0.332582 0.354823 0.377798 0.401467 0.425782 0.450694 0.476146 0.502077 0.528420 0.555102 0.582045 0.609163 0.636365 0.663551 0.690618 0.717452 0.743935 0.769942 0.795341 0.819991 0.843749 0.866462 0.887975 0.908123 0.926742 0.943659 0.958701 0.971692 0.982453 0.990806 0.996575 0.999583 0.999660 0.996640 0.990364 0.980680 0.967448 0.950542 0.929849 0.905271 0.876733 0.844177 0.807570 0.766905 0.722203 0.673513 0.620917 0.564532 0.504507 0.441033 0.374335 0.304679 0.232371 0.157760 0.081230 0.003210 0.075834 0.155400 0.234948 0.313908 0.391679 0.467634 0.541127 0.611495 0.678067 0.740166 0.797121 0.848274 0.892982 0.930636 0.960662 0.982532 0.995776 0.999991 0.994846 0.980099 0.955599 0.921298 0.877255 0.823649 0.760778 0.689064 0.609060 0.521446 0.427031 0.326749 0.221652 0.112906 0.001778 0.110373 0.222115 0.331955 0.438363 0.539787 0.634685 0.721541 0.798896 0.865374 0.919711 0.960779 0.987617 0.999453 0.995733 0.976136 0.940602 0.889338 0.822837 0.741877 0.647531 0.541152 0.424368 0.299066 0.167364 0.031585 0.105785 0.242133 0.374774 0.500997 0.618125 0.723576 0.814919 0.889942 0.946707 0.983610 0.999434 0.993393 0.965176 0.914972 0.843494 0.751982 0.642200 0.516414 0.377359 0.228191 0.072425 0.086143 0.243522 0.395628 0.538379 0.667825 0.780247 0.872280 0.941023 0.984137 0.999944 0.987501 0.946657 0.878095 0.783343 0.664763 0.525515 0.369486 0.201201 0.025700 0.151598 0.325065 0.489037 0.637998 0.766784 0.870758 0.946004 0.989481 0.999169 0.974180 0.914833 0.822686 0.700529 0.552323 0.383100 0.198810 0.006130 0.187771 0.375487 0.549661 0.703283 0.829972 0.924270 0.981889 0.999934 0.977072 0.913641 0.811696 0.674984 0.508832 0.319975 0.116306 0.093432 0.300022 0.494163 0.666896 0.810031 0.916557 0.981004 0.999759 0.971297 0.896326 0.777823 0.620962 0.432924 0.222611 0.000243 0.223120 0.436119 0.627667 0.787557 0.907008 0.979188 0.999637 0.966584 0.881124 0.747244 0.571693 0.363689 0.134464 0.103302 0.336178 0.550724 0.734286 0.875759 0.966290 0.999872 0.973796 0.888902 0.749636 0.563878 0.342547 0.099011 0.151702 0.393798 0.611722 0.791171 0.920052 0.989350 0.993798 0.932346 0.808338 0.629408 0.407077 0.156061 0.106653 0.362940 0.594780 0.785542 0.921203 0.991427 0.990415 0.917449 0.777074 0.578896 0.337009 0.069041 0.205089 0.464625 0.689559 0.862179 0.968525 0.999576 0.952081 0.828970 0.639270 0.397534 0.122788 0.162911 0.436210 0.674389 0.857246 0.968881 0.999133 0.944597 0.809072 0.603410 0.344742 0.055118 0.240303 0.515431 0.745543 0.909548 0.991979 0.984532 0.887001 0.707480 0.461816 0.172285 0.134347 0.429252 0.684255 0.874552 0.981173 0.992977 0.907905 0.733392 0.485849 0.189212 0.127276 0.431911 0.693695 0.885519 0.987040 0.986931 0.884266 0.688838 0.420357 0.106587 0.219469 0.522975 0.771004 0.936143 0.999630 0.953579 0.802096 0.561075 0.256655 0.077494 0.403840 0.685184 0.888932 0.990952 0.978539 0.852145 0.625589 0.324700 0.015508 0.354817 0.652543 0.872433 0.987163 0.981846 0.856118 0.624472 0.314748 0.035075 0.381446 0.680649 0.894336 0.994540 0.967471 0.815571 0.557514 0.226082 0.135866
1.000000 1.000000 1.000000 1.000000 1.000000 1.000000 1.000000 1.000000 1.000000 1.000000 1.000000 1.000000 1.000000 1.000000 1.000000 1.000000 1.000000 1.000000 1.000000 1.000000 1.000000 1.000000 1.000000 1.000000 1.000000 1.000000 1.000000 1.000000 1.000000 1.000000 1.000000 1.000000 1.000000 1.000000 1.000000 1.000000 1.000000 1.000000 1.000000 1.000000 1.000000 1.000000 1.000000 1.000000 1.000000 1.000000 1.000000 1.000000 1.000000 1.000000 1.000000 1.000000 0.919801 0.919801 0.919801 0.911967 0.911967 0.911967 0.911967 0.911967 0.911967 0.911967 0.911967 0.911967 0.911967 0.911967 0.911967 0.911967 0.911967 0.911967 0.911967 0.911967 0.911967 0.911967 0.911967 0.911967 0.911967 0.911967 0.911967 0.911967 0.911967 0.911967 0.911967 0.911967 0.911967 0.911967 0.911967 0.911967 0.911967 0.911967 0.911967 0.911967 0.911967 0.911967 0.911967 0.911967 0.941218 0.942680 0.950825 0.950493 0.949886 0.947770 0.946607 0.946239 0.946128 0.946453 0.947159 0.948123 0.954396 0.955625 0.960085 0.961737 0.962478 0.963112 0.963750 0.963324 0.954553 0.954356 0.952999 0.952402 0.954930 0.953937 0.953114 0.954081 0.953951 0.954766 0.954660 0.953937 0.952821 0.951693 0.950725 0.950294 0.950074 0.950810 0.951230 0.952724 0.956055 0.956628 0.956754 0.956909 0.957008 0.958305 0.957172 0.956723 0.952725 0.952945 0.952510 0.952759 0.956292 0.956231 0.956787 0.957349 0.958929 0.959219 0.951479 0.949215 0.940027 0.937595 0.933510 0.927706 0.923309 0.925161 0.926546 0.927400 0.927902 0.923368 0.923163 0.920616 0.918471 0.921095 0.920417 0.921094 0.922486 0.920059 0.918916 0.918222 0.916066 0.907786 0.895524 0.894677 0.895364 0.900135 0.901524 0.900508 0.902640 0.890451 0.873621 0.857926 0.859857 0.863458 0.854455 0.852018 0.852624 0.853488 0.857116 0.849789 0.846868 0.842898 0.833248 0.825007 0.818634 0.812131 0.815978 0.811668 0.801876 0.799827 0.809525 0.802944 0.817694 0.822864 0.821709 0.821083 0.818316 0.812907 0.789940 0.788510 0.776256 0.755621 0.756097 0.754291 0.752639 0.750193 0.756854 0.746427 0.743537 0.728034 0.727922 0.731098 0.733301 0.732395 0.726515 0.729606 0.734635 0.716463 0.703748 0.691685 0.695949 0.699737 0.699707 0.697286 0.673877 0.641492 0.618704 0.638438 0.644687 0.612910 0.637359 0.650552 0.631277 0.628508 0.619870 0.623255 0.613212 0.616935 0.617562 0.619580 0.622066 0.637243 0.624739 0.619630 0.627720 0.629635 0.641641 0.640001 0.640598 0.609812 0.608894 0.631305 0.634824 0.617518 0.630300 0.618073 0.634024 0.669817 0.674947 0.647936 0.642534 0.618435 0.574413 0.563283 0.557223 0.568904 0.600599 0.583599 0.549409 0.525816 0.531099 0.548528 0.555271 0.557504 0.541571 0.545649 0.537337 0.513022 0.519484 0.531736 0.533348 0.521982 0.505920 0.513907 0.515881 0.536866 0.525147 0.483249 0.498202 0.494872 0.487972 0.431628 0.447862 0.432136 0.419996 0.373878 0.383205 0.393234 0.380845 0.311847 0.293783 0.293962 0.293613 0.290301 0.273406 0.248584 0.239910 0.218107 0.218929 0.206818 0.182974 0.179839 0.166283 0.155318 0.156429 0.117440 0.162102 0.224062 0.225757 0.225757 0.225757 0.225757 0.225757 0.225757 0.225053 0.225053 0.225053 0.225053 0.225053 0.225053 0.225053 0.225053 0.225053 0.248716 0.248716 0.248716 0.248716 0.248716 0.248716 0.248716 0.248716 0.248716 0.248716 0.248716 0.248716 0.248716 0.248716
0.000000 0.000000 0.000000 0.000000 0.000000 0.000000 0.000000 0.000000 0.000000 0.000000 0.000000 0.000000 0.000000 0.000000 0.000000 0.000000 0.000000 0.000000 0.000000 0.000000 0.000000 0.000000 0.000000 0.000000 0.000000 7.000000 4.000000 0.000000 0.000000 0.000000 0.000000 0.000000 0.000000 0.000000 0.000000 0.000000 0.000000 0.000000 0.000000 0.000000 0.000000 0.000000 0.000000 0.000000 0.000000 0.000000 0.000000 0.000000 0.000000 0.000000 0.000000 0.000000 0.180334 0.180334 0.180334 0.199007 0.199007 0.199007 0.199007 0.199007 0.199007 0.199007 0.199007 0.199007 0.199007 0.199007 0.199007 0.199007 0.199007 0.199007 0.199007 0.199007 0.199007 0.199007 0.199007 0.199007 0.199007 0.199007 0.199007 0.199007 0.199007 0.199007 0.199007 0.199007 0.199007 0.199007 0.199007 0.199007 0.199007 0.199007 0.199007 0.199007 0.199007 0.199007 0.199007 0.199007 0.225018 0.225018 0.225018 0.225018 0.225018 0.225018 0.225018 0.225018 0.225018 0.225018 0.225018 0.225018 0.225018 0.225018 0.225018 0.225018 0.225018 0.225018 0.225018 0.225018 0.225018 0.225018 0.225018 0.225018 0.225018 0.225018 0.225018 0.225018 0.225018 0.244339 0.244339 0.244339 0.244339 0.244339 0.244339 0.244339 0.244339 0.244339 0.244339 0.244339 0.244339 0.244339 0.244339 0.244339 0.244339 0.244339 0.244339 0.244339 0.244339 0.244339 0.244339 0.244339 0.251976 0.251976 0.251976 0.251976 0.251976 0.251976 0.251976 0.251976 0.251976 0.251976 0.251976 0.251976 0.251976 0.251976 0.251976 0.251976 0.251976 0.251976 0.251976 0.251976 0.264906 0.264906 0.264906 0.264906 0.264906 0.264906 0.264906 0.264906 0.264906 0.264906 0.264906 0.264906 0.264906 0.264906 0.264906 0.264906 0.264906 0.264906 0.264906 0.264906 0.264906 0.264906 0.264906 0.264906 0.264906 0.264906 0.264906 0.264906 0.264906 0.264906 0.264906 0.264906 0.264906 0.264906 0.264906 0.264906 0.264906 0.264906 0.264906 0.264906 0.264906 0.264906 0.264906 0.264906 0.264906 0.264906 0.264906 0.264906 0.264906 0.264906 0.264906 0.264906 0.264906 0.264906 0.264906 0.264906 0.264906 0.264906 0.264906 0.264906 0.264906 0.264906 0.256074 0.256074 0.256074 0.256074 0.256074 0.256074 0.256074 0.256074 0.256074 0.256074 0.256074 0.256074 0.256074 0.256074 0.269680 0.269680 0.269680 0.269680 0.269680 0.269680 0.269680 0.269680 0.269680 0.269680 0.269680 0.269680 0.264906 0.264906 0.264906 0.264906 0.264906 0.264906 0.264906 0.264906 0.264906 0.264906 0.264906 0.264906 0.269680 0.269680 0.269680 0.269680 0.269680 0.269680 0.269680 0.269680 0.269680 0.269680 0.269680 0.264906 0.264906 0.264906 0.264906 0.264906 0.264906 0.264906 0.264906 0.264906 0.264906 0.264906 0.256074 0.256074 0.256074 0.256074 0.256074 0.256074 0.256074 0.256074 0.256074 0.256074 0.256074 0.264906 0.264906 0.264906 0.264906 0.264906 0.264906 0.264906 0.264906 0.264906 0.264906 0.260378 0.260378 0.260378 0.260378 0.260378 0.260378 0.260378 0.260378 0.260378 0.260378 0.256074 0.256074 0.256074 0.256074 0.256074 0.256074 0.256074 0.256074 0.256074 0.256074 0.260378 0.260378 0.260378 0.260378 0.260378 0.260378 0.260378 0.260378 0.260378 0.256074 0.256074 0.256074 0.256074 0.256074 0.256074 0.256074 0.256074 0.256074 0.251976 0.251976 0.251976 0.251976 0.251976 0.251976 0.251976 0.251976 0.251976 0.251976 0.251976 0.251976 0.251976 0.251976
