# Output from CTFFind version 4.1.9, run on 2019-11-03 20:10:07
# Input file: stack1_bm3d_averaged_1_6.0_0_3000_half.mrc ; Number of micrographs: 1
# Pixel size: 3.000 Angstroms ; acceleration voltage: 300.0 keV ; spherical aberration: 0.00 mm ; amplitude contrast: 0.07
# Box size: 512 pixels ; min. res.: 30.0 Angstroms ; max. res.: 5.0 Angstroms ; min. def.: 5000.0 um; max. def. 50000.0 um; num. frames averaged: 1
# 6 lines per micrograph: #1 - spatial frequency (1/Angstroms); #2 - 1D rotational average of spectrum (assuming no astigmatism); #3 - 1D rotational average of spectrum; #4 - CTF fit; #5 - cross-correlation between spectrum and CTF fit; #6 - 2sigma of expected cross correlation of noise
0.000000 0.000651 0.001302 0.001953 0.002604 0.003255 0.003906 0.004557 0.005208 0.005859 0.006510 0.007161 0.007812 0.008464 0.009115 0.009766 0.010417 0.011068 0.011719 0.012370 0.013021 0.013672 0.014323 0.014974 0.015625 0.016276 0.016927 0.017578 0.018229 0.018880 0.019531 0.020182 0.020833 0.021484 0.022135 0.022786 0.023438 0.024089 0.024740 0.025391 0.026042 0.026693 0.027344 0.027995 0.028646 0.029297 0.029948 0.030599 0.031250 0.031901 0.032552 0.033203 0.033854 0.034505 0.035156 0.035807 0.036458 0.037109 0.037760 0.038411 0.039062 0.039714 0.040365 0.041016 0.041667 0.042318 0.042969 0.043620 0.044271 0.044922 0.045573 0.046224 0.046875 0.047526 0.048177 0.048828 0.049479 0.050130 0.050781 0.051432 0.052083 0.052734 0.053385 0.054036 0.054688 0.055339 0.055990 0.056641 0.057292 0.057943 0.058594 0.059245 0.059896 0.060547 0.061198 0.061849 0.062500 0.063151 0.063802 0.064453 0.065104 0.065755 0.066406 0.067057 0.067708 0.068359 0.069010 0.069661 0.070312 0.070964 0.071615 0.072266 0.072917 0.073568 0.074219 0.074870 0.075521 0.076172 0.076823 0.077474 0.078125 0.078776 0.079427 0.080078 0.080729 0.081380 0.082031 0.082682 0.083333 0.083984 0.084635 0.085286 0.085938 0.086589 0.087240 0.087891 0.088542 0.089193 0.089844 0.090495 0.091146 0.091797 0.092448 0.093099 0.093750 0.094401 0.095052 0.095703 0.096354 0.097005 0.097656 0.098307 0.098958 0.099609 0.100260 0.100911 0.101562 0.102214 0.102865 0.103516 0.104167 0.104818 0.105469 0.106120 0.106771 0.107422 0.108073 0.108724 0.109375 0.110026 0.110677 0.111328 0.111979 0.112630 0.113281 0.113932 0.114583 0.115234 0.115885 0.116536 0.117188 0.117839 0.118490 0.119141 0.119792 0.120443 0.121094 0.121745 0.122396 0.123047 0.123698 0.124349 0.125000 0.125651 0.126302 0.126953 0.127604 0.128255 0.128906 0.129557 0.130208 0.130859 0.131510 0.132161 0.132812 0.133464 0.134115 0.134766 0.135417 0.136068 0.136719 0.137370 0.138021 0.138672 0.139323 0.139974 0.140625 0.141276 0.141927 0.142578 0.143229 0.143880 0.144531 0.145182 0.145833 0.146484 0.147135 0.147786 0.148438 0.149089 0.149740 0.150391 0.151042 0.151693 0.152344 0.152995 0.153646 0.154297 0.154948 0.155599 0.156250 0.156901 0.157552 0.158203 0.158854 0.159505 0.160156 0.160807 0.161458 0.162109 0.162760 0.163411 0.164062 0.164714 0.165365 0.166016 0.166667 0.167318 0.167969 0.168620 0.169271 0.169922 0.170573 0.171224 0.171875 0.172526 0.173177 0.173828 0.174479 0.175130 0.175781 0.176432 0.177083 0.177734 0.178385 0.179036 0.179688 0.180339 0.180990 0.181641 0.182292 0.182943 0.183594 0.184245 0.184896 0.185547 0.186198 0.186849 0.187500 0.188151 0.188802 0.189453 0.190104 0.190755 0.191406 0.192057 0.192708 0.193359 0.194010 0.194661 0.195312 0.195964 0.196615 0.197266 0.197917 0.198568 0.199219 0.199870 0.200521 0.201172 0.201823 0.202474 0.203125 0.203776 0.204427 0.205078 0.205729 0.206380 0.207031 0.207682 0.208333 0.208984 0.209635 0.210286 0.210938 0.211589 0.212240 0.212891 0.213542 0.214193 0.214844 0.215495 0.216146 0.216797 0.217448 0.218099 0.218750 0.219401 0.220052 0.220703 0.221354 0.222005 0.222656 0.223307 0.223958 0.224609 0.225260 0.225911 0.226562 0.227214 0.227865 0.228516 0.229167 0.229818 0.230469 0.231120 0.231771 0.232422 0.233073 0.233724 0.234375 0.235026 0.235677
       0.34996        0.34996        0.34996        0.34996        0.34996        0.34996        0.34996        0.34996        0.34996        0.34996        0.34996        0.34996        0.34996        0.34996        0.34996        0.34996        0.34996        0.34996        0.34996        0.34996        0.34996        0.34996        0.34996        0.34996        0.34996        0.34996        0.34996        0.34996        0.34996        0.34996        0.34996        0.34996        0.34996        0.34996        0.34996        0.34996        0.34996        0.34996        0.34996        0.34996        0.34996        0.34996        0.34996        0.34996        0.34996        0.34996        0.34996        0.34996        0.34996        0.34996        0.34996        0.37780        0.54619        0.25206        0.09987       -0.00750       -0.27165       -0.10664       -0.17308       -0.21817        0.01606       -0.13729       -0.09565       -0.05759       -0.03894       -0.12865       -0.15524       -0.27850       -0.35767       -0.47070       -0.40757       -0.30330       -0.24824       -0.35331       -0.26937       -0.35182       -0.30794       -0.34233       -0.16729       -0.16957       -0.23164       -0.06148       -0.00679       -0.03695        0.08394        0.03011        0.21227        0.23714        0.34051        0.35997        0.42112        0.45975        0.52460        0.58640        0.62544        0.54033        0.50490        0.50896        0.47016        0.55247        0.46962        0.41552        0.40882        0.34078        0.29353        0.31202        0.33533        0.23229        0.19977        0.11078        0.13898        0.14906        0.17942        0.14420        0.21305        0.26049        0.30699        0.30176        0.35669        0.46885        0.40649        0.48647        0.62331        0.60193        0.53915        0.55191        0.59119        0.42460        0.48762        0.37818        0.31619        0.29452        0.26676        0.25710        0.18268        0.17771        0.14352        0.21569        0.26069        0.28712        0.35038        0.31413        0.41785        0.45935        0.46599        0.46141        0.49196        0.53898        0.48616        0.45819        0.42000        0.34175        0.33658        0.28814        0.31182        0.24315        0.23006        0.27853        0.24696        0.27170        0.32981        0.42976        0.42925        0.43511        0.41360        0.49153        0.48917        0.47168        0.45361        0.38307        0.37995        0.40870        0.38671        0.31674        0.28600        0.32333        0.29411        0.30058        0.29636        0.33089        0.36137        0.38920        0.45326        0.48234        0.38439        0.44450        0.43131        0.37451        0.30891        0.36372        0.32316        0.31512        0.33779        0.27375        0.26025        0.31806        0.33698        0.44041        0.41872        0.38815        0.38817        0.41077        0.36175        0.36498        0.32974        0.32876        0.31662        0.30651        0.29745        0.35500        0.36437        0.34600        0.35256        0.40376        0.39865        0.45805        0.40938        0.35303        0.35481        0.35716        0.33445        0.32368        0.34306        0.38845        0.34973        0.36158        0.34399        0.43210        0.37642        0.35268        0.34760        0.37572        0.37553        0.33401        0.33243        0.30372        0.32511        0.33435        0.31352        0.32661        0.34804        0.36064        0.34666        0.33948        0.30491        0.30117        0.28630        0.33294        0.32126        0.35922        0.32613        0.34510        0.36762        0.33652        0.33213        0.31769        0.28671        0.33879        0.32170        0.32927        0.32160        0.31966        0.32490        0.31625        0.34059        0.36070        0.35263        0.33413        0.29906        0.33579        0.30600        0.34193        0.32970        0.27039        0.32113        0.30217        0.33841        0.32816        0.39294        0.32973        0.31282        0.26702        0.31963        0.38537        0.34914        0.31668        0.33605        0.31759        0.32580        0.31987        0.32287        0.30097        0.31398        0.27251        0.28524        0.31671        0.30009        0.30053        0.31257        0.24628        0.31345        0.34229        0.36482        0.35469        0.31252        0.31867        0.28600        0.30657        0.31056        0.29655        0.32946        0.28278        0.29677        0.33536        0.36874        0.35263        0.28463        0.27471        0.32725        0.30221        0.31621        0.35711        0.36633        0.29148        0.27864        0.32571        0.32612        0.26886        0.22352        0.23862        0.26103        0.30136        0.31959        0.27640        0.34576        0.29477        0.26274        0.29415        0.28924        0.21446        0.27172        0.32054        0.26269        0.20157        0.22616        0.30661        0.41990        0.30637        0.24409        0.15343        0.23064        0.27414        0.28144        0.39890        0.22438        0.15740        0.26232        0.30805        0.28239        0.19481       -0.01730       -0.59222       -0.95978
3.112581 3.078486 3.044580 3.010864 2.977338 2.944001 2.910854 2.877897 2.845130 2.812552 2.780164 2.747966 2.715957 2.684138 2.652509 2.621070 2.589820 2.558760 2.527890 2.497209 2.466718 2.436417 2.406305 2.376384 2.346652 2.317109 2.287757 2.258594 2.229621 2.200837 2.172243 2.143839 2.115625 2.087600 2.059765 2.032120 2.004665 1.977399 1.950323 1.923437 1.896740 1.870233 1.843916 1.817788 1.791851 1.766103 1.740544 1.715176 1.689997 1.665007 1.640208 1.577840 1.906747 1.642700 1.180385 1.030729 0.384891 0.888493 0.508347 0.632863 0.896269 0.674675 0.597516 0.753568 0.688426 0.621466 0.497844 0.329583 0.143282 -0.025067 -0.021044 0.048568 0.399314 -0.029293 0.150518 0.028561 0.095112 -0.062804 0.233862 0.186286 0.091503 0.282499 0.439389 0.279740 0.472557 0.383897 0.700087 0.598587 0.833138 0.797961 0.840361 1.032132 0.928627 1.173209 1.133132 1.088513 0.914984 0.943000 0.896897 0.895242 0.900463 0.741604 0.666510 0.616264 0.556486 0.470365 0.539624 0.411523 0.318992 0.180272 0.135509 0.174858 0.219969 0.150513 0.168690 0.300140 0.333805 0.350175 0.423403 0.461729 0.532961 0.390474 0.768515 0.759882 0.668762 0.605963 0.705210 0.480056 0.436654 0.431832 0.195523 0.218987 0.082408 0.176513 -0.021704 -0.014206 -0.085824 -0.083386 0.125741 0.035332 0.134757 0.171277 0.197602 0.316115 0.339734 0.316746 0.356514 0.410269 0.389202 0.298062 0.280210 0.159862 0.138050 0.060099 0.017876 0.013780 -0.097740 -0.020898 -0.004154 -0.073067 -0.026947 0.134596 0.274832 0.173065 0.234584 0.210636 0.441704 0.271685 0.297177 0.282941 0.160093 0.129742 0.304863 0.037655 0.058554 0.022832 0.078071 0.008255 0.084874 -0.002629 0.148284 0.008620 0.230395 0.286303 0.250525 0.169078 0.218451 0.157684 0.053240 0.078245 0.092744 -0.006668 0.020424 0.058839 -0.115072 -0.047718 0.009782 0.096249 0.249256 0.114072 0.123262 0.103982 0.120931 0.047672 0.050863 -0.024350 0.013501 -0.038525 -0.046856 -0.002910 0.044546 0.057819 -0.006506 0.053105 0.127477 0.103218 0.247322 0.044521 0.041360 0.044418 0.003401 0.018739 -0.019346 0.056453 0.098781 0.004127 0.039758 0.036173 0.183946 0.022679 0.017138 0.028008 0.052872 0.056659 -0.028745 0.008244 -0.057162 -0.020506 0.000978 -0.022685 -0.028743 0.040661 -0.014976 0.017993 -0.027050 -0.085223 -0.048495 -0.082990 -0.022856 -0.021839 0.023752 -0.020496 0.006693 0.054048 -0.018848 0.024598 -0.034719 -0.053113 0.032507 -0.020185 0.026033 0.009250 0.000566 0.005775 -0.014734 0.064753 0.074781 0.075194 0.005949 0.007322 0.026023 0.018434 0.054851 0.040840 -0.050891 0.043501 0.018379 0.048018 0.020079 0.146155 0.024182 -0.026288 -0.068325 0.043022 0.141356 0.023318 0.005032 0.019657 0.078818 0.025448 0.006707 0.026743 0.010643 0.013862 -0.050593 -0.040318 0.028207 -0.007159 -0.015236 -0.046224 -0.149013 0.036324 0.057456 0.066323 0.023517 -0.000581 -0.020279 -0.041025 -0.045099 -0.054603 -0.039854 -0.012908 -0.115281 -0.072040 0.013737 0.044104 0.007371 -0.084431 -0.163137 -0.078306 -0.055530 -0.112776 0.024508 0.003614 -0.099668 -0.099133 -0.040301 -0.038565 -0.093703 -0.134916 -0.145995 -0.018132 0.038818 -0.023843 -0.073679 0.107483 0.046564 -0.188260 0.067732 0.007261 -0.107881 0.038173 0.099346 -0.002638 -0.061146 -0.017405 0.043614 0.264552 0.084443 0.084265 -0.205669 0.002127 0.186317 0.097430 0.341457 0.290913 0.246317 0.458048 0.540972 0.291811 0.280939 -0.018058 -1.466111
0.072396 0.072906 0.074435 0.076983 0.080549 0.085132 0.090732 0.097346 0.104972 0.113607 0.123248 0.133891 0.145529 0.158157 0.171765 0.186345 0.201886 0.218373 0.235792 0.254123 0.273347 0.293440 0.314375 0.336120 0.358642 0.381902 0.405856 0.430458 0.455654 0.481386 0.507591 0.534198 0.561133 0.588313 0.615649 0.643047 0.670404 0.697612 0.724553 0.751106 0.777139 0.802516 0.827093 0.850720 0.873240 0.894492 0.914309 0.932518 0.948944 0.963409 0.975731 0.985728 0.993220 0.998025 0.999967 0.998871 0.994571 0.986907 0.975730 0.960901 0.942297 0.919809 0.893346 0.862838 0.828238 0.789525 0.746702 0.699803 0.648897 0.594081 0.535491 0.473301 0.407721 0.339004 0.267441 0.193367 0.117158 0.039230 0.039959 0.119912 0.200095 0.279939 0.358843 0.436179 0.511294 0.583518 0.652168 0.716553 0.775987 0.829790 0.877299 0.917878 0.950927 0.975890 0.992263 0.999611 0.997571 0.985863 0.964303 0.932808 0.891403 0.840234 0.779568 0.709800 0.631458 0.545200 0.451816 0.352228 0.247480 0.138737 0.027267 0.085563 0.198303 0.309444 0.417427 0.520672 0.617598 0.706652 0.786331 0.855213 0.911985 0.955472 0.984664 0.998742 0.997108 0.979403 0.945529 0.895665 0.830282 0.750143 0.656314 0.550150 0.433293 0.307647 0.175364 0.038798 0.099516 0.236918 0.370666 0.497991 0.616160 0.722531 0.814622 0.890171 0.947200 0.984072 0.999550 0.992842 0.963645 0.912170 0.839167 0.745930 0.634289 0.506590 0.365657 0.214745 0.057469 0.102273 0.260390 0.412706 0.555065 0.683453 0.794111 0.883662 0.949216 0.988480 0.999852 0.982494 0.936394 0.862401 0.762232 0.638458 0.494457 0.334341 0.162850 0.014771 0.192925 0.365840 0.527751 0.673097 0.796720 0.894061 0.961341 0.995731 0.995480 0.960032 0.890082 0.787603 0.655825 0.499148 0.323036 0.133831 0.061452 0.255375 0.440365 0.608996 0.754314 0.870119 0.951261 0.993888 0.995652 0.955865 0.875586 0.757633 0.606531 0.428362 0.230553 0.021590 0.189336 0.392718 0.579166 0.739851 0.866932 0.953969 0.996271 0.991189 0.938305 0.839531 0.699088 0.523370 0.320691 0.100924 0.124963 0.345431 0.548967 0.724687 0.862938 0.955854 0.997841 0.985952 0.920133 0.803312 0.641330 0.442694 0.218180 0.019721 0.257484 0.481298 0.677879 0.835276 0.943626 0.995810 0.987972 0.919848 0.794887 0.620146 0.405946 0.165313 0.086774 0.334303 0.561228 0.752530 0.895227 0.979308 0.998471 0.950666 0.838343 0.668418 0.451905 0.203271 0.060490 0.320989 0.559716 0.759361 0.905112 0.985784 0.994748 0.930539 0.797100 0.603638 0.364049 0.095997 0.180351 0.443817 0.673836 0.852078 0.963964 0.999911 0.956235 0.835591 0.646924 0.404885 0.128787 0.158909 0.434373 0.674375 0.858283 0.969879 0.998859 0.941870 0.802973 0.593466 0.331063 0.038467 0.258526 0.533298 0.760779 0.919793 0.995085 0.978877 0.871762 0.682852 0.429111 0.133931 0.174956 0.468044 0.716880 0.896841 0.989659 0.985352 0.883416 0.693077 0.432604 0.127636 0.191245 0.491549 0.742187 0.916726 0.996263 0.971565 0.844274 0.626953 0.342001 0.019432 0.306207 0.599489 0.828006 0.965990 0.997324 0.917551 0.734621 0.468259 0.147961 0.190165 0.507417 0.766942 0.938052 0.999951 0.944399 0.776943 0.516538 0.193563 0.153626 0.483189 0.754814 0.934720 0.999948 0.941434 0.765420 0.492973 0.157636 0.198605 0.530501 0.795278 0.958235 0.997388 0.906604 0.696710 0.394400 0.039003 0.322547 0.641823 0.875442
1.000000 1.000000 1.000000 1.000000 1.000000 1.000000 1.000000 1.000000 1.000000 1.000000 1.000000 1.000000 1.000000 1.000000 1.000000 1.000000 1.000000 1.000000 1.000000 1.000000 1.000000 1.000000 1.000000 1.000000 1.000000 1.000000 1.000000 1.000000 1.000000 1.000000 1.000000 1.000000 1.000000 1.000000 1.000000 1.000000 1.000000 1.000000 1.000000 1.000000 1.000000 1.000000 1.000000 1.000000 1.000000 1.000000 1.000000 1.000000 1.000000 1.000000 1.000000 1.000000 0.828171 0.828171 0.828171 0.825796 0.825796 0.825796 0.825796 0.825796 0.825796 0.825796 0.825796 0.825796 0.825796 0.825796 0.825796 0.825796 0.825796 0.825796 0.825796 0.825796 0.825796 0.825796 0.825796 0.825796 0.825796 0.825796 0.825796 0.825796 0.825796 0.825796 0.825796 0.825796 0.825796 0.825796 0.825796 0.825796 0.825796 0.825796 0.825796 0.825796 0.825796 0.825796 0.825796 0.825796 0.851468 0.858812 0.861572 0.864485 0.865853 0.863167 0.861977 0.861467 0.861310 0.862261 0.868323 0.893244 0.910005 0.916720 0.930079 0.933841 0.939055 0.942061 0.950829 0.954585 0.956159 0.952603 0.951871 0.954001 0.954110 0.943774 0.941881 0.942182 0.956281 0.945312 0.941315 0.940112 0.938431 0.935012 0.936092 0.935827 0.933191 0.933634 0.928137 0.928868 0.929371 0.927273 0.926089 0.909120 0.910091 0.909433 0.912436 0.891314 0.886184 0.874545 0.860553 0.881152 0.874121 0.855965 0.854833 0.843839 0.845016 0.845190 0.843852 0.836627 0.835338 0.831896 0.825878 0.826816 0.823693 0.832951 0.831891 0.831929 0.821598 0.803393 0.781662 0.766146 0.765148 0.769204 0.772828 0.775711 0.777041 0.773487 0.771433 0.767275 0.765248 0.774072 0.776693 0.773620 0.769644 0.767983 0.745010 0.742963 0.738390 0.719832 0.706425 0.703427 0.704404 0.681462 0.672929 0.675673 0.681016 0.686264 0.696489 0.690664 0.688925 0.661602 0.636261 0.608084 0.621120 0.628469 0.606896 0.600049 0.577613 0.611202 0.623026 0.637752 0.655163 0.658222 0.653481 0.625381 0.582830 0.583471 0.581446 0.583088 0.581766 0.572954 0.576829 0.604025 0.577052 0.576298 0.566608 0.563094 0.570842 0.585478 0.566590 0.560170 0.532977 0.507358 0.480141 0.475320 0.436560 0.431859 0.427058 0.430322 0.394206 0.394234 0.410493 0.427681 0.426131 0.433805 0.423148 0.414103 0.374312 0.342939 0.337236 0.323693 0.318670 0.291010 0.260929 0.249440 0.260237 0.268504 0.312206 0.311869 0.303141 0.276627 0.282587 0.300228 0.330985 0.333630 0.332112 0.310705 0.295039 0.256459 0.252241 0.299623 0.334171 0.312201 0.295050 0.280820 0.275203 0.247825 0.241234 0.175557 0.121634 0.085115 0.086648 0.094003 0.084078 0.061182 0.026608 0.044772 0.059095 0.097620 0.077381 0.067802 0.011082 0.012357 -0.008548 -0.000722 -0.034304 -0.072791 -0.050509 -0.033867 -0.066881 -0.086135 -0.126597 -0.108491 -0.126915 -0.125251 -0.122977 -0.126271 -0.158420 -0.146916 -0.144741 -0.123390 -0.134117 -0.129918 -0.123270 -0.130805 -0.204054 -0.241635 -0.230273 -0.233481 -0.231734 -0.231875 -0.237753 -0.241593 -0.238036 -0.244324 -0.196925 -0.227002 -0.243273 -0.245801 -0.244919 -0.269848 -0.225662 -0.200389 -0.205920 -0.229919 -0.226793 -0.226793 -0.226793 -0.226793 -0.226793 -0.226793 -0.216166 -0.216166 -0.216166 -0.216166 -0.216166 -0.216166 -0.216166 -0.216166 -0.216166 -0.151569 -0.151569 -0.151569 -0.151569 -0.151569 -0.151569 -0.151569 -0.151569 -0.151569 -0.151569 -0.151569 -0.151569 -0.151569 -0.151569 -0.151569 -0.151569
0.000000 0.000000 0.000000 0.000000 0.000000 0.000000 0.000000 0.000000 0.000000 0.000000 0.000000 0.000000 0.000000 0.000000 0.000000 0.000000 0.000000 0.000000 0.000000 0.000000 0.000000 0.000000 0.000000 0.000000 0.000000 0.000000 0.000000 0.000000 0.000000 0.000000 0.000000 0.000000 0.000000 0.000000 0.000000 0.000000 0.000000 0.000000 0.000000 0.000000 0.000000 0.000000 0.000000 0.000000 0.000000 0.000000 0.000000 0.000000 0.000000 0.000000 0.000000 0.000000 0.180334 0.180334 0.180334 0.199007 0.199007 0.199007 0.199007 0.199007 0.199007 0.199007 0.199007 0.199007 0.199007 0.199007 0.199007 0.199007 0.199007 0.199007 0.199007 0.199007 0.199007 0.199007 0.199007 0.199007 0.199007 0.199007 0.199007 0.199007 0.199007 0.199007 0.199007 0.199007 0.199007 0.199007 0.199007 0.199007 0.199007 0.199007 0.199007 0.199007 0.199007 0.199007 0.199007 0.199007 0.230940 0.230940 0.230940 0.230940 0.230940 0.230940 0.230940 0.230940 0.230940 0.230940 0.230940 0.230940 0.230940 0.230940 0.230940 0.230940 0.230940 0.230940 0.230940 0.230940 0.230940 0.230940 0.230940 0.230940 0.230940 0.230940 0.230940 0.230940 0.244339 0.244339 0.244339 0.244339 0.244339 0.244339 0.244339 0.244339 0.244339 0.244339 0.244339 0.244339 0.244339 0.244339 0.244339 0.244339 0.244339 0.244339 0.244339 0.244339 0.244339 0.244339 0.244339 0.256074 0.256074 0.256074 0.256074 0.256074 0.256074 0.256074 0.256074 0.256074 0.256074 0.256074 0.256074 0.256074 0.256074 0.256074 0.256074 0.256074 0.256074 0.256074 0.256074 0.256074 0.256074 0.256074 0.256074 0.256074 0.256074 0.256074 0.256074 0.256074 0.256074 0.256074 0.256074 0.256074 0.256074 0.256074 0.256074 0.256074 0.264906 0.264906 0.264906 0.264906 0.264906 0.264906 0.264906 0.264906 0.264906 0.264906 0.264906 0.264906 0.264906 0.264906 0.264906 0.264906 0.264906 0.264906 0.264906 0.264906 0.264906 0.264906 0.264906 0.264906 0.264906 0.264906 0.264906 0.264906 0.264906 0.264906 0.264906 0.264906 0.264906 0.264906 0.264906 0.264906 0.264906 0.264906 0.264906 0.264906 0.264906 0.264906 0.264906 0.264906 0.264906 0.264906 0.264906 0.264906 0.264906 0.264906 0.264906 0.264906 0.264906 0.264906 0.264906 0.264906 0.264906 0.264906 0.269680 0.269680 0.269680 0.269680 0.269680 0.269680 0.269680 0.269680 0.269680 0.269680 0.269680 0.269680 0.264906 0.264906 0.264906 0.264906 0.264906 0.264906 0.264906 0.264906 0.264906 0.264906 0.264906 0.264906 0.269680 0.269680 0.269680 0.269680 0.269680 0.269680 0.269680 0.269680 0.269680 0.269680 0.269680 0.264906 0.264906 0.264906 0.264906 0.264906 0.264906 0.264906 0.264906 0.264906 0.264906 0.264906 0.256074 0.256074 0.256074 0.256074 0.256074 0.256074 0.256074 0.256074 0.256074 0.256074 0.256074 0.264906 0.264906 0.264906 0.264906 0.264906 0.264906 0.264906 0.264906 0.264906 0.264906 0.260378 0.260378 0.260378 0.260378 0.260378 0.260378 0.260378 0.260378 0.260378 0.260378 0.264906 0.264906 0.264906 0.264906 0.264906 0.264906 0.264906 0.264906 0.264906 0.251976 0.251976 0.251976 0.251976 0.251976 0.251976 0.251976 0.251976 0.251976 0.251976 0.256074 0.256074 0.256074 0.256074 0.256074 0.256074 0.256074 0.256074 0.256074 0.269680 0.269680 0.269680 0.269680 0.269680 0.269680 0.269680 0.269680 0.269680 0.269680 0.269680 0.269680 0.269680 0.269680 0.269680 0.269680
