# Output from CTFFind version 4.1.9, run on 2019-11-02 17:46:38
# Input file: stack6_bm3d_averaged_1_1.5_0_1250_half.mrc ; Number of micrographs: 1
# Pixel size: 3.000 Angstroms ; acceleration voltage: 300.0 keV ; spherical aberration: 0.00 mm ; amplitude contrast: 0.07
# Box size: 512 pixels ; min. res.: 30.0 Angstroms ; max. res.: 5.0 Angstroms ; min. def.: 5000.0 um; max. def. 50000.0 um; num. frames averaged: 1
# 6 lines per micrograph: #1 - spatial frequency (1/Angstroms); #2 - 1D rotational average of spectrum (assuming no astigmatism); #3 - 1D rotational average of spectrum; #4 - CTF fit; #5 - cross-correlation between spectrum and CTF fit; #6 - 2sigma of expected cross correlation of noise
0.000000 0.000651 0.001302 0.001953 0.002604 0.003255 0.003906 0.004557 0.005208 0.005859 0.006510 0.007161 0.007812 0.008464 0.009115 0.009766 0.010417 0.011068 0.011719 0.012370 0.013021 0.013672 0.014323 0.014974 0.015625 0.016276 0.016927 0.017578 0.018229 0.018880 0.019531 0.020182 0.020833 0.021484 0.022135 0.022786 0.023438 0.024089 0.024740 0.025391 0.026042 0.026693 0.027344 0.027995 0.028646 0.029297 0.029948 0.030599 0.031250 0.031901 0.032552 0.033203 0.033854 0.034505 0.035156 0.035807 0.036458 0.037109 0.037760 0.038411 0.039062 0.039714 0.040365 0.041016 0.041667 0.042318 0.042969 0.043620 0.044271 0.044922 0.045573 0.046224 0.046875 0.047526 0.048177 0.048828 0.049479 0.050130 0.050781 0.051432 0.052083 0.052734 0.053385 0.054036 0.054688 0.055339 0.055990 0.056641 0.057292 0.057943 0.058594 0.059245 0.059896 0.060547 0.061198 0.061849 0.062500 0.063151 0.063802 0.064453 0.065104 0.065755 0.066406 0.067057 0.067708 0.068359 0.069010 0.069661 0.070312 0.070964 0.071615 0.072266 0.072917 0.073568 0.074219 0.074870 0.075521 0.076172 0.076823 0.077474 0.078125 0.078776 0.079427 0.080078 0.080729 0.081380 0.082031 0.082682 0.083333 0.083984 0.084635 0.085286 0.085938 0.086589 0.087240 0.087891 0.088542 0.089193 0.089844 0.090495 0.091146 0.091797 0.092448 0.093099 0.093750 0.094401 0.095052 0.095703 0.096354 0.097005 0.097656 0.098307 0.098958 0.099609 0.100260 0.100911 0.101562 0.102214 0.102865 0.103516 0.104167 0.104818 0.105469 0.106120 0.106771 0.107422 0.108073 0.108724 0.109375 0.110026 0.110677 0.111328 0.111979 0.112630 0.113281 0.113932 0.114583 0.115234 0.115885 0.116536 0.117188 0.117839 0.118490 0.119141 0.119792 0.120443 0.121094 0.121745 0.122396 0.123047 0.123698 0.124349 0.125000 0.125651 0.126302 0.126953 0.127604 0.128255 0.128906 0.129557 0.130208 0.130859 0.131510 0.132161 0.132812 0.133464 0.134115 0.134766 0.135417 0.136068 0.136719 0.137370 0.138021 0.138672 0.139323 0.139974 0.140625 0.141276 0.141927 0.142578 0.143229 0.143880 0.144531 0.145182 0.145833 0.146484 0.147135 0.147786 0.148438 0.149089 0.149740 0.150391 0.151042 0.151693 0.152344 0.152995 0.153646 0.154297 0.154948 0.155599 0.156250 0.156901 0.157552 0.158203 0.158854 0.159505 0.160156 0.160807 0.161458 0.162109 0.162760 0.163411 0.164062 0.164714 0.165365 0.166016 0.166667 0.167318 0.167969 0.168620 0.169271 0.169922 0.170573 0.171224 0.171875 0.172526 0.173177 0.173828 0.174479 0.175130 0.175781 0.176432 0.177083 0.177734 0.178385 0.179036 0.179688 0.180339 0.180990 0.181641 0.182292 0.182943 0.183594 0.184245 0.184896 0.185547 0.186198 0.186849 0.187500 0.188151 0.188802 0.189453 0.190104 0.190755 0.191406 0.192057 0.192708 0.193359 0.194010 0.194661 0.195312 0.195964 0.196615 0.197266 0.197917 0.198568 0.199219 0.199870 0.200521 0.201172 0.201823 0.202474 0.203125 0.203776 0.204427 0.205078 0.205729 0.206380 0.207031 0.207682 0.208333 0.208984 0.209635 0.210286 0.210938 0.211589 0.212240 0.212891 0.213542 0.214193 0.214844 0.215495 0.216146 0.216797 0.217448 0.218099 0.218750 0.219401 0.220052 0.220703 0.221354 0.222005 0.222656 0.223307 0.223958 0.224609 0.225260 0.225911 0.226562 0.227214 0.227865 0.228516 0.229167 0.229818 0.230469 0.231120 0.231771 0.232422 0.233073 0.233724 0.234375 0.235026 0.235677
       0.30817        0.30817        0.30817        0.30817        0.30817        0.30817        0.30817        0.30817        0.30817        0.30817        0.30817        0.30817        0.30817        0.30817        0.30817        0.30817        0.30817        0.30817        0.30817        0.30817        0.30817        0.30817        0.30817        0.30817        0.30817        0.30817        0.30817        0.30817        0.30817        0.30817        0.30817        0.30817        0.30817        0.30817        0.30817        0.30817        0.30817        0.30817        0.30817        0.30817        0.30817        0.30817        0.30817        0.30817        0.30817        0.30817        0.30817        0.30817        0.30817        0.30817        0.30817        0.63132        0.80921        0.41063        0.30511        0.18347       -0.10869        0.11120       -0.00146        0.03103        0.11299        0.33574        0.42025        0.39792        0.22116       -0.01595        0.04390        0.07009       -0.17445       -0.18137       -0.08815       -0.11198       -0.29838       -0.19093       -0.30584       -0.26119       -0.28629       -0.40906       -0.47605       -0.47578       -0.42189       -0.34447       -0.43702       -0.36614       -0.41442       -0.35410       -0.27774       -0.20302       -0.19713       -0.13438       -0.08760        0.03981        0.07925        0.25069        0.28409        0.37141        0.40106        0.51336        0.58775        0.60823        0.73587        0.69539        0.73916        0.64973        0.66143        0.69155        0.63111        0.61472        0.60696        0.43141        0.39134        0.35116        0.32589        0.22415        0.12892        0.05953        0.05018       -0.00035       -0.08166       -0.02782       -0.03395       -0.07348        0.06550        0.16230        0.25439        0.31442        0.33264        0.42311        0.53915        0.58627        0.53440        0.67121        0.55989        0.53254        0.59920        0.62915        0.52756        0.46099        0.40002        0.37640        0.24361        0.20284        0.13025        0.11416        0.05372        0.05368        0.09860        0.15487        0.14727        0.17804        0.22119        0.23760        0.32731        0.44715        0.48588        0.49239        0.51758        0.57730        0.57306        0.52337        0.41621        0.38179        0.36224        0.26578        0.24086        0.21235        0.20350        0.19459        0.17610        0.15770        0.12543        0.18671        0.24175        0.33914        0.37671        0.40584        0.46179        0.53210        0.46742        0.48377        0.42749        0.40402        0.38080        0.36292        0.28590        0.25108        0.19858        0.23433        0.21617        0.19386        0.21298        0.21850        0.23955        0.30568        0.39793        0.39111        0.37652        0.39001        0.45039        0.47443        0.43227        0.35374        0.31861        0.27556        0.26406        0.25093        0.21589        0.28080        0.29300        0.29353        0.30963        0.30107        0.33337        0.37615        0.36837        0.36594        0.35113        0.31497        0.32878        0.32096        0.29338        0.28745        0.26899        0.21389        0.26606        0.27029        0.29700        0.31406        0.33652        0.36951        0.32960        0.31102        0.35699        0.36197        0.25848        0.29004        0.30476        0.23926        0.20802        0.26412        0.27101        0.27482        0.29751        0.30105        0.33025        0.33056        0.35137        0.32158        0.32156        0.30669        0.29238        0.26494        0.23994        0.25009        0.25535        0.27722        0.29750        0.29206        0.29005        0.31907        0.33408        0.26936        0.30352        0.26633        0.25604        0.26301        0.25206        0.25448        0.26133        0.31170        0.27953        0.31254        0.28907        0.27199        0.30882        0.29863        0.32574        0.31444        0.29570        0.24778        0.24751        0.26056        0.25934        0.30996        0.31145        0.33088        0.32188        0.31110        0.25856        0.28831        0.21559        0.18933        0.25992        0.26809        0.25681        0.27893        0.31177        0.29515        0.35699        0.29735        0.24420        0.21505        0.24095        0.29415        0.30305        0.30060        0.26979        0.27976        0.26111        0.31079        0.27290        0.25074        0.26771        0.24469        0.28531        0.25127        0.27912        0.32705        0.29038        0.20901        0.23909        0.28088        0.31261        0.24333        0.26181        0.24136        0.29203        0.28649        0.37759        0.28528        0.26070        0.26923        0.24341        0.21435        0.18965        0.23985        0.20326        0.19658        0.17078        0.19511        0.24820        0.21298        0.24121        0.20062        0.24006        0.21888        0.21415        0.18332        0.15817        0.18841        0.24244        0.14622        0.06431        0.21717        0.17734        0.12269        0.23333        0.15531        0.22209        0.18846       -0.08336       -0.52912       -0.93451
2.865727 2.837463 2.809346 2.781374 2.753548 2.725867 2.698332 2.670943 2.643699 2.616601 2.589648 2.562841 2.536180 2.509664 2.483295 2.457070 2.430991 2.405058 2.379270 2.353629 2.328132 2.302781 2.277576 2.252517 2.227603 2.202835 2.178212 2.153735 2.129404 2.105218 2.081178 2.057283 2.033534 2.009931 1.986473 1.963161 1.939995 1.916974 1.894099 1.871369 1.848785 1.826347 1.804054 1.781907 1.759905 1.738049 1.716339 1.694774 1.673355 1.652082 1.630954 1.928621 2.273838 1.701266 1.741330 1.385779 0.942957 1.206505 1.034836 1.082058 1.031087 1.502625 1.520107 1.544884 1.281190 0.947896 0.825417 1.018923 0.717138 0.490731 0.596367 0.680798 0.420752 0.491980 0.330215 0.365336 0.255465 0.160037 -0.035494 0.009987 0.033052 0.078384 0.044791 0.088299 -0.043736 0.029555 0.109386 0.227534 0.282903 0.217074 0.333858 0.563489 0.446215 0.731298 0.808111 0.885192 0.908586 1.122388 1.144045 1.181676 1.328904 1.231432 1.380262 1.195517 1.111920 1.315770 1.129149 1.058261 1.132361 0.887972 0.732963 0.674889 0.670810 0.474104 0.392514 0.269240 0.214979 0.097684 -0.010779 0.097805 0.023994 -0.066119 0.114792 0.260591 0.309427 0.462968 0.481578 0.549980 0.715436 0.816481 0.652313 0.960413 0.806435 0.649702 0.767355 0.786269 0.708601 0.641362 0.442730 0.502037 0.285524 0.175914 0.136594 0.004629 -0.017450 -0.110556 -0.019894 0.006997 0.084588 -0.046200 0.252987 0.102753 0.202250 0.372644 0.423979 0.528569 0.423399 0.562519 0.668778 0.508112 0.386139 0.329457 0.319284 0.144667 0.128390 0.013313 0.094670 0.012174 0.002886 -0.034922 -0.115022 -0.015981 0.014517 0.101103 0.285177 0.208141 0.350421 0.373213 0.428323 0.402285 0.411979 0.342142 0.227244 0.309949 0.167918 0.162183 -0.000019 0.058443 0.068182 -0.016822 0.000434 0.009722 0.062180 0.077992 0.232925 0.298132 0.243133 0.211399 0.379861 0.386694 0.358222 0.250943 0.170390 0.143278 0.087147 0.075600 0.033578 0.023284 0.134217 0.055108 0.183434 0.085662 0.125885 0.223097 0.218373 0.215166 0.200647 0.196204 0.112608 0.167506 0.124028 0.097988 0.120957 -0.009898 0.027714 0.082589 0.046702 0.147892 0.108327 0.209184 0.192960 0.126546 0.135931 0.218314 0.122017 0.063691 0.093545 0.063193 -0.001383 -0.018167 0.063486 0.071884 0.042249 0.116203 0.111716 0.126083 0.148612 0.165250 0.135589 0.095849 0.109362 0.092041 0.021484 0.012224 0.039970 0.009631 0.078593 0.112260 0.075899 0.059083 0.132907 0.120266 0.024536 0.118404 0.024559 0.020649 0.035528 0.009501 0.006260 0.070444 0.087461 0.016578 0.104359 0.072910 0.011526 0.117219 0.063702 0.084257 0.097210 0.023980 -0.012615 -0.021771 0.032128 -0.000263 0.068224 0.090370 0.093871 0.058328 0.134844 -0.017049 0.058628 -0.105275 -0.041472 -0.008598 0.015252 0.013557 0.011119 0.095308 0.054651 0.112187 -0.026436 -0.054614 -0.100164 -0.077565 0.070898 0.018929 0.034429 -0.023554 -0.016975 -0.034093 0.055818 -0.017553 -0.072099 -0.017596 -0.102205 0.019405 -0.045898 0.003968 0.058570 -0.015763 -0.105171 -0.021190 0.033094 0.020192 -0.048431 -0.000941 -0.069362 0.098531 0.063272 0.165118 0.026816 -0.001290 0.040512 0.027061 -0.054226 -0.023138 0.051365 -0.018456 -0.042942 -0.049408 -0.025387 0.110480 -0.043827 0.106602 0.007409 0.118981 0.002318 0.102846 -0.046004 -0.008808 -0.025134 0.153868 0.006511 0.009080 0.304326 0.241882 0.175389 0.388423 0.225150 0.281665 0.279667 -0.113341 -1.308161
0.072396 0.072834 0.074149 0.076340 0.079407 0.083348 0.088164 0.093853 0.100414 0.107843 0.116140 0.125300 0.135321 0.146197 0.157924 0.170494 0.183901 0.198135 0.213186 0.229042 0.245690 0.263114 0.281295 0.300215 0.319850 0.340175 0.361162 0.382780 0.404994 0.427766 0.451054 0.474813 0.498992 0.523538 0.548392 0.573491 0.598767 0.624147 0.649553 0.674902 0.700107 0.725074 0.749703 0.773893 0.797534 0.820511 0.842708 0.864000 0.884260 0.903356 0.921154 0.937514 0.952297 0.965360 0.976556 0.985743 0.992775 0.997507 0.999798 0.999510 0.996507 0.990660 0.981847 0.969953 0.954872 0.936510 0.914786 0.889629 0.860988 0.828827 0.793127 0.753893 0.711147 0.664938 0.615338 0.562445 0.506384 0.447308 0.385400 0.320873 0.253969 0.184962 0.114157 0.041889 0.031479 0.105551 0.179905 0.254095 0.327647 0.400068 0.470846 0.539452 0.605347 0.667984 0.726812 0.781285 0.830861 0.875013 0.913234 0.945041 0.969984 0.987653 0.997682 0.999758 0.993629 0.979105 0.956071 0.924489 0.884404 0.835949 0.779348 0.714920 0.643083 0.564350 0.479333 0.388742 0.293377 0.194130 0.091974 0.012040 0.116797 0.221124 0.323805 0.423593 0.519229 0.609450 0.693015 0.768721 0.835418 0.892035 0.937592 0.971227 0.992211 0.999964 0.994078 0.974326 0.940678 0.893311 0.832617 0.759207 0.673913 0.577786 0.472085 0.358272 0.237994 0.113063 0.014569 0.142832 0.269577 0.392607 0.509715 0.618728 0.717544 0.804181 0.876816 0.933834 0.973860 0.995807 0.998904 0.982731 0.947238 0.892767 0.820058 0.730257 0.624902 0.505906 0.375542 0.236392 0.091314 0.056615 0.204167 0.348019 0.484842 0.611366 0.724472 0.821268 0.899170 0.955982 0.989962 0.999887 0.985104 0.945570 0.881877 0.795260 0.687591 0.561350 0.419584 0.265845 0.104105 0.061332 0.225946 0.385119 0.534266 0.668968 0.785113 0.879027 0.947599 0.988400 0.999777 0.980939 0.932003 0.854033 0.749032 0.619912 0.470434 0.305113 0.129089 0.052011 0.232257 0.405605 0.566095 0.708069 0.826375 0.916562 0.975070 0.999379 0.988143 0.941271 0.859976 0.746771 0.605411 0.440804 0.258845 0.066232 0.129778 0.321629 0.501760 0.662905 0.798401 0.902463 0.970465 0.999157 0.986844 0.933507 0.840854 0.712297 0.552863 0.369011 0.168409 0.040382 0.248256 0.445958 0.624498 0.775568 0.891939 0.967840 0.999257 0.984182 0.922759 0.817342 0.672445 0.494581 0.292002 0.074339 0.147840 0.363529 0.561834 0.732529 0.866594 0.956722 0.997742 0.986950 0.924317 0.812567 0.657097 0.465769 0.248533 0.016950 0.216419 0.438670 0.637287 0.800843 0.919699 0.986583 0.997085 0.949981 0.847389 0.694730 0.500486 0.275776 0.033751 0.211162 0.444093 0.650651 0.817810 0.934778 0.993707 0.990279 0.924065 0.798639 0.621457 0.403456 0.158433 0.097805 0.348441 0.576739 0.767182 0.906542 0.984845 0.996129 0.938947 0.816578 0.636909 0.411982 0.157238 0.109500 0.369257 0.603259 0.794287 0.927981 0.993975 0.986736 0.906102 0.757406 0.551207 0.302590 0.030125 0.245495 0.503001 0.722206 0.885599 0.979799 0.996704 0.934250 0.796715 0.594505 0.343444 0.063590 0.222320 0.490704 0.719084 0.887985 0.982658 0.994417 0.921523 0.769466 0.550654 0.283469 0.009202 0.301914 0.568819 0.786006 0.933644 0.997867 0.972151 0.858058 0.665251 0.410774 0.117625 0.187272 0.475510 0.719848 0.896810 0.988995 0.986877 0.889869 0.706558 0.454053 0.156470 0.157299 0.456363 0.710869 0.895004
1.000000 1.000000 1.000000 1.000000 1.000000 1.000000 1.000000 1.000000 1.000000 1.000000 1.000000 1.000000 1.000000 1.000000 1.000000 1.000000 1.000000 1.000000 1.000000 1.000000 1.000000 1.000000 1.000000 1.000000 1.000000 1.000000 1.000000 1.000000 1.000000 1.000000 1.000000 1.000000 1.000000 1.000000 1.000000 1.000000 1.000000 1.000000 1.000000 1.000000 1.000000 1.000000 1.000000 1.000000 1.000000 1.000000 1.000000 1.000000 1.000000 1.000000 1.000000 1.000000 0.833583 0.833583 0.833583 0.833583 0.833583 0.833583 0.833583 0.815776 0.815776 0.815776 0.815776 0.815776 0.815776 0.815776 0.815776 0.815776 0.815776 0.815776 0.815776 0.815776 0.815776 0.815776 0.815776 0.815776 0.815776 0.815776 0.815776 0.815776 0.815776 0.815776 0.815776 0.815776 0.815776 0.815776 0.815776 0.815776 0.815776 0.815776 0.815776 0.815776 0.815776 0.815776 0.815776 0.815776 0.815776 0.815776 0.815776 0.815776 0.815776 0.815776 0.815776 0.955055 0.955679 0.952788 0.951717 0.950076 0.946685 0.942457 0.942010 0.943352 0.943559 0.944175 0.945504 0.946473 0.948059 0.949038 0.949835 0.950628 0.958730 0.962433 0.962163 0.961888 0.952820 0.959654 0.957629 0.955307 0.956051 0.956325 0.957016 0.956908 0.956754 0.956282 0.954904 0.955601 0.955430 0.954694 0.953661 0.951573 0.951520 0.951088 0.951231 0.952199 0.952911 0.953697 0.954220 0.954213 0.954380 0.954373 0.954280 0.949547 0.949562 0.942691 0.943198 0.944249 0.943867 0.942832 0.941369 0.941437 0.941334 0.941285 0.941139 0.941347 0.923795 0.923863 0.923889 0.924724 0.919439 0.908999 0.901936 0.896441 0.897504 0.901574 0.906172 0.906465 0.902946 0.902093 0.884827 0.881863 0.865914 0.862433 0.853228 0.863124 0.865016 0.866556 0.860977 0.859909 0.858254 0.855522 0.841625 0.846208 0.846536 0.842643 0.839139 0.837059 0.834367 0.836422 0.845106 0.840094 0.837487 0.839361 0.828282 0.817044 0.815619 0.817834 0.826455 0.838411 0.836739 0.835834 0.828719 0.824608 0.817603 0.811695 0.812638 0.814796 0.811641 0.815548 0.816381 0.825894 0.815217 0.808593 0.813710 0.825250 0.829936 0.831128 0.831991 0.828965 0.831641 0.809357 0.810084 0.811963 0.773908 0.775533 0.766080 0.764859 0.763114 0.764155 0.761159 0.756655 0.750846 0.729969 0.743353 0.751433 0.721213 0.728210 0.721790 0.712800 0.687958 0.690987 0.701932 0.711634 0.713103 0.720580 0.710816 0.711196 0.720855 0.720423 0.726281 0.721144 0.715571 0.711512 0.713985 0.707767 0.693690 0.690107 0.689739 0.688925 0.684730 0.667475 0.677568 0.663079 0.650848 0.639504 0.599385 0.578452 0.566202 0.555122 0.536993 0.514037 0.527697 0.530210 0.520402 0.510638 0.488372 0.447939 0.428557 0.427188 0.409564 0.402286 0.383571 0.334290 0.346292 0.335832 0.336555 0.314644 0.303008 0.283295 0.217719 0.217723 0.173784 0.197909 0.207969 0.201633 0.183890 0.173617 0.205356 0.214436 0.228624 0.226728 0.246983 0.208632 0.147741 0.171527 0.166903 0.175557 0.160276 0.123502 0.151596 0.148088 0.159169 0.165127 0.118241 0.088786 0.064100 0.059181 0.069054 0.090884 0.105456 0.094040 0.077303 -0.012934 0.019316 0.045653 0.045653 0.045653 0.045653 0.045653 0.045653 0.045653 0.045653 0.045653 0.045653 0.045653 -0.010722 -0.010722 -0.010722 -0.010722 -0.010722 -0.010722 -0.010722 -0.010722 -0.010722 -0.010722 -0.010722 -0.010722 -0.010722 -0.010722 -0.010722 -0.010722 -0.010722 -0.010722 -0.010722
0.000000 0.000000 0.000000 0.000000 0.000000 0.000000 0.000000 0.000000 0.000000 0.000000 0.000000 0.000000 0.000000 0.000000 0.000000 0.000000 0.000000 0.000000 0.000000 0.000000 0.000000 0.000000 0.000000 0.000000 0.000000 0.000000 0.000000 0.000000 0.000000 0.000000 0.000000 0.000000 0.000000 0.000000 0.000000 0.000000 0.000000 0.000000 0.000000 0.000000 0.000000 0.000000 0.000000 0.000000 0.000000 0.000000 0.000000 0.000000 0.000000 0.000000 0.000000 0.000000 0.173422 0.173422 0.173422 0.173422 0.173422 0.173422 0.173422 0.191565 0.191565 0.191565 0.191565 0.191565 0.191565 0.191565 0.191565 0.191565 0.191565 0.191565 0.191565 0.191565 0.191565 0.191565 0.191565 0.191565 0.191565 0.191565 0.191565 0.191565 0.191565 0.191565 0.191565 0.191565 0.191565 0.191565 0.191565 0.191565 0.191565 0.191565 0.191565 0.191565 0.191565 0.191565 0.191565 0.191565 0.191565 0.191565 0.191565 0.191565 0.191565 0.191565 0.191565 0.219529 0.219529 0.219529 0.219529 0.219529 0.219529 0.219529 0.219529 0.219529 0.219529 0.219529 0.219529 0.219529 0.219529 0.219529 0.219529 0.219529 0.219529 0.219529 0.219529 0.219529 0.219529 0.219529 0.219529 0.219529 0.219529 0.219529 0.219529 0.219529 0.219529 0.219529 0.237356 0.237356 0.237356 0.237356 0.237356 0.237356 0.237356 0.237356 0.237356 0.237356 0.237356 0.237356 0.237356 0.237356 0.237356 0.237356 0.237356 0.237356 0.237356 0.237356 0.237356 0.237356 0.237356 0.237356 0.244339 0.244339 0.244339 0.244339 0.244339 0.244339 0.244339 0.244339 0.244339 0.244339 0.244339 0.244339 0.244339 0.244339 0.244339 0.244339 0.244339 0.244339 0.244339 0.244339 0.244339 0.248069 0.248069 0.248069 0.248069 0.248069 0.248069 0.248069 0.248069 0.248069 0.248069 0.248069 0.248069 0.248069 0.248069 0.248069 0.248069 0.248069 0.248069 0.248069 0.248069 0.248069 0.248069 0.248069 0.248069 0.248069 0.248069 0.248069 0.248069 0.248069 0.248069 0.248069 0.248069 0.248069 0.248069 0.248069 0.248069 0.248069 0.256074 0.256074 0.256074 0.256074 0.256074 0.256074 0.256074 0.256074 0.256074 0.256074 0.256074 0.256074 0.256074 0.256074 0.256074 0.256074 0.256074 0.256074 0.256074 0.256074 0.256074 0.256074 0.256074 0.256074 0.256074 0.256074 0.256074 0.256074 0.256074 0.256074 0.256074 0.256074 0.256074 0.256074 0.256074 0.256074 0.256074 0.256074 0.256074 0.256074 0.256074 0.256074 0.256074 0.256074 0.256074 0.260378 0.260378 0.260378 0.260378 0.260378 0.260378 0.260378 0.260378 0.260378 0.260378 0.260378 0.260378 0.260378 0.256074 0.256074 0.256074 0.256074 0.256074 0.256074 0.256074 0.256074 0.256074 0.256074 0.256074 0.256074 0.256074 0.260378 0.260378 0.260378 0.260378 0.260378 0.260378 0.260378 0.260378 0.260378 0.260378 0.260378 0.260378 0.251976 0.251976 0.251976 0.251976 0.251976 0.251976 0.251976 0.251976 0.251976 0.251976 0.251976 0.251976 0.256074 0.256074 0.256074 0.256074 0.256074 0.256074 0.256074 0.256074 0.256074 0.256074 0.256074 0.251976 0.251976 0.251976 0.251976 0.251976 0.251976 0.251976 0.251976 0.251976 0.251976 0.251976 0.248069 0.248069 0.248069 0.248069 0.248069 0.248069 0.248069 0.248069 0.248069 0.248069 0.248069 0.256074 0.256074 0.256074 0.256074 0.256074 0.256074 0.256074 0.256074 0.256074 0.256074 0.256074 0.256074 0.256074 0.256074 0.256074 0.256074 0.256074 0.256074 0.256074
