# Output from CTFFind version 4.1.9, run on 2019-11-02 17:45:34
# Input file: stack1_bm3d_averaged_1_0.5_0_1000_half.mrc ; Number of micrographs: 1
# Pixel size: 3.000 Angstroms ; acceleration voltage: 300.0 keV ; spherical aberration: 0.00 mm ; amplitude contrast: 0.07
# Box size: 512 pixels ; min. res.: 30.0 Angstroms ; max. res.: 5.0 Angstroms ; min. def.: 5000.0 um; max. def. 50000.0 um; num. frames averaged: 1
# 6 lines per micrograph: #1 - spatial frequency (1/Angstroms); #2 - 1D rotational average of spectrum (assuming no astigmatism); #3 - 1D rotational average of spectrum; #4 - CTF fit; #5 - cross-correlation between spectrum and CTF fit; #6 - 2sigma of expected cross correlation of noise
0.000000 0.000651 0.001302 0.001953 0.002604 0.003255 0.003906 0.004557 0.005208 0.005859 0.006510 0.007161 0.007812 0.008464 0.009115 0.009766 0.010417 0.011068 0.011719 0.012370 0.013021 0.013672 0.014323 0.014974 0.015625 0.016276 0.016927 0.017578 0.018229 0.018880 0.019531 0.020182 0.020833 0.021484 0.022135 0.022786 0.023438 0.024089 0.024740 0.025391 0.026042 0.026693 0.027344 0.027995 0.028646 0.029297 0.029948 0.030599 0.031250 0.031901 0.032552 0.033203 0.033854 0.034505 0.035156 0.035807 0.036458 0.037109 0.037760 0.038411 0.039062 0.039714 0.040365 0.041016 0.041667 0.042318 0.042969 0.043620 0.044271 0.044922 0.045573 0.046224 0.046875 0.047526 0.048177 0.048828 0.049479 0.050130 0.050781 0.051432 0.052083 0.052734 0.053385 0.054036 0.054688 0.055339 0.055990 0.056641 0.057292 0.057943 0.058594 0.059245 0.059896 0.060547 0.061198 0.061849 0.062500 0.063151 0.063802 0.064453 0.065104 0.065755 0.066406 0.067057 0.067708 0.068359 0.069010 0.069661 0.070312 0.070964 0.071615 0.072266 0.072917 0.073568 0.074219 0.074870 0.075521 0.076172 0.076823 0.077474 0.078125 0.078776 0.079427 0.080078 0.080729 0.081380 0.082031 0.082682 0.083333 0.083984 0.084635 0.085286 0.085938 0.086589 0.087240 0.087891 0.088542 0.089193 0.089844 0.090495 0.091146 0.091797 0.092448 0.093099 0.093750 0.094401 0.095052 0.095703 0.096354 0.097005 0.097656 0.098307 0.098958 0.099609 0.100260 0.100911 0.101562 0.102214 0.102865 0.103516 0.104167 0.104818 0.105469 0.106120 0.106771 0.107422 0.108073 0.108724 0.109375 0.110026 0.110677 0.111328 0.111979 0.112630 0.113281 0.113932 0.114583 0.115234 0.115885 0.116536 0.117188 0.117839 0.118490 0.119141 0.119792 0.120443 0.121094 0.121745 0.122396 0.123047 0.123698 0.124349 0.125000 0.125651 0.126302 0.126953 0.127604 0.128255 0.128906 0.129557 0.130208 0.130859 0.131510 0.132161 0.132812 0.133464 0.134115 0.134766 0.135417 0.136068 0.136719 0.137370 0.138021 0.138672 0.139323 0.139974 0.140625 0.141276 0.141927 0.142578 0.143229 0.143880 0.144531 0.145182 0.145833 0.146484 0.147135 0.147786 0.148438 0.149089 0.149740 0.150391 0.151042 0.151693 0.152344 0.152995 0.153646 0.154297 0.154948 0.155599 0.156250 0.156901 0.157552 0.158203 0.158854 0.159505 0.160156 0.160807 0.161458 0.162109 0.162760 0.163411 0.164062 0.164714 0.165365 0.166016 0.166667 0.167318 0.167969 0.168620 0.169271 0.169922 0.170573 0.171224 0.171875 0.172526 0.173177 0.173828 0.174479 0.175130 0.175781 0.176432 0.177083 0.177734 0.178385 0.179036 0.179688 0.180339 0.180990 0.181641 0.182292 0.182943 0.183594 0.184245 0.184896 0.185547 0.186198 0.186849 0.187500 0.188151 0.188802 0.189453 0.190104 0.190755 0.191406 0.192057 0.192708 0.193359 0.194010 0.194661 0.195312 0.195964 0.196615 0.197266 0.197917 0.198568 0.199219 0.199870 0.200521 0.201172 0.201823 0.202474 0.203125 0.203776 0.204427 0.205078 0.205729 0.206380 0.207031 0.207682 0.208333 0.208984 0.209635 0.210286 0.210938 0.211589 0.212240 0.212891 0.213542 0.214193 0.214844 0.215495 0.216146 0.216797 0.217448 0.218099 0.218750 0.219401 0.220052 0.220703 0.221354 0.222005 0.222656 0.223307 0.223958 0.224609 0.225260 0.225911 0.226562 0.227214 0.227865 0.228516 0.229167 0.229818 0.230469 0.231120 0.231771 0.232422 0.233073 0.233724 0.234375 0.235026 0.235677
       0.33215        0.33215        0.33215        0.33215        0.33215        0.33215        0.33215        0.33215        0.33215        0.33215        0.33215        0.33215        0.33215        0.33215        0.33215        0.33215        0.33215        0.33215        0.33215        0.33215        0.33215        0.33215        0.33215        0.33215        0.33215        0.33215        0.33215        0.33215        0.33215        0.33215        0.33215        0.33215        0.33215        0.33215        0.33215        0.33215        0.33215        0.33215        0.33215        0.33215        0.33215        0.33215        0.33214        0.33215        0.33215        0.33215        0.33215        0.33214        0.33214        0.33215        0.33215        0.50236        0.71919        0.42840        0.18970       -0.08108       -0.26273       -0.06987       -0.13433       -0.05377       -0.00342       -0.14820       -0.09301       -0.05327       -0.00461       -0.15292       -0.22242       -0.34753       -0.46312       -0.55876       -0.51836       -0.44844       -0.37248       -0.54828       -0.45182       -0.62228       -0.50426       -0.47565       -0.39052       -0.38637       -0.34066       -0.25215       -0.16188       -0.13694        0.03200       -0.01280        0.11774        0.16712        0.30419        0.40977        0.46338        0.49847        0.54053        0.54996        0.69104        0.64490        0.67596        0.59113        0.55623        0.65414        0.52782        0.42644        0.38218        0.31998        0.22741        0.26156        0.25012        0.10699        0.08240       -0.00032       -0.00692        0.03604       -0.00479        0.07327        0.09926        0.23067        0.28356        0.30067        0.37915        0.56123        0.53554        0.57740        0.66886        0.70074        0.62939        0.63425        0.63176        0.55487        0.57453        0.39759        0.34375        0.26536        0.18377        0.07113        0.14352        0.11815        0.09053        0.10578        0.20903        0.21360        0.31638        0.35879        0.41205        0.49110        0.58273        0.54108        0.55383        0.60742        0.53737        0.46015        0.47920        0.32394        0.24944        0.25800        0.24134        0.14129        0.14219        0.15046        0.21804        0.24530        0.32911        0.36437        0.39097        0.46760        0.44616        0.47867        0.45391        0.46677        0.44512        0.40622        0.38300        0.35209        0.31031        0.28654        0.20453        0.19550        0.21947        0.26931        0.26735        0.34950        0.37406        0.35711        0.41054        0.45294        0.44554        0.42366        0.43884        0.37210        0.33317        0.28177        0.26237        0.28954        0.26851        0.29317        0.29991        0.34738        0.34207        0.39570        0.40245        0.42593        0.40949        0.43018        0.40285        0.36384        0.28174        0.29096        0.30629        0.27097        0.25427        0.32644        0.36845        0.34129        0.35335        0.35857        0.35415        0.40842        0.40095        0.36013        0.33765        0.30827        0.30916        0.31618        0.31698        0.30035        0.28547        0.33524        0.35889        0.37734        0.33271        0.32974        0.33411        0.34474        0.30595        0.28272        0.30645        0.31408        0.33637        0.31945        0.33008        0.35769        0.32838        0.31144        0.32695        0.30218        0.26400        0.25123        0.26552        0.30701        0.32138        0.35108        0.30155        0.31278        0.33401        0.29240        0.31418        0.28511        0.28093        0.29109        0.29725        0.30818        0.34245        0.32611        0.32941        0.33593        0.31080        0.33279        0.31883        0.31912        0.30842        0.28196        0.29152        0.31040        0.29061        0.32499        0.33635        0.33501        0.32059        0.33972        0.31761        0.27753        0.25225        0.26899        0.33014        0.35659        0.34340        0.31507        0.29303        0.29750        0.31288        0.24796        0.29863        0.30587        0.33120        0.29810        0.31487        0.28621        0.33600        0.34031        0.34248        0.32004        0.29195        0.31481        0.39765        0.32839        0.31168        0.30852        0.28838        0.28397        0.29826        0.26567        0.31267        0.23720        0.27441        0.29624        0.31446        0.29443        0.27086        0.29776        0.23488        0.22311        0.26139        0.30119        0.30487        0.27485        0.28454        0.33106        0.25776        0.21584        0.30827        0.27341        0.25601        0.28307        0.39398        0.29391        0.28590        0.24582        0.25307        0.26839        0.24254        0.23427        0.17339        0.25694        0.23156        0.24784        0.31605        0.26947        0.35021        0.28597        0.23835        0.22476        0.21093        0.23613        0.30375        0.22893        0.13077        0.16687        0.24102        0.24866        0.31919        0.28484        0.02799       -0.43578       -0.91479
2.690897 2.662479 2.634213 2.606100 2.578139 2.550331 2.522675 2.495172 2.467821 2.440622 2.413576 2.386683 2.359941 2.333353 2.306916 2.280632 2.254501 2.228522 2.202695 2.177021 2.151499 2.126130 2.100913 2.075849 2.050937 2.026177 2.001570 1.977116 1.952813 1.928664 1.904666 1.880821 1.857129 1.833589 1.810201 1.786966 1.763883 1.740953 1.718175 1.695550 1.673077 1.650756 1.628588 1.606572 1.584709 1.562998 1.541440 1.520034 1.498780 1.477679 1.456731 1.526937 1.829208 1.512866 1.193942 0.940418 0.545078 0.910768 0.633169 0.874771 0.926115 0.590061 0.710226 0.779071 0.817311 0.630036 0.536077 0.347864 0.103884 0.080905 0.044569 0.084662 0.301981 -0.034747 0.080993 -0.134069 -0.012177 -0.018034 0.084766 0.060234 0.102141 0.176209 0.282219 0.251277 0.483214 0.397224 0.548041 0.526279 0.767140 0.788193 0.879619 0.921876 0.940017 0.943483 1.111134 0.941886 1.138411 0.946235 0.851516 1.015260 0.847926 0.758204 0.615526 0.594207 0.455920 0.415321 0.509043 0.265919 0.197819 0.158171 0.012868 0.207990 -0.003707 0.119382 0.181167 0.258794 0.332097 0.346554 0.423174 0.539197 0.662305 0.539706 0.737522 0.863564 0.638336 0.694819 0.665340 0.594483 0.537154 0.464720 0.297205 0.214010 0.116642 -0.042055 -0.021170 0.058208 -0.097924 -0.058066 0.049416 0.054908 0.112046 0.221233 0.238362 0.307114 0.432973 0.442419 0.437213 0.480355 0.445448 0.326031 0.332775 0.241372 0.051097 0.062842 0.018247 -0.047130 -0.098695 -0.100814 -0.015527 -0.053095 0.071469 0.122860 0.120863 0.261726 0.230070 0.243805 0.290671 0.245317 0.240603 0.212028 0.173298 0.110174 0.102279 0.027045 0.008727 -0.117784 -0.053411 0.000354 0.003938 0.020304 0.098233 0.084471 0.128910 0.192596 0.254652 0.175649 0.183351 0.108848 0.137362 0.020032 -0.031812 0.020910 -0.021997 0.001896 -0.006203 0.034771 0.081060 0.053703 0.151331 0.101219 0.163557 0.062914 0.144768 0.093626 -0.010705 -0.062385 -0.015192 -0.037218 -0.074317 -0.067815 0.051654 0.057598 -0.008156 0.047553 0.061589 0.072638 0.143672 0.065717 0.061099 0.046067 -0.027163 0.023360 0.001568 0.011473 0.002723 -0.008624 0.039903 0.061303 0.068451 0.029208 0.044520 0.019667 0.056984 -0.011804 -0.018181 0.021253 0.007552 0.060111 0.035060 0.041013 0.056590 0.042390 0.016025 0.029100 -0.002840 -0.047721 -0.032780 -0.027960 0.023647 0.038560 0.095736 -0.005028 0.052666 0.059952 -0.008816 0.062523 0.010085 0.009532 0.037312 0.052327 0.037043 0.093241 0.055210 0.070251 0.090851 0.058915 0.065489 0.065390 0.083729 0.032243 -0.006510 0.045152 0.040505 0.047094 0.067014 0.086517 0.012727 0.060719 0.072505 0.006602 0.006503 -0.065458 -0.026566 0.108247 0.076038 0.044141 0.043080 -0.028185 0.047445 0.022155 -0.066738 0.049826 0.035976 0.066015 0.032910 0.008009 0.005034 0.056898 0.041719 0.014560 0.037005 -0.037724 0.063049 0.118100 0.005059 -0.009315 -0.002003 -0.005409 -0.033292 -0.022845 -0.055065 -0.001670 -0.093387 -0.020131 -0.033832 0.023125 -0.036544 -0.054853 0.030256 -0.079914 -0.057946 -0.077457 0.048270 0.010433 0.003309 -0.007516 0.069120 -0.022925 -0.068232 0.056327 -0.004193 0.013490 0.011887 0.199848 -0.019589 0.025252 0.001210 -0.001555 -0.000215 -0.028166 -0.015297 -0.151711 0.022160 -0.036566 0.004688 0.024014 0.001807 0.121880 0.002766 -0.020489 -0.047155 -0.031176 -0.066170 0.061521 0.273426 0.154257 0.212723 0.237150 0.334397 0.349427 0.342524 0.035187 -1.070570
0.072396 0.072910 0.074452 0.077021 0.080618 0.085240 0.090887 0.097556 0.105247 0.113955 0.123677 0.134409 0.146145 0.158878 0.172600 0.187301 0.202969 0.219592 0.237152 0.255632 0.275010 0.295262 0.316359 0.338272 0.360964 0.384396 0.408524 0.433299 0.458667 0.484568 0.510938 0.537704 0.564790 0.592112 0.619578 0.647092 0.674549 0.701838 0.728840 0.755429 0.781472 0.806829 0.831353 0.854892 0.877286 0.898370 0.917974 0.935923 0.952038 0.966138 0.978039 0.987558 0.994511 0.998714 0.999990 0.998164 0.993069 0.984545 0.972444 0.956628 0.936975 0.913381 0.885758 0.854042 0.818190 0.778188 0.734049 0.685815 0.633564 0.577406 0.517489 0.454000 0.387165 0.317250 0.244566 0.169463 0.092335 0.013617 0.066213 0.146641 0.227113 0.307042 0.385810 0.462771 0.537258 0.608585 0.676060 0.738982 0.796657 0.848403 0.893558 0.931490 0.961606 0.983364 0.996279 0.999938 0.994006 0.978237 0.952486 0.916712 0.870992 0.815523 0.750630 0.676772 0.594538 0.504655 0.407983 0.305510 0.198349 0.087729 0.025017 0.138466 0.251118 0.361419 0.467777 0.568589 0.662263 0.747249 0.822060 0.885309 0.935731 0.972218 0.993841 0.999884 0.989862 0.963548 0.920988 0.862518 0.788773 0.700691 0.599510 0.486765 0.364266 0.234085 0.098518 0.039941 0.178647 0.314853 0.445760 0.568577 0.680583 0.779189 0.862007 0.926909 0.972094 0.996143 0.998072 0.977380 0.934077 0.868718 0.782404 0.676792 0.554069 0.416928 0.268514 0.112369 0.047649 0.207455 0.362834 0.509561 0.643507 0.760770 0.857791 0.931475 0.979298 0.999412 0.990725 0.952968 0.886738 0.793518 0.675664 0.536369 0.379601 0.209993 0.032735 0.146586 0.322154 0.488110 0.638751 0.768730 0.873265 0.948322 0.990791 0.998633 0.971000 0.908305 0.812262 0.685866 0.533333 0.359981 0.172069 0.023416 0.219007 0.407036 0.579935 0.730546 0.852434 0.940179 0.989639 0.998169 0.964793 0.890298 0.777269 0.630033 0.454533 0.258113 0.049240 0.162851 0.368552 0.558313 0.723103 0.854842 0.946831 0.994116 0.993788 0.945194 0.850046 0.712410 0.538577 0.336822 0.117032 0.109747 0.331855 0.537611 0.715935 0.856967 0.952633 0.997146 0.987399 0.923214 0.807448 0.645928 0.447198 0.222123 0.016677 0.255512 0.480396 0.677874 0.835840 0.944307 0.996090 0.987319 0.917782 0.791044 0.614331 0.398179 0.155857 0.097419 0.345407 0.571884 0.761718 0.901901 0.982488 0.997349 0.944702 0.827348 0.652612 0.431949 0.180254 0.085089 0.345395 0.581977 0.777503 0.917298 0.990498 0.990947 0.917793 0.775689 0.574580 0.329100 0.057543 0.219429 0.480359 0.704652 0.874220 0.975008 0.998205 0.941107 0.807482 0.607428 0.356704 0.075553 0.212876 0.484410 0.715888 0.887147 0.982862 0.993968 0.918620 0.762533 0.538646 0.266163 0.031034 0.326424 0.593200 0.806714 0.946800 0.999757 0.959779 0.829689 0.620871 0.352392 0.049350 0.259416 0.544031 0.776495 0.933467 0.998704 0.964825 0.834270 0.619266 0.340805 0.026706 0.291108 0.579821 0.809128 0.954462 0.999729 0.939195 0.778326 0.533462 0.230262 0.098859 0.418163 0.692434 0.890898 0.990769 0.979960 0.858688 0.639705 0.347121 0.013854 0.321983 0.621403 0.849096 0.977664 0.991029 0.886589 0.675805 0.383113 0.043229 0.302877 0.612877 0.848271 0.979256 0.988616 0.874134 0.649186 0.341342 0.010855 0.362627 0.668618 0.888762 0.993641 0.968536 0.815673 0.554267 0.218264 0.147897 0.495099 0.776117 0.952106 0.998088
1.000000 1.000000 1.000000 1.000000 1.000000 1.000000 1.000000 1.000000 1.000000 1.000000 1.000000 1.000000 1.000000 1.000000 1.000000 1.000000 1.000000 1.000000 1.000000 1.000000 1.000000 1.000000 1.000000 1.000000 1.000000 1.000000 1.000000 1.000000 1.000000 1.000000 1.000000 1.000000 1.000000 1.000000 1.000000 1.000000 1.000000 1.000000 1.000000 1.000000 1.000000 1.000000 1.000000 1.000000 1.000000 1.000000 1.000000 1.000000 1.000000 1.000000 1.000000 1.000000 0.918915 0.918915 0.905169 0.905169 0.905169 0.905169 0.905169 0.905169 0.905169 0.905169 0.905169 0.905169 0.905169 0.905169 0.905169 0.905169 0.905169 0.905169 0.905169 0.905169 0.905169 0.905169 0.905169 0.905169 0.905169 0.905169 0.905169 0.905169 0.905169 0.905169 0.905169 0.905169 0.905169 0.905169 0.905169 0.905169 0.905169 0.905169 0.905169 0.905169 0.905169 0.905169 0.905169 0.901039 0.905893 0.907785 0.906234 0.909789 0.909857 0.909145 0.909473 0.909124 0.909448 0.910840 0.921351 0.932380 0.943636 0.944162 0.949303 0.953713 0.956116 0.956996 0.958544 0.968486 0.967166 0.966666 0.967350 0.968806 0.970940 0.969648 0.969246 0.972412 0.973074 0.971457 0.969241 0.968637 0.968038 0.968140 0.967766 0.967653 0.967527 0.968033 0.968235 0.968395 0.968538 0.968589 0.969607 0.970761 0.973122 0.974101 0.973947 0.972861 0.970967 0.975001 0.975899 0.975630 0.975571 0.975093 0.975358 0.961625 0.957780 0.957700 0.954605 0.953673 0.950863 0.949373 0.947507 0.947716 0.946543 0.946523 0.942945 0.929525 0.915892 0.904962 0.925631 0.910493 0.899316 0.875153 0.875627 0.872097 0.872613 0.865104 0.859176 0.854346 0.851580 0.852987 0.849765 0.853628 0.850584 0.837434 0.840491 0.837229 0.808965 0.791565 0.776082 0.777227 0.774441 0.775532 0.775107 0.771281 0.779634 0.771746 0.770046 0.761808 0.742815 0.709260 0.695665 0.705996 0.715561 0.714153 0.710425 0.695340 0.663072 0.675938 0.696398 0.693161 0.695760 0.687150 0.680895 0.683493 0.683976 0.680247 0.672615 0.671743 0.671139 0.680010 0.684355 0.679658 0.670067 0.655542 0.643353 0.629851 0.643707 0.652117 0.619787 0.614021 0.602715 0.596240 0.582974 0.550970 0.551039 0.527942 0.517436 0.520819 0.523692 0.515285 0.522698 0.524014 0.508037 0.529570 0.537715 0.564025 0.546944 0.545531 0.546963 0.554432 0.539187 0.521576 0.515956 0.516843 0.528742 0.559212 0.600168 0.586914 0.574267 0.561481 0.575830 0.543495 0.552219 0.573085 0.550359 0.478437 0.429386 0.427107 0.386888 0.383241 0.372689 0.364995 0.369211 0.361166 0.349672 0.336070 0.324049 0.267999 0.228552 0.211349 0.189189 0.194971 0.209543 0.198353 0.190433 0.217236 0.264607 0.264099 0.255284 0.239341 0.244173 0.214980 0.228928 0.256640 0.211843 0.204652 0.196756 0.170098 0.168166 0.135342 0.156343 0.076769 0.053802 0.052979 0.068880 0.081411 0.078451 0.082034 0.054505 0.075387 0.070993 0.042270 0.031596 0.048453 0.036605 0.004973 0.013802 0.029967 0.017949 -0.003698 0.020517 0.034768 0.048460 0.039650 0.037830 0.094248 0.125515 0.112813 0.113758 0.105946 0.111282 0.086901 0.077702 0.066500 0.055263 0.005517 -0.023183 -0.023183 -0.017859 -0.017859 -0.017859 -0.017859 -0.017859 -0.017859 -0.017859 -0.017859 -0.017859 -0.021720 -0.021720 -0.021720 -0.021720 -0.021720 -0.021720 -0.021720 -0.021720 -0.021720 0.003453 0.003453 0.003453 0.003453 0.003453 0.003453 0.003453 0.003453 0.003453
0.000000 0.000000 0.000000 0.000000 0.000000 0.000000 0.000000 0.000000 0.000000 0.000000 0.000000 0.000000 0.000000 0.000000 0.000000 0.000000 0.000000 0.000000 0.000000 0.000000 0.000000 0.000000 0.000000 0.000000 0.000000 0.000000 0.000000 0.000000 0.000000 0.000000 0.000000 0.000000 0.000000 0.000000 0.000000 0.000000 0.000000 0.000000 0.000000 0.000000 0.000000 0.000000 0.000000 0.000000 0.000000 0.000000 0.000000 0.000000 0.000000 0.000000 0.000000 0.000000 0.181818 0.181818 0.199007 0.199007 0.199007 0.199007 0.199007 0.199007 0.199007 0.199007 0.199007 0.199007 0.199007 0.199007 0.199007 0.199007 0.199007 0.199007 0.199007 0.199007 0.199007 0.199007 0.199007 0.199007 0.199007 0.199007 0.199007 0.199007 0.199007 0.199007 0.199007 0.199007 0.199007 0.199007 0.199007 0.199007 0.199007 0.199007 0.199007 0.199007 0.199007 0.199007 0.199007 0.230940 0.230940 0.230940 0.230940 0.230940 0.230940 0.230940 0.230940 0.230940 0.230940 0.230940 0.230940 0.230940 0.230940 0.230940 0.230940 0.230940 0.230940 0.230940 0.230940 0.230940 0.230940 0.230940 0.230940 0.230940 0.230940 0.230940 0.230940 0.244339 0.244339 0.244339 0.244339 0.244339 0.244339 0.244339 0.244339 0.244339 0.244339 0.244339 0.244339 0.244339 0.244339 0.244339 0.244339 0.244339 0.244339 0.244339 0.244339 0.244339 0.244339 0.244339 0.251976 0.251976 0.251976 0.251976 0.251976 0.251976 0.251976 0.251976 0.251976 0.251976 0.251976 0.251976 0.251976 0.251976 0.251976 0.251976 0.251976 0.251976 0.251976 0.251976 0.264906 0.264906 0.264906 0.264906 0.264906 0.264906 0.264906 0.264906 0.264906 0.264906 0.264906 0.264906 0.264906 0.264906 0.264906 0.264906 0.264906 0.264906 0.264906 0.264906 0.264906 0.264906 0.264906 0.264906 0.264906 0.264906 0.264906 0.264906 0.264906 0.264906 0.264906 0.264906 0.264906 0.264906 0.264906 0.264906 0.264906 0.264906 0.264906 0.264906 0.264906 0.264906 0.264906 0.264906 0.264906 0.264906 0.264906 0.264906 0.264906 0.264906 0.264906 0.264906 0.264906 0.264906 0.264906 0.264906 0.264906 0.264906 0.264906 0.264906 0.264906 0.264906 0.264906 0.264906 0.264906 0.264906 0.264906 0.264906 0.264906 0.264906 0.264906 0.264906 0.264906 0.264906 0.264906 0.269680 0.269680 0.269680 0.269680 0.269680 0.269680 0.269680 0.269680 0.269680 0.269680 0.269680 0.269680 0.264906 0.264906 0.264906 0.264906 0.264906 0.264906 0.264906 0.264906 0.264906 0.264906 0.264906 0.264906 0.269680 0.269680 0.269680 0.269680 0.269680 0.269680 0.269680 0.269680 0.269680 0.269680 0.269680 0.264906 0.264906 0.264906 0.264906 0.264906 0.264906 0.264906 0.264906 0.264906 0.264906 0.264906 0.256074 0.256074 0.256074 0.256074 0.256074 0.256074 0.256074 0.256074 0.256074 0.256074 0.256074 0.264906 0.264906 0.264906 0.264906 0.264906 0.264906 0.264906 0.264906 0.264906 0.264906 0.269680 0.269680 0.269680 0.269680 0.269680 0.269680 0.269680 0.269680 0.269680 0.256074 0.256074 0.256074 0.256074 0.256074 0.256074 0.256074 0.256074 0.256074 0.256074 0.260378 0.260378 0.260378 0.260378 0.260378 0.260378 0.260378 0.260378 0.260378 0.256074 0.256074 0.256074 0.256074 0.256074 0.256074 0.256074 0.256074 0.256074 0.251976 0.251976 0.251976 0.251976 0.251976 0.251976 0.251976 0.251976 0.251976 0.264906 0.264906 0.264906 0.264906 0.264906 0.264906 0.264906 0.264906 0.264906
