# Output from CTFFind version 4.1.9, run on 2019-11-03 19:01:34
# Input file: stack11_bm3d_averaged_1_2.75_0_2500_half.mrc ; Number of micrographs: 1
# Pixel size: 3.000 Angstroms ; acceleration voltage: 300.0 keV ; spherical aberration: 0.00 mm ; amplitude contrast: 0.07
# Box size: 512 pixels ; min. res.: 30.0 Angstroms ; max. res.: 5.0 Angstroms ; min. def.: 5000.0 um; max. def. 50000.0 um; num. frames averaged: 1
# 6 lines per micrograph: #1 - spatial frequency (1/Angstroms); #2 - 1D rotational average of spectrum (assuming no astigmatism); #3 - 1D rotational average of spectrum; #4 - CTF fit; #5 - cross-correlation between spectrum and CTF fit; #6 - 2sigma of expected cross correlation of noise
0.000000 0.000651 0.001302 0.001953 0.002604 0.003255 0.003906 0.004557 0.005208 0.005859 0.006510 0.007161 0.007812 0.008464 0.009115 0.009766 0.010417 0.011068 0.011719 0.012370 0.013021 0.013672 0.014323 0.014974 0.015625 0.016276 0.016927 0.017578 0.018229 0.018880 0.019531 0.020182 0.020833 0.021484 0.022135 0.022786 0.023438 0.024089 0.024740 0.025391 0.026042 0.026693 0.027344 0.027995 0.028646 0.029297 0.029948 0.030599 0.031250 0.031901 0.032552 0.033203 0.033854 0.034505 0.035156 0.035807 0.036458 0.037109 0.037760 0.038411 0.039062 0.039714 0.040365 0.041016 0.041667 0.042318 0.042969 0.043620 0.044271 0.044922 0.045573 0.046224 0.046875 0.047526 0.048177 0.048828 0.049479 0.050130 0.050781 0.051432 0.052083 0.052734 0.053385 0.054036 0.054688 0.055339 0.055990 0.056641 0.057292 0.057943 0.058594 0.059245 0.059896 0.060547 0.061198 0.061849 0.062500 0.063151 0.063802 0.064453 0.065104 0.065755 0.066406 0.067057 0.067708 0.068359 0.069010 0.069661 0.070312 0.070964 0.071615 0.072266 0.072917 0.073568 0.074219 0.074870 0.075521 0.076172 0.076823 0.077474 0.078125 0.078776 0.079427 0.080078 0.080729 0.081380 0.082031 0.082682 0.083333 0.083984 0.084635 0.085286 0.085938 0.086589 0.087240 0.087891 0.088542 0.089193 0.089844 0.090495 0.091146 0.091797 0.092448 0.093099 0.093750 0.094401 0.095052 0.095703 0.096354 0.097005 0.097656 0.098307 0.098958 0.099609 0.100260 0.100911 0.101562 0.102214 0.102865 0.103516 0.104167 0.104818 0.105469 0.106120 0.106771 0.107422 0.108073 0.108724 0.109375 0.110026 0.110677 0.111328 0.111979 0.112630 0.113281 0.113932 0.114583 0.115234 0.115885 0.116536 0.117188 0.117839 0.118490 0.119141 0.119792 0.120443 0.121094 0.121745 0.122396 0.123047 0.123698 0.124349 0.125000 0.125651 0.126302 0.126953 0.127604 0.128255 0.128906 0.129557 0.130208 0.130859 0.131510 0.132161 0.132812 0.133464 0.134115 0.134766 0.135417 0.136068 0.136719 0.137370 0.138021 0.138672 0.139323 0.139974 0.140625 0.141276 0.141927 0.142578 0.143229 0.143880 0.144531 0.145182 0.145833 0.146484 0.147135 0.147786 0.148438 0.149089 0.149740 0.150391 0.151042 0.151693 0.152344 0.152995 0.153646 0.154297 0.154948 0.155599 0.156250 0.156901 0.157552 0.158203 0.158854 0.159505 0.160156 0.160807 0.161458 0.162109 0.162760 0.163411 0.164062 0.164714 0.165365 0.166016 0.166667 0.167318 0.167969 0.168620 0.169271 0.169922 0.170573 0.171224 0.171875 0.172526 0.173177 0.173828 0.174479 0.175130 0.175781 0.176432 0.177083 0.177734 0.178385 0.179036 0.179688 0.180339 0.180990 0.181641 0.182292 0.182943 0.183594 0.184245 0.184896 0.185547 0.186198 0.186849 0.187500 0.188151 0.188802 0.189453 0.190104 0.190755 0.191406 0.192057 0.192708 0.193359 0.194010 0.194661 0.195312 0.195964 0.196615 0.197266 0.197917 0.198568 0.199219 0.199870 0.200521 0.201172 0.201823 0.202474 0.203125 0.203776 0.204427 0.205078 0.205729 0.206380 0.207031 0.207682 0.208333 0.208984 0.209635 0.210286 0.210938 0.211589 0.212240 0.212891 0.213542 0.214193 0.214844 0.215495 0.216146 0.216797 0.217448 0.218099 0.218750 0.219401 0.220052 0.220703 0.221354 0.222005 0.222656 0.223307 0.223958 0.224609 0.225260 0.225911 0.226562 0.227214 0.227865 0.228516 0.229167 0.229818 0.230469 0.231120 0.231771 0.232422 0.233073 0.233724 0.234375 0.235026 0.235677
       0.31870        0.31870        0.31870        0.31870        0.31870        0.31870        0.31870        0.31870        0.31870        0.31870        0.31870        0.31870        0.31870        0.31870        0.31870        0.31870        0.31870        0.31870        0.31870        0.31870        0.31870        0.31870        0.31870        0.31870        0.31870        0.31870        0.31870        0.31870        0.31870        0.31870        0.31870        0.31870        0.31870        0.31870        0.31870        0.31870        0.31870        0.31870        0.31870        0.31870        0.31870        0.31870        0.31870        0.31870        0.31870        0.31870        0.31870        0.31870        0.31870        0.31870        0.31870        0.68229        0.86204        0.52354        0.09047       -0.05633       -0.42427       -0.20104       -0.30024       -0.11731       -0.07307       -0.11812       -0.06799       -0.20464       -0.23158       -0.25056       -0.33130       -0.33860       -0.48050       -0.38051       -0.45865       -0.44957       -0.42089       -0.45821       -0.52078       -0.55164       -0.58233       -0.61012       -0.57076       -0.40473       -0.37502       -0.33013       -0.31157       -0.20618       -0.19844        0.02422        0.08741        0.12129        0.23108        0.36872        0.44230        0.51028        0.56039        0.55707        0.56675        0.69063        0.80642        0.72935        0.73257        0.65259        0.56984        0.48262        0.40659        0.49615        0.38034        0.21394        0.07943        0.05394        0.02574       -0.05648       -0.02406       -0.00299       -0.05586       -0.00754       -0.01850        0.22102        0.25433        0.28481        0.41887        0.44801        0.40290        0.54607        0.62310        0.68046        0.74946        0.68641        0.65214        0.68436        0.57101        0.48464        0.41439        0.28781        0.20677        0.15721        0.11165        0.04183        0.01628        0.01233        0.07552        0.13005        0.21069        0.26962        0.39456        0.42639        0.49376        0.59652        0.62651        0.62468        0.62331        0.55136        0.44445        0.45579        0.35467        0.23078        0.18393        0.14568        0.12506        0.13382        0.09326        0.12308        0.24580        0.26837        0.34983        0.37421        0.44065        0.50874        0.53897        0.54377        0.46973        0.43464        0.38597        0.35219        0.30488        0.25850        0.21458        0.20108        0.17873        0.20520        0.18726        0.27885        0.33780        0.37259        0.42746        0.45606        0.47711        0.42466        0.38400        0.40816        0.36610        0.27685        0.26078        0.22325        0.22540        0.19641        0.22828        0.23547        0.32697        0.37061        0.37660        0.46531        0.42736        0.43364        0.42822        0.39553        0.34070        0.31811        0.28050        0.26329        0.24471        0.27419        0.27784        0.30362        0.30629        0.32929        0.32045        0.40346        0.41620        0.37585        0.34436        0.36415        0.28371        0.28124        0.26428        0.28753        0.26607        0.28197        0.29567        0.31333        0.34287        0.36251        0.36825        0.35162        0.35408        0.29512        0.32461        0.27171        0.24533        0.29856        0.29372        0.31250        0.30843        0.31995        0.33303        0.31607        0.31888        0.29081        0.29625        0.27150        0.28794        0.26410        0.29389        0.28690        0.27760        0.30669        0.31274        0.31851        0.27312        0.30385        0.27575        0.27039        0.25799        0.21781        0.27697        0.27959        0.33168        0.30610        0.31429        0.31570        0.31536        0.27887        0.30304        0.32670        0.26706        0.26059        0.30054        0.28417        0.33817        0.33027        0.33902        0.32850        0.29504        0.27857        0.28055        0.24460        0.22404        0.28304        0.30704        0.29909        0.28377        0.29924        0.27841        0.33396        0.33311        0.25514        0.22698        0.28212        0.31718        0.28198        0.31129        0.33368        0.32419        0.30006        0.30664        0.33539        0.29846        0.27705        0.25295        0.29685        0.34997        0.36659        0.27787        0.26533        0.25991        0.29250        0.22684        0.28677        0.24919        0.25129        0.32887        0.32683        0.34607        0.30301        0.24451        0.24903        0.24868        0.24188        0.21463        0.23266        0.29650        0.29337        0.22900        0.32060        0.32006        0.25400        0.25864        0.19612        0.17191        0.22819        0.20694        0.20596        0.22176        0.22664        0.18764        0.25276        0.35172        0.31666        0.33761        0.23624        0.21097        0.18811        0.25889        0.27315        0.15117        0.22406        0.24739        0.12836        0.17688        0.13081        0.11562        0.21031        0.15455       -0.09308       -0.60236
2.587730 2.560826 2.534067 2.507453 2.480984 2.454661 2.428483 2.402451 2.376564 2.350822 2.325226 2.299774 2.274469 2.249308 2.224293 2.199424 2.174700 2.150121 2.125687 2.101399 2.077256 2.053259 2.029407 2.005700 1.982138 1.958722 1.935452 1.912326 1.889346 1.866512 1.843822 1.821278 1.798880 1.776627 1.754519 1.732556 1.710739 1.689067 1.667541 1.646160 1.624924 1.603834 1.582889 1.562089 1.541435 1.520926 1.500562 1.480344 1.460271 1.440344 1.420562 1.640213 2.052058 1.622781 1.132066 0.995098 0.410685 0.815512 0.545648 0.831416 0.772516 0.790922 0.744630 0.708431 0.562119 0.520372 0.478133 0.430646 0.212062 0.371909 0.198574 0.306149 0.225292 0.183288 0.142775 0.012798 0.031687 -0.006039 -0.062489 0.109752 0.207778 0.185441 0.152935 0.334994 0.191162 0.498136 0.590423 0.572906 0.606994 0.874978 0.818285 0.940182 0.894341 0.985842 0.952725 1.080119 1.142683 1.065690 1.143102 0.941158 0.936609 0.793946 0.652362 0.782876 0.713184 0.470301 0.316930 0.250047 0.234092 0.150676 0.103853 0.142102 0.091826 0.146401 0.059254 0.267556 0.383585 0.361676 0.477270 0.569778 0.455392 0.567928 0.711179 0.737590 0.775232 0.729240 0.739464 0.702510 0.623729 0.558713 0.422584 0.285786 0.225401 0.088945 0.134211 -0.043074 -0.031524 -0.060948 -0.040487 -0.004325 0.159601 0.080431 0.288098 0.296505 0.356807 0.452771 0.528713 0.516882 0.525202 0.510496 0.339605 0.321825 0.294508 0.104440 0.059787 -0.015681 -0.012190 -0.027782 -0.068603 -0.082667 0.023296 0.066965 0.138426 0.173435 0.240208 0.321735 0.326962 0.419217 0.402887 0.292688 0.244607 0.241056 0.193663 0.122259 0.106129 0.027194 0.017708 0.035319 0.001238 0.073623 0.161566 0.149355 0.254706 0.259996 0.314617 0.234344 0.221700 0.166248 0.221302 0.126808 0.045221 0.022947 0.000160 -0.003737 -0.034620 0.032113 0.022962 0.156392 0.148946 0.179499 0.249134 0.209286 0.184092 0.185393 0.139722 0.079647 0.043549 0.055342 -0.020071 -0.002418 0.015913 0.051358 0.051534 0.059559 0.074605 0.110005 0.133730 0.182426 0.079837 0.085306 0.069331 0.004479 -0.002348 0.010702 0.004592 0.009130 0.007671 0.028423 0.063399 0.079114 0.124160 0.059058 0.113580 0.059862 0.019172 0.057849 -0.034568 -0.009424 0.042825 0.007130 0.056865 0.049995 0.039510 0.082932 0.057146 0.040261 0.039635 0.008471 0.029087 0.015175 -0.002156 0.058989 -0.004912 0.026405 0.062598 0.054060 0.040516 0.046341 0.041030 0.027819 0.008054 -0.017677 -0.021671 0.027500 0.048448 0.088456 0.058263 0.067543 0.087155 0.077902 0.034612 0.085740 0.093641 0.011307 0.028133 0.070880 0.058036 0.098152 0.111790 0.078328 0.125386 0.071242 0.032152 0.062937 -0.016422 0.013289 0.068272 0.081018 0.060338 0.046139 0.044702 0.017178 0.116941 0.064167 -0.029141 -0.044785 0.035312 0.084936 0.015561 0.029504 0.085219 0.082104 0.025169 0.053706 0.078092 0.036257 0.025015 -0.036668 0.046373 0.111866 0.085152 -0.010764 -0.024140 -0.029521 0.047693 -0.092753 0.041424 -0.053283 -0.020345 0.057548 0.063944 0.028997 -0.012480 -0.060407 -0.040174 -0.075034 -0.035180 -0.087732 -0.075150 0.021193 0.076287 -0.073872 0.069400 0.018653 -0.053708 0.035870 -0.104481 -0.095932 -0.039720 -0.034570 -0.040961 -0.025002 0.000669 -0.052819 0.023227 0.207245 -0.009812 0.172899 0.027206 0.221409 0.194016 0.299867 0.271108 0.133645 0.227267 0.291822 0.096638 0.189361 0.132510 0.099582 0.294201 0.160787 -0.632494
0.072396 0.072898 0.074405 0.076916 0.080431 0.084948 0.090467 0.096985 0.104501 0.113013 0.122515 0.133005 0.144477 0.156924 0.170339 0.184712 0.200033 0.216289 0.233465 0.251543 0.270504 0.290324 0.310978 0.332437 0.354667 0.377630 0.401287 0.425591 0.450491 0.475931 0.501851 0.528183 0.554855 0.581788 0.608897 0.636091 0.663270 0.690330 0.717160 0.743640 0.769646 0.795045 0.819698 0.843461 0.866182 0.887704 0.907866 0.926501 0.943438 0.958503 0.971520 0.982312 0.990700 0.996507 0.999559 0.999683 0.996714 0.990494 0.980870 0.967703 0.950866 0.930245 0.905744 0.877286 0.844813 0.808292 0.767716 0.723103 0.674504 0.621999 0.565704 0.505769 0.442382 0.375767 0.306191 0.233958 0.159414 0.082944 0.004975 0.074029 0.153566 0.233098 0.312056 0.389839 0.465824 0.539363 0.609796 0.676451 0.738654 0.795732 0.847027 0.891899 0.929735 0.959962 0.982052 0.995533 0.999999 0.995119 0.980649 0.956433 0.922422 0.878672 0.825357 0.762771 0.691334 0.611592 0.524224 0.430032 0.329945 0.225011 0.116392 0.005352 0.106757 0.218503 0.328397 0.434912 0.536498 0.631612 0.718739 0.796419 0.863274 0.918036 0.959573 0.986919 0.999296 0.996141 0.977126 0.942179 0.891501 0.825569 0.745155 0.651316 0.545394 0.429007 0.304032 0.172574 0.036946 0.100370 0.236771 0.369573 0.496069 0.613582 0.719527 0.811467 0.887183 0.944726 0.982477 0.999204 0.994102 0.966840 0.917586 0.847028 0.756382 0.647389 0.522291 0.383802 0.235057 0.079554 0.078927 0.236405 0.388797 0.532029 0.662140 0.775404 0.868439 0.938322 0.982688 0.999826 0.988758 0.949294 0.882075 0.788586 0.671149 0.532880 0.377631 0.209893 0.034680 0.142611 0.316362 0.480910 0.630735 0.760650 0.865995 0.942811 0.988012 0.999524 0.976397 0.918882 0.828471 0.707883 0.561020 0.392852 0.209276 0.016933 0.177039 0.365243 0.540321 0.695237 0.823576 0.919825 0.979625 1.000000 0.979523 0.918434 0.818687 0.683926 0.519387 0.331723 0.128760 0.080811 0.287798 0.482896 0.657127 0.802247 0.911165 0.978315 0.999964 0.974455 0.902352 0.786490 0.631902 0.445650 0.236523 0.014664 0.208913 0.422860 0.616068 0.778260 0.900556 0.975988 0.999933 0.970436 0.888398 0.757614 0.584650 0.378561 0.150452 0.087086 0.320661 0.536820 0.722844 0.867504 0.961777 0.999452 0.977578 0.896742 0.761136 0.578402 0.359250 0.116888 0.133760 0.376937 0.597049 0.779683 0.912561 0.986429 0.995732 0.939102 0.819553 0.644406 0.424904 0.175543 0.086838 0.344174 0.578410 0.772776 0.913024 0.988513 0.993078 0.925597 0.790205 0.596133 0.357132 0.090589 0.183730 0.445096 0.673390 0.850692 0.962703 0.999979 0.958788 0.841559 0.656834 0.418738 0.145967 0.139623 0.414746 0.656560 0.844613 0.962601 0.999851 0.952372 0.823357 0.623076 0.368161 0.080302 0.215560 0.493340 0.728132 0.898468 0.988342 0.988795 0.898903 0.726048 0.485420 0.198793 0.107390 0.404409 0.663936 0.860790 0.975410 0.995904 0.919376 0.752410 0.510640 0.217388 0.098501 0.405446 0.672276 0.871425 0.981840 0.991305 0.897907 0.710454 0.447783 0.136990 0.189298 0.496297 0.750760 0.924646 0.998272 0.962665 0.820774 0.587399 0.287784 0.045006 0.373673 0.660824 0.873270 0.985929 0.984897 0.869306 0.651690 0.356775 0.018812 0.322335 0.625844 0.854836 0.980945 0.987932 0.873935 0.651976 0.348646 0.001058 0.347607 0.653425 0.877291 0.990004 0.976204 0.836625 0.588313 0.262729 0.098128
1.000000 1.000000 1.000000 1.000000 1.000000 1.000000 1.000000 1.000000 1.000000 1.000000 1.000000 1.000000 1.000000 1.000000 1.000000 1.000000 1.000000 1.000000 1.000000 1.000000 1.000000 1.000000 1.000000 1.000000 1.000000 1.000000 1.000000 1.000000 1.000000 1.000000 1.000000 1.000000 1.000000 1.000000 1.000000 1.000000 1.000000 1.000000 1.000000 1.000000 1.000000 1.000000 1.000000 1.000000 1.000000 1.000000 1.000000 1.000000 1.000000 1.000000 1.000000 1.000000 0.928126 0.928126 0.928126 0.915059 0.915059 0.915059 0.915059 0.915059 0.915059 0.915059 0.915059 0.915059 0.915059 0.915059 0.915059 0.915059 0.915059 0.915059 0.915059 0.915059 0.915059 0.915059 0.915059 0.915059 0.915059 0.915059 0.915059 0.915059 0.915059 0.915059 0.915059 0.915059 0.915059 0.915059 0.915059 0.915059 0.915059 0.915059 0.915059 0.915059 0.915059 0.915059 0.915059 0.915059 0.942746 0.944207 0.952270 0.952097 0.951527 0.949288 0.948277 0.947798 0.947671 0.947974 0.948653 0.949588 0.958477 0.959654 0.962490 0.963419 0.964253 0.965033 0.965839 0.966749 0.965542 0.962779 0.961961 0.961713 0.964489 0.964137 0.964425 0.965534 0.965438 0.966339 0.966664 0.966440 0.965815 0.965227 0.964561 0.964141 0.963974 0.964616 0.964915 0.966243 0.969454 0.969934 0.970005 0.970162 0.970258 0.970428 0.970841 0.972518 0.968690 0.969385 0.969450 0.967354 0.974259 0.971283 0.971864 0.972356 0.973706 0.973896 0.970168 0.966120 0.956976 0.956195 0.951399 0.942417 0.939370 0.940611 0.942447 0.943150 0.942965 0.937207 0.937628 0.933927 0.932490 0.935850 0.933369 0.931726 0.932991 0.933946 0.933811 0.933358 0.931693 0.926858 0.923276 0.922552 0.925526 0.927965 0.929538 0.930035 0.925161 0.899355 0.897004 0.903382 0.891037 0.881264 0.876647 0.872046 0.877079 0.880584 0.884693 0.882577 0.869329 0.851045 0.836279 0.833829 0.834965 0.830853 0.831591 0.833757 0.824413 0.837503 0.835182 0.841212 0.839132 0.846451 0.846700 0.835622 0.832469 0.828307 0.823472 0.816127 0.823486 0.821319 0.821450 0.819358 0.813812 0.806083 0.809725 0.778454 0.763709 0.758979 0.763306 0.767092 0.764391 0.762038 0.769174 0.772560 0.777144 0.765020 0.756463 0.743904 0.748206 0.753688 0.761149 0.755081 0.739103 0.717898 0.668837 0.684983 0.722538 0.665411 0.687119 0.693281 0.681715 0.682473 0.673906 0.668926 0.656330 0.659831 0.670446 0.686105 0.697761 0.717886 0.708225 0.697351 0.700232 0.680005 0.672303 0.656162 0.663519 0.643834 0.637617 0.663361 0.662685 0.655824 0.652388 0.635983 0.625161 0.636824 0.643232 0.634598 0.632977 0.612411 0.584691 0.587127 0.601703 0.619805 0.639577 0.624127 0.605276 0.601605 0.585877 0.602649 0.556629 0.557592 0.578230 0.583145 0.562716 0.526022 0.527787 0.549023 0.552161 0.546800 0.519962 0.514159 0.522527 0.560276 0.549806 0.508957 0.521532 0.518824 0.521663 0.470204 0.477321 0.447299 0.429178 0.365691 0.348520 0.351311 0.338547 0.333756 0.301765 0.299642 0.305523 0.318523 0.322703 0.315132 0.301430 0.311138 0.302388 0.289173 0.229755 0.211746 0.199230 0.186521 0.188776 0.159851 0.179981 0.243213 0.245404 0.245404 0.245404 0.245404 0.245404 0.245404 0.253761 0.253761 0.253761 0.253761 0.253761 0.253761 0.253761 0.253761 0.253761 0.266691 0.266691 0.266691 0.266691 0.266691 0.266691 0.266691 0.266691 0.266691 0.266691 0.266691 0.266691 0.266691 0.266691
0.000000 0.000000 0.000000 0.000000 0.000000 0.000000 0.000000 0.000000 0.000000 0.000000 0.000000 0.000000 0.000000 0.000000 0.000000 0.000000 0.000000 0.000000 0.000000 0.000000 0.000000 0.000000 0.000000 0.000000 0.000000 7.000000 4.000000 0.000000 0.000000 0.000000 0.000000 0.000000 0.000000 0.000000 0.000000 0.000000 0.000000 0.000000 0.000000 0.000000 0.000000 0.000000 0.000000 0.000000 0.000000 0.000000 0.000000 0.000000 0.000000 0.000000 0.000000 0.000000 0.180334 0.180334 0.180334 0.199007 0.199007 0.199007 0.199007 0.199007 0.199007 0.199007 0.199007 0.199007 0.199007 0.199007 0.199007 0.199007 0.199007 0.199007 0.199007 0.199007 0.199007 0.199007 0.199007 0.199007 0.199007 0.199007 0.199007 0.199007 0.199007 0.199007 0.199007 0.199007 0.199007 0.199007 0.199007 0.199007 0.199007 0.199007 0.199007 0.199007 0.199007 0.199007 0.199007 0.199007 0.225018 0.225018 0.225018 0.225018 0.225018 0.225018 0.225018 0.225018 0.225018 0.225018 0.225018 0.225018 0.225018 0.225018 0.225018 0.225018 0.225018 0.225018 0.225018 0.225018 0.225018 0.225018 0.225018 0.225018 0.225018 0.225018 0.225018 0.225018 0.225018 0.244339 0.244339 0.244339 0.244339 0.244339 0.244339 0.244339 0.244339 0.244339 0.244339 0.244339 0.244339 0.244339 0.244339 0.244339 0.244339 0.244339 0.244339 0.244339 0.244339 0.244339 0.244339 0.244339 0.251976 0.251976 0.251976 0.251976 0.251976 0.251976 0.251976 0.251976 0.251976 0.251976 0.251976 0.251976 0.251976 0.251976 0.251976 0.251976 0.251976 0.251976 0.251976 0.251976 0.264906 0.264906 0.264906 0.264906 0.264906 0.264906 0.264906 0.264906 0.264906 0.264906 0.264906 0.264906 0.264906 0.264906 0.264906 0.264906 0.264906 0.256074 0.256074 0.256074 0.256074 0.256074 0.256074 0.256074 0.256074 0.256074 0.256074 0.256074 0.256074 0.256074 0.256074 0.256074 0.256074 0.256074 0.269680 0.269680 0.269680 0.269680 0.269680 0.269680 0.269680 0.269680 0.269680 0.269680 0.269680 0.269680 0.269680 0.269680 0.264906 0.264906 0.264906 0.264906 0.264906 0.264906 0.264906 0.264906 0.264906 0.264906 0.264906 0.264906 0.264906 0.264906 0.256074 0.256074 0.256074 0.256074 0.256074 0.256074 0.256074 0.256074 0.256074 0.256074 0.256074 0.256074 0.256074 0.256074 0.269680 0.269680 0.269680 0.269680 0.269680 0.269680 0.269680 0.269680 0.269680 0.269680 0.269680 0.269680 0.264906 0.264906 0.264906 0.264906 0.264906 0.264906 0.264906 0.264906 0.264906 0.264906 0.264906 0.264906 0.269680 0.269680 0.269680 0.269680 0.269680 0.269680 0.269680 0.269680 0.269680 0.269680 0.269680 0.264906 0.264906 0.264906 0.264906 0.264906 0.264906 0.264906 0.264906 0.264906 0.264906 0.264906 0.256074 0.256074 0.256074 0.256074 0.256074 0.256074 0.256074 0.256074 0.256074 0.256074 0.256074 0.264906 0.264906 0.264906 0.264906 0.264906 0.264906 0.264906 0.264906 0.264906 0.264906 0.260378 0.260378 0.260378 0.260378 0.260378 0.260378 0.260378 0.260378 0.260378 0.260378 0.256074 0.256074 0.256074 0.256074 0.256074 0.256074 0.256074 0.256074 0.256074 0.256074 0.260378 0.260378 0.260378 0.260378 0.260378 0.260378 0.260378 0.260378 0.260378 0.256074 0.256074 0.256074 0.256074 0.256074 0.256074 0.256074 0.256074 0.256074 0.251976 0.251976 0.251976 0.251976 0.251976 0.251976 0.251976 0.251976 0.251976 0.251976 0.251976 0.251976 0.251976 0.251976
