# Output from CTFFind version 4.1.9, run on 2019-11-03 19:24:39
# Input file: stack1_bm3d_averaged_1_3.75_0_250_half.mrc ; Number of micrographs: 1
# Pixel size: 3.000 Angstroms ; acceleration voltage: 300.0 keV ; spherical aberration: 0.00 mm ; amplitude contrast: 0.07
# Box size: 512 pixels ; min. res.: 30.0 Angstroms ; max. res.: 5.0 Angstroms ; min. def.: 5000.0 um; max. def. 50000.0 um; num. frames averaged: 1
# 6 lines per micrograph: #1 - spatial frequency (1/Angstroms); #2 - 1D rotational average of spectrum (assuming no astigmatism); #3 - 1D rotational average of spectrum; #4 - CTF fit; #5 - cross-correlation between spectrum and CTF fit; #6 - 2sigma of expected cross correlation of noise
0.000000 0.000651 0.001302 0.001953 0.002604 0.003255 0.003906 0.004557 0.005208 0.005859 0.006510 0.007161 0.007812 0.008464 0.009115 0.009766 0.010417 0.011068 0.011719 0.012370 0.013021 0.013672 0.014323 0.014974 0.015625 0.016276 0.016927 0.017578 0.018229 0.018880 0.019531 0.020182 0.020833 0.021484 0.022135 0.022786 0.023438 0.024089 0.024740 0.025391 0.026042 0.026693 0.027344 0.027995 0.028646 0.029297 0.029948 0.030599 0.031250 0.031901 0.032552 0.033203 0.033854 0.034505 0.035156 0.035807 0.036458 0.037109 0.037760 0.038411 0.039062 0.039714 0.040365 0.041016 0.041667 0.042318 0.042969 0.043620 0.044271 0.044922 0.045573 0.046224 0.046875 0.047526 0.048177 0.048828 0.049479 0.050130 0.050781 0.051432 0.052083 0.052734 0.053385 0.054036 0.054688 0.055339 0.055990 0.056641 0.057292 0.057943 0.058594 0.059245 0.059896 0.060547 0.061198 0.061849 0.062500 0.063151 0.063802 0.064453 0.065104 0.065755 0.066406 0.067057 0.067708 0.068359 0.069010 0.069661 0.070312 0.070964 0.071615 0.072266 0.072917 0.073568 0.074219 0.074870 0.075521 0.076172 0.076823 0.077474 0.078125 0.078776 0.079427 0.080078 0.080729 0.081380 0.082031 0.082682 0.083333 0.083984 0.084635 0.085286 0.085938 0.086589 0.087240 0.087891 0.088542 0.089193 0.089844 0.090495 0.091146 0.091797 0.092448 0.093099 0.093750 0.094401 0.095052 0.095703 0.096354 0.097005 0.097656 0.098307 0.098958 0.099609 0.100260 0.100911 0.101562 0.102214 0.102865 0.103516 0.104167 0.104818 0.105469 0.106120 0.106771 0.107422 0.108073 0.108724 0.109375 0.110026 0.110677 0.111328 0.111979 0.112630 0.113281 0.113932 0.114583 0.115234 0.115885 0.116536 0.117188 0.117839 0.118490 0.119141 0.119792 0.120443 0.121094 0.121745 0.122396 0.123047 0.123698 0.124349 0.125000 0.125651 0.126302 0.126953 0.127604 0.128255 0.128906 0.129557 0.130208 0.130859 0.131510 0.132161 0.132812 0.133464 0.134115 0.134766 0.135417 0.136068 0.136719 0.137370 0.138021 0.138672 0.139323 0.139974 0.140625 0.141276 0.141927 0.142578 0.143229 0.143880 0.144531 0.145182 0.145833 0.146484 0.147135 0.147786 0.148438 0.149089 0.149740 0.150391 0.151042 0.151693 0.152344 0.152995 0.153646 0.154297 0.154948 0.155599 0.156250 0.156901 0.157552 0.158203 0.158854 0.159505 0.160156 0.160807 0.161458 0.162109 0.162760 0.163411 0.164062 0.164714 0.165365 0.166016 0.166667 0.167318 0.167969 0.168620 0.169271 0.169922 0.170573 0.171224 0.171875 0.172526 0.173177 0.173828 0.174479 0.175130 0.175781 0.176432 0.177083 0.177734 0.178385 0.179036 0.179688 0.180339 0.180990 0.181641 0.182292 0.182943 0.183594 0.184245 0.184896 0.185547 0.186198 0.186849 0.187500 0.188151 0.188802 0.189453 0.190104 0.190755 0.191406 0.192057 0.192708 0.193359 0.194010 0.194661 0.195312 0.195964 0.196615 0.197266 0.197917 0.198568 0.199219 0.199870 0.200521 0.201172 0.201823 0.202474 0.203125 0.203776 0.204427 0.205078 0.205729 0.206380 0.207031 0.207682 0.208333 0.208984 0.209635 0.210286 0.210938 0.211589 0.212240 0.212891 0.213542 0.214193 0.214844 0.215495 0.216146 0.216797 0.217448 0.218099 0.218750 0.219401 0.220052 0.220703 0.221354 0.222005 0.222656 0.223307 0.223958 0.224609 0.225260 0.225911 0.226562 0.227214 0.227865 0.228516 0.229167 0.229818 0.230469 0.231120 0.231771 0.232422 0.233073 0.233724 0.234375 0.235026 0.235677
       0.34649        0.34649        0.34649        0.34649        0.34649        0.34649        0.34649        0.34649        0.34649        0.34649        0.34649        0.34649        0.34649        0.34649        0.34649        0.34649        0.34649        0.34649        0.34649        0.34649        0.34649        0.34649        0.34649        0.34649        0.34649        0.34649        0.34649        0.34649        0.34649        0.34649        0.34649        0.34649        0.34649        0.34649        0.34649        0.34649        0.34649        0.34649        0.34649        0.34649        0.34649        0.34649        0.34649        0.34649        0.34649        0.34649        0.34649        0.34649        0.34649        0.34649        0.34649        0.47630        0.69139        0.37420        0.19338       -0.03750       -0.23502       -0.04542       -0.12984       -0.10323        0.01059       -0.11385       -0.10743       -0.05022       -0.04020       -0.12886       -0.16017       -0.30532       -0.46626       -0.55128       -0.51557       -0.42937       -0.33368       -0.52081       -0.39464       -0.51445       -0.42851       -0.44960       -0.33037       -0.31007       -0.28657       -0.18978       -0.11448       -0.09908        0.04571        0.01881        0.18353        0.17010        0.32257        0.40406        0.50967        0.54382        0.56506        0.58699        0.72240        0.63622        0.64014        0.56309        0.54288        0.61276        0.50547        0.47809        0.40316        0.31495        0.28302        0.29130        0.25223        0.12156        0.11601        0.00255        0.05852        0.05865        0.02530        0.08555        0.12801        0.22251        0.29764        0.28842        0.36537        0.51482        0.53046        0.54703        0.65781        0.63581        0.61328        0.64265        0.62545        0.50689        0.50944        0.41328        0.35823        0.28244        0.21289        0.17193        0.16569        0.12521        0.18017        0.18389        0.23720        0.23771        0.33173        0.37636        0.40386        0.49708        0.55191        0.56586        0.53062        0.59970        0.51461        0.48759        0.50588        0.38160        0.30833        0.28579        0.27641        0.19977        0.22128        0.19992        0.22136        0.23587        0.31963        0.37458        0.42063        0.43330        0.44909        0.47955        0.43683        0.49494        0.42810        0.37859        0.35314        0.38669        0.34147        0.32454        0.25029        0.28659        0.25501        0.26716        0.28137        0.37117        0.38156        0.40554        0.43367        0.45390        0.43335        0.43020        0.47035        0.37277        0.34768        0.34114        0.30057        0.34515        0.28496        0.31514        0.32910        0.32611        0.35761        0.40546        0.38273        0.42590        0.38241        0.41306        0.38033        0.40042        0.31202        0.30203        0.27090        0.25107        0.30261        0.34614        0.36457        0.36379        0.37847        0.38336        0.35415        0.43504        0.39459        0.37545        0.35601        0.31929        0.28826        0.31107        0.31723        0.35958        0.32465        0.34560        0.34884        0.39040        0.37872        0.35886        0.36386        0.37490        0.35671        0.31963        0.33946        0.32708        0.34631        0.32103        0.35966        0.35975        0.32633        0.33515        0.36790        0.33351        0.29879        0.30055        0.30721        0.32224        0.30935        0.34714        0.31841        0.32590        0.33019        0.32473        0.31323        0.29897        0.31350        0.32120        0.30794        0.31630        0.31787        0.31276        0.34058        0.32550        0.38593        0.38027        0.33149        0.36485        0.31846        0.25317        0.27780        0.32727        0.32633        0.27976        0.33646        0.31026        0.32415        0.35516        0.36468        0.33502        0.32055        0.28548        0.33326        0.36077        0.38170        0.31684        0.31401        0.29638        0.25742        0.26085        0.31622        0.30135        0.31948        0.30045        0.28243        0.28915        0.34686        0.36749        0.34259        0.28677        0.31779        0.35109        0.35128        0.38058        0.33672        0.32357        0.31817        0.34541        0.31218        0.33182        0.33665        0.25711        0.26703        0.32105        0.31378        0.31794        0.29779        0.25049        0.22782        0.26308        0.29743        0.34579        0.29815        0.27889        0.28078        0.34221        0.33767        0.27313        0.26427        0.26204        0.27567        0.30270        0.34180        0.29463        0.33530        0.32122        0.27901        0.32596        0.25697        0.23303        0.20348        0.27542        0.24796        0.25421        0.21933        0.23289        0.34080        0.32841        0.24130        0.23472        0.19436        0.30897        0.36746        0.27293        0.11611        0.15325        0.19078        0.19225        0.20079        0.03000        0.00793       -0.62834       -1.22850
2.794004 2.764117 2.734394 2.704834 2.675437 2.646204 2.617134 2.588227 2.559483 2.530903 2.502487 2.474233 2.446143 2.418216 2.390453 2.362852 2.335416 2.308142 2.281032 2.254085 2.227301 2.200681 2.174224 2.147931 2.121800 2.095833 2.070030 2.044390 2.018912 1.993599 1.968448 1.943461 1.918638 1.893977 1.869480 1.845147 1.820976 1.796969 1.773125 1.749445 1.725927 1.702574 1.679383 1.656356 1.633492 1.610792 1.588254 1.565880 1.543670 1.521623 1.499739 1.526350 1.888313 1.698984 1.147109 1.064017 0.516307 0.941824 0.612574 0.796430 0.890908 0.657795 0.634324 0.774903 0.740194 0.604399 0.581561 0.368252 0.054888 0.018770 -0.005599 -0.015894 0.329921 -0.076328 0.045957 -0.057638 -0.004690 -0.029803 0.086060 0.084959 0.121817 0.193072 0.300529 0.274202 0.455400 0.378779 0.628182 0.526675 0.772080 0.777053 0.928634 1.027605 0.970851 1.004372 1.134055 1.089381 1.070088 0.904058 0.893605 0.973722 0.819989 0.820109 0.652807 0.550540 0.507447 0.473451 0.461181 0.241180 0.248316 0.102359 0.061103 0.166628 0.024240 0.078988 0.172289 0.223358 0.336914 0.327484 0.426707 0.483350 0.645269 0.505789 0.779783 0.736750 0.631670 0.726143 0.697129 0.564897 0.445037 0.451728 0.295317 0.244085 0.092462 0.065293 0.001130 -0.001181 -0.052445 0.024652 0.075471 0.061002 0.097014 0.237350 0.248089 0.316012 0.431620 0.423749 0.441795 0.427484 0.423200 0.319631 0.336590 0.300633 0.070899 0.077679 0.023382 -0.038575 -0.035700 -0.085371 -0.056407 -0.050322 -0.003058 0.093535 0.181267 0.206478 0.181575 0.222052 0.299306 0.230928 0.252420 0.204080 0.113753 0.113473 0.139297 0.044853 0.018338 -0.032393 0.022912 -0.024268 0.008583 0.042664 0.125804 0.119379 0.152870 0.197155 0.236905 0.140735 0.214510 0.179021 0.115004 0.068221 0.017791 0.068329 0.007436 0.015062 0.010829 0.070085 0.018800 0.101760 0.159571 0.084032 0.157075 0.106138 0.121201 0.117719 0.097488 -0.026858 -0.005090 -0.056918 -0.067166 0.021972 0.068582 0.096425 0.021361 0.133033 0.079674 0.088952 0.164787 0.069341 0.090899 0.070059 -0.044489 -0.003894 0.010694 0.018724 0.064321 0.035654 0.026336 0.050700 0.128003 0.080619 0.080108 0.057397 0.082081 0.047198 0.033643 0.031460 0.021657 0.067207 0.021692 0.076678 0.060937 -0.006238 0.015813 0.060101 -0.006277 -0.054119 -0.006643 -0.022451 -0.021596 -0.022903 0.027171 0.001848 -0.011379 0.036294 -0.022151 -0.009532 -0.004496 -0.010803 -0.019024 0.016327 -0.006790 -0.001751 -0.025495 0.041764 0.028514 0.105545 0.077279 0.052449 0.050399 -0.005532 -0.089565 -0.003593 0.024609 0.033221 -0.040769 0.047338 -0.004056 0.041401 0.045945 0.056445 0.038237 -0.035358 -0.011313 0.041386 0.056755 0.081137 -0.008905 -0.004219 -0.036937 -0.074036 -0.071591 -0.005744 0.028362 -0.016446 0.005921 -0.045098 -0.028769 0.059865 0.094763 -0.008315 -0.000550 -0.010649 0.097961 0.057527 0.092383 0.019188 0.008699 0.030498 0.058570 0.002165 0.004645 0.052109 -0.084072 -0.044675 0.020226 0.039493 0.019842 -0.038352 -0.094691 -0.043688 -0.024407 -0.049599 0.103344 -0.010882 0.002449 -0.000787 0.095442 0.073246 0.008058 0.031142 -0.007276 0.064071 0.061203 0.138222 0.035898 0.121294 0.117598 0.021634 0.150827 0.019232 -0.022934 -0.033376 0.078267 0.040287 0.063954 -0.044909 0.067817 0.162339 0.140917 0.071129 -0.016055 0.009296 0.091183 0.220395 0.092531 0.088013 0.192207 0.304848 0.219052 0.268875 -0.060399 0.015035 -1.551993
0.072396 0.072907 0.074440 0.076994 0.080569 0.085163 0.090776 0.097406 0.105051 0.113707 0.123372 0.134040 0.145707 0.158364 0.172006 0.186621 0.202198 0.218724 0.236184 0.254558 0.273827 0.293965 0.314947 0.336740 0.359311 0.382621 0.406626 0.431277 0.456523 0.482304 0.508556 0.535209 0.562188 0.589409 0.616783 0.644215 0.671601 0.698832 0.725792 0.752355 0.778391 0.803763 0.828326 0.851928 0.874413 0.895617 0.915373 0.933508 0.949845 0.964206 0.976408 0.986269 0.993606 0.998239 0.999990 0.998685 0.994157 0.986246 0.974804 0.959692 0.940787 0.917980 0.891184 0.860329 0.825369 0.786284 0.743082 0.695799 0.644504 0.589300 0.530327 0.467761 0.401817 0.332752 0.260863 0.186489 0.110010 0.031850 0.047530 0.127626 0.207899 0.287775 0.366648 0.443884 0.518827 0.590802 0.659123 0.723097 0.782035 0.835255 0.882096 0.921923 0.954136 0.978184 0.993569 0.999861 0.996705 0.983832 0.961067 0.928339 0.885689 0.833277 0.771387 0.700431 0.620955 0.533637 0.439287 0.338846 0.233379 0.124067 0.012199 0.100842 0.213592 0.324528 0.432081 0.534663 0.630692 0.718613 0.796926 0.864220 0.919195 0.960694 0.987728 0.999510 0.995470 0.975289 0.938908 0.886552 0.818736 0.736277 0.640288 0.532176 0.413632 0.286611 0.153304 0.016108 0.122410 0.259563 0.392588 0.518713 0.635202 0.739427 0.828930 0.901486 0.955164 0.988389 0.999994 0.989269 0.955998 0.900490 0.823598 0.726718 0.611782 0.481239 0.338008 0.185427 0.027186 0.132759 0.290280 0.441178 0.581301 0.706660 0.813550 0.898667 0.959221 0.993043 0.998672 0.975431 0.923481 0.843851 0.738444 0.610011 0.462101 0.298984 0.125537 0.052891 0.230628 0.401868 0.560851 0.702067 0.820453 0.911589 0.971881 0.998714 0.990592 0.947232 0.869621 0.760028 0.621968 0.460115 0.280172 0.088680 0.107198 0.299941 0.481953 0.645865 0.784851 0.892916 0.965179 0.998122 0.989778 0.939878 0.849915 0.723150 0.564525 0.380501 0.178824 0.031772 0.241948 0.442146 0.623048 0.776001 0.893461 0.969384 0.999569 0.981924 0.916637 0.806241 0.655564 0.471566 0.263045 0.040253 0.185593 0.402858 0.600098 0.766668 0.893316 0.972732 1.000000 0.972948 0.892354 0.761985 0.588490 0.381098 0.151169 0.088391 0.323843 0.541394 0.728016 0.872248 0.964925 0.999815 0.974076 0.888537 0.747752 0.559818 0.335975 0.089967 0.162761 0.406014 0.623894 0.801838 0.927638 0.992314 0.990812 0.922453 0.791105 0.605040 0.376481 0.120852 0.144220 0.400094 0.628433 0.812531 0.938566 0.996693 0.981878 0.894399 0.739966 0.529431 0.278099 0.004673 0.270098 0.524974 0.739884 0.897530 0.984832 0.994077 0.923686 0.778490 0.569498 0.313149 0.030092 0.256442 0.522515 0.745499 0.906023 0.989726 0.988608 0.901891 0.736255 0.505435 0.229178 0.068396 0.360827 0.621680 0.826938 0.957273 0.999935 0.950096 0.811485 0.596243 0.323958 0.019984 0.286878 0.567069 0.793137 0.942477 0.999668 0.958160 0.821139 0.601423 0.320385 0.005965 0.310038 0.595150 0.819592 0.959428 0.999221 0.933843 0.769251 0.522089 0.218139 0.110286 0.427707 0.699302 0.894769 0.991772 0.978617 0.855782 0.636130 0.343706 0.011219 0.323514 0.621872 0.848868 0.977355 0.991361 0.888225 0.679189 0.388332 0.049943 0.295444 0.605844 0.842959 0.976960 0.990368 0.880486 0.660026 0.355829 0.005719 0.346075 0.654495 0.879432 0.991042 0.973836 0.828998 0.574558 0.243317 0.121219 0.470486 0.757313 0.942343
1.000000 1.000000 1.000000 1.000000 1.000000 1.000000 1.000000 1.000000 1.000000 1.000000 1.000000 1.000000 1.000000 1.000000 1.000000 1.000000 1.000000 1.000000 1.000000 1.000000 1.000000 1.000000 1.000000 1.000000 1.000000 1.000000 1.000000 1.000000 1.000000 1.000000 1.000000 1.000000 1.000000 1.000000 1.000000 1.000000 1.000000 1.000000 1.000000 1.000000 1.000000 1.000000 1.000000 1.000000 1.000000 1.000000 1.000000 1.000000 1.000000 1.000000 1.000000 1.000000 0.901473 0.901473 0.901473 0.887115 0.887115 0.887115 0.887115 0.887115 0.887115 0.887115 0.887115 0.887115 0.887115 0.887115 0.887115 0.887115 0.887115 0.887115 0.887115 0.887115 0.887115 0.887115 0.887115 0.887115 0.887115 0.887115 0.887115 0.887115 0.887115 0.887115 0.887115 0.887115 0.887115 0.887115 0.887115 0.887115 0.887115 0.887115 0.887115 0.887115 0.887115 0.887115 0.887115 0.887115 0.891334 0.893456 0.895037 0.897964 0.899608 0.897539 0.896543 0.896256 0.896745 0.897849 0.908320 0.923368 0.939105 0.945396 0.950556 0.959229 0.961964 0.962053 0.968558 0.974574 0.972567 0.971964 0.970236 0.970033 0.972060 0.972145 0.973085 0.972832 0.973590 0.973579 0.973028 0.972218 0.971399 0.970752 0.970027 0.970420 0.970318 0.970639 0.970747 0.970797 0.970866 0.964833 0.964876 0.961405 0.962120 0.964019 0.965357 0.956897 0.951600 0.953173 0.952114 0.953868 0.951506 0.951360 0.950524 0.949850 0.950058 0.946553 0.946537 0.933978 0.933158 0.932254 0.929834 0.928293 0.926869 0.925524 0.928432 0.926073 0.913497 0.903922 0.869095 0.853784 0.850391 0.847506 0.850047 0.850520 0.851538 0.849327 0.843318 0.842857 0.840852 0.844425 0.844618 0.841550 0.839297 0.839054 0.826464 0.831003 0.821468 0.822061 0.808169 0.801983 0.805408 0.804933 0.805682 0.803164 0.808255 0.805665 0.801900 0.797708 0.792555 0.782976 0.765856 0.758207 0.766241 0.771738 0.767857 0.755202 0.739709 0.761174 0.765939 0.774000 0.779536 0.781113 0.753185 0.745724 0.726319 0.705923 0.707280 0.706314 0.705314 0.697803 0.690959 0.678694 0.679396 0.666709 0.651512 0.652154 0.644307 0.676943 0.636249 0.612419 0.602859 0.589551 0.587977 0.543372 0.546803 0.557443 0.538887 0.536926 0.526146 0.524754 0.537316 0.546093 0.545148 0.549848 0.535845 0.546263 0.514849 0.494771 0.489352 0.487183 0.479666 0.437293 0.440610 0.445447 0.448852 0.444846 0.473078 0.456482 0.446580 0.424718 0.403968 0.412739 0.406414 0.373696 0.352502 0.324653 0.241756 0.204726 0.216923 0.198899 0.207921 0.212853 0.215485 0.224248 0.191222 0.172231 0.170247 0.118606 0.084669 0.057081 0.038470 0.031419 0.060813 0.071855 0.049025 0.072418 0.111308 0.138862 0.129494 0.114113 0.110212 0.107090 0.094543 0.045679 0.018029 -0.017094 -0.033971 -0.082882 -0.075998 -0.074853 -0.043832 -0.053469 -0.058445 -0.055241 -0.105472 -0.113467 -0.096268 -0.072135 -0.076815 -0.065133 -0.048982 -0.120138 -0.166279 -0.132962 -0.127490 -0.115292 -0.049133 -0.069078 -0.063083 -0.040366 -0.078214 -0.070681 -0.007580 0.015046 0.018420 0.073649 0.069330 0.061036 0.050693 0.055137 0.015331 0.056200 0.086685 0.096820 0.115934 0.041909 0.022475 0.022475 0.022475 -0.000683 -0.000683 -0.000683 -0.000683 -0.000683 -0.000683 -0.000683 -0.000683 -0.000683 -0.024177 -0.024177 -0.024177 -0.024177 -0.024177 -0.024177 -0.024177 -0.024177 -0.024177 -0.024177 -0.024177 -0.024177 -0.024177 -0.024177 -0.024177 -0.024177 -0.024177
0.000000 0.000000 0.000000 0.000000 0.000000 0.000000 0.000000 0.000000 0.000000 0.000000 0.000000 0.000000 0.000000 0.000000 0.000000 0.000000 0.000000 0.000000 0.000000 0.000000 0.000000 0.000000 0.000000 0.000000 0.000000 0.000000 0.000000 0.000000 0.000000 0.000000 0.000000 0.000000 0.000000 0.000000 0.000000 0.000000 0.000000 0.000000 0.000000 0.000000 0.000000 0.000000 0.000000 0.000000 0.000000 0.000000 0.000000 0.000000 0.000000 0.000000 0.000000 0.000000 0.180334 0.180334 0.180334 0.199007 0.199007 0.199007 0.199007 0.199007 0.199007 0.199007 0.199007 0.199007 0.199007 0.199007 0.199007 0.199007 0.199007 0.199007 0.199007 0.199007 0.199007 0.199007 0.199007 0.199007 0.199007 0.199007 0.199007 0.199007 0.199007 0.199007 0.199007 0.199007 0.199007 0.199007 0.199007 0.199007 0.199007 0.199007 0.199007 0.199007 0.199007 0.199007 0.199007 0.199007 0.230940 0.230940 0.230940 0.230940 0.230940 0.230940 0.230940 0.230940 0.230940 0.230940 0.230940 0.230940 0.230940 0.230940 0.230940 0.230940 0.230940 0.230940 0.230940 0.230940 0.230940 0.230940 0.230940 0.230940 0.230940 0.230940 0.230940 0.230940 0.244339 0.244339 0.244339 0.244339 0.244339 0.244339 0.244339 0.244339 0.244339 0.244339 0.244339 0.244339 0.244339 0.244339 0.244339 0.244339 0.244339 0.244339 0.244339 0.244339 0.244339 0.244339 0.244339 0.256074 0.256074 0.256074 0.256074 0.256074 0.256074 0.256074 0.256074 0.256074 0.256074 0.256074 0.256074 0.256074 0.256074 0.256074 0.256074 0.256074 0.256074 0.256074 0.256074 0.256074 0.256074 0.256074 0.256074 0.256074 0.256074 0.256074 0.256074 0.256074 0.256074 0.256074 0.256074 0.256074 0.256074 0.256074 0.256074 0.256074 0.264906 0.264906 0.264906 0.264906 0.264906 0.264906 0.264906 0.264906 0.264906 0.264906 0.264906 0.264906 0.264906 0.264906 0.264906 0.264906 0.264906 0.264906 0.264906 0.264906 0.264906 0.264906 0.264906 0.264906 0.264906 0.264906 0.264906 0.264906 0.264906 0.264906 0.264906 0.264906 0.264906 0.264906 0.264906 0.264906 0.264906 0.264906 0.264906 0.264906 0.264906 0.264906 0.264906 0.264906 0.264906 0.264906 0.264906 0.264906 0.264906 0.264906 0.264906 0.264906 0.264906 0.264906 0.264906 0.264906 0.264906 0.264906 0.269680 0.269680 0.269680 0.269680 0.269680 0.269680 0.269680 0.269680 0.269680 0.269680 0.269680 0.269680 0.264906 0.264906 0.264906 0.264906 0.264906 0.264906 0.264906 0.264906 0.264906 0.264906 0.264906 0.264906 0.269680 0.269680 0.269680 0.269680 0.269680 0.269680 0.269680 0.269680 0.269680 0.269680 0.269680 0.264906 0.264906 0.264906 0.264906 0.264906 0.264906 0.264906 0.264906 0.264906 0.264906 0.264906 0.269680 0.269680 0.269680 0.269680 0.269680 0.269680 0.269680 0.269680 0.269680 0.269680 0.251976 0.251976 0.251976 0.251976 0.251976 0.251976 0.251976 0.251976 0.251976 0.251976 0.251976 0.269680 0.269680 0.269680 0.269680 0.269680 0.269680 0.269680 0.269680 0.269680 0.256074 0.256074 0.256074 0.256074 0.256074 0.256074 0.256074 0.256074 0.256074 0.256074 0.260378 0.260378 0.260378 0.260378 0.260378 0.260378 0.260378 0.260378 0.260378 0.256074 0.256074 0.256074 0.256074 0.256074 0.256074 0.256074 0.256074 0.256074 0.251976 0.251976 0.251976 0.251976 0.251976 0.251976 0.251976 0.251976 0.251976 0.251976 0.251976 0.251976 0.251976 0.251976 0.251976 0.251976 0.251976
