# Output from CTFFind version 4.1.9, run on 2019-11-03 20:08:17
# Input file: stack16_bm3d_averaged_1_7.0_0_1500_half.mrc ; Number of micrographs: 1
# Pixel size: 3.000 Angstroms ; acceleration voltage: 300.0 keV ; spherical aberration: 0.00 mm ; amplitude contrast: 0.07
# Box size: 512 pixels ; min. res.: 30.0 Angstroms ; max. res.: 5.0 Angstroms ; min. def.: 5000.0 um; max. def. 50000.0 um; num. frames averaged: 1
# 6 lines per micrograph: #1 - spatial frequency (1/Angstroms); #2 - 1D rotational average of spectrum (assuming no astigmatism); #3 - 1D rotational average of spectrum; #4 - CTF fit; #5 - cross-correlation between spectrum and CTF fit; #6 - 2sigma of expected cross correlation of noise
0.000000 0.000651 0.001302 0.001953 0.002604 0.003255 0.003906 0.004557 0.005208 0.005859 0.006510 0.007161 0.007812 0.008464 0.009115 0.009766 0.010417 0.011068 0.011719 0.012370 0.013021 0.013672 0.014323 0.014974 0.015625 0.016276 0.016927 0.017578 0.018229 0.018880 0.019531 0.020182 0.020833 0.021484 0.022135 0.022786 0.023438 0.024089 0.024740 0.025391 0.026042 0.026693 0.027344 0.027995 0.028646 0.029297 0.029948 0.030599 0.031250 0.031901 0.032552 0.033203 0.033854 0.034505 0.035156 0.035807 0.036458 0.037109 0.037760 0.038411 0.039062 0.039714 0.040365 0.041016 0.041667 0.042318 0.042969 0.043620 0.044271 0.044922 0.045573 0.046224 0.046875 0.047526 0.048177 0.048828 0.049479 0.050130 0.050781 0.051432 0.052083 0.052734 0.053385 0.054036 0.054688 0.055339 0.055990 0.056641 0.057292 0.057943 0.058594 0.059245 0.059896 0.060547 0.061198 0.061849 0.062500 0.063151 0.063802 0.064453 0.065104 0.065755 0.066406 0.067057 0.067708 0.068359 0.069010 0.069661 0.070312 0.070964 0.071615 0.072266 0.072917 0.073568 0.074219 0.074870 0.075521 0.076172 0.076823 0.077474 0.078125 0.078776 0.079427 0.080078 0.080729 0.081380 0.082031 0.082682 0.083333 0.083984 0.084635 0.085286 0.085938 0.086589 0.087240 0.087891 0.088542 0.089193 0.089844 0.090495 0.091146 0.091797 0.092448 0.093099 0.093750 0.094401 0.095052 0.095703 0.096354 0.097005 0.097656 0.098307 0.098958 0.099609 0.100260 0.100911 0.101562 0.102214 0.102865 0.103516 0.104167 0.104818 0.105469 0.106120 0.106771 0.107422 0.108073 0.108724 0.109375 0.110026 0.110677 0.111328 0.111979 0.112630 0.113281 0.113932 0.114583 0.115234 0.115885 0.116536 0.117188 0.117839 0.118490 0.119141 0.119792 0.120443 0.121094 0.121745 0.122396 0.123047 0.123698 0.124349 0.125000 0.125651 0.126302 0.126953 0.127604 0.128255 0.128906 0.129557 0.130208 0.130859 0.131510 0.132161 0.132812 0.133464 0.134115 0.134766 0.135417 0.136068 0.136719 0.137370 0.138021 0.138672 0.139323 0.139974 0.140625 0.141276 0.141927 0.142578 0.143229 0.143880 0.144531 0.145182 0.145833 0.146484 0.147135 0.147786 0.148438 0.149089 0.149740 0.150391 0.151042 0.151693 0.152344 0.152995 0.153646 0.154297 0.154948 0.155599 0.156250 0.156901 0.157552 0.158203 0.158854 0.159505 0.160156 0.160807 0.161458 0.162109 0.162760 0.163411 0.164062 0.164714 0.165365 0.166016 0.166667 0.167318 0.167969 0.168620 0.169271 0.169922 0.170573 0.171224 0.171875 0.172526 0.173177 0.173828 0.174479 0.175130 0.175781 0.176432 0.177083 0.177734 0.178385 0.179036 0.179688 0.180339 0.180990 0.181641 0.182292 0.182943 0.183594 0.184245 0.184896 0.185547 0.186198 0.186849 0.187500 0.188151 0.188802 0.189453 0.190104 0.190755 0.191406 0.192057 0.192708 0.193359 0.194010 0.194661 0.195312 0.195964 0.196615 0.197266 0.197917 0.198568 0.199219 0.199870 0.200521 0.201172 0.201823 0.202474 0.203125 0.203776 0.204427 0.205078 0.205729 0.206380 0.207031 0.207682 0.208333 0.208984 0.209635 0.210286 0.210938 0.211589 0.212240 0.212891 0.213542 0.214193 0.214844 0.215495 0.216146 0.216797 0.217448 0.218099 0.218750 0.219401 0.220052 0.220703 0.221354 0.222005 0.222656 0.223307 0.223958 0.224609 0.225260 0.225911 0.226562 0.227214 0.227865 0.228516 0.229167 0.229818 0.230469 0.231120 0.231771 0.232422 0.233073 0.233724 0.234375 0.235026 0.235677
       0.35562        0.35562        0.35562        0.35562        0.35561        0.35561        0.35562        0.35562        0.35562        0.35561        0.35562        0.35562        0.35562        0.35562        0.35562        0.35561        0.35562        0.35561        0.35562        0.35562        0.35562        0.35562        0.35561        0.35562        0.35561        0.35562        0.35562        0.35562        0.35562        0.35562        0.35561        0.35562        0.35561        0.35562        0.35561        0.35561        0.35562        0.35561        0.35562        0.35561        0.35562        0.35561        0.35562        0.35562        0.35562        0.35562        0.35562        0.35561        0.35562        0.35562        0.35561        0.43343        0.55853        0.34497       -0.21599       -0.44793       -0.53885       -0.64131       -0.70947       -0.71431       -0.80704       -0.88278       -0.67310       -0.82621       -0.81156       -0.95249       -0.99185       -0.87312       -0.83199       -0.79173       -0.70138       -0.63304       -0.54288       -0.44994       -0.38623       -0.15855       -0.05707        0.04807        0.26804        0.26352        0.32232        0.37475        0.40741        0.52997        0.54208        0.57765        0.53559        0.47789        0.50896        0.53530        0.45913        0.33773        0.22375        0.18920        0.11745        0.02261        0.00617       -0.00321        0.06740        0.03412        0.08568        0.05811        0.17557        0.20359        0.41310        0.46426        0.55091        0.65951        0.68638        0.71369        0.64170        0.61417        0.54969        0.44565        0.39390        0.28731        0.22587        0.22327        0.11199        0.12426        0.12608        0.09696        0.10457        0.30981        0.42323        0.53059        0.53660        0.56965        0.60847        0.58942        0.57250        0.58679        0.57133        0.47259        0.31552        0.27390        0.26590        0.16398        0.10072        0.18012        0.22289        0.29470        0.35901        0.43310        0.47861        0.53492        0.60494        0.54951        0.50799        0.51110        0.36116        0.28952        0.27035        0.18505        0.21369        0.24903        0.28649        0.29156        0.33692        0.43610        0.47015        0.50173        0.45694        0.44496        0.49277        0.40229        0.33422        0.29423        0.27023        0.24174        0.23323        0.24524        0.34579        0.45481        0.44000        0.49158        0.55722        0.45583        0.41807        0.36124        0.32439        0.28231        0.28960        0.27691        0.29617        0.36418        0.37071        0.44623        0.47555        0.44636        0.46864        0.38510        0.38429        0.35818        0.28118        0.26231        0.26080        0.34441        0.38635        0.36906        0.39460        0.43696        0.44877        0.38802        0.34350        0.32882        0.35880        0.32328        0.29126        0.29600        0.36540        0.38220        0.40049        0.39246        0.39901        0.42691        0.41320        0.33169        0.29631        0.31921        0.34743        0.39090        0.36728        0.40847        0.35210        0.37583        0.39777        0.34710        0.36037        0.32835        0.30941        0.34340        0.35280        0.33706        0.36808        0.38357        0.33487        0.35536        0.32945        0.32342        0.30714        0.32806        0.33107        0.33317        0.37271        0.38153        0.36580        0.31545        0.30858        0.29341        0.33795        0.32193        0.32169        0.37763        0.36233        0.34679        0.32359        0.31221        0.31230        0.28405        0.32573        0.34016        0.35238        0.37814        0.36062        0.32472        0.34492        0.36296        0.34338        0.36086        0.35287        0.32184        0.33946        0.29799        0.32558        0.30645        0.32186        0.29152        0.32724        0.35538        0.33354        0.36217        0.32066        0.34185        0.36196        0.34767        0.32641        0.33585        0.37325        0.35171        0.35627        0.33733        0.31740        0.32800        0.32162        0.33256        0.33128        0.36943        0.33642        0.33854        0.30257        0.29926        0.27738        0.28162        0.36696        0.31683        0.33748        0.30052        0.26964        0.27949        0.36896        0.31258        0.29074        0.32883        0.32343        0.29932        0.26422        0.30483        0.27440        0.30726        0.31295        0.34827        0.34091        0.32646        0.32141        0.27281        0.28780        0.28661        0.28945        0.30556        0.36491        0.30582        0.21265        0.30924        0.30491        0.34021        0.26982        0.29934        0.29000        0.33366        0.28823        0.27689        0.27826        0.25236        0.31280        0.33776        0.32809        0.26038        0.31894        0.27048        0.24303        0.22742        0.33000        0.25744        0.16112        0.11568        0.20192        0.34926        0.26463        0.19168        0.14215       -0.40473       -0.53430
3.232419 3.191266 3.150381 3.109763 3.069413 3.029330 2.989515 2.949967 2.910687 2.871675 2.832930 2.794452 2.756243 2.718300 2.680626 2.643219 2.606079 2.569207 2.532603 2.496266 2.460197 2.424395 2.388861 2.353594 2.318595 2.283864 2.249400 2.215204 2.181275 2.147614 2.114220 2.081094 2.048235 2.015644 1.983321 1.951265 1.919477 1.887956 1.856703 1.825717 1.794999 1.764549 1.734366 1.704450 1.674802 1.645422 1.616310 1.587464 1.558887 1.530577 1.502534 1.538384 1.608463 1.549292 0.842549 0.600011 0.461471 0.391851 0.294893 0.222821 0.191162 -0.047858 0.211769 0.078518 -0.026732 -0.104667 -0.236229 -0.141915 -0.049989 -0.093756 -0.070537 0.038420 0.038989 0.232970 0.109788 0.358392 0.464076 0.498395 0.773907 0.682748 0.698174 0.822164 0.795024 0.844389 0.922424 0.851588 0.884968 0.724680 0.784003 0.844102 0.689549 0.604767 0.433339 0.427884 0.327093 0.192452 0.187474 0.113385 0.207889 0.119281 0.206809 0.104360 0.214097 0.226999 0.434158 0.398342 0.566461 0.604949 0.625238 0.713966 0.600241 0.570191 0.456414 0.406946 0.282747 0.259051 0.088857 0.148056 -0.031394 0.035510 -0.030988 -0.045698 -0.061386 0.021126 0.258297 0.287974 0.352184 0.290084 0.375181 0.384789 0.404852 0.386731 0.351971 0.320858 0.116672 0.069754 0.060153 -0.024366 -0.154422 -0.058207 -0.065323 0.033121 0.071275 0.144976 0.207304 0.219534 0.311641 0.399061 0.277193 0.358987 0.224065 0.141675 0.063923 0.033013 -0.000128 0.052579 0.068507 0.092126 0.117685 0.167736 0.236972 0.301689 0.261265 0.207680 0.249388 0.223852 0.108447 0.053999 0.054705 0.024004 0.004750 -0.026916 0.028759 0.166604 0.194432 0.186826 0.300985 0.175210 0.192442 0.070741 0.062876 0.013748 -0.007096 -0.005229 -0.012138 0.045454 0.073244 0.100482 0.155733 0.138675 0.222096 0.137489 0.076314 0.098414 0.040653 -0.048488 -0.018075 0.028216 0.068890 0.072083 0.064601 0.156253 0.102475 0.155507 0.036327 0.046356 0.044653 0.044661 0.027228 -0.020639 0.039982 0.051121 0.091608 0.099687 0.084245 0.112443 0.123413 0.079510 0.010921 -0.010986 0.020994 0.074551 0.074654 0.087423 0.082753 0.054427 0.101968 0.066041 0.041451 0.075649 -0.011405 0.011389 0.066210 0.040176 0.044427 0.071356 0.079696 0.048185 0.066593 0.017561 0.018803 0.010313 0.055331 0.014783 0.039523 0.074860 0.077404 0.044915 -0.005342 -0.002569 -0.019532 0.044317 0.001069 0.012063 0.072003 0.046222 0.003747 0.012223 -0.017648 0.005345 -0.039593 0.008222 0.017751 0.045360 0.046148 0.029397 -0.003435 0.005611 0.038196 0.008841 0.035443 0.008833 -0.013640 0.016445 -0.045197 -0.030279 -0.054895 -0.012116 -0.068519 0.005822 0.009045 -0.004242 -0.014958 -0.006520 -0.001426 0.027647 0.011911 -0.012614 0.010720 0.025253 0.032991 0.028510 0.004640 0.010382 0.008119 -0.008091 0.014767 -0.005621 0.095308 0.034101 0.026105 0.004541 -0.008657 -0.028196 0.003172 0.076972 0.000024 0.052085 -0.023224 -0.023958 -0.023456 0.093416 0.002547 -0.024504 0.059996 0.055676 0.005927 0.001405 0.015379 0.003779 0.043822 0.037442 0.093715 0.049841 0.051158 0.044575 -0.007008 0.019943 -0.001374 -0.002244 0.017772 0.089107 -0.008510 -0.084276 0.038454 0.001558 0.077291 -0.049387 -0.009240 -0.005759 0.018331 -0.005680 -0.028442 -0.013752 -0.067341 0.046878 0.040896 0.050858 -0.114850 0.030784 0.021738 -0.011553 -0.072695 0.102244 0.025840 -0.050659 -0.119086 0.165512 0.345780 0.209381 0.130524 0.143358 -0.512833
0.072396 0.073047 0.074998 0.078249 0.082799 0.088646 0.095789 0.104224 0.113948 0.124954 0.137238 0.150789 0.165599 0.181655 0.198940 0.217437 0.237123 0.257973 0.279956 0.303036 0.327172 0.352318 0.378420 0.405416 0.433239 0.461813 0.491051 0.520861 0.551137 0.581765 0.612621 0.643569 0.674462 0.705143 0.735441 0.765175 0.794154 0.822174 0.849021 0.874470 0.898289 0.920236 0.940061 0.957510 0.972323 0.984238 0.992994 0.998331 0.999991 0.997728 0.991304 0.980493 0.965090 0.944908 0.919786 0.889593 0.854230 0.813635 0.767789 0.716718 0.660498 0.599258 0.533186 0.462530 0.387600 0.308773 0.226492 0.141268 0.053679 0.035629 0.125947 0.216503 0.306473 0.394978 0.481098 0.563877 0.642337 0.715486 0.782331 0.841893 0.893226 0.935426 0.967654 0.989151 0.999258 0.997432 0.983267 0.956508 0.917069 0.865045 0.800728 0.724614 0.637412 0.540046 0.433655 0.319586 0.199391 0.074807 0.052264 0.179774 0.305563 0.427393 0.542985 0.650068 0.746419 0.829917 0.898595 0.950692 0.984704 0.999435 0.994044 0.968087 0.921551 0.854884 0.769013 0.665347 0.545778 0.412660 0.268776 0.117298 0.038280 0.194210 0.346576 0.491394 0.624713 0.742733 0.841917 0.919110 0.971648 0.997474 0.995221 0.964299 0.904956 0.818309 0.706362 0.571985 0.418867 0.251439 0.074763 0.105608 0.283794 0.453774 0.609593 0.745579 0.856559 0.938074 0.986582 0.999634 0.976017 0.915868 0.820725 0.693539 0.538618 0.361520 0.168882 0.031807 0.232476 0.424798 0.600525 0.751862 0.871822 0.954579 0.995779 0.992806 0.944978 0.853664 0.722302 0.556334 0.363019 0.151157 0.069275 0.287587 0.492870 0.674560 0.822991 0.929940 0.989119 0.996595 0.951089 0.854161 0.710228 0.526437 0.312366 0.079573 0.158995 0.389700 0.598995 0.774224 0.904427 0.981065 0.998635 0.955128 0.852279 0.695602 0.494175 0.260181 0.008228 0.245521 0.484373 0.692205 0.854579 0.959787 0.999763 0.970774 0.873827 0.714773 0.504045 0.256063 0.011684 0.279834 0.528525 0.738879 0.894475 0.982680 0.995764 0.931664 0.794327 0.593603 0.344638 0.066824 0.217651 0.485553 0.714485 0.884809 0.981393 0.995045 0.923495 0.771811 0.552171 0.283025 0.012381 0.307924 0.576912 0.794498 0.940032 0.999109 0.965112 0.840071 0.634725 0.367752 0.064176 0.246872 0.534931 0.771189 0.931419 0.998563 0.964678 0.832008 0.613052 0.329534 0.010401 0.311068 0.600666 0.826948 0.964695 0.997861 0.921583 0.743038 0.480966 0.163863 0.172972 0.491321 0.754352 0.930959 0.999547 0.950834 0.789281 0.532925 0.211554 0.136596 0.469321 0.745524 0.930371 0.999801 0.943833 0.768202 0.494023 0.155452 0.204396 0.538859 0.803778 0.963413 0.995414 0.894152 0.671906 0.357622 0.006644 0.371211 0.685494 0.905077 0.998100 0.950103 0.766503 0.472289 0.108869 0.271563 0.613451 0.865992 0.990814 0.967998 0.799525 0.509475 0.140874 0.250494 0.604414 0.865513 0.992051 0.962810 0.780933 0.473974 0.090009 0.309662 0.660222 0.903853 0.999448 0.929785 0.704939 0.361187 0.044537 0.443910 0.768611 0.962122 0.989765 0.845219 0.552239 0.161116 0.259704 0.635419 0.898214 0.999645 0.919852 0.671810 0.299610 0.129018 0.534863 0.841804 0.991221 0.953462 0.734095 0.373566 0.059908 0.482970 0.813094 0.984788 0.962868 0.750038 0.387112 0.054395 0.486128 0.820441 0.988352 0.954037 0.722899 0.341245 0.112572 0.543975 0.861811 0.997756 0.921346 0.647236 0.232914 0.232951 0.649246
1.000000 1.000000 1.000000 1.000000 1.000000 1.000000 1.000000 1.000000 1.000000 1.000000 1.000000 1.000000 1.000000 1.000000 1.000000 1.000000 1.000000 1.000000 1.000000 1.000000 1.000000 1.000000 1.000000 1.000000 1.000000 1.000000 1.000000 1.000000 1.000000 1.000000 1.000000 1.000000 1.000000 1.000000 1.000000 1.000000 1.000000 1.000000 1.000000 1.000000 1.000000 1.000000 1.000000 1.000000 1.000000 1.000000 1.000000 1.000000 1.000000 1.000000 1.000000 1.000000 0.922908 0.922908 0.922908 0.922908 0.922908 0.922908 0.922908 0.922908 0.922908 0.922908 0.922908 0.922908 0.922908 0.922908 0.922908 0.922908 0.922908 0.922908 0.922908 0.922908 0.922908 0.922908 0.922908 0.922908 0.922908 0.922908 0.922908 0.922908 0.922908 0.922908 0.922908 0.922908 0.922908 0.913119 0.911250 0.912394 0.910919 0.909506 0.908915 0.908517 0.909554 0.911149 0.913235 0.934897 0.937995 0.939242 0.940578 0.941960 0.944256 0.942078 0.949598 0.956089 0.954997 0.956118 0.949875 0.951327 0.950639 0.949879 0.951241 0.951410 0.949681 0.947627 0.945902 0.945316 0.945078 0.948741 0.949236 0.949372 0.949971 0.949910 0.950625 0.951208 0.949297 0.951536 0.943550 0.942223 0.947499 0.945375 0.946723 0.946679 0.947368 0.948161 0.948483 0.948709 0.945803 0.945313 0.944324 0.937629 0.930368 0.930607 0.932728 0.935486 0.932907 0.930386 0.931695 0.933401 0.932507 0.935863 0.923641 0.918595 0.891520 0.877315 0.868187 0.868456 0.872716 0.875529 0.873240 0.867115 0.858413 0.854370 0.853813 0.849944 0.841338 0.856786 0.850998 0.847319 0.850956 0.854275 0.859772 0.858103 0.853735 0.848617 0.843460 0.832931 0.834698 0.834974 0.839499 0.821609 0.810013 0.826732 0.819412 0.810728 0.819106 0.821180 0.818542 0.817189 0.817367 0.814782 0.808512 0.800771 0.804706 0.813882 0.814976 0.805041 0.802601 0.800839 0.800183 0.795189 0.800900 0.803103 0.799531 0.794231 0.812264 0.780920 0.801469 0.802808 0.784897 0.769342 0.758128 0.766927 0.776461 0.774452 0.769361 0.776925 0.777015 0.769360 0.745286 0.735445 0.743193 0.741613 0.731457 0.718591 0.725370 0.721026 0.718559 0.716345 0.718988 0.722456 0.700293 0.714385 0.719029 0.710801 0.723621 0.726356 0.717213 0.720576 0.724854 0.728008 0.728798 0.697928 0.700909 0.647651 0.637227 0.594584 0.591294 0.586237 0.530322 0.535619 0.515917 0.501250 0.501706 0.470647 0.520485 0.429350 0.413670 0.439428 0.367943 0.329277 0.347535 0.348875 0.360663 0.365340 0.360873 0.363763 0.347771 0.323151 0.300342 0.328231 0.343998 0.318525 0.319433 0.296697 0.282149 0.234242 0.250507 0.254325 0.284993 0.288061 0.270850 0.291679 0.335980 0.274795 0.257662 0.235845 0.261743 0.272965 0.268226 0.257217 0.271911 0.216030 0.218701 0.239502 0.242642 0.284495 0.310933 0.333854 0.331304 0.336131 0.365603 0.320259 0.330726 0.335343 0.326372 0.351423 0.354739 0.360899 0.355496 0.383482 0.381887 0.392071 0.393490 0.406888 0.444283 0.420755 0.399314 0.364125 0.375336 0.372232 0.379710 0.322693 0.299173 0.298091 0.263646 0.219310 0.221011 0.221359 0.176591 0.169251 0.152392 0.119521 0.117813 0.126109 0.153526 0.125644 0.140679 0.144290 0.144290 0.144290 0.144290 0.144290 0.144290 0.144290 0.144290 0.144290 0.144290 0.144290 0.144290 0.144290 0.144290 0.166165 0.166165 0.166165 0.166165 0.166165 0.166165 0.166165 0.166165 0.166165 0.166165 0.166165 0.166165
0.000000 0.000000 0.000000 0.000000 0.000000 0.000000 0.000000 0.000000 0.000000 0.000000 0.000000 0.000000 0.000000 0.000000 0.000000 0.000000 0.000000 0.000000 0.000000 0.000000 0.000000 0.000000 0.000000 0.000000 0.000000 0.000000 0.000000 0.000000 0.000000 0.000000 0.000000 0.000000 0.000000 0.000000 0.000000 0.000000 0.000000 0.000000 0.000000 0.000000 0.000000 0.000000 0.000000 0.000000 0.000000 0.000000 0.000000 0.000000 0.000000 0.000000 0.000000 0.000000 0.209657 0.209657 0.209657 0.209657 0.209657 0.209657 0.209657 0.209657 0.209657 0.209657 0.209657 0.209657 0.209657 0.209657 0.209657 0.209657 0.209657 0.209657 0.209657 0.209657 0.209657 0.209657 0.209657 0.209657 0.209657 0.209657 0.209657 0.209657 0.209657 0.209657 0.209657 0.209657 0.209657 0.244339 0.244339 0.244339 0.244339 0.244339 0.244339 0.244339 0.244339 0.244339 0.244339 0.244339 0.244339 0.244339 0.244339 0.244339 0.244339 0.244339 0.244339 0.244339 0.244339 0.244339 0.244339 0.244339 0.244339 0.244339 0.260378 0.260378 0.260378 0.260378 0.260378 0.260378 0.260378 0.260378 0.260378 0.260378 0.260378 0.260378 0.260378 0.260378 0.260378 0.260378 0.260378 0.260378 0.260378 0.260378 0.269680 0.269680 0.269680 0.269680 0.269680 0.269680 0.269680 0.269680 0.269680 0.269680 0.269680 0.269680 0.269680 0.269680 0.269680 0.269680 0.269680 0.269680 0.269680 0.269680 0.269680 0.269680 0.269680 0.269680 0.269680 0.269680 0.269680 0.269680 0.269680 0.269680 0.269680 0.269680 0.269680 0.280056 0.280056 0.280056 0.280056 0.280056 0.280056 0.280056 0.280056 0.280056 0.280056 0.280056 0.280056 0.280056 0.280056 0.280056 0.280056 0.280056 0.280056 0.280056 0.280056 0.280056 0.280056 0.280056 0.280056 0.280056 0.280056 0.280056 0.274721 0.274721 0.274721 0.274721 0.274721 0.274721 0.274721 0.274721 0.274721 0.274721 0.274721 0.274721 0.274721 0.285714 0.285714 0.285714 0.285714 0.285714 0.285714 0.285714 0.285714 0.285714 0.285714 0.285714 0.280056 0.280056 0.280056 0.280056 0.280056 0.280056 0.280056 0.280056 0.280056 0.280056 0.280056 0.274721 0.274721 0.274721 0.274721 0.274721 0.274721 0.274721 0.274721 0.274721 0.274721 0.274721 0.280056 0.280056 0.280056 0.280056 0.280056 0.280056 0.280056 0.280056 0.280056 0.280056 0.285714 0.285714 0.285714 0.285714 0.285714 0.285714 0.285714 0.285714 0.285714 0.269680 0.269680 0.269680 0.269680 0.269680 0.269680 0.269680 0.269680 0.269680 0.269680 0.274721 0.274721 0.274721 0.274721 0.274721 0.274721 0.274721 0.274721 0.274721 0.285714 0.285714 0.285714 0.285714 0.285714 0.285714 0.285714 0.285714 0.264906 0.264906 0.264906 0.264906 0.264906 0.264906 0.264906 0.264906 0.264906 0.274721 0.274721 0.274721 0.274721 0.274721 0.274721 0.274721 0.274721 0.269680 0.269680 0.269680 0.269680 0.269680 0.269680 0.269680 0.269680 0.269680 0.269680 0.269680 0.269680 0.269680 0.269680 0.269680 0.269680 0.280056 0.280056 0.280056 0.280056 0.280056 0.280056 0.280056 0.260378 0.260378 0.260378 0.260378 0.260378 0.260378 0.260378 0.260378 0.269680 0.269680 0.269680 0.269680 0.269680 0.269680 0.269680 0.264906 0.264906 0.264906 0.264906 0.264906 0.264906 0.264906 0.264906 0.264906 0.264906 0.264906 0.264906 0.264906 0.264906 0.260378 0.260378 0.260378 0.260378 0.260378 0.260378 0.260378 0.260378 0.260378 0.260378 0.260378 0.260378
