# Output from CTFFind version 4.1.9, run on 2019-11-03 20:09:08
# Input file: stack16_bm3d_averaged_1_7.0_0_2000_half.mrc ; Number of micrographs: 1
# Pixel size: 3.000 Angstroms ; acceleration voltage: 300.0 keV ; spherical aberration: 0.00 mm ; amplitude contrast: 0.07
# Box size: 512 pixels ; min. res.: 30.0 Angstroms ; max. res.: 5.0 Angstroms ; min. def.: 5000.0 um; max. def. 50000.0 um; num. frames averaged: 1
# 6 lines per micrograph: #1 - spatial frequency (1/Angstroms); #2 - 1D rotational average of spectrum (assuming no astigmatism); #3 - 1D rotational average of spectrum; #4 - CTF fit; #5 - cross-correlation between spectrum and CTF fit; #6 - 2sigma of expected cross correlation of noise
0.000000 0.000651 0.001302 0.001953 0.002604 0.003255 0.003906 0.004557 0.005208 0.005859 0.006510 0.007161 0.007812 0.008464 0.009115 0.009766 0.010417 0.011068 0.011719 0.012370 0.013021 0.013672 0.014323 0.014974 0.015625 0.016276 0.016927 0.017578 0.018229 0.018880 0.019531 0.020182 0.020833 0.021484 0.022135 0.022786 0.023438 0.024089 0.024740 0.025391 0.026042 0.026693 0.027344 0.027995 0.028646 0.029297 0.029948 0.030599 0.031250 0.031901 0.032552 0.033203 0.033854 0.034505 0.035156 0.035807 0.036458 0.037109 0.037760 0.038411 0.039062 0.039714 0.040365 0.041016 0.041667 0.042318 0.042969 0.043620 0.044271 0.044922 0.045573 0.046224 0.046875 0.047526 0.048177 0.048828 0.049479 0.050130 0.050781 0.051432 0.052083 0.052734 0.053385 0.054036 0.054688 0.055339 0.055990 0.056641 0.057292 0.057943 0.058594 0.059245 0.059896 0.060547 0.061198 0.061849 0.062500 0.063151 0.063802 0.064453 0.065104 0.065755 0.066406 0.067057 0.067708 0.068359 0.069010 0.069661 0.070312 0.070964 0.071615 0.072266 0.072917 0.073568 0.074219 0.074870 0.075521 0.076172 0.076823 0.077474 0.078125 0.078776 0.079427 0.080078 0.080729 0.081380 0.082031 0.082682 0.083333 0.083984 0.084635 0.085286 0.085938 0.086589 0.087240 0.087891 0.088542 0.089193 0.089844 0.090495 0.091146 0.091797 0.092448 0.093099 0.093750 0.094401 0.095052 0.095703 0.096354 0.097005 0.097656 0.098307 0.098958 0.099609 0.100260 0.100911 0.101562 0.102214 0.102865 0.103516 0.104167 0.104818 0.105469 0.106120 0.106771 0.107422 0.108073 0.108724 0.109375 0.110026 0.110677 0.111328 0.111979 0.112630 0.113281 0.113932 0.114583 0.115234 0.115885 0.116536 0.117188 0.117839 0.118490 0.119141 0.119792 0.120443 0.121094 0.121745 0.122396 0.123047 0.123698 0.124349 0.125000 0.125651 0.126302 0.126953 0.127604 0.128255 0.128906 0.129557 0.130208 0.130859 0.131510 0.132161 0.132812 0.133464 0.134115 0.134766 0.135417 0.136068 0.136719 0.137370 0.138021 0.138672 0.139323 0.139974 0.140625 0.141276 0.141927 0.142578 0.143229 0.143880 0.144531 0.145182 0.145833 0.146484 0.147135 0.147786 0.148438 0.149089 0.149740 0.150391 0.151042 0.151693 0.152344 0.152995 0.153646 0.154297 0.154948 0.155599 0.156250 0.156901 0.157552 0.158203 0.158854 0.159505 0.160156 0.160807 0.161458 0.162109 0.162760 0.163411 0.164062 0.164714 0.165365 0.166016 0.166667 0.167318 0.167969 0.168620 0.169271 0.169922 0.170573 0.171224 0.171875 0.172526 0.173177 0.173828 0.174479 0.175130 0.175781 0.176432 0.177083 0.177734 0.178385 0.179036 0.179688 0.180339 0.180990 0.181641 0.182292 0.182943 0.183594 0.184245 0.184896 0.185547 0.186198 0.186849 0.187500 0.188151 0.188802 0.189453 0.190104 0.190755 0.191406 0.192057 0.192708 0.193359 0.194010 0.194661 0.195312 0.195964 0.196615 0.197266 0.197917 0.198568 0.199219 0.199870 0.200521 0.201172 0.201823 0.202474 0.203125 0.203776 0.204427 0.205078 0.205729 0.206380 0.207031 0.207682 0.208333 0.208984 0.209635 0.210286 0.210938 0.211589 0.212240 0.212891 0.213542 0.214193 0.214844 0.215495 0.216146 0.216797 0.217448 0.218099 0.218750 0.219401 0.220052 0.220703 0.221354 0.222005 0.222656 0.223307 0.223958 0.224609 0.225260 0.225911 0.226562 0.227214 0.227865 0.228516 0.229167 0.229818 0.230469 0.231120 0.231771 0.232422 0.233073 0.233724 0.234375 0.235026 0.235677
       0.35538        0.35538        0.35538        0.35538        0.35538        0.35538        0.35538        0.35538        0.35538        0.35538        0.35538        0.35538        0.35538        0.35538        0.35538        0.35538        0.35538        0.35538        0.35538        0.35538        0.35538        0.35538        0.35538        0.35538        0.35538        0.35538        0.35538        0.35538        0.35538        0.35538        0.35538        0.35538        0.35538        0.35538        0.35538        0.35538        0.35538        0.35538        0.35538        0.35538        0.35538        0.35538        0.35538        0.35538        0.35538        0.35538        0.35538        0.35538        0.35538        0.35538        0.35538        0.43321        0.55838        0.34486       -0.21597       -0.44800       -0.53893       -0.64133       -0.70954       -0.71441       -0.80715       -0.88281       -0.67322       -0.82635       -0.81165       -0.95264       -0.99197       -0.87322       -0.83209       -0.79180       -0.70154       -0.63320       -0.54306       -0.45011       -0.38638       -0.15876       -0.05726        0.04778        0.26778        0.26334        0.32209        0.37459        0.40720        0.52964        0.54186        0.57745        0.53544        0.47768        0.50876        0.53500        0.45882        0.33753        0.22349        0.18895        0.11728        0.02230        0.00589       -0.00347        0.06713        0.03388        0.08544        0.05785        0.17528        0.20339        0.41293        0.46408        0.55078        0.65935        0.68625        0.71352        0.64146        0.61402        0.54938        0.44540        0.39372        0.28703        0.22564        0.22302        0.11177        0.12397        0.12570        0.09672        0.10440        0.30967        0.42299        0.53031        0.53644        0.56958        0.60834        0.58928        0.57238        0.58660        0.57111        0.47233        0.31530        0.27369        0.26564        0.16363        0.10051        0.17988        0.22252        0.29440        0.35886        0.43291        0.47843        0.53474        0.60475        0.54931        0.50791        0.51078        0.36092        0.28918        0.27009        0.18483        0.21329        0.24871        0.28619        0.29136        0.33659        0.43584        0.46992        0.50159        0.45679        0.44478        0.49253        0.40204        0.33406        0.29402        0.26997        0.24150        0.23309        0.24507        0.34554        0.45452        0.43975        0.49143        0.55704        0.45551        0.41786        0.36100        0.32405        0.28198        0.28937        0.27673        0.29597        0.36380        0.37035        0.44593        0.47539        0.44614        0.46839        0.38481        0.38411        0.35803        0.28095        0.26208        0.26053        0.34407        0.38614        0.36888        0.39445        0.43684        0.44856        0.38772        0.34335        0.32859        0.35856        0.32303        0.29101        0.29570        0.36514        0.38193        0.40018        0.39225        0.39877        0.42668        0.41297        0.33143        0.29613        0.31911        0.34725        0.39053        0.36701        0.40829        0.35186        0.37569        0.39757        0.34683        0.36020        0.32815        0.30915        0.34319        0.35253        0.33680        0.36772        0.38322        0.33464        0.35516        0.32921        0.32323        0.30684        0.32785        0.33074        0.33301        0.37250        0.38126        0.36548        0.31528        0.30833        0.29319        0.33770        0.32167        0.32149        0.37743        0.36216        0.34658        0.32339        0.31201        0.31220        0.28383        0.32545        0.33989        0.35203        0.37796        0.36036        0.32437        0.34462        0.36256        0.34310        0.36067        0.35267        0.32158        0.33928        0.29781        0.32542        0.30619        0.32167        0.29138        0.32697        0.35520        0.33333        0.36188        0.32040        0.34158        0.36178        0.34749        0.32621        0.33547        0.37295        0.35146        0.35581        0.33708        0.31720        0.32768        0.32142        0.33228        0.33104        0.36910        0.33639        0.33846        0.30230        0.29885        0.27712        0.28127        0.36674        0.31664        0.33760        0.30040        0.26946        0.27938        0.36877        0.31243        0.29050        0.32848        0.32322        0.29920        0.26418        0.30477        0.27422        0.30690        0.31267        0.34791        0.34067        0.32622        0.32116        0.27260        0.28750        0.28619        0.28907        0.30527        0.36474        0.30560        0.21237        0.30907        0.30446        0.33989        0.26935        0.29923        0.29022        0.33371        0.28828        0.27690        0.27797        0.25225        0.31260        0.33779        0.32824        0.26005        0.31833        0.26995        0.24286        0.22708        0.32990        0.25745        0.16130        0.11590        0.20196        0.34894        0.26412        0.19139        0.14111       -0.40594       -0.53424
3.231508 3.190370 3.149500 3.108898 3.068562 3.028495 2.988694 2.949162 2.909896 2.870899 2.832168 2.793705 2.755510 2.717582 2.679921 2.642528 2.605402 2.568544 2.531953 2.495629 2.459573 2.423785 2.388264 2.353010 2.318024 2.283305 2.248854 2.214670 2.180754 2.147105 2.113723 2.080609 2.047762 2.015183 1.982871 1.950827 1.919050 1.887541 1.856299 1.825325 1.794617 1.764178 1.734006 1.704101 1.674464 1.645094 1.615991 1.587156 1.558589 1.530289 1.502256 1.538073 1.608313 1.549164 0.842534 0.599886 0.461360 0.391748 0.294818 0.222676 0.191009 -0.047888 0.211645 0.078369 -0.026806 -0.104828 -0.236306 -0.141984 -0.050095 -0.093760 -0.070633 0.038351 0.038870 0.232872 0.109770 0.358323 0.464051 0.498256 0.773791 0.682802 0.698087 0.822211 0.795037 0.844274 0.922435 0.851624 0.885072 0.724663 0.784087 0.844114 0.689474 0.604764 0.433410 0.427827 0.327238 0.192382 0.187436 0.113440 0.207904 0.119301 0.206860 0.104368 0.214126 0.227060 0.434311 0.398474 0.566636 0.605128 0.625556 0.714076 0.600351 0.570444 0.456508 0.406969 0.282916 0.259140 0.088949 0.148182 -0.031293 0.035572 -0.030996 -0.045608 -0.061231 0.021287 0.258520 0.288057 0.352388 0.290370 0.375373 0.385068 0.405117 0.387037 0.352076 0.321018 0.116830 0.069967 0.060232 -0.024229 -0.154428 -0.058000 -0.065288 0.033166 0.071418 0.145186 0.207555 0.219723 0.311785 0.399208 0.277511 0.359053 0.224248 0.141639 0.064006 0.033143 -0.000122 0.052543 0.068548 0.092264 0.117722 0.167796 0.237053 0.301811 0.264827 0.205364 0.249471 0.223919 0.108519 0.054181 0.054663 0.024100 0.004756 -0.026698 0.028791 0.166665 0.194374 0.186942 0.300960 0.176111 0.192476 0.070775 0.062903 0.013569 -0.007152 -0.005130 -0.012064 0.045428 0.073032 0.100414 0.155705 0.138735 0.222094 0.137401 0.076300 0.098428 0.040738 -0.048546 -0.018154 0.028157 0.068787 0.072118 0.064652 0.156286 0.101882 0.155406 0.036281 0.046446 0.044598 0.044689 0.027211 -0.020709 0.039970 0.051023 0.091550 0.099689 0.084292 0.112418 0.123468 0.079477 0.010951 -0.010899 0.021124 0.074586 0.074494 0.087471 0.083531 0.053682 0.102111 0.066013 0.041471 0.075778 -0.011489 0.011425 0.066145 0.040180 0.044398 0.073263 0.078347 0.048238 0.066588 0.017495 0.018823 0.010209 0.055309 0.014641 0.039627 0.073956 0.077842 0.044865 -0.005340 -0.002617 -0.019555 0.044241 0.001044 0.012094 0.072001 0.046281 0.003646 0.012181 -0.017636 0.005425 -0.039686 0.008118 0.017577 0.045195 0.046187 0.029289 -0.003680 0.005553 0.037870 0.008764 0.035443 0.008798 -0.013459 0.015714 -0.045255 -0.030271 -0.054977 -0.012117 -0.068443 0.005746 0.009100 -0.006612 -0.014619 -0.003501 -0.001355 0.027700 0.012030 -0.012582 0.010596 0.025258 0.033155 0.028309 0.004782 0.010542 0.008041 -0.008032 0.015890 -0.006508 0.095244 0.034357 0.026272 0.004556 -0.008753 -0.028238 0.003102 0.077049 -0.003535 0.054122 -0.023166 -0.023889 -0.023419 0.093496 0.002521 -0.024441 0.063404 0.053892 0.005997 0.001540 0.015526 0.003723 0.043671 0.037323 0.093354 0.049995 0.050989 0.044539 -0.007105 0.019778 -0.001608 -0.002479 0.017545 0.089202 -0.008673 -0.084473 0.038576 0.001175 0.077112 -0.049727 -0.009256 -0.005500 0.018431 -0.005583 -0.028365 -0.014034 -0.067413 0.046681 0.040922 0.050974 -0.115207 0.030183 0.021238 -0.011727 -0.073040 0.102099 0.025885 -0.050528 -0.118349 0.165425 0.345439 0.208694 0.130425 0.142389 -0.512801
0.072396 0.073047 0.074998 0.078249 0.082799 0.088647 0.095790 0.104225 0.113949 0.124956 0.137240 0.150793 0.165603 0.181659 0.198945 0.217443 0.237130 0.257981 0.279964 0.303045 0.327183 0.352329 0.378432 0.405429 0.433253 0.461828 0.491067 0.520878 0.551154 0.581784 0.612640 0.643589 0.674483 0.705163 0.735462 0.765196 0.794175 0.822195 0.849041 0.874490 0.898308 0.920254 0.940077 0.957524 0.972335 0.984248 0.993001 0.998334 0.999991 0.997724 0.991295 0.980479 0.965071 0.944883 0.919755 0.889556 0.854186 0.813584 0.767731 0.716652 0.660425 0.599177 0.533098 0.462435 0.387498 0.308664 0.226377 0.141147 0.053554 0.035758 0.126078 0.216637 0.306607 0.395110 0.481227 0.564003 0.642457 0.715598 0.782433 0.841985 0.893304 0.935489 0.967700 0.989178 0.999265 0.997418 0.983231 0.956449 0.916985 0.864937 0.800597 0.724460 0.637236 0.539850 0.433439 0.319355 0.199147 0.074553 0.052523 0.180034 0.305820 0.427642 0.543222 0.650286 0.746613 0.830083 0.898728 0.950788 0.984759 0.999446 0.994008 0.968003 0.921419 0.854705 0.768788 0.665080 0.545473 0.412323 0.268414 0.116918 0.038669 0.194597 0.346953 0.491749 0.625037 0.743016 0.842148 0.919281 0.971753 0.997506 0.995176 0.964176 0.904755 0.818034 0.706018 0.571580 0.418413 0.250948 0.074249 0.106128 0.284303 0.454254 0.610026 0.745948 0.856848 0.938271 0.986676 0.999618 0.975888 0.915627 0.820378 0.693094 0.538091 0.360930 0.168250 0.032455 0.233116 0.425400 0.601065 0.752312 0.872161 0.954787 0.995843 0.992720 0.944740 0.853280 0.721787 0.555708 0.362308 0.150394 0.070055 0.288343 0.493565 0.675156 0.823455 0.930244 0.989242 0.996525 0.950825 0.853711 0.709612 0.525684 0.311516 0.078672 0.159897 0.390552 0.599743 0.774822 0.904834 0.981252 0.998584 0.954835 0.851757 0.694878 0.493290 0.259188 0.007190 0.246538 0.485301 0.692977 0.855140 0.960093 0.999787 0.970506 0.873280 0.713978 0.503053 0.254944 0.012853 0.280967 0.529535 0.739690 0.895017 0.982907 0.995650 0.931209 0.793560 0.592578 0.343433 0.065532 0.218928 0.486706 0.715416 0.885434 0.981652 0.994908 0.922966 0.770925 0.551000 0.281664 0.013811 0.309295 0.578102 0.795389 0.940536 0.999171 0.964716 0.839246 0.633542 0.366315 0.062623 0.248391 0.536268 0.772206 0.932003 0.998649 0.964245 0.831093 0.611737 0.327953 0.008711 0.312684 0.602038 0.827920 0.965153 0.997744 0.920895 0.741842 0.479386 0.162075 0.174771 0.492922 0.755568 0.931640 0.999602 0.950244 0.788106 0.531294 0.209660 0.138534 0.471058 0.746844 0.931102 0.999839 0.943162 0.766894 0.492231 0.153401 0.206438 0.540628 0.805035 0.963984 0.995206 0.893182 0.670291 0.355572 0.008853 0.373275 0.687126 0.906035 0.998237 0.949387 0.765021 0.470240 0.106548 0.273824 0.615317 0.867182 0.991135 0.967389 0.798061 0.507370 0.138434 0.252897 0.606403 0.866770 0.992366 0.962118 0.779329 0.471698 0.087421 0.312149 0.662194 0.904983 0.999533 0.928796 0.703026 0.358661 0.047273 0.446376 0.770380 0.962877 0.989360 0.843707 0.549877 0.158300 0.262473 0.637649 0.899491 0.999718 0.918693 0.669614 0.296770 0.131983 0.537407 0.843435 0.991620 0.952533 0.731999 0.370677 0.063031 0.485720 0.814929 0.985336 0.962000 0.747905 0.384128 0.057648 0.488986 0.822321 0.988850 0.953035 0.720580 0.338080 0.115937 0.546834 0.863543 0.997981 0.919994 0.644574 0.229507 0.236370 0.651935
1.000000 1.000000 1.000000 1.000000 1.000000 1.000000 1.000000 1.000000 1.000000 1.000000 1.000000 1.000000 1.000000 1.000000 1.000000 1.000000 1.000000 1.000000 1.000000 1.000000 1.000000 1.000000 1.000000 1.000000 1.000000 1.000000 1.000000 1.000000 1.000000 1.000000 1.000000 1.000000 1.000000 1.000000 1.000000 1.000000 1.000000 1.000000 1.000000 1.000000 1.000000 1.000000 1.000000 1.000000 1.000000 1.000000 1.000000 1.000000 1.000000 1.000000 1.000000 1.000000 0.922992 0.922992 0.922992 0.922992 0.922992 0.922992 0.922992 0.922992 0.922992 0.922992 0.922992 0.922992 0.922992 0.922992 0.922992 0.922992 0.922992 0.922992 0.922992 0.922992 0.922992 0.922992 0.922992 0.922992 0.922992 0.922992 0.922992 0.922992 0.922992 0.922992 0.922992 0.922992 0.922992 0.913172 0.911296 0.912443 0.910975 0.909551 0.908960 0.908564 0.909602 0.911199 0.913282 0.934937 0.938037 0.939282 0.940615 0.941994 0.944287 0.942114 0.949651 0.956146 0.955064 0.956190 0.949969 0.951409 0.950730 0.949976 0.951334 0.951492 0.949773 0.947729 0.946012 0.945431 0.945196 0.948855 0.949349 0.949491 0.950089 0.950029 0.950745 0.951334 0.949441 0.951688 0.943732 0.942402 0.947676 0.945562 0.946918 0.946875 0.947564 0.948361 0.948682 0.948956 0.945686 0.945205 0.944224 0.937504 0.930262 0.930505 0.932634 0.935411 0.932802 0.930241 0.931544 0.933296 0.932383 0.935743 0.923757 0.918736 0.891729 0.877583 0.868473 0.868770 0.873009 0.875795 0.873493 0.867331 0.858604 0.854555 0.854006 0.850146 0.841567 0.857011 0.851243 0.847605 0.851240 0.854554 0.860062 0.858328 0.853978 0.848882 0.843727 0.833218 0.834999 0.835169 0.839686 0.821869 0.810350 0.827055 0.819629 0.810953 0.819269 0.821323 0.818658 0.817308 0.817711 0.815248 0.808843 0.801062 0.804999 0.814169 0.815256 0.805368 0.802958 0.801150 0.800584 0.795227 0.800812 0.802916 0.799305 0.793819 0.811784 0.780184 0.800735 0.801995 0.784139 0.768547 0.757304 0.766473 0.776115 0.774663 0.768799 0.776229 0.776221 0.768177 0.744227 0.735107 0.742754 0.741122 0.730801 0.717931 0.724742 0.721144 0.718582 0.716259 0.718982 0.722634 0.700423 0.714524 0.719208 0.710877 0.723629 0.726329 0.717263 0.720645 0.724949 0.728155 0.728848 0.697498 0.700428 0.648214 0.638172 0.595982 0.592631 0.587376 0.531454 0.536539 0.517501 0.503060 0.503638 0.471950 0.521565 0.427323 0.415911 0.441661 0.370283 0.331783 0.349721 0.351090 0.362921 0.365731 0.361096 0.363991 0.348372 0.323616 0.300101 0.327516 0.343372 0.316949 0.318472 0.295808 0.281034 0.232599 0.248345 0.252369 0.283710 0.286747 0.269399 0.290471 0.333670 0.272847 0.255578 0.233650 0.259604 0.268255 0.263522 0.252631 0.268506 0.210912 0.214914 0.235961 0.238422 0.280162 0.306409 0.329347 0.326746 0.331393 0.360944 0.315077 0.325453 0.330007 0.320748 0.346523 0.349871 0.356296 0.350680 0.382350 0.380165 0.386615 0.387752 0.401390 0.438805 0.415093 0.393147 0.357917 0.368907 0.366539 0.374758 0.317882 0.292740 0.292029 0.257784 0.214377 0.216168 0.216470 0.171457 0.163950 0.146552 0.113823 0.112314 0.120529 0.149732 0.120606 0.136673 0.138939 0.138939 0.138939 0.138939 0.138939 0.138939 0.138939 0.138939 0.138939 0.138939 0.138939 0.138939 0.138939 0.138939 0.160773 0.160773 0.160773 0.160773 0.160773 0.160773 0.160773 0.160773 0.160773 0.160773 0.160773 0.160773
0.000000 0.000000 0.000000 0.000000 0.000000 0.000000 0.000000 0.000000 0.000000 0.000000 0.000000 0.000000 0.000000 0.000000 0.000000 0.000000 0.000000 0.000000 0.000000 0.000000 0.000000 0.000000 0.000000 0.000000 0.000000 0.000000 0.000000 0.000000 0.000000 0.000000 0.000000 0.000000 0.000000 0.000000 0.000000 0.000000 0.000000 0.000000 0.000000 0.000000 0.000000 0.000000 0.000000 0.000000 0.000000 0.000000 0.000000 0.000000 0.000000 0.000000 0.000000 0.000000 0.209657 0.209657 0.209657 0.209657 0.209657 0.209657 0.209657 0.209657 0.209657 0.209657 0.209657 0.209657 0.209657 0.209657 0.209657 0.209657 0.209657 0.209657 0.209657 0.209657 0.209657 0.209657 0.209657 0.209657 0.209657 0.209657 0.209657 0.209657 0.209657 0.209657 0.209657 0.209657 0.209657 0.244339 0.244339 0.244339 0.244339 0.244339 0.244339 0.244339 0.244339 0.244339 0.244339 0.244339 0.244339 0.244339 0.244339 0.244339 0.244339 0.244339 0.244339 0.244339 0.244339 0.244339 0.244339 0.244339 0.244339 0.244339 0.260378 0.260378 0.260378 0.260378 0.260378 0.260378 0.260378 0.260378 0.260378 0.260378 0.260378 0.260378 0.260378 0.260378 0.260378 0.260378 0.260378 0.260378 0.260378 0.260378 0.269680 0.269680 0.269680 0.269680 0.269680 0.269680 0.269680 0.269680 0.269680 0.269680 0.269680 0.269680 0.269680 0.269680 0.269680 0.269680 0.269680 0.269680 0.269680 0.269680 0.269680 0.269680 0.269680 0.269680 0.269680 0.269680 0.269680 0.269680 0.269680 0.269680 0.269680 0.269680 0.269680 0.280056 0.280056 0.280056 0.280056 0.280056 0.280056 0.280056 0.280056 0.280056 0.280056 0.280056 0.280056 0.280056 0.280056 0.280056 0.280056 0.280056 0.280056 0.280056 0.280056 0.280056 0.280056 0.280056 0.280056 0.280056 0.280056 0.280056 0.274721 0.274721 0.274721 0.274721 0.274721 0.274721 0.274721 0.274721 0.274721 0.274721 0.274721 0.274721 0.274721 0.285714 0.285714 0.285714 0.285714 0.285714 0.285714 0.285714 0.285714 0.285714 0.285714 0.285714 0.280056 0.280056 0.280056 0.280056 0.280056 0.280056 0.280056 0.280056 0.280056 0.280056 0.280056 0.274721 0.274721 0.274721 0.274721 0.274721 0.274721 0.274721 0.274721 0.274721 0.274721 0.274721 0.280056 0.280056 0.280056 0.280056 0.280056 0.280056 0.280056 0.280056 0.280056 0.280056 0.285714 0.285714 0.285714 0.285714 0.285714 0.285714 0.285714 0.285714 0.285714 0.269680 0.269680 0.269680 0.269680 0.269680 0.269680 0.269680 0.269680 0.269680 0.269680 0.274721 0.274721 0.274721 0.274721 0.274721 0.274721 0.274721 0.274721 0.274721 0.285714 0.285714 0.285714 0.285714 0.285714 0.285714 0.285714 0.285714 0.264906 0.264906 0.264906 0.264906 0.264906 0.264906 0.264906 0.264906 0.264906 0.274721 0.274721 0.274721 0.274721 0.274721 0.274721 0.274721 0.274721 0.269680 0.269680 0.269680 0.269680 0.269680 0.269680 0.269680 0.269680 0.269680 0.269680 0.269680 0.269680 0.269680 0.269680 0.269680 0.269680 0.280056 0.280056 0.280056 0.280056 0.280056 0.280056 0.280056 0.260378 0.260378 0.260378 0.260378 0.260378 0.260378 0.260378 0.260378 0.269680 0.269680 0.269680 0.269680 0.269680 0.269680 0.269680 0.264906 0.264906 0.264906 0.264906 0.264906 0.264906 0.264906 0.264906 0.264906 0.264906 0.264906 0.264906 0.264906 0.264906 0.260378 0.260378 0.260378 0.260378 0.260378 0.260378 0.260378 0.260378 0.260378 0.260378 0.260378 0.260378
