# Output from CTFFind version 4.1.9, run on 2019-11-03 19:00:07
# Input file: stack1_bm3d_averaged_1_3.25_0_1250_half.mrc ; Number of micrographs: 1
# Pixel size: 3.000 Angstroms ; acceleration voltage: 300.0 keV ; spherical aberration: 0.00 mm ; amplitude contrast: 0.07
# Box size: 512 pixels ; min. res.: 30.0 Angstroms ; max. res.: 5.0 Angstroms ; min. def.: 5000.0 um; max. def. 50000.0 um; num. frames averaged: 1
# 6 lines per micrograph: #1 - spatial frequency (1/Angstroms); #2 - 1D rotational average of spectrum (assuming no astigmatism); #3 - 1D rotational average of spectrum; #4 - CTF fit; #5 - cross-correlation between spectrum and CTF fit; #6 - 2sigma of expected cross correlation of noise
0.000000 0.000651 0.001302 0.001953 0.002604 0.003255 0.003906 0.004557 0.005208 0.005859 0.006510 0.007161 0.007812 0.008464 0.009115 0.009766 0.010417 0.011068 0.011719 0.012370 0.013021 0.013672 0.014323 0.014974 0.015625 0.016276 0.016927 0.017578 0.018229 0.018880 0.019531 0.020182 0.020833 0.021484 0.022135 0.022786 0.023438 0.024089 0.024740 0.025391 0.026042 0.026693 0.027344 0.027995 0.028646 0.029297 0.029948 0.030599 0.031250 0.031901 0.032552 0.033203 0.033854 0.034505 0.035156 0.035807 0.036458 0.037109 0.037760 0.038411 0.039062 0.039714 0.040365 0.041016 0.041667 0.042318 0.042969 0.043620 0.044271 0.044922 0.045573 0.046224 0.046875 0.047526 0.048177 0.048828 0.049479 0.050130 0.050781 0.051432 0.052083 0.052734 0.053385 0.054036 0.054688 0.055339 0.055990 0.056641 0.057292 0.057943 0.058594 0.059245 0.059896 0.060547 0.061198 0.061849 0.062500 0.063151 0.063802 0.064453 0.065104 0.065755 0.066406 0.067057 0.067708 0.068359 0.069010 0.069661 0.070312 0.070964 0.071615 0.072266 0.072917 0.073568 0.074219 0.074870 0.075521 0.076172 0.076823 0.077474 0.078125 0.078776 0.079427 0.080078 0.080729 0.081380 0.082031 0.082682 0.083333 0.083984 0.084635 0.085286 0.085938 0.086589 0.087240 0.087891 0.088542 0.089193 0.089844 0.090495 0.091146 0.091797 0.092448 0.093099 0.093750 0.094401 0.095052 0.095703 0.096354 0.097005 0.097656 0.098307 0.098958 0.099609 0.100260 0.100911 0.101562 0.102214 0.102865 0.103516 0.104167 0.104818 0.105469 0.106120 0.106771 0.107422 0.108073 0.108724 0.109375 0.110026 0.110677 0.111328 0.111979 0.112630 0.113281 0.113932 0.114583 0.115234 0.115885 0.116536 0.117188 0.117839 0.118490 0.119141 0.119792 0.120443 0.121094 0.121745 0.122396 0.123047 0.123698 0.124349 0.125000 0.125651 0.126302 0.126953 0.127604 0.128255 0.128906 0.129557 0.130208 0.130859 0.131510 0.132161 0.132812 0.133464 0.134115 0.134766 0.135417 0.136068 0.136719 0.137370 0.138021 0.138672 0.139323 0.139974 0.140625 0.141276 0.141927 0.142578 0.143229 0.143880 0.144531 0.145182 0.145833 0.146484 0.147135 0.147786 0.148438 0.149089 0.149740 0.150391 0.151042 0.151693 0.152344 0.152995 0.153646 0.154297 0.154948 0.155599 0.156250 0.156901 0.157552 0.158203 0.158854 0.159505 0.160156 0.160807 0.161458 0.162109 0.162760 0.163411 0.164062 0.164714 0.165365 0.166016 0.166667 0.167318 0.167969 0.168620 0.169271 0.169922 0.170573 0.171224 0.171875 0.172526 0.173177 0.173828 0.174479 0.175130 0.175781 0.176432 0.177083 0.177734 0.178385 0.179036 0.179688 0.180339 0.180990 0.181641 0.182292 0.182943 0.183594 0.184245 0.184896 0.185547 0.186198 0.186849 0.187500 0.188151 0.188802 0.189453 0.190104 0.190755 0.191406 0.192057 0.192708 0.193359 0.194010 0.194661 0.195312 0.195964 0.196615 0.197266 0.197917 0.198568 0.199219 0.199870 0.200521 0.201172 0.201823 0.202474 0.203125 0.203776 0.204427 0.205078 0.205729 0.206380 0.207031 0.207682 0.208333 0.208984 0.209635 0.210286 0.210938 0.211589 0.212240 0.212891 0.213542 0.214193 0.214844 0.215495 0.216146 0.216797 0.217448 0.218099 0.218750 0.219401 0.220052 0.220703 0.221354 0.222005 0.222656 0.223307 0.223958 0.224609 0.225260 0.225911 0.226562 0.227214 0.227865 0.228516 0.229167 0.229818 0.230469 0.231120 0.231771 0.232422 0.233073 0.233724 0.234375 0.235026 0.235677
       0.35428        0.35428        0.35428        0.35428        0.35428        0.35428        0.35428        0.35428        0.35428        0.35428        0.35428        0.35428        0.35428        0.35428        0.35428        0.35428        0.35428        0.35428        0.35428        0.35428        0.35428        0.35428        0.35428        0.35428        0.35428        0.35428        0.35428        0.35428        0.35428        0.35428        0.35428        0.35428        0.35428        0.35428        0.35428        0.35428        0.35428        0.35428        0.35428        0.35428        0.35428        0.35428        0.35428        0.35428        0.35428        0.35428        0.35428        0.35428        0.35428        0.35428        0.35428        0.49499        0.70838        0.40338        0.21092       -0.03633       -0.22604       -0.03960       -0.11382       -0.07951        0.02232       -0.10442       -0.09895       -0.03509       -0.01763       -0.12357       -0.15629       -0.29182       -0.46071       -0.55616       -0.50684       -0.43603       -0.33935       -0.53429       -0.39660       -0.52794       -0.43651       -0.45013       -0.34185       -0.31992       -0.28727       -0.19099       -0.10523       -0.10442        0.04249        0.02245        0.17854        0.18302        0.33398        0.42367        0.52072        0.55842        0.57013        0.59329        0.73229        0.65816        0.67063        0.58015        0.54935        0.63302        0.51869        0.48626        0.42342        0.32183        0.29025        0.30739        0.25737        0.12259        0.11243       -0.00318        0.04635        0.05625        0.02528        0.09773        0.13972        0.22731        0.29175        0.29890        0.39977        0.54288        0.55764        0.56819        0.67587        0.64408        0.63160        0.67218        0.64772        0.53681        0.53340        0.42175        0.36560        0.28195        0.20908        0.15304        0.15947        0.13754        0.17648        0.17067        0.24376        0.25294        0.33240        0.37684        0.40360        0.51254        0.55562        0.57647        0.56075        0.60766        0.54642        0.49503        0.50866        0.37886        0.30310        0.28712        0.27730        0.20500        0.20775        0.20620        0.23474        0.26446        0.35158        0.39201        0.41966        0.44561        0.45326        0.47772        0.44497        0.50167        0.44188        0.38834        0.35916        0.38875        0.33790        0.31738        0.25313        0.28882        0.25903        0.27628        0.28943        0.37300        0.39428        0.40550        0.44097        0.46235        0.44501        0.44275        0.47017        0.36839        0.36568        0.32792        0.27844        0.33440        0.29229        0.32715        0.34505        0.34177        0.35285        0.42821        0.39906        0.43851        0.40465        0.42359        0.39301        0.39451        0.31720        0.30137        0.29279        0.27941        0.30502        0.36364        0.38112        0.37189        0.38610        0.39065        0.36943        0.44134        0.41229        0.38526        0.37232        0.32750        0.30620        0.33801        0.31892        0.36210        0.32432        0.34796        0.36217        0.38744        0.39237        0.36449        0.37119        0.37148        0.34837        0.32160        0.35279        0.34167        0.35505        0.33192        0.35756        0.37611        0.33459        0.34150        0.36843        0.32594        0.29788        0.30862        0.31875        0.31937        0.31907        0.36057        0.32473        0.32810        0.33091        0.32654        0.33473        0.31942        0.32602        0.31468        0.31353        0.31613        0.33093        0.32543        0.34516        0.33656        0.39515        0.38576        0.32312        0.36553        0.35183        0.26385        0.28709        0.33203        0.30557        0.30891        0.34601        0.33150        0.32990        0.37230        0.37497        0.31529        0.29070        0.31205        0.34964        0.37263        0.39082        0.33382        0.32212        0.30250        0.29834        0.27632        0.31352        0.30250        0.32790        0.33358        0.31599        0.28177        0.34049        0.34712        0.35981        0.29527        0.31124        0.34644        0.38809        0.38584        0.35367        0.34591        0.32405        0.31120        0.31079        0.32804        0.31911        0.25110        0.25346        0.31594        0.31776        0.31899        0.30748        0.27273        0.25466        0.27178        0.28895        0.34727        0.30577        0.30832        0.35271        0.39408        0.35470        0.26819        0.29629        0.25668        0.29506        0.33831        0.36327        0.30587        0.30386        0.30427        0.28513        0.32168        0.25326        0.22956        0.21448        0.27594        0.26721        0.22924        0.30158        0.26165        0.33961        0.30771        0.27628        0.23196        0.19972        0.30789        0.37631        0.33818        0.12273        0.18648        0.29533        0.19196        0.18803       -0.02446        0.07135       -0.61546       -1.17750
2.800282 2.770637 2.741152 2.711826 2.682660 2.653654 2.624807 2.596121 2.567594 2.539227 2.511019 2.482972 2.455084 2.427356 2.399788 2.372379 2.345130 2.318041 2.291112 2.264343 2.237733 2.211283 2.184993 2.158863 2.132892 2.107082 2.081430 2.055939 2.030608 2.005436 1.980424 1.955572 1.930879 1.906347 1.881974 1.857761 1.833707 1.809814 1.786080 1.762506 1.739092 1.715837 1.692743 1.669808 1.647033 1.624417 1.601961 1.579666 1.557530 1.535553 1.513737 1.550125 1.900488 1.520329 1.249166 0.982886 0.548316 0.951829 0.650533 0.834104 0.919121 0.670886 0.659387 0.805131 0.786641 0.622921 0.601860 0.393459 0.075917 0.031165 0.018091 0.005589 0.326060 -0.062862 0.053708 -0.057515 0.003865 -0.022253 0.088136 0.091345 0.132492 0.196239 0.329335 0.282300 0.460868 0.392297 0.621882 0.548488 0.790525 0.810196 0.944473 1.038453 0.973766 1.016683 1.153311 1.016256 1.166092 0.926083 0.893605 0.994145 0.844537 0.821996 0.688918 0.564955 0.513410 0.495924 0.482356 0.251259 0.233371 0.123434 0.040520 0.177043 0.019178 0.100244 0.200401 0.240634 0.320738 0.341211 0.447415 0.531874 0.677548 0.527428 0.767205 0.749926 0.628511 0.762536 0.712544 0.600638 0.472615 0.468621 0.307188 0.233348 0.096920 0.037232 -0.011806 0.012054 -0.051234 0.010874 0.072782 0.077389 0.106812 0.222046 0.241302 0.331967 0.429183 0.424271 0.474289 0.430275 0.456214 0.331595 0.331472 0.284839 0.067737 0.067977 0.021860 -0.038784 -0.050955 -0.086458 -0.044023 -0.046880 0.049594 0.108755 0.163965 0.216354 0.187335 0.257967 0.249010 0.238021 0.229599 0.207360 0.102549 0.100560 0.104281 0.023032 0.005000 -0.055176 -0.000540 -0.015889 -0.007960 0.023696 0.104030 0.098291 0.155683 0.186258 0.253281 0.119406 0.229329 0.118983 0.114043 0.039814 -0.033065 0.026035 -0.015475 0.003360 0.003954 0.066194 0.009836 0.077365 0.128417 0.150186 0.125801 0.096013 0.111961 0.084739 0.064673 -0.044313 -0.035601 -0.047699 -0.073546 0.001665 0.065291 0.080214 0.012602 0.087706 0.081398 0.065800 0.157875 0.068947 0.084967 0.065956 -0.045772 0.002285 0.013532 -0.009391 0.058445 0.004449 0.025834 0.047010 0.063121 0.059555 0.056881 0.000737 0.060656 -0.011425 0.011385 0.021070 0.005218 0.051273 0.005969 0.032908 0.047222 -0.015895 0.034303 0.045598 -0.029061 -0.057331 -0.002991 -0.011303 -0.036972 -0.000968 0.054009 -0.002614 0.014719 0.059419 -0.018667 0.052898 0.036132 0.017809 0.011870 0.050170 0.013751 0.045136 0.016732 0.080418 0.062056 0.178245 0.115615 0.056634 0.114488 0.067106 -0.044585 0.044176 0.064968 0.029779 0.062575 0.071291 0.031166 0.038503 0.113897 0.075969 0.033938 -0.049639 0.046088 0.082220 0.100784 0.110233 0.038648 0.010516 0.020188 -0.005255 -0.030292 0.022046 0.046682 0.021562 0.093211 -0.003635 -0.027890 0.028317 0.063374 0.009514 -0.010821 -0.037793 0.073135 0.090472 0.073662 0.011808 0.017350 -0.024982 -0.027259 -0.003940 -0.048614 0.000543 -0.133351 -0.090860 -0.017812 0.004652 -0.028355 -0.014445 -0.052280 -0.036543 -0.031150 -0.060842 0.075821 -0.015932 0.007305 0.071869 0.144076 -0.001665 -0.039656 -0.006879 -0.062018 0.024260 0.047175 0.096372 0.011149 0.020136 0.001231 0.020111 0.101774 -0.035042 -0.053283 -0.100520 0.053433 0.027951 -0.023973 0.052464 0.008843 0.181012 0.047533 0.091705 -0.051288 0.017978 0.074875 0.214585 0.413205 0.081951 0.239063 0.447839 0.180903 0.259954 -0.188731 0.278210 -0.509466
0.072396 0.072909 0.074449 0.077015 0.080606 0.085221 0.090860 0.097520 0.105200 0.113896 0.123604 0.134321 0.146040 0.158755 0.172458 0.187138 0.202785 0.219384 0.236921 0.255375 0.274727 0.294952 0.316022 0.337906 0.360569 0.383972 0.408071 0.432816 0.458155 0.484027 0.510369 0.537108 0.564169 0.591466 0.618911 0.646405 0.673846 0.701121 0.728113 0.754696 0.780737 0.806098 0.830632 0.854186 0.876602 0.897715 0.917356 0.935349 0.951518 0.965681 0.977655 0.987256 0.994301 0.998607 0.999997 0.998297 0.993338 0.984961 0.973017 0.957370 0.937897 0.914491 0.887066 0.855556 0.819918 0.780135 0.736219 0.688213 0.636190 0.580260 0.520568 0.457298 0.390675 0.320963 0.248467 0.173537 0.096562 0.017975 0.061750 0.142101 0.222529 0.302449 0.381245 0.458276 0.532876 0.604363 0.672044 0.735222 0.793203 0.845306 0.890869 0.929258 0.959880 0.982189 0.995699 0.999990 0.994724 0.979649 0.954613 0.919567 0.874580 0.819839 0.755661 0.682492 0.600912 0.511636 0.415510 0.313513 0.206746 0.096426 0.016124 0.129490 0.242182 0.352651 0.459312 0.560565 0.654819 0.740524 0.816189 0.880420 0.931945 0.969642 0.992570 0.999992 0.991404 0.966557 0.925472 0.868457 0.796118 0.709366 0.609407 0.497746 0.376165 0.246706 0.111645 0.026551 0.165253 0.301728 0.433185 0.556837 0.669956 0.769947 0.854400 0.921163 0.968405 0.994667 0.998922 0.980616 0.939705 0.876685 0.792597 0.689035 0.568127 0.432507 0.285266 0.129900 0.029773 0.189696 0.345673 0.493483 0.628989 0.748266 0.847716 0.924192 0.975105 0.998526 0.993274 0.958981 0.896138 0.806119 0.691171 0.554386 0.399628 0.231451 0.054969 0.124282 0.300516 0.467883 0.620658 0.753453 0.861414 0.940406 0.987200 0.999617 0.976649 0.918540 0.826831 0.704343 0.555129 0.384353 0.198148 0.003399 0.192490 0.381877 0.557177 0.711175 0.837331 0.930078 0.985091 0.999507 0.972108 0.903427 0.795788 0.653264 0.481565 0.287832 0.080368 0.131698 0.338806 0.531390 0.700334 0.837405 0.935687 0.989951 0.996971 0.955741 0.867607 0.736269 0.567678 0.369801 0.152284 0.073999 0.297469 0.506434 0.689703 0.837199 0.940545 0.993572 0.992724 0.937338 0.829773 0.675367 0.482228 0.260848 0.023573 0.216064 0.444096 0.646949 0.812263 0.929662 0.991457 0.993195 0.934021 0.816846 0.648265 0.438254 0.199630 0.052702 0.302639 0.533915 0.731157 0.880938 0.972722 0.999668 0.959186 0.853243 0.688343 0.475210 0.228149 0.035872 0.298352 0.540539 0.744793 0.895875 0.982155 0.996555 0.937195 0.807681 0.616973 0.378840 0.110935 0.166465 0.431972 0.664740 0.846108 0.961157 0.999992 0.958671 0.839672 0.651864 0.409923 0.133272 0.155424 0.432097 0.673256 0.858029 0.970008 0.998783 0.940992 0.800792 0.589674 0.325615 0.031635 0.266165 0.540886 0.767286 0.924124 0.996227 0.976049 0.864556 0.671337 0.413894 0.116154 0.193695 0.485817 0.731624 0.906590 0.992784 0.980798 0.870884 0.673141 0.406730 0.098111 0.221514 0.519301 0.764152 0.930013 0.998720 0.962103 0.823074 0.595561 0.303244 0.022801 0.347338 0.634751 0.852983 0.977166 0.992575 0.896491 0.698776 0.421003 0.094251 0.244302 0.555543 0.802973 0.957019 0.998697 0.922073 0.735254 0.459689 0.127867 0.220409 0.542757 0.799360 0.957949 0.997982 0.913438 0.713882 0.423556 0.078598 0.277350 0.598625 0.843388 0.979175 0.987323 0.865694 0.629294 0.308603 0.054200 0.410686 0.712614 0.918492 0.999406
1.000000 1.000000 1.000000 1.000000 1.000000 1.000000 1.000000 1.000000 1.000000 1.000000 1.000000 1.000000 1.000000 1.000000 1.000000 1.000000 1.000000 1.000000 1.000000 1.000000 1.000000 1.000000 1.000000 1.000000 1.000000 1.000000 1.000000 1.000000 1.000000 1.000000 1.000000 1.000000 1.000000 1.000000 1.000000 1.000000 1.000000 1.000000 1.000000 1.000000 1.000000 1.000000 1.000000 1.000000 1.000000 1.000000 1.000000 1.000000 1.000000 1.000000 1.000000 1.000000 0.910202 0.910202 0.900636 0.900636 0.900636 0.900636 0.900636 0.900636 0.900636 0.900636 0.900636 0.900636 0.900636 0.900636 0.900636 0.900636 0.900636 0.900636 0.900636 0.900636 0.900636 0.900636 0.900636 0.900636 0.900636 0.900636 0.900636 0.900636 0.900636 0.900636 0.900636 0.900636 0.900636 0.900636 0.900636 0.900636 0.900636 0.900636 0.900636 0.900636 0.900636 0.900636 0.900636 0.888190 0.894955 0.898095 0.899876 0.903643 0.904615 0.903903 0.903597 0.903324 0.903839 0.905265 0.913188 0.931930 0.942791 0.948845 0.953574 0.961437 0.963345 0.962618 0.968809 0.974941 0.972980 0.972622 0.973231 0.974614 0.976776 0.976966 0.978447 0.978731 0.979355 0.979570 0.979286 0.978865 0.978421 0.978246 0.977827 0.977981 0.978578 0.978958 0.979240 0.979449 0.979547 0.970806 0.970786 0.966103 0.966615 0.967700 0.967406 0.953991 0.950997 0.954841 0.954241 0.954100 0.953991 0.953568 0.954052 0.946333 0.941549 0.941574 0.928384 0.926438 0.925430 0.924146 0.923221 0.923432 0.922759 0.924649 0.922669 0.913110 0.906362 0.877752 0.898823 0.891622 0.861679 0.846331 0.848548 0.851063 0.851434 0.849074 0.846407 0.841387 0.834023 0.835060 0.838323 0.843319 0.841649 0.841575 0.844192 0.843452 0.822789 0.810490 0.798358 0.788019 0.788149 0.788665 0.786473 0.779547 0.787837 0.784719 0.781110 0.772435 0.766266 0.743076 0.724122 0.728308 0.736507 0.751966 0.746371 0.721113 0.686575 0.721233 0.716776 0.713527 0.716620 0.711410 0.684885 0.677395 0.681788 0.660702 0.670905 0.668565 0.665147 0.666936 0.650618 0.625825 0.629006 0.615852 0.604210 0.598888 0.602775 0.630893 0.589679 0.584370 0.572143 0.563757 0.562798 0.516843 0.522633 0.524703 0.507350 0.502568 0.482845 0.484489 0.487153 0.483536 0.476753 0.482542 0.480878 0.511960 0.502675 0.501074 0.499961 0.502528 0.479540 0.459614 0.448926 0.449677 0.446581 0.475089 0.475312 0.475730 0.471927 0.463577 0.448646 0.416900 0.412341 0.415972 0.387168 0.376121 0.346750 0.340340 0.362686 0.350443 0.317418 0.290706 0.264388 0.264758 0.256385 0.238099 0.258034 0.206274 0.141392 0.117227 0.112030 0.124569 0.145106 0.154676 0.135564 0.151538 0.191332 0.204700 0.193637 0.199642 0.163707 0.135191 0.159830 0.174929 0.118523 0.132940 0.115269 0.126742 0.125350 0.103611 0.119815 0.060824 0.031630 0.028495 0.050154 0.060799 0.057105 0.056299 0.047659 0.040105 0.049700 0.056487 0.061232 0.041556 0.082448 0.090197 0.089918 0.059590 0.056377 0.060896 0.076779 0.079738 0.077426 0.081064 0.106551 0.118919 0.123287 0.139681 0.131938 0.112044 0.105273 0.141070 0.152964 0.124589 0.149069 0.133781 0.088841 0.088841 0.067234 0.067234 0.067234 0.067234 0.067234 0.067234 0.067234 0.067234 0.067234 0.060965 0.060965 0.060965 0.060965 0.060965 0.060965 0.060965 0.060965 0.060965 0.060965 0.060965 0.060965 0.060965 0.060965 0.060965 0.060965 0.060965 0.060965
0.000000 0.000000 0.000000 0.000000 0.000000 0.000000 0.000000 0.000000 0.000000 0.000000 0.000000 0.000000 0.000000 0.000000 0.000000 0.000000 0.000000 0.000000 0.000000 0.000000 0.000000 0.000000 0.000000 0.000000 0.000000 0.000000 0.000000 0.000000 0.000000 0.000000 0.000000 0.000000 0.000000 0.000000 0.000000 0.000000 0.000000 0.000000 0.000000 0.000000 0.000000 0.000000 0.000000 0.000000 0.000000 0.000000 0.000000 0.000000 0.000000 0.000000 0.000000 0.000000 0.181818 0.181818 0.199007 0.199007 0.199007 0.199007 0.199007 0.199007 0.199007 0.199007 0.199007 0.199007 0.199007 0.199007 0.199007 0.199007 0.199007 0.199007 0.199007 0.199007 0.199007 0.199007 0.199007 0.199007 0.199007 0.199007 0.199007 0.199007 0.199007 0.199007 0.199007 0.199007 0.199007 0.199007 0.199007 0.199007 0.199007 0.199007 0.199007 0.199007 0.199007 0.199007 0.199007 0.230940 0.230940 0.230940 0.230940 0.230940 0.230940 0.230940 0.230940 0.230940 0.230940 0.230940 0.230940 0.230940 0.230940 0.230940 0.230940 0.230940 0.230940 0.230940 0.230940 0.230940 0.230940 0.230940 0.230940 0.230940 0.230940 0.230940 0.230940 0.244339 0.244339 0.244339 0.244339 0.244339 0.244339 0.244339 0.244339 0.244339 0.244339 0.244339 0.244339 0.244339 0.244339 0.244339 0.244339 0.244339 0.244339 0.244339 0.244339 0.244339 0.244339 0.244339 0.251976 0.251976 0.251976 0.251976 0.251976 0.251976 0.251976 0.251976 0.251976 0.251976 0.251976 0.251976 0.251976 0.251976 0.251976 0.251976 0.251976 0.251976 0.251976 0.251976 0.264906 0.264906 0.264906 0.264906 0.264906 0.264906 0.264906 0.264906 0.264906 0.264906 0.264906 0.264906 0.264906 0.264906 0.264906 0.264906 0.264906 0.264906 0.264906 0.264906 0.264906 0.264906 0.264906 0.264906 0.264906 0.264906 0.264906 0.264906 0.264906 0.264906 0.264906 0.264906 0.264906 0.264906 0.264906 0.264906 0.264906 0.264906 0.264906 0.264906 0.264906 0.264906 0.264906 0.264906 0.264906 0.264906 0.264906 0.264906 0.264906 0.264906 0.264906 0.264906 0.264906 0.264906 0.264906 0.264906 0.264906 0.264906 0.264906 0.264906 0.264906 0.264906 0.264906 0.264906 0.264906 0.264906 0.264906 0.264906 0.264906 0.264906 0.264906 0.264906 0.264906 0.264906 0.264906 0.269680 0.269680 0.269680 0.269680 0.269680 0.269680 0.269680 0.269680 0.269680 0.269680 0.269680 0.269680 0.264906 0.264906 0.264906 0.264906 0.264906 0.264906 0.264906 0.264906 0.264906 0.264906 0.264906 0.264906 0.269680 0.269680 0.269680 0.269680 0.269680 0.269680 0.269680 0.269680 0.269680 0.269680 0.269680 0.264906 0.264906 0.264906 0.264906 0.264906 0.264906 0.264906 0.264906 0.264906 0.264906 0.264906 0.256074 0.256074 0.256074 0.256074 0.256074 0.256074 0.256074 0.256074 0.256074 0.256074 0.256074 0.264906 0.264906 0.264906 0.264906 0.264906 0.264906 0.264906 0.264906 0.264906 0.264906 0.260378 0.260378 0.260378 0.260378 0.260378 0.260378 0.260378 0.260378 0.260378 0.260378 0.264906 0.264906 0.264906 0.264906 0.264906 0.264906 0.264906 0.264906 0.264906 0.260378 0.260378 0.260378 0.260378 0.260378 0.260378 0.260378 0.260378 0.260378 0.256074 0.256074 0.256074 0.256074 0.256074 0.256074 0.256074 0.256074 0.256074 0.251976 0.251976 0.251976 0.251976 0.251976 0.251976 0.251976 0.251976 0.251976 0.251976 0.251976 0.251976 0.251976 0.251976 0.251976 0.251976 0.251976 0.251976
