# Output from CTFFind version 4.1.9, run on 2019-11-02 17:59:15
# Input file: stack16_bm3d_averaged_1_1.75_0_250_half.mrc ; Number of micrographs: 1
# Pixel size: 3.000 Angstroms ; acceleration voltage: 300.0 keV ; spherical aberration: 0.00 mm ; amplitude contrast: 0.07
# Box size: 512 pixels ; min. res.: 30.0 Angstroms ; max. res.: 5.0 Angstroms ; min. def.: 5000.0 um; max. def. 50000.0 um; num. frames averaged: 1
# 6 lines per micrograph: #1 - spatial frequency (1/Angstroms); #2 - 1D rotational average of spectrum (assuming no astigmatism); #3 - 1D rotational average of spectrum; #4 - CTF fit; #5 - cross-correlation between spectrum and CTF fit; #6 - 2sigma of expected cross correlation of noise
0.000000 0.000651 0.001302 0.001953 0.002604 0.003255 0.003906 0.004557 0.005208 0.005859 0.006510 0.007161 0.007812 0.008464 0.009115 0.009766 0.010417 0.011068 0.011719 0.012370 0.013021 0.013672 0.014323 0.014974 0.015625 0.016276 0.016927 0.017578 0.018229 0.018880 0.019531 0.020182 0.020833 0.021484 0.022135 0.022786 0.023438 0.024089 0.024740 0.025391 0.026042 0.026693 0.027344 0.027995 0.028646 0.029297 0.029948 0.030599 0.031250 0.031901 0.032552 0.033203 0.033854 0.034505 0.035156 0.035807 0.036458 0.037109 0.037760 0.038411 0.039062 0.039714 0.040365 0.041016 0.041667 0.042318 0.042969 0.043620 0.044271 0.044922 0.045573 0.046224 0.046875 0.047526 0.048177 0.048828 0.049479 0.050130 0.050781 0.051432 0.052083 0.052734 0.053385 0.054036 0.054688 0.055339 0.055990 0.056641 0.057292 0.057943 0.058594 0.059245 0.059896 0.060547 0.061198 0.061849 0.062500 0.063151 0.063802 0.064453 0.065104 0.065755 0.066406 0.067057 0.067708 0.068359 0.069010 0.069661 0.070312 0.070964 0.071615 0.072266 0.072917 0.073568 0.074219 0.074870 0.075521 0.076172 0.076823 0.077474 0.078125 0.078776 0.079427 0.080078 0.080729 0.081380 0.082031 0.082682 0.083333 0.083984 0.084635 0.085286 0.085938 0.086589 0.087240 0.087891 0.088542 0.089193 0.089844 0.090495 0.091146 0.091797 0.092448 0.093099 0.093750 0.094401 0.095052 0.095703 0.096354 0.097005 0.097656 0.098307 0.098958 0.099609 0.100260 0.100911 0.101562 0.102214 0.102865 0.103516 0.104167 0.104818 0.105469 0.106120 0.106771 0.107422 0.108073 0.108724 0.109375 0.110026 0.110677 0.111328 0.111979 0.112630 0.113281 0.113932 0.114583 0.115234 0.115885 0.116536 0.117188 0.117839 0.118490 0.119141 0.119792 0.120443 0.121094 0.121745 0.122396 0.123047 0.123698 0.124349 0.125000 0.125651 0.126302 0.126953 0.127604 0.128255 0.128906 0.129557 0.130208 0.130859 0.131510 0.132161 0.132812 0.133464 0.134115 0.134766 0.135417 0.136068 0.136719 0.137370 0.138021 0.138672 0.139323 0.139974 0.140625 0.141276 0.141927 0.142578 0.143229 0.143880 0.144531 0.145182 0.145833 0.146484 0.147135 0.147786 0.148438 0.149089 0.149740 0.150391 0.151042 0.151693 0.152344 0.152995 0.153646 0.154297 0.154948 0.155599 0.156250 0.156901 0.157552 0.158203 0.158854 0.159505 0.160156 0.160807 0.161458 0.162109 0.162760 0.163411 0.164062 0.164714 0.165365 0.166016 0.166667 0.167318 0.167969 0.168620 0.169271 0.169922 0.170573 0.171224 0.171875 0.172526 0.173177 0.173828 0.174479 0.175130 0.175781 0.176432 0.177083 0.177734 0.178385 0.179036 0.179688 0.180339 0.180990 0.181641 0.182292 0.182943 0.183594 0.184245 0.184896 0.185547 0.186198 0.186849 0.187500 0.188151 0.188802 0.189453 0.190104 0.190755 0.191406 0.192057 0.192708 0.193359 0.194010 0.194661 0.195312 0.195964 0.196615 0.197266 0.197917 0.198568 0.199219 0.199870 0.200521 0.201172 0.201823 0.202474 0.203125 0.203776 0.204427 0.205078 0.205729 0.206380 0.207031 0.207682 0.208333 0.208984 0.209635 0.210286 0.210938 0.211589 0.212240 0.212891 0.213542 0.214193 0.214844 0.215495 0.216146 0.216797 0.217448 0.218099 0.218750 0.219401 0.220052 0.220703 0.221354 0.222005 0.222656 0.223307 0.223958 0.224609 0.225260 0.225911 0.226562 0.227214 0.227865 0.228516 0.229167 0.229818 0.230469 0.231120 0.231771 0.232422 0.233073 0.233724 0.234375 0.235026 0.235677
       0.34017        0.34017        0.34017        0.34017        0.34017        0.34017        0.34017        0.34017        0.34017        0.34017        0.34017        0.34017        0.34017        0.34017        0.34017        0.34017        0.34017        0.34017        0.34017        0.34017        0.34017        0.34017        0.34017        0.34017        0.34017        0.34017        0.34017        0.34017        0.34017        0.34017        0.34017        0.34017        0.34017        0.34017        0.34017        0.34017        0.34017        0.34017        0.34017        0.34017        0.34017        0.34017        0.34017        0.34017        0.34017        0.34017        0.34017        0.34017        0.34017        0.34017        0.34017        0.48445        0.69260        0.45481       -0.11883       -0.41399       -0.57487       -0.66655       -0.74557       -0.76365       -0.87247       -0.92056       -0.75913       -0.92703       -0.87489       -1.02781       -1.10302       -0.99007       -0.96304       -0.88458       -0.84919       -0.74725       -0.64057       -0.50040       -0.42608       -0.22308       -0.11532       -0.02343        0.19794        0.23874        0.30394        0.37525        0.43048        0.50743        0.57408        0.59684        0.58381        0.49604        0.54195        0.48247        0.39461        0.32233        0.19809        0.16644        0.09208       -0.05379       -0.11206       -0.08980        0.01531       -0.01658        0.02409        0.02357        0.19829        0.21537        0.39112        0.45322        0.55898        0.69180        0.75765        0.73401        0.69444        0.68449        0.57500        0.52858        0.39314        0.27508        0.19315        0.15370        0.06893        0.03246        0.02108        0.06247        0.08135        0.27624        0.41233        0.50465        0.58748        0.63398        0.69411        0.65281        0.65104        0.66314        0.59873        0.48310        0.28776        0.24169        0.20578        0.12310        0.03905        0.09112        0.10905        0.24843        0.34976        0.41445        0.50194        0.54089        0.64788        0.59620        0.54646        0.51353        0.35806        0.20310        0.21232        0.15537        0.12751        0.12760        0.21441        0.25093        0.34907        0.43656        0.42967        0.53661        0.50259        0.45955        0.46079        0.37536        0.32427        0.26609        0.20571        0.22603        0.21227        0.20057        0.30630        0.45143        0.47661        0.48509        0.55404        0.49565        0.44753        0.39653        0.30109        0.23130        0.23411        0.23315        0.25992        0.27946        0.32846        0.43640        0.50054        0.49155        0.46046        0.40389        0.38271        0.35501        0.24598        0.21900        0.24905        0.29371        0.35995        0.35777        0.38923        0.41999        0.43911        0.37293        0.34659        0.31360        0.31427        0.27146        0.25858        0.29591        0.34518        0.40651        0.41456        0.38850        0.38536        0.39652        0.34578        0.28768        0.30023        0.29380        0.30313        0.35496        0.37894        0.41463        0.35056        0.35953        0.38326        0.34411        0.31149        0.28087        0.28736        0.33402        0.32013        0.32121        0.35809        0.38570        0.33161        0.35159        0.30170        0.30478        0.27810        0.28015        0.29931        0.32587        0.38076        0.35881        0.34270        0.31463        0.27926        0.26952        0.29280        0.27956        0.31725        0.36263        0.39339        0.33190        0.32065        0.30344        0.30294        0.29670        0.28259        0.30966        0.33446        0.33020        0.33535        0.31386        0.34886        0.32073        0.29209        0.31273        0.32225        0.34857        0.35269        0.31715        0.31138        0.29374        0.31644        0.30359        0.33127        0.38716        0.32128        0.35511        0.30842        0.30335        0.29471        0.30741        0.29362        0.30600        0.31251        0.33622        0.35168        0.29714        0.31988        0.31877        0.29874        0.28879        0.30541        0.31991        0.35196        0.34791        0.32046        0.30428        0.27493        0.24311        0.31472        0.34209        0.32063        0.29587        0.27182        0.28981        0.32575        0.31915        0.29875        0.34170        0.32546        0.29614        0.23630        0.28074        0.28708        0.28317        0.33321        0.32512        0.34770        0.34677        0.29057        0.27843        0.29338        0.27888        0.30585        0.27345        0.26002        0.25528        0.27742        0.29325        0.29937        0.28955        0.25865        0.31913        0.31494        0.30404        0.25722        0.25101        0.22403        0.24740        0.24003        0.29456        0.36113        0.24276        0.23275        0.27545        0.23011        0.22142        0.30941        0.25094        0.13493        0.17361        0.21892        0.29012        0.24709        0.08877        0.07501       -0.43635       -0.80641
3.061227 3.023059 2.985136 2.947460 2.910030 2.872845 2.835907 2.799214 2.762767 2.726566 2.690611 2.654902 2.619439 2.584221 2.549250 2.514524 2.480045 2.445811 2.411823 2.378081 2.344585 2.311335 2.278331 2.245572 2.213060 2.180793 2.148773 2.116998 2.085469 2.054186 2.023149 1.992357 1.961812 1.931513 1.901459 1.871652 1.842090 1.812774 1.783704 1.754880 1.726302 1.697969 1.669883 1.642043 1.614448 1.587099 1.559996 1.533140 1.506529 1.480164 1.454044 1.515060 1.688473 1.614446 0.958332 0.682640 0.474878 0.424699 0.323592 0.261527 0.199841 0.014073 0.198191 0.079820 -0.013248 -0.060456 -0.204999 -0.156602 -0.089680 -0.093602 -0.089428 0.011346 0.032934 0.230974 0.148751 0.360476 0.444659 0.478274 0.709067 0.695367 0.703931 0.829215 0.814312 0.840928 0.925971 0.885933 0.930782 0.745897 0.831249 0.833530 0.627764 0.601932 0.451323 0.432822 0.368024 0.213845 0.121942 0.096580 0.211757 0.140045 0.208439 0.113016 0.294821 0.282764 0.457570 0.408403 0.580966 0.636054 0.750288 0.704189 0.657598 0.650857 0.516694 0.497768 0.351335 0.294063 0.118915 0.149685 0.005929 -0.004923 -0.040173 -0.030861 -0.002591 0.034923 0.278434 0.322414 0.389719 0.391464 0.458734 0.508070 0.473295 0.500084 0.388512 0.391259 0.153095 0.078429 0.077034 -0.010478 -0.130004 -0.045029 -0.118575 0.012295 0.139008 0.161447 0.255560 0.259644 0.376323 0.453339 0.342866 0.396971 0.282821 0.122713 0.050578 0.053213 0.029276 0.011531 0.014723 0.111541 0.119484 0.266017 0.234530 0.293544 0.349321 0.254065 0.254143 0.223068 0.129353 0.086708 0.037547 0.027639 0.038057 -0.012868 0.020829 0.181268 0.221290 0.248444 0.292150 0.230015 0.243152 0.143005 0.117966 -0.012285 -0.008969 -0.008491 0.011389 0.014146 0.033028 0.103308 0.193654 0.204084 0.228807 0.129430 0.136364 0.076525 0.059955 -0.066719 -0.018572 0.006162 0.057496 0.067414 0.069508 0.153386 0.099110 0.160275 0.062498 0.048893 0.045109 0.031814 0.006327 -0.000713 0.035443 0.085267 0.119128 0.131415 0.064174 0.114656 0.090505 0.006878 0.011331 0.012467 0.001090 0.040654 0.060468 0.104588 0.093091 0.049556 0.072698 0.074185 0.035240 0.012458 -0.014920 0.002212 0.058394 0.015360 0.035995 0.058588 0.087422 0.062516 0.035565 0.019110 0.012659 -0.009769 -0.004951 0.011311 0.052794 0.101581 0.063930 0.056528 0.025223 -0.012370 -0.007461 0.020090 0.012401 0.033989 0.099522 0.079010 0.011477 0.050799 -0.000016 0.034940 -0.002525 0.003938 0.033908 0.052888 0.028003 0.041797 0.025886 0.052104 0.018883 -0.000770 0.025547 0.036390 0.055028 0.040280 0.036041 -0.002512 -0.013113 0.022747 0.003643 0.048215 0.073144 0.030418 0.018702 -0.002178 -0.002682 -0.015446 0.007984 -0.003030 0.003969 -0.012364 0.050754 0.028006 0.008705 0.033652 -0.013247 0.002913 -0.013396 -0.003144 0.026954 0.061366 0.046492 0.021050 0.012142 -0.031964 -0.031301 0.011289 0.046458 0.027919 0.023636 -0.029447 -0.006808 0.035914 0.044361 0.002307 0.055188 0.040106 0.017652 -0.048376 0.000467 0.029063 -0.003550 0.041746 0.061626 0.073569 0.059251 0.019764 0.009993 0.010994 0.003256 0.047413 -0.036129 -0.013012 -0.039288 -0.024634 -0.000701 -0.004365 0.016398 -0.092959 0.007531 -0.013739 -0.023821 -0.076142 -0.043362 -0.115585 -0.044530 -0.079057 -0.017811 0.070556 -0.101819 -0.062409 0.024440 -0.025112 -0.079413 0.047635 0.024098 -0.059608 -0.053948 0.018141 0.255524 0.232852 0.002783 0.069588 -0.708277
0.072396 0.073046 0.074995 0.078244 0.082790 0.088633 0.095770 0.104198 0.113914 0.124912 0.137185 0.150726 0.165524 0.181566 0.198838 0.217320 0.236991 0.257825 0.279791 0.302854 0.326972 0.352099 0.378182 0.405160 0.432964 0.461519 0.490739 0.520531 0.550790 0.581402 0.612244 0.643179 0.674061 0.704733 0.735025 0.764757 0.793736 0.821760 0.848616 0.874079 0.897916 0.919887 0.939742 0.957226 0.972082 0.984048 0.992861 0.998262 0.999996 0.997813 0.991477 0.980763 0.965464 0.945394 0.920392 0.890325 0.855093 0.814635 0.768931 0.718004 0.661930 0.600837 0.534910 0.464395 0.389602 0.310903 0.228741 0.143624 0.056127 0.033106 0.123368 0.213893 0.303855 0.392380 0.478550 0.561411 0.639987 0.713286 0.780317 0.840103 0.891695 0.934190 0.966748 0.988608 0.999107 0.997699 0.983974 0.957672 0.918698 0.867145 0.803293 0.727634 0.640864 0.543901 0.437872 0.324118 0.204178 0.079781 0.047177 0.174659 0.300509 0.422496 0.538344 0.645783 0.742589 0.826641 0.895965 0.948791 0.983607 0.999203 0.994723 0.969703 0.924113 0.858378 0.773400 0.670566 0.551744 0.419261 0.275881 0.124752 0.030648 0.186587 0.339161 0.484390 0.618325 0.737159 0.837344 0.915706 0.969558 0.996808 0.996056 0.966669 0.908849 0.823665 0.713070 0.579885 0.427753 0.261061 0.084830 0.095415 0.273813 0.444354 0.601083 0.738309 0.850832 0.934153 0.984674 0.999878 0.978480 0.920531 0.827484 0.702199 0.548900 0.373066 0.181264 0.019070 0.219905 0.412929 0.589887 0.742956 0.865092 0.950393 0.994405 0.994394 0.949548 0.861093 0.732331 0.568562 0.376924 0.166112 0.053978 0.272701 0.479159 0.662759 0.813764 0.923845 0.986569 0.997827 0.956146 0.862873 0.722218 0.541128 0.329005 0.097262 0.141245 0.372923 0.584204 0.762355 0.896273 0.977221 0.999452 0.960679 0.862342 0.709656 0.511426 0.279597 0.028596 0.225520 0.466083 0.676898 0.843372 0.953552 0.999059 0.975786 0.884344 0.730179 0.523351 0.277962 0.011259 0.257521 0.508528 0.722766 0.883565 0.977938 0.997704 0.940289 0.809113 0.613512 0.368184 0.092178 0.192532 0.462751 0.695956 0.872215 0.975937 0.997355 0.933547 0.788895 0.574943 0.309584 0.015671 0.280882 0.553367 0.776689 0.929734 0.997444 0.972423 0.855853 0.657649 0.395749 0.094627 0.216913 0.508439 0.750882 0.919466 0.996352 0.972634 0.849518 0.638489 0.360393 0.043530 0.279148 0.573407 0.807389 0.955122 0.999521 0.934514 0.766019 0.511606 0.198843 0.137562 0.459543 0.729962 0.916944 0.997753 0.961705 0.811759 0.564525 0.248620 0.098492 0.434839 0.719009 0.915275 0.998231 0.956237 0.793253 0.528731 0.195505 0.164115 0.503633 0.778355 0.951350 0.998562 0.912358 0.702959 0.397504 0.036725 0.330309 0.652818 0.885360 0.994360 0.963149 0.794749 0.511913 0.154303 0.226874 0.576109 0.841663 0.983349 0.978803 0.827270 0.550215 0.188575 0.203081 0.564661 0.839761 0.984582 0.975105 0.811355 0.517931 0.140624 0.260508 0.620589 0.880416 0.996346 0.947859 0.741493 0.410345 0.009067 0.394933 0.732755 0.945797 0.996111 0.873480 0.597772 0.216118 0.204896 0.590638 0.871692 0.996469 0.940958 0.713687 0.354838 0.070512 0.483971 0.808206 0.981535 0.969882 0.773863 0.429362 0.001358 0.428094 0.775446 0.972039 0.977903 0.790263 0.444828 0.009428 0.429040 0.781828 0.976389 0.971569 0.766705 0.402567 0.046342 0.486729 0.825801 0.990957 0.945618 0.697782 0.299147 0.165235 0.594870
1.000000 1.000000 1.000000 1.000000 1.000000 1.000000 1.000000 1.000000 1.000000 1.000000 1.000000 1.000000 1.000000 1.000000 1.000000 1.000000 1.000000 1.000000 1.000000 1.000000 1.000000 1.000000 1.000000 1.000000 1.000000 1.000000 1.000000 1.000000 1.000000 1.000000 1.000000 1.000000 1.000000 1.000000 1.000000 1.000000 1.000000 1.000000 1.000000 1.000000 1.000000 1.000000 1.000000 1.000000 1.000000 1.000000 1.000000 1.000000 1.000000 1.000000 1.000000 1.000000 0.938898 0.938898 0.938898 0.938898 0.938898 0.938898 0.938898 0.938898 0.938898 0.938898 0.938898 0.938898 0.938898 0.938898 0.938898 0.938898 0.938898 0.938898 0.938898 0.938898 0.938898 0.938898 0.938898 0.938898 0.938898 0.938898 0.938898 0.938898 0.938898 0.938898 0.938898 0.938898 0.938898 0.931834 0.933149 0.935772 0.936716 0.936694 0.936314 0.936063 0.936285 0.937914 0.940076 0.956586 0.958517 0.958957 0.960155 0.958941 0.961981 0.960565 0.960732 0.971476 0.970482 0.970994 0.964094 0.965449 0.964617 0.963734 0.964624 0.964710 0.962965 0.961060 0.959475 0.958929 0.958604 0.960266 0.960656 0.960351 0.960832 0.960677 0.960420 0.957131 0.955623 0.956990 0.958782 0.958099 0.963990 0.962452 0.964406 0.964307 0.962964 0.962850 0.963060 0.963261 0.957977 0.954665 0.951267 0.940536 0.932878 0.929479 0.932048 0.933530 0.931947 0.926090 0.925185 0.923254 0.919156 0.918379 0.916681 0.917774 0.911127 0.907585 0.891359 0.890590 0.893891 0.894724 0.892382 0.883482 0.878527 0.879388 0.882270 0.880220 0.877015 0.893147 0.886735 0.891009 0.893940 0.896770 0.900714 0.895766 0.892722 0.888765 0.885263 0.878709 0.879896 0.874820 0.877441 0.871472 0.862560 0.856269 0.858230 0.864902 0.872651 0.879937 0.878967 0.879652 0.878913 0.867588 0.869568 0.854776 0.855353 0.858780 0.864096 0.862746 0.860626 0.864319 0.862554 0.859309 0.862936 0.860487 0.858012 0.848868 0.849741 0.850684 0.866350 0.867232 0.853386 0.839092 0.829259 0.833944 0.838047 0.837388 0.838658 0.832105 0.834062 0.826824 0.811978 0.813521 0.819365 0.815719 0.818047 0.817782 0.823379 0.827283 0.825683 0.823918 0.822549 0.828814 0.791987 0.800360 0.800767 0.790789 0.796355 0.791401 0.784045 0.781627 0.778525 0.764027 0.774063 0.768212 0.740715 0.746471 0.753595 0.742782 0.731080 0.730523 0.730725 0.719004 0.717257 0.689243 0.685222 0.672874 0.673822 0.672817 0.660005 0.654118 0.643172 0.599416 0.609693 0.616309 0.589730 0.596460 0.588974 0.583891 0.577845 0.562085 0.563486 0.566105 0.569167 0.546461 0.535776 0.544255 0.515207 0.510819 0.511960 0.507145 0.498016 0.503304 0.484981 0.513636 0.540913 0.490960 0.469603 0.490075 0.506364 0.516104 0.518836 0.505399 0.483317 0.511626 0.488204 0.476277 0.485964 0.488709 0.472525 0.481106 0.474491 0.505627 0.491392 0.462686 0.481238 0.461269 0.459112 0.474094 0.471681 0.474730 0.473669 0.470384 0.419868 0.433777 0.422412 0.380573 0.407542 0.421822 0.410423 0.401697 0.366960 0.369629 0.334997 0.320833 0.298572 0.295622 0.247537 0.208454 0.214438 0.209249 0.185114 0.151719 0.157023 0.117730 0.110939 0.135933 0.134373 0.111842 0.127515 0.152036 0.152036 0.152036 0.152036 0.152036 0.152036 0.152036 0.152036 0.152036 0.152036 0.152036 0.152036 0.152036 0.152036 0.175790 0.175790 0.175790 0.175790 0.175790 0.175790 0.175790 0.175790 0.175790 0.175790 0.175790 0.175790
0.000000 0.000000 0.000000 0.000000 0.000000 0.000000 0.000000 0.000000 0.000000 0.000000 0.000000 0.000000 0.000000 0.000000 0.000000 0.000000 0.000000 0.000000 0.000000 0.000000 0.000000 0.000000 0.000000 0.000000 0.000000 0.000000 0.000000 0.000000 0.000000 0.000000 0.000000 0.000000 0.000000 0.000000 0.000000 0.000000 0.000000 0.000000 0.000000 0.000000 0.000000 0.000000 0.000000 0.000000 0.000000 0.000000 0.000000 0.000000 0.000000 0.000000 0.000000 0.000000 0.209657 0.209657 0.209657 0.209657 0.209657 0.209657 0.209657 0.209657 0.209657 0.209657 0.209657 0.209657 0.209657 0.209657 0.209657 0.209657 0.209657 0.209657 0.209657 0.209657 0.209657 0.209657 0.209657 0.209657 0.209657 0.209657 0.209657 0.209657 0.209657 0.209657 0.209657 0.209657 0.209657 0.244339 0.244339 0.244339 0.244339 0.244339 0.244339 0.244339 0.244339 0.244339 0.244339 0.244339 0.244339 0.244339 0.244339 0.244339 0.244339 0.244339 0.244339 0.244339 0.244339 0.244339 0.244339 0.244339 0.244339 0.244339 0.260378 0.260378 0.260378 0.260378 0.260378 0.260378 0.260378 0.260378 0.260378 0.260378 0.260378 0.260378 0.260378 0.260378 0.260378 0.260378 0.260378 0.260378 0.260378 0.260378 0.269680 0.269680 0.269680 0.269680 0.269680 0.269680 0.269680 0.269680 0.269680 0.269680 0.269680 0.269680 0.269680 0.269680 0.269680 0.269680 0.269680 0.269680 0.269680 0.269680 0.269680 0.269680 0.269680 0.269680 0.269680 0.269680 0.269680 0.269680 0.269680 0.269680 0.269680 0.269680 0.269680 0.280056 0.280056 0.280056 0.280056 0.280056 0.280056 0.280056 0.280056 0.280056 0.280056 0.280056 0.280056 0.280056 0.280056 0.280056 0.280056 0.280056 0.280056 0.280056 0.280056 0.280056 0.280056 0.280056 0.280056 0.280056 0.280056 0.280056 0.274721 0.274721 0.274721 0.274721 0.274721 0.274721 0.274721 0.274721 0.274721 0.274721 0.274721 0.274721 0.274721 0.285714 0.285714 0.285714 0.285714 0.285714 0.285714 0.285714 0.285714 0.285714 0.285714 0.285714 0.280056 0.280056 0.280056 0.280056 0.280056 0.280056 0.280056 0.280056 0.280056 0.280056 0.280056 0.274721 0.274721 0.274721 0.274721 0.274721 0.274721 0.274721 0.274721 0.274721 0.274721 0.274721 0.280056 0.280056 0.280056 0.280056 0.280056 0.280056 0.280056 0.280056 0.280056 0.280056 0.285714 0.285714 0.285714 0.285714 0.285714 0.285714 0.285714 0.285714 0.285714 0.269680 0.269680 0.269680 0.269680 0.269680 0.269680 0.269680 0.269680 0.269680 0.269680 0.274721 0.274721 0.274721 0.274721 0.274721 0.274721 0.274721 0.274721 0.274721 0.285714 0.285714 0.285714 0.285714 0.285714 0.285714 0.285714 0.285714 0.264906 0.264906 0.264906 0.264906 0.264906 0.264906 0.264906 0.264906 0.264906 0.274721 0.274721 0.274721 0.274721 0.274721 0.274721 0.274721 0.274721 0.269680 0.269680 0.269680 0.269680 0.269680 0.269680 0.269680 0.269680 0.269680 0.269680 0.269680 0.269680 0.269680 0.269680 0.269680 0.269680 0.280056 0.280056 0.280056 0.280056 0.280056 0.280056 0.280056 0.260378 0.260378 0.260378 0.260378 0.260378 0.260378 0.260378 0.260378 0.269680 0.269680 0.269680 0.269680 0.269680 0.269680 0.269680 0.264906 0.264906 0.264906 0.264906 0.264906 0.264906 0.264906 0.264906 0.264906 0.264906 0.264906 0.264906 0.264906 0.264906 0.260378 0.260378 0.260378 0.260378 0.260378 0.260378 0.260378 0.260378 0.260378 0.260378 0.260378 0.260378
