# Output from CTFFind version 4.1.9, run on 2019-11-02 17:46:25
# Input file: stack1_bm3d_averaged_1_1.5_0_1250_half.mrc ; Number of micrographs: 1
# Pixel size: 3.000 Angstroms ; acceleration voltage: 300.0 keV ; spherical aberration: 0.00 mm ; amplitude contrast: 0.07
# Box size: 512 pixels ; min. res.: 30.0 Angstroms ; max. res.: 5.0 Angstroms ; min. def.: 5000.0 um; max. def. 50000.0 um; num. frames averaged: 1
# 6 lines per micrograph: #1 - spatial frequency (1/Angstroms); #2 - 1D rotational average of spectrum (assuming no astigmatism); #3 - 1D rotational average of spectrum; #4 - CTF fit; #5 - cross-correlation between spectrum and CTF fit; #6 - 2sigma of expected cross correlation of noise
0.000000 0.000651 0.001302 0.001953 0.002604 0.003255 0.003906 0.004557 0.005208 0.005859 0.006510 0.007161 0.007812 0.008464 0.009115 0.009766 0.010417 0.011068 0.011719 0.012370 0.013021 0.013672 0.014323 0.014974 0.015625 0.016276 0.016927 0.017578 0.018229 0.018880 0.019531 0.020182 0.020833 0.021484 0.022135 0.022786 0.023438 0.024089 0.024740 0.025391 0.026042 0.026693 0.027344 0.027995 0.028646 0.029297 0.029948 0.030599 0.031250 0.031901 0.032552 0.033203 0.033854 0.034505 0.035156 0.035807 0.036458 0.037109 0.037760 0.038411 0.039062 0.039714 0.040365 0.041016 0.041667 0.042318 0.042969 0.043620 0.044271 0.044922 0.045573 0.046224 0.046875 0.047526 0.048177 0.048828 0.049479 0.050130 0.050781 0.051432 0.052083 0.052734 0.053385 0.054036 0.054688 0.055339 0.055990 0.056641 0.057292 0.057943 0.058594 0.059245 0.059896 0.060547 0.061198 0.061849 0.062500 0.063151 0.063802 0.064453 0.065104 0.065755 0.066406 0.067057 0.067708 0.068359 0.069010 0.069661 0.070312 0.070964 0.071615 0.072266 0.072917 0.073568 0.074219 0.074870 0.075521 0.076172 0.076823 0.077474 0.078125 0.078776 0.079427 0.080078 0.080729 0.081380 0.082031 0.082682 0.083333 0.083984 0.084635 0.085286 0.085938 0.086589 0.087240 0.087891 0.088542 0.089193 0.089844 0.090495 0.091146 0.091797 0.092448 0.093099 0.093750 0.094401 0.095052 0.095703 0.096354 0.097005 0.097656 0.098307 0.098958 0.099609 0.100260 0.100911 0.101562 0.102214 0.102865 0.103516 0.104167 0.104818 0.105469 0.106120 0.106771 0.107422 0.108073 0.108724 0.109375 0.110026 0.110677 0.111328 0.111979 0.112630 0.113281 0.113932 0.114583 0.115234 0.115885 0.116536 0.117188 0.117839 0.118490 0.119141 0.119792 0.120443 0.121094 0.121745 0.122396 0.123047 0.123698 0.124349 0.125000 0.125651 0.126302 0.126953 0.127604 0.128255 0.128906 0.129557 0.130208 0.130859 0.131510 0.132161 0.132812 0.133464 0.134115 0.134766 0.135417 0.136068 0.136719 0.137370 0.138021 0.138672 0.139323 0.139974 0.140625 0.141276 0.141927 0.142578 0.143229 0.143880 0.144531 0.145182 0.145833 0.146484 0.147135 0.147786 0.148438 0.149089 0.149740 0.150391 0.151042 0.151693 0.152344 0.152995 0.153646 0.154297 0.154948 0.155599 0.156250 0.156901 0.157552 0.158203 0.158854 0.159505 0.160156 0.160807 0.161458 0.162109 0.162760 0.163411 0.164062 0.164714 0.165365 0.166016 0.166667 0.167318 0.167969 0.168620 0.169271 0.169922 0.170573 0.171224 0.171875 0.172526 0.173177 0.173828 0.174479 0.175130 0.175781 0.176432 0.177083 0.177734 0.178385 0.179036 0.179688 0.180339 0.180990 0.181641 0.182292 0.182943 0.183594 0.184245 0.184896 0.185547 0.186198 0.186849 0.187500 0.188151 0.188802 0.189453 0.190104 0.190755 0.191406 0.192057 0.192708 0.193359 0.194010 0.194661 0.195312 0.195964 0.196615 0.197266 0.197917 0.198568 0.199219 0.199870 0.200521 0.201172 0.201823 0.202474 0.203125 0.203776 0.204427 0.205078 0.205729 0.206380 0.207031 0.207682 0.208333 0.208984 0.209635 0.210286 0.210938 0.211589 0.212240 0.212891 0.213542 0.214193 0.214844 0.215495 0.216146 0.216797 0.217448 0.218099 0.218750 0.219401 0.220052 0.220703 0.221354 0.222005 0.222656 0.223307 0.223958 0.224609 0.225260 0.225911 0.226562 0.227214 0.227865 0.228516 0.229167 0.229818 0.230469 0.231120 0.231771 0.232422 0.233073 0.233724 0.234375 0.235026 0.235677
       0.32944        0.32944        0.32944        0.32944        0.32944        0.32944        0.32944        0.32944        0.32944        0.32944        0.32944        0.32944        0.32944        0.32944        0.32944        0.32944        0.32944        0.32944        0.32944        0.32944        0.32944        0.32944        0.32944        0.32944        0.32944        0.32944        0.32944        0.32944        0.32944        0.32944        0.32944        0.32944        0.32944        0.32944        0.32944        0.32944        0.32944        0.32944        0.32944        0.32944        0.32944        0.32944        0.32944        0.32944        0.32944        0.32944        0.32944        0.32944        0.32944        0.32944        0.32944        0.49823        0.71486        0.42337        0.18824       -0.08137       -0.26243       -0.07084       -0.13330       -0.06077       -0.00489       -0.15139       -0.10045       -0.05119       -0.00389       -0.15507       -0.22466       -0.34550       -0.46637       -0.56687       -0.52221       -0.45532       -0.37547       -0.55553       -0.45446       -0.62495       -0.50823       -0.47650       -0.39588       -0.38489       -0.33986       -0.24990       -0.16707       -0.14326        0.02869       -0.01704        0.11425        0.16554        0.30370        0.41002        0.46115        0.49564        0.53936        0.54744        0.68864        0.64225        0.67584        0.58638        0.55337        0.64959        0.52367        0.42719        0.38618        0.31431        0.22772        0.25957        0.24785        0.09930        0.07892       -0.00304       -0.01117        0.03036       -0.01175        0.06805        0.09075        0.22824        0.28137        0.29641        0.38403        0.56067        0.53470        0.57360        0.66725        0.69311        0.62610        0.63359        0.63233        0.54436        0.56913        0.39292        0.34518        0.26188        0.18185        0.07145        0.14068        0.11220        0.09420        0.10729        0.20327        0.20073        0.31293        0.35322        0.40971        0.48804        0.57207        0.54205        0.55323        0.60276        0.53314        0.46074        0.47984        0.32094        0.24503        0.25339        0.24031        0.13529        0.13994        0.14859        0.21992        0.24534        0.32995        0.36941        0.39300        0.46025        0.44348        0.47455        0.44385        0.47012        0.44293        0.39792        0.37405        0.35657        0.31487        0.28484        0.20419        0.20141        0.22213        0.26581        0.25795        0.34041        0.37134        0.35069        0.40712        0.45159        0.44183        0.42368        0.43908        0.36209        0.33032        0.27799        0.25588        0.28507        0.25900        0.29048        0.29842        0.34297        0.33401        0.39610        0.39328        0.42143        0.40658        0.43326        0.40161        0.36438        0.28024        0.28476        0.29671        0.27379        0.25464        0.32631        0.36649        0.33416        0.35504        0.36294        0.34789        0.40412        0.39842        0.36002        0.33739        0.30503        0.30899        0.31654        0.30976        0.29690        0.28131        0.33449        0.35411        0.37172        0.33427        0.32929        0.33194        0.34519        0.30645        0.27849        0.30529        0.31594        0.32913        0.31739        0.32965        0.35094        0.32752        0.31522        0.32780        0.29757        0.25685        0.24559        0.26137        0.30221        0.31829        0.35374        0.29686        0.30531        0.32807        0.28980        0.31667        0.28913        0.27636        0.28564        0.29190        0.30609        0.34283        0.31825        0.32543        0.32612        0.31941        0.33265        0.31541        0.31958        0.31449        0.27142        0.28548        0.30362        0.28439        0.31838        0.32567        0.33201        0.31773        0.34658        0.32467        0.27898        0.24238        0.26903        0.32856        0.35635        0.34800        0.31766        0.29163        0.29763        0.31131        0.24897        0.28956        0.29830        0.31660        0.29087        0.29501        0.26819        0.33063        0.33891        0.33799        0.31717        0.29209        0.30386        0.38937        0.33265        0.30994        0.30231        0.30270        0.28483        0.29498        0.27828        0.30377        0.22847        0.26641        0.29710        0.31336        0.29462        0.26940        0.28600        0.23266        0.22297        0.27276        0.30823        0.30194        0.29602        0.28241        0.32916        0.25278        0.22461        0.29380        0.25308        0.26365        0.27370        0.37070        0.27495        0.28433        0.26076        0.23622        0.26444        0.25834        0.22988        0.16626        0.22341        0.22091        0.24652        0.30821        0.27045        0.33923        0.30223        0.26329        0.24474        0.20823        0.24553        0.27915        0.22027        0.14539        0.18720        0.24469        0.22172        0.30961        0.26410        0.05421       -0.41385       -0.93642
2.692584 2.664083 2.635736 2.607542 2.579502 2.551616 2.523884 2.496305 2.468880 2.441609 2.414492 2.387528 2.360718 2.334062 2.307560 2.281212 2.255017 2.228976 2.203089 2.177355 2.151776 2.126350 2.101078 2.075959 2.050995 2.026184 2.001527 1.977024 1.952674 1.928478 1.904436 1.880548 1.856814 1.833233 1.809806 1.786533 1.763413 1.740448 1.717636 1.694978 1.672474 1.650123 1.627926 1.605883 1.583994 1.562258 1.540677 1.519249 1.497975 1.476854 1.455888 1.524469 1.828415 1.518253 1.189197 0.940373 0.545393 0.912083 0.637573 0.866835 0.923307 0.590788 0.700762 0.781540 0.822462 0.624664 0.534831 0.352192 0.101398 0.072183 0.043146 0.072506 0.299755 -0.040212 0.075506 -0.134928 -0.019571 -0.015576 0.074821 0.064450 0.104407 0.178186 0.279750 0.244941 0.479255 0.396496 0.544583 0.528352 0.768978 0.788920 0.877462 0.927714 0.935036 0.949574 1.116688 0.950887 1.129341 0.945236 0.851901 1.014168 0.846094 0.759574 0.625561 0.591608 0.457577 0.417977 0.505444 0.262430 0.197606 0.159841 0.009971 0.202857 -0.008114 0.117715 0.172829 0.258147 0.337273 0.344519 0.432294 0.543986 0.667903 0.536023 0.739434 0.859272 0.636934 0.700300 0.672879 0.587259 0.536990 0.464434 0.304179 0.213719 0.120494 -0.036977 -0.016072 0.053175 -0.087611 -0.056454 0.056944 0.046642 0.109366 0.220332 0.240316 0.314112 0.439441 0.448525 0.440350 0.469691 0.452555 0.330068 0.339498 0.248113 0.048191 0.065528 0.020707 -0.045115 -0.098911 -0.093850 -0.013071 -0.042729 0.081287 0.134681 0.130892 0.264127 0.228964 0.248582 0.281328 0.236599 0.242844 0.212022 0.159346 0.116607 0.110824 0.026629 0.014306 -0.112823 -0.043722 0.007396 -0.000800 0.015265 0.100820 0.078363 0.122692 0.211930 0.266485 0.176095 0.200561 0.116192 0.145276 0.024811 -0.031997 0.024636 -0.016465 0.008088 0.002569 0.043699 0.082770 0.065168 0.160744 0.108194 0.185175 0.084622 0.172615 0.104475 0.011138 -0.042624 -0.009729 -0.020334 -0.051448 -0.050007 0.075278 0.074918 0.000621 0.106945 0.085275 0.078026 0.161052 0.088615 0.088610 0.065520 -0.004192 0.047377 0.018506 0.028042 0.019590 0.010342 0.061125 0.086538 0.078756 0.050902 0.061428 0.033866 0.079524 0.003900 -0.003684 0.038654 0.028472 0.068640 0.048350 0.066993 0.072454 0.052300 0.025208 0.041150 0.000959 -0.044502 -0.031123 -0.018347 0.026258 0.042970 0.109514 0.001091 0.054248 0.057433 -0.002335 0.069600 0.018446 0.003510 0.034055 0.047556 0.039789 0.092300 0.045513 0.071471 0.073252 0.087575 0.067716 0.076200 0.092415 0.045597 -0.009715 0.051422 0.041305 0.044231 0.075527 0.077994 0.038294 0.069371 0.094518 0.023701 0.016081 -0.065401 -0.007995 0.116952 0.088089 0.075213 0.049135 -0.002034 0.056132 0.034875 -0.053650 0.049089 0.038933 0.060686 0.045134 -0.010333 0.045709 0.010564 0.063152 0.036641 0.040593 -0.036104 0.062380 0.115277 0.025669 -0.006276 0.018827 0.013417 -0.039518 -0.017032 -0.033061 -0.015624 -0.101799 -0.032107 -0.022888 0.015042 -0.032277 -0.064030 0.023189 -0.071808 -0.045406 -0.067841 0.057583 0.010801 0.028232 -0.009670 0.077784 -0.048588 -0.061672 0.027977 -0.046256 0.013873 -0.013969 0.164837 -0.055959 0.016481 0.015211 -0.041512 0.001714 -0.006545 -0.028150 -0.152039 -0.014388 -0.044197 -0.031009 0.060002 0.007006 0.136502 0.057369 0.028591 -0.001892 -0.006252 -0.020793 0.314642 0.265482 0.176182 0.234349 0.257974 0.301887 0.333854 0.293504 0.065697 -1.098121
0.072396 0.072911 0.074454 0.077025 0.080624 0.085250 0.090901 0.097575 0.105272 0.113987 0.123716 0.134456 0.146201 0.158943 0.172676 0.187388 0.203068 0.219703 0.237276 0.255769 0.275161 0.295427 0.316540 0.338468 0.361175 0.384623 0.408767 0.433557 0.458941 0.484857 0.511242 0.538023 0.565122 0.592456 0.619935 0.647459 0.674925 0.702221 0.729228 0.755820 0.781864 0.807219 0.831738 0.855269 0.877651 0.898720 0.918304 0.936228 0.952314 0.966381 0.978244 0.987718 0.994621 0.998770 0.999985 0.998092 0.992924 0.984321 0.972135 0.956228 0.936480 0.912784 0.885056 0.853229 0.817263 0.777144 0.732885 0.684530 0.632156 0.575877 0.515840 0.452234 0.385285 0.315263 0.242478 0.167283 0.090074 0.011287 0.068599 0.149067 0.229562 0.309496 0.388247 0.465170 0.539595 0.610837 0.678199 0.740983 0.798493 0.850047 0.894983 0.932669 0.962514 0.983976 0.996573 0.999893 0.993604 0.977463 0.951329 0.915166 0.869054 0.813196 0.747922 0.673696 0.591114 0.500909 0.403947 0.301222 0.193854 0.083076 0.029771 0.143261 0.255888 0.366094 0.472286 0.572857 0.666217 0.750813 0.825164 0.887883 0.937713 0.973549 0.994473 0.999776 0.988986 0.961886 0.918539 0.859293 0.784798 0.696009 0.594181 0.480862 0.357880 0.227320 0.091492 0.047097 0.185795 0.321846 0.452449 0.574808 0.686207 0.784064 0.865998 0.929896 0.973974 0.996834 0.997517 0.975548 0.930968 0.864362 0.776866 0.670167 0.546487 0.408547 0.259523 0.102980 0.057202 0.216922 0.371960 0.518085 0.651176 0.767343 0.863048 0.935223 0.981384 0.999722 0.989196 0.949589 0.881556 0.786636 0.667245 0.526634 0.368816 0.198477 0.020839 0.158483 0.333657 0.498820 0.648283 0.776724 0.879399 0.952329 0.992470 0.997859 0.967732 0.902595 0.804254 0.675799 0.521530 0.346848 0.158075 0.037749 0.233122 0.420367 0.591922 0.740670 0.860231 0.945266 0.991734 0.997107 0.960538 0.882955 0.767078 0.617372 0.439903 0.242121 0.032574 0.179444 0.384306 0.572475 0.734967 0.863791 0.952367 0.995890 0.991624 0.939106 0.840244 0.699300 0.522745 0.319012 0.098117 0.128807 0.350066 0.553988 0.729564 0.867052 0.958546 0.998471 0.983959 0.915097 0.795008 0.629775 0.428177 0.201270 0.038189 0.276435 0.499480 0.693939 0.847854 0.951457 0.997835 0.983438 0.908400 0.776633 0.595700 0.376429 0.132319 0.121254 0.367991 0.591705 0.777403 0.912320 0.986832 0.995203 0.936083 0.812724 0.632879 0.408390 0.154459 0.111328 0.370205 0.603539 0.794186 0.927784 0.993893 0.986864 0.906397 0.757701 0.551250 0.302112 0.028915 0.247496 0.505657 0.725132 0.888166 0.981180 0.995965 0.930484 0.789191 0.582842 0.327751 0.044574 0.243308 0.511705 0.737658 0.901428 0.988280 0.989897 0.905253 0.740887 0.510508 0.233939 0.064506 0.358129 0.620206 0.826452 0.957320 0.999920 0.949396 0.809564 0.592758 0.318850 0.013523 0.294091 0.574146 0.799011 0.946033 0.999904 0.954355 0.812996 0.589172 0.304826 0.011552 0.327725 0.610952 0.831425 0.965433 0.998030 0.924807 0.752598 0.498995 0.190671 0.139322 0.455052 0.721604 0.908981 0.995565 0.970724 0.836253 0.606435 0.306672 0.029205 0.362685 0.654952 0.871435 0.985981 0.984125 0.865065 0.642038 0.341013 0.002195 0.346106 0.648545 0.871844 0.987618 0.980497 0.850321 0.612472 0.296231 0.058696 0.407064 0.703828 0.910023 0.997962 0.955108 0.786031 0.512130 0.169124 0.197511 0.538459 0.807220 0.966513 0.993581
1.000000 1.000000 1.000000 1.000000 1.000000 1.000000 1.000000 1.000000 1.000000 1.000000 1.000000 1.000000 1.000000 1.000000 1.000000 1.000000 1.000000 1.000000 1.000000 1.000000 1.000000 1.000000 1.000000 1.000000 1.000000 1.000000 1.000000 1.000000 1.000000 1.000000 1.000000 1.000000 1.000000 1.000000 1.000000 1.000000 1.000000 1.000000 1.000000 1.000000 1.000000 1.000000 1.000000 1.000000 1.000000 1.000000 1.000000 1.000000 1.000000 1.000000 1.000000 1.000000 0.918707 0.918707 0.904884 0.904884 0.904884 0.904884 0.904884 0.904884 0.904884 0.904884 0.904884 0.904884 0.904884 0.904884 0.904884 0.904884 0.904884 0.904884 0.904884 0.904884 0.904884 0.904884 0.904884 0.904884 0.904884 0.904884 0.904884 0.904884 0.904884 0.904884 0.904884 0.904884 0.904884 0.904884 0.904884 0.904884 0.904884 0.904884 0.904884 0.904884 0.904884 0.904884 0.904884 0.902622 0.907643 0.909605 0.908202 0.911659 0.911698 0.909650 0.909103 0.908787 0.909153 0.910561 0.921005 0.931946 0.943093 0.943607 0.948819 0.953111 0.955653 0.956378 0.958015 0.968312 0.965615 0.965160 0.965845 0.967242 0.969299 0.968180 0.967538 0.970627 0.971250 0.969788 0.967329 0.966683 0.966060 0.966160 0.965818 0.965693 0.966775 0.967279 0.966894 0.966487 0.966636 0.966701 0.967700 0.968854 0.971411 0.972498 0.972417 0.971378 0.966363 0.969819 0.970865 0.970273 0.970289 0.969950 0.970218 0.954103 0.951516 0.951411 0.947522 0.946614 0.944162 0.942352 0.941142 0.941974 0.941277 0.941327 0.937720 0.924836 0.911374 0.898516 0.919413 0.907361 0.894323 0.871166 0.870840 0.864355 0.864737 0.857260 0.849795 0.845507 0.842967 0.844981 0.845635 0.850164 0.846464 0.831008 0.834425 0.830398 0.796774 0.784553 0.770833 0.767772 0.764653 0.765760 0.763599 0.759273 0.767832 0.759323 0.756280 0.746374 0.724754 0.690155 0.677463 0.688786 0.698926 0.699882 0.695877 0.680357 0.641165 0.654220 0.681824 0.674912 0.676187 0.670691 0.663166 0.670939 0.670059 0.665654 0.658698 0.658330 0.657916 0.668976 0.674302 0.667154 0.660470 0.648154 0.637969 0.624511 0.636147 0.643252 0.611545 0.605548 0.598920 0.593879 0.584304 0.563264 0.562762 0.541437 0.528247 0.527027 0.528301 0.531911 0.541975 0.541088 0.517129 0.538639 0.535076 0.566988 0.545469 0.543789 0.546111 0.554955 0.535251 0.527174 0.521468 0.522267 0.536963 0.566512 0.606155 0.598852 0.586884 0.581154 0.594805 0.576111 0.584715 0.608532 0.587666 0.517475 0.470735 0.467580 0.436958 0.428708 0.412553 0.392089 0.369951 0.369742 0.364950 0.350312 0.339101 0.289254 0.255415 0.234521 0.219656 0.234108 0.248933 0.246768 0.246007 0.280477 0.325563 0.329059 0.318820 0.303503 0.305995 0.301979 0.257090 0.256567 0.218225 0.206662 0.236220 0.184470 0.190673 0.136081 0.129510 0.146254 0.168709 0.181574 0.137454 0.119418 0.141318 0.160670 0.153070 0.145626 0.100943 0.075739 0.064316 0.075766 0.054927 0.026357 0.025687 0.033490 0.015600 -0.009706 -0.003504 -0.004377 0.003229 -0.010942 -0.010573 0.039168 0.067020 0.058232 0.062726 0.082017 0.071157 0.049287 0.042253 0.026360 0.016907 -0.030178 -0.054929 -0.054929 -0.046802 -0.046802 -0.046802 -0.046802 -0.046802 -0.046802 -0.046802 -0.046802 -0.046802 -0.047046 -0.047046 -0.047046 -0.047046 -0.047046 -0.047046 -0.047046 -0.047046 -0.047046 -0.029874 -0.029874 -0.029874 -0.029874 -0.029874 -0.029874 -0.029874 -0.029874 -0.029874
0.000000 0.000000 0.000000 0.000000 0.000000 0.000000 0.000000 0.000000 0.000000 0.000000 0.000000 0.000000 0.000000 0.000000 0.000000 0.000000 0.000000 0.000000 0.000000 0.000000 0.000000 0.000000 0.000000 0.000000 0.000000 0.000000 0.000000 0.000000 0.000000 0.000000 0.000000 0.000000 0.000000 0.000000 0.000000 0.000000 0.000000 0.000000 0.000000 0.000000 0.000000 0.000000 0.000000 0.000000 0.000000 0.000000 0.000000 0.000000 0.000000 0.000000 0.000000 0.000000 0.181818 0.181818 0.199007 0.199007 0.199007 0.199007 0.199007 0.199007 0.199007 0.199007 0.199007 0.199007 0.199007 0.199007 0.199007 0.199007 0.199007 0.199007 0.199007 0.199007 0.199007 0.199007 0.199007 0.199007 0.199007 0.199007 0.199007 0.199007 0.199007 0.199007 0.199007 0.199007 0.199007 0.199007 0.199007 0.199007 0.199007 0.199007 0.199007 0.199007 0.199007 0.199007 0.199007 0.230940 0.230940 0.230940 0.230940 0.230940 0.230940 0.230940 0.230940 0.230940 0.230940 0.230940 0.230940 0.230940 0.230940 0.230940 0.230940 0.230940 0.230940 0.230940 0.230940 0.230940 0.230940 0.230940 0.230940 0.230940 0.230940 0.230940 0.230940 0.244339 0.244339 0.244339 0.244339 0.244339 0.244339 0.244339 0.244339 0.244339 0.244339 0.244339 0.244339 0.244339 0.244339 0.244339 0.244339 0.244339 0.244339 0.244339 0.244339 0.244339 0.244339 0.244339 0.251976 0.251976 0.251976 0.251976 0.251976 0.251976 0.251976 0.251976 0.251976 0.251976 0.251976 0.251976 0.251976 0.251976 0.251976 0.251976 0.251976 0.251976 0.251976 0.251976 0.264906 0.264906 0.264906 0.264906 0.264906 0.264906 0.264906 0.264906 0.264906 0.264906 0.264906 0.264906 0.264906 0.264906 0.264906 0.264906 0.264906 0.264906 0.264906 0.264906 0.264906 0.264906 0.264906 0.264906 0.264906 0.264906 0.264906 0.264906 0.264906 0.264906 0.264906 0.264906 0.264906 0.264906 0.264906 0.264906 0.264906 0.264906 0.264906 0.264906 0.264906 0.264906 0.264906 0.264906 0.264906 0.264906 0.264906 0.264906 0.264906 0.264906 0.264906 0.264906 0.264906 0.264906 0.264906 0.264906 0.264906 0.264906 0.264906 0.264906 0.264906 0.264906 0.264906 0.264906 0.264906 0.264906 0.264906 0.264906 0.264906 0.264906 0.264906 0.264906 0.264906 0.264906 0.264906 0.269680 0.269680 0.269680 0.269680 0.269680 0.269680 0.269680 0.269680 0.269680 0.269680 0.269680 0.269680 0.264906 0.264906 0.264906 0.264906 0.264906 0.264906 0.264906 0.264906 0.264906 0.264906 0.264906 0.264906 0.269680 0.269680 0.269680 0.269680 0.269680 0.269680 0.269680 0.269680 0.269680 0.269680 0.269680 0.264906 0.264906 0.264906 0.264906 0.264906 0.264906 0.264906 0.264906 0.264906 0.264906 0.264906 0.269680 0.269680 0.269680 0.269680 0.269680 0.269680 0.269680 0.269680 0.269680 0.269680 0.251976 0.251976 0.251976 0.251976 0.251976 0.251976 0.251976 0.251976 0.251976 0.251976 0.251976 0.269680 0.269680 0.269680 0.269680 0.269680 0.269680 0.269680 0.269680 0.269680 0.256074 0.256074 0.256074 0.256074 0.256074 0.256074 0.256074 0.256074 0.256074 0.256074 0.260378 0.260378 0.260378 0.260378 0.260378 0.260378 0.260378 0.260378 0.260378 0.256074 0.256074 0.256074 0.256074 0.256074 0.256074 0.256074 0.256074 0.256074 0.251976 0.251976 0.251976 0.251976 0.251976 0.251976 0.251976 0.251976 0.251976 0.264906 0.264906 0.264906 0.264906 0.264906 0.264906 0.264906 0.264906 0.264906
