# Output from CTFFind version 4.1.9, run on 2019-11-03 19:32:51
# Input file: stack1_bm3d_averaged_1_4.25_0_750_half.mrc ; Number of micrographs: 1
# Pixel size: 3.000 Angstroms ; acceleration voltage: 300.0 keV ; spherical aberration: 0.00 mm ; amplitude contrast: 0.07
# Box size: 512 pixels ; min. res.: 30.0 Angstroms ; max. res.: 5.0 Angstroms ; min. def.: 5000.0 um; max. def. 50000.0 um; num. frames averaged: 1
# 6 lines per micrograph: #1 - spatial frequency (1/Angstroms); #2 - 1D rotational average of spectrum (assuming no astigmatism); #3 - 1D rotational average of spectrum; #4 - CTF fit; #5 - cross-correlation between spectrum and CTF fit; #6 - 2sigma of expected cross correlation of noise
0.000000 0.000651 0.001302 0.001953 0.002604 0.003255 0.003906 0.004557 0.005208 0.005859 0.006510 0.007161 0.007812 0.008464 0.009115 0.009766 0.010417 0.011068 0.011719 0.012370 0.013021 0.013672 0.014323 0.014974 0.015625 0.016276 0.016927 0.017578 0.018229 0.018880 0.019531 0.020182 0.020833 0.021484 0.022135 0.022786 0.023438 0.024089 0.024740 0.025391 0.026042 0.026693 0.027344 0.027995 0.028646 0.029297 0.029948 0.030599 0.031250 0.031901 0.032552 0.033203 0.033854 0.034505 0.035156 0.035807 0.036458 0.037109 0.037760 0.038411 0.039062 0.039714 0.040365 0.041016 0.041667 0.042318 0.042969 0.043620 0.044271 0.044922 0.045573 0.046224 0.046875 0.047526 0.048177 0.048828 0.049479 0.050130 0.050781 0.051432 0.052083 0.052734 0.053385 0.054036 0.054688 0.055339 0.055990 0.056641 0.057292 0.057943 0.058594 0.059245 0.059896 0.060547 0.061198 0.061849 0.062500 0.063151 0.063802 0.064453 0.065104 0.065755 0.066406 0.067057 0.067708 0.068359 0.069010 0.069661 0.070312 0.070964 0.071615 0.072266 0.072917 0.073568 0.074219 0.074870 0.075521 0.076172 0.076823 0.077474 0.078125 0.078776 0.079427 0.080078 0.080729 0.081380 0.082031 0.082682 0.083333 0.083984 0.084635 0.085286 0.085938 0.086589 0.087240 0.087891 0.088542 0.089193 0.089844 0.090495 0.091146 0.091797 0.092448 0.093099 0.093750 0.094401 0.095052 0.095703 0.096354 0.097005 0.097656 0.098307 0.098958 0.099609 0.100260 0.100911 0.101562 0.102214 0.102865 0.103516 0.104167 0.104818 0.105469 0.106120 0.106771 0.107422 0.108073 0.108724 0.109375 0.110026 0.110677 0.111328 0.111979 0.112630 0.113281 0.113932 0.114583 0.115234 0.115885 0.116536 0.117188 0.117839 0.118490 0.119141 0.119792 0.120443 0.121094 0.121745 0.122396 0.123047 0.123698 0.124349 0.125000 0.125651 0.126302 0.126953 0.127604 0.128255 0.128906 0.129557 0.130208 0.130859 0.131510 0.132161 0.132812 0.133464 0.134115 0.134766 0.135417 0.136068 0.136719 0.137370 0.138021 0.138672 0.139323 0.139974 0.140625 0.141276 0.141927 0.142578 0.143229 0.143880 0.144531 0.145182 0.145833 0.146484 0.147135 0.147786 0.148438 0.149089 0.149740 0.150391 0.151042 0.151693 0.152344 0.152995 0.153646 0.154297 0.154948 0.155599 0.156250 0.156901 0.157552 0.158203 0.158854 0.159505 0.160156 0.160807 0.161458 0.162109 0.162760 0.163411 0.164062 0.164714 0.165365 0.166016 0.166667 0.167318 0.167969 0.168620 0.169271 0.169922 0.170573 0.171224 0.171875 0.172526 0.173177 0.173828 0.174479 0.175130 0.175781 0.176432 0.177083 0.177734 0.178385 0.179036 0.179688 0.180339 0.180990 0.181641 0.182292 0.182943 0.183594 0.184245 0.184896 0.185547 0.186198 0.186849 0.187500 0.188151 0.188802 0.189453 0.190104 0.190755 0.191406 0.192057 0.192708 0.193359 0.194010 0.194661 0.195312 0.195964 0.196615 0.197266 0.197917 0.198568 0.199219 0.199870 0.200521 0.201172 0.201823 0.202474 0.203125 0.203776 0.204427 0.205078 0.205729 0.206380 0.207031 0.207682 0.208333 0.208984 0.209635 0.210286 0.210938 0.211589 0.212240 0.212891 0.213542 0.214193 0.214844 0.215495 0.216146 0.216797 0.217448 0.218099 0.218750 0.219401 0.220052 0.220703 0.221354 0.222005 0.222656 0.223307 0.223958 0.224609 0.225260 0.225911 0.226562 0.227214 0.227865 0.228516 0.229167 0.229818 0.230469 0.231120 0.231771 0.232422 0.233073 0.233724 0.234375 0.235026 0.235677
       0.34295        0.34295        0.34295        0.34295        0.34295        0.34295        0.34295        0.34295        0.34295        0.34295        0.34295        0.34295        0.34295        0.34295        0.34295        0.34295        0.34295        0.34295        0.34295        0.34295        0.34295        0.34295        0.34295        0.34295        0.34295        0.34295        0.34295        0.34295        0.34295        0.34295        0.34295        0.34295        0.34295        0.34295        0.34295        0.34295        0.34295        0.34295        0.34295        0.34295        0.34295        0.34295        0.34295        0.34295        0.34295        0.34295        0.34295        0.34295        0.34295        0.34295        0.34295        0.45087        0.65977        0.33861        0.16784       -0.03645       -0.25617       -0.06690       -0.15620       -0.14917        0.00526       -0.11792       -0.12344       -0.05303       -0.04162       -0.13586       -0.16386       -0.31113       -0.46362       -0.54803       -0.51040       -0.42091       -0.31886       -0.48093       -0.37348       -0.49364       -0.40249       -0.44156       -0.29190       -0.27567       -0.28278       -0.16654       -0.10632       -0.07860        0.05742        0.02084        0.18659        0.17155        0.31220        0.37821        0.49820        0.51884        0.55518        0.59363        0.71901        0.61802        0.59305        0.52514        0.52009        0.60032        0.49394        0.46787        0.40066        0.30840        0.27507        0.28565        0.25824        0.15196        0.14956        0.02242        0.08893        0.08391        0.06450        0.09277        0.12686        0.21022        0.29019        0.28372        0.32413        0.47176        0.48471        0.50301        0.63698        0.63083        0.58365        0.60280        0.59825        0.46874        0.48033        0.38248        0.34343        0.28281        0.21913        0.20042        0.17613        0.13427        0.18622        0.21449        0.23063        0.24909        0.32489        0.36687        0.38589        0.47434        0.51124        0.50948        0.48518        0.57860        0.49449        0.49055        0.47785        0.38374        0.32475        0.27523        0.28697        0.20948        0.22699        0.22959        0.21511        0.22246        0.30287        0.36842        0.41044        0.44508        0.44299        0.48315        0.45046        0.46806        0.40477        0.38730        0.35150        0.37264        0.36780        0.35977        0.26097        0.30889        0.26502        0.26764        0.28489        0.34668        0.37807        0.41191        0.43424        0.46195        0.43441        0.41894        0.45608        0.37760        0.34941        0.35567        0.31038        0.33685        0.27974        0.31836        0.31183        0.32482        0.36173        0.38854        0.40966        0.43087        0.38962        0.39667        0.37397        0.39448        0.29869        0.31251        0.30159        0.24623        0.32504        0.31329        0.33268        0.35208        0.36159        0.37264        0.37267        0.44571        0.38318        0.36085        0.34972        0.30266        0.29171        0.31310        0.31338        0.34676        0.33038        0.34620        0.33019        0.39162        0.36262        0.37475        0.39413        0.38129        0.34076        0.31638        0.33922        0.31698        0.34328        0.30770        0.35314        0.35397        0.34277        0.32236        0.34742        0.32520        0.28459        0.28645        0.28743        0.31600        0.32639        0.35202        0.32838        0.31985        0.33481        0.32917        0.30831        0.28818        0.32380        0.33530        0.31730        0.29845        0.32402        0.32521        0.34016        0.31574        0.33725        0.35208        0.33248        0.33330        0.29909        0.25945        0.29790        0.33704        0.32790        0.31110        0.35666        0.32252        0.29119        0.33000        0.32915        0.31007        0.30268        0.27074        0.32308        0.34830        0.35524        0.29277        0.28757        0.29123        0.26601        0.26186        0.32122        0.31323        0.31421        0.31180        0.30052        0.27963        0.34618        0.33648        0.33679        0.31285        0.29875        0.32655        0.35705        0.39671        0.30419        0.32564        0.32971        0.34554        0.29542        0.31845        0.31854        0.24883        0.32459        0.36186        0.32371        0.33822        0.30207        0.26968        0.24853        0.29677        0.30756        0.35028        0.32105        0.27611        0.22537        0.30385        0.31792        0.28083        0.25755        0.23800        0.28227        0.25999        0.31014        0.26923        0.30522        0.31689        0.24917        0.30767        0.27417        0.18971        0.20193        0.25555        0.19769        0.24214        0.22139        0.22487        0.36865        0.26456        0.27638        0.27519        0.18306        0.25538        0.34167        0.22127        0.12607        0.24997        0.20138        0.21230        0.32280        0.12369        0.03307       -0.41594       -0.57684
2.954862 2.922825 2.890964 2.859279 2.827770 2.796437 2.765279 2.734298 2.703492 2.672862 2.642407 2.612129 2.582027 2.552100 2.522350 2.492775 2.463376 2.434152 2.405105 2.376234 2.347538 2.319018 2.290674 2.262506 2.234514 2.206698 2.179057 2.151593 2.124304 2.097191 2.070254 2.043492 2.016907 1.990498 1.964264 1.938206 1.912324 1.886618 1.861088 1.835733 1.810555 1.785552 1.760725 1.736074 1.711599 1.687300 1.663176 1.639228 1.615457 1.591861 1.568441 1.576696 1.949240 1.486200 1.289694 0.999282 0.526143 0.961631 0.598033 0.768159 0.905516 0.704842 0.621018 0.799452 0.753561 0.622336 0.585693 0.363697 0.060997 0.007473 -0.013863 -0.033844 0.359824 -0.052697 0.071306 -0.052003 0.012014 -0.039421 0.122426 0.129535 0.106210 0.216315 0.315954 0.295174 0.472051 0.394993 0.654676 0.533367 0.786744 0.759989 0.944030 1.041488 0.963761 1.070822 1.217224 1.010415 1.037416 0.891843 0.895556 0.981647 0.833139 0.814628 0.672706 0.561057 0.493728 0.472079 0.461977 0.259549 0.294301 0.117117 0.088486 0.165635 0.073075 0.077736 0.151128 0.189434 0.333203 0.327685 0.383912 0.414436 0.612184 0.432115 0.737221 0.763541 0.583528 0.681254 0.688812 0.503364 0.418136 0.401369 0.257638 0.243187 0.062123 0.093149 -0.011972 -0.014735 -0.055756 0.021335 0.065309 0.042363 0.085563 0.211969 0.234168 0.268483 0.390956 0.374361 0.358974 0.404799 0.382181 0.334184 0.315522 0.272428 0.096483 0.068355 0.007281 -0.035562 -0.081499 -0.049841 -0.057953 -0.088488 -0.065293 0.056563 0.181608 0.203539 0.204208 0.202577 0.283936 0.190887 0.207000 0.195187 0.088198 0.067987 0.164844 0.061865 0.014650 -0.020960 0.036312 -0.070779 -0.002073 -0.004615 0.122574 0.088834 0.141818 0.228203 0.221440 0.106239 0.180850 0.160259 0.097626 0.037784 0.032323 0.044504 -0.018764 -0.012881 -0.010811 -0.007216 0.049249 0.067986 0.118119 0.135408 0.124439 0.077099 0.076571 0.118281 0.054152 -0.055604 -0.008088 -0.052692 -0.073604 0.007551 -0.008950 0.053550 0.006615 0.083926 0.098968 0.123162 0.182098 0.056449 0.089054 0.071193 -0.059109 0.008440 0.025188 0.021164 0.067676 0.061523 0.040835 0.000655 0.103894 0.086942 0.106823 0.132854 0.053613 0.050721 0.035087 0.032160 0.016578 0.075825 0.008753 0.088086 0.043623 0.058438 0.017643 0.066470 0.021421 -0.044719 -0.008864 -0.016425 0.011746 0.043828 0.090174 0.038554 0.025555 0.080969 -0.014011 0.034954 -0.001195 0.035552 0.048123 0.035351 0.004374 0.037274 0.034820 0.059328 0.055569 0.086905 0.077542 0.092313 0.053082 0.019512 -0.051894 0.048915 0.072409 0.074306 0.024400 0.114150 0.002619 -0.018358 0.046755 0.034873 0.040970 -0.031805 -0.030636 0.085269 0.065293 0.058943 -0.022790 -0.031988 0.009158 -0.099730 -0.014002 0.000517 0.043431 0.026415 0.008997 0.011439 -0.012247 0.053185 0.056415 -0.001124 0.053237 -0.027658 0.058177 0.083082 0.118250 -0.028281 0.000510 0.081570 0.021588 -0.059404 0.007982 0.016015 -0.076875 0.034776 0.105434 0.005397 0.057246 -0.064081 0.060029 -0.035152 0.071404 -0.018320 0.166094 0.022352 0.027025 -0.035985 -0.015792 0.089504 0.012759 0.066644 -0.095103 0.110427 -0.012479 0.090372 0.006715 0.071620 0.129274 -0.043647 0.144646 0.041118 -0.088401 -0.019982 0.007732 -0.067946 -0.035797 0.009459 -0.017626 0.215665 -0.016438 0.072380 0.049593 -0.141040 0.080027 0.330334 0.261549 0.059930 0.331692 0.303614 0.207901 0.446468 0.041623 0.052189 -0.769086
0.072396 0.072911 0.074456 0.077030 0.080632 0.085263 0.090920 0.097601 0.105305 0.114029 0.123768 0.134519 0.146276 0.159031 0.172777 0.187504 0.203200 0.219851 0.237442 0.255953 0.275364 0.295649 0.316782 0.338730 0.361458 0.384927 0.409092 0.433904 0.459308 0.485245 0.511649 0.538449 0.565567 0.592919 0.620412 0.647951 0.675429 0.702735 0.729749 0.756345 0.782389 0.807741 0.832254 0.855773 0.878140 0.899187 0.918744 0.936636 0.952684 0.966705 0.978516 0.987932 0.994768 0.998842 0.999975 0.997992 0.992726 0.984017 0.971718 0.955690 0.935813 0.911982 0.884111 0.852137 0.816018 0.775742 0.731322 0.682804 0.630267 0.573825 0.513627 0.449863 0.382763 0.312597 0.239678 0.164361 0.087043 0.008164 0.071796 0.152317 0.232843 0.312781 0.391509 0.468380 0.542721 0.613846 0.681057 0.743654 0.800942 0.852237 0.896878 0.934234 0.963714 0.984778 0.996947 0.999812 0.993044 0.976405 0.949758 0.913073 0.866436 0.810056 0.744273 0.669555 0.586509 0.495874 0.398525 0.295465 0.187822 0.076837 0.036142 0.149681 0.262271 0.372346 0.478309 0.578554 0.671486 0.755557 0.829285 0.891291 0.940321 0.975282 0.995265 0.999576 0.987754 0.959603 0.915200 0.854915 0.779419 0.689687 0.586996 0.472915 0.349294 0.218235 0.082069 0.056685 0.195360 0.331192 0.461372 0.583107 0.693681 0.790522 0.871260 0.933804 0.976391 0.997653 0.996663 0.972983 0.926693 0.858422 0.769348 0.661204 0.536253 0.397261 0.247438 0.090384 0.069996 0.229580 0.384135 0.529431 0.661352 0.776027 0.869949 0.940087 0.984006 0.999957 0.986963 0.944881 0.874439 0.777258 0.655829 0.513477 0.354286 0.183000 0.004892 0.174391 0.348994 0.513056 0.660900 0.787244 0.887397 0.957452 0.994456 0.996550 0.963085 0.894687 0.793291 0.662106 0.505554 0.329138 0.139269 0.056946 0.251962 0.438089 0.607785 0.753978 0.870373 0.951739 0.994172 0.995305 0.954465 0.872764 0.753111 0.600150 0.420111 0.220584 0.010224 0.201603 0.405245 0.591188 0.750521 0.875370 0.959319 0.997770 0.988219 0.930461 0.826665 0.681354 0.501240 0.294968 0.072714 0.154278 0.374266 0.575606 0.747386 0.880029 0.965865 0.999603 0.978706 0.903609 0.777797 0.607693 0.402384 0.173176 0.066995 0.304273 0.524680 0.714938 0.863297 0.960286 0.999371 0.977433 0.895070 0.756665 0.570220 0.346950 0.100658 0.153089 0.397919 0.617715 0.797688 0.925405 0.991690 0.991339 0.923589 0.792292 0.605778 0.376389 0.119727 0.146367 0.403043 0.631757 0.815637 0.940762 0.997274 0.980214 0.890025 0.732664 0.519294 0.265562 0.009483 0.284787 0.538893 0.751602 0.905641 0.988092 0.991563 0.914920 0.763540 0.549042 0.288462 0.002993 0.283717 0.547490 0.765673 0.919122 0.993938 0.982814 0.885829 0.710629 0.471924 0.190349 0.109251 0.399972 0.655268 0.851386 0.969636 0.998255 0.933669 0.781029 0.553921 0.273266 0.034516 0.339953 0.613310 0.827508 0.960862 0.999360 0.938243 0.782691 0.547526 0.255924 0.062792 0.376025 0.651232 0.859321 0.977803 0.993313 0.903238 0.716234 0.451544 0.137129 0.193178 0.503282 0.758767 0.930757 0.999270 0.955661 0.803849 0.560134 0.251593 0.086820 0.416157 0.697955 0.898741 0.994117 0.971836 0.833522 0.594762 0.283513 0.063051 0.402892 0.694187 0.900507 0.995473 0.966254 0.815462 0.561133 0.234733 0.122588 0.465121 0.748419 0.935126 0.999998 0.933483 0.743287 0.453686 0.102621 0.263193 0.594386 0.845607 0.981841 0.983412
1.000000 1.000000 1.000000 1.000000 1.000000 1.000000 1.000000 1.000000 1.000000 1.000000 1.000000 1.000000 1.000000 1.000000 1.000000 1.000000 1.000000 1.000000 1.000000 1.000000 1.000000 1.000000 1.000000 1.000000 1.000000 1.000000 1.000000 1.000000 1.000000 1.000000 1.000000 1.000000 1.000000 1.000000 1.000000 1.000000 1.000000 1.000000 1.000000 1.000000 1.000000 1.000000 1.000000 1.000000 1.000000 1.000000 1.000000 1.000000 1.000000 1.000000 1.000000 1.000000 0.887295 0.887295 0.891890 0.891890 0.891890 0.891890 0.891890 0.891890 0.891890 0.891890 0.891890 0.891890 0.891890 0.891890 0.891890 0.891890 0.891890 0.891890 0.891890 0.891890 0.891890 0.891890 0.891890 0.891890 0.891890 0.891890 0.891890 0.891890 0.891890 0.891890 0.891890 0.891890 0.891890 0.891890 0.891890 0.891890 0.891890 0.891890 0.891890 0.891890 0.891890 0.891890 0.891890 0.877775 0.884739 0.888775 0.890924 0.892988 0.894610 0.892717 0.891101 0.890921 0.891370 0.893002 0.903542 0.917929 0.932533 0.947347 0.954214 0.955407 0.958708 0.958869 0.965668 0.974214 0.973143 0.973967 0.974363 0.975208 0.964382 0.964509 0.957140 0.978941 0.966173 0.966087 0.956564 0.953869 0.953003 0.952621 0.952335 0.953283 0.951959 0.952589 0.950406 0.949930 0.948278 0.946655 0.945031 0.939176 0.941084 0.943752 0.941156 0.921901 0.910642 0.913005 0.910612 0.910502 0.906213 0.906692 0.907391 0.896897 0.897534 0.897490 0.883260 0.881146 0.879407 0.877781 0.877964 0.880478 0.880264 0.879909 0.871287 0.852170 0.821714 0.803365 0.828457 0.798720 0.778265 0.758815 0.762014 0.765134 0.765551 0.761156 0.756353 0.741071 0.729784 0.734048 0.728127 0.734974 0.732836 0.732270 0.722606 0.718561 0.693348 0.670989 0.688398 0.688099 0.687946 0.687464 0.683361 0.673065 0.685166 0.680761 0.676025 0.665368 0.659854 0.649713 0.636320 0.581209 0.588313 0.603758 0.595364 0.553775 0.556975 0.586529 0.592358 0.601793 0.599982 0.594112 0.548171 0.546765 0.537760 0.535029 0.534858 0.532269 0.533951 0.544828 0.541974 0.542165 0.538981 0.520740 0.516036 0.524800 0.532706 0.558584 0.526143 0.513299 0.494027 0.473722 0.433933 0.415928 0.433048 0.441938 0.425871 0.435191 0.426178 0.431693 0.439714 0.440208 0.429082 0.442363 0.434750 0.462388 0.434731 0.423538 0.430096 0.434875 0.420066 0.381502 0.344034 0.343452 0.343212 0.377018 0.399348 0.396803 0.451651 0.448021 0.437511 0.425455 0.443361 0.421372 0.412583 0.372148 0.295851 0.292659 0.309299 0.310509 0.311887 0.255110 0.254395 0.246862 0.231576 0.209114 0.216975 0.180229 0.162341 0.131998 0.122752 0.134355 0.134062 0.132082 0.107827 0.142061 0.191102 0.189797 0.189133 0.205332 0.185653 0.192230 0.150934 0.139119 0.120940 0.095502 0.109032 0.061110 0.068205 0.037062 0.031580 -0.001712 0.011895 0.014727 0.044424 -0.007226 -0.034407 -0.014757 0.004121 0.044358 0.030473 0.026999 0.028910 0.023759 0.002326 0.007897 -0.017494 -0.041079 -0.045912 -0.056296 -0.044177 -0.063242 -0.057341 -0.064736 -0.031436 0.025725 0.044667 0.037726 0.020525 0.043998 0.025411 0.039355 0.037080 -0.011643 -0.029760 -0.070118 -0.082183 -0.082183 -0.062198 -0.062198 -0.062198 -0.062198 -0.062198 -0.062198 -0.062198 -0.062198 -0.062198 -0.053283 -0.053283 -0.053283 -0.053283 -0.053283 -0.053283 -0.053283 -0.053283 -0.061459 -0.061459 -0.061459 -0.061459 -0.061459 -0.061459 -0.061459 -0.061459 -0.061459 -0.061459
0.000000 0.000000 0.000000 0.000000 0.000000 0.000000 0.000000 0.000000 0.000000 0.000000 0.000000 0.000000 0.000000 0.000000 0.000000 0.000000 0.000000 0.000000 0.000000 0.000000 0.000000 0.000000 0.000000 0.000000 0.000000 0.000000 0.000000 0.000000 0.000000 0.000000 0.000000 0.000000 0.000000 0.000000 0.000000 0.000000 0.000000 0.000000 0.000000 0.000000 0.000000 0.000000 0.000000 0.000000 0.000000 0.000000 0.000000 0.000000 0.000000 0.000000 0.000000 0.000000 0.181818 0.181818 0.199007 0.199007 0.199007 0.199007 0.199007 0.199007 0.199007 0.199007 0.199007 0.199007 0.199007 0.199007 0.199007 0.199007 0.199007 0.199007 0.199007 0.199007 0.199007 0.199007 0.199007 0.199007 0.199007 0.199007 0.199007 0.199007 0.199007 0.199007 0.199007 0.199007 0.199007 0.199007 0.199007 0.199007 0.199007 0.199007 0.199007 0.199007 0.199007 0.199007 0.199007 0.230940 0.230940 0.230940 0.230940 0.230940 0.230940 0.230940 0.230940 0.230940 0.230940 0.230940 0.230940 0.230940 0.230940 0.230940 0.230940 0.230940 0.230940 0.230940 0.230940 0.230940 0.230940 0.230940 0.230940 0.230940 0.230940 0.230940 0.230940 0.244339 0.244339 0.244339 0.244339 0.244339 0.244339 0.244339 0.244339 0.244339 0.244339 0.244339 0.244339 0.244339 0.244339 0.244339 0.244339 0.244339 0.244339 0.244339 0.244339 0.244339 0.244339 0.244339 0.251976 0.251976 0.251976 0.251976 0.251976 0.251976 0.251976 0.251976 0.251976 0.251976 0.251976 0.251976 0.251976 0.251976 0.251976 0.251976 0.251976 0.251976 0.251976 0.251976 0.264906 0.264906 0.264906 0.264906 0.264906 0.264906 0.264906 0.264906 0.264906 0.264906 0.264906 0.264906 0.264906 0.264906 0.264906 0.264906 0.264906 0.264906 0.264906 0.264906 0.264906 0.264906 0.264906 0.264906 0.264906 0.264906 0.264906 0.264906 0.264906 0.264906 0.264906 0.264906 0.264906 0.264906 0.264906 0.264906 0.264906 0.264906 0.264906 0.264906 0.264906 0.264906 0.264906 0.264906 0.264906 0.264906 0.264906 0.264906 0.264906 0.264906 0.264906 0.264906 0.264906 0.264906 0.264906 0.264906 0.264906 0.264906 0.264906 0.264906 0.264906 0.264906 0.264906 0.264906 0.264906 0.264906 0.264906 0.264906 0.264906 0.264906 0.264906 0.264906 0.264906 0.264906 0.264906 0.269680 0.269680 0.269680 0.269680 0.269680 0.269680 0.269680 0.269680 0.269680 0.269680 0.269680 0.269680 0.264906 0.264906 0.264906 0.264906 0.264906 0.264906 0.264906 0.264906 0.264906 0.264906 0.264906 0.264906 0.269680 0.269680 0.269680 0.269680 0.269680 0.269680 0.269680 0.269680 0.269680 0.269680 0.269680 0.264906 0.264906 0.264906 0.264906 0.264906 0.264906 0.264906 0.264906 0.264906 0.264906 0.264906 0.269680 0.269680 0.269680 0.269680 0.269680 0.269680 0.269680 0.269680 0.269680 0.269680 0.264906 0.264906 0.264906 0.264906 0.264906 0.264906 0.264906 0.264906 0.264906 0.264906 0.260378 0.260378 0.260378 0.260378 0.260378 0.260378 0.260378 0.260378 0.260378 0.260378 0.256074 0.256074 0.256074 0.256074 0.256074 0.256074 0.256074 0.256074 0.256074 0.256074 0.260378 0.260378 0.260378 0.260378 0.260378 0.260378 0.260378 0.260378 0.260378 0.256074 0.256074 0.256074 0.256074 0.256074 0.256074 0.256074 0.256074 0.256074 0.269680 0.269680 0.269680 0.269680 0.269680 0.269680 0.269680 0.269680 0.248069 0.248069 0.248069 0.248069 0.248069 0.248069 0.248069 0.248069 0.248069 0.248069
