# Output from CTFFind version 4.1.9, run on 2019-11-03 20:02:47
# Input file: stack11_bm3d_averaged_1_6.5_0_50_half.mrc ; Number of micrographs: 1
# Pixel size: 3.000 Angstroms ; acceleration voltage: 300.0 keV ; spherical aberration: 0.00 mm ; amplitude contrast: 0.07
# Box size: 512 pixels ; min. res.: 30.0 Angstroms ; max. res.: 5.0 Angstroms ; min. def.: 5000.0 um; max. def. 50000.0 um; num. frames averaged: 1
# 6 lines per micrograph: #1 - spatial frequency (1/Angstroms); #2 - 1D rotational average of spectrum (assuming no astigmatism); #3 - 1D rotational average of spectrum; #4 - CTF fit; #5 - cross-correlation between spectrum and CTF fit; #6 - 2sigma of expected cross correlation of noise
0.000000 0.000651 0.001302 0.001953 0.002604 0.003255 0.003906 0.004557 0.005208 0.005859 0.006510 0.007161 0.007812 0.008464 0.009115 0.009766 0.010417 0.011068 0.011719 0.012370 0.013021 0.013672 0.014323 0.014974 0.015625 0.016276 0.016927 0.017578 0.018229 0.018880 0.019531 0.020182 0.020833 0.021484 0.022135 0.022786 0.023438 0.024089 0.024740 0.025391 0.026042 0.026693 0.027344 0.027995 0.028646 0.029297 0.029948 0.030599 0.031250 0.031901 0.032552 0.033203 0.033854 0.034505 0.035156 0.035807 0.036458 0.037109 0.037760 0.038411 0.039062 0.039714 0.040365 0.041016 0.041667 0.042318 0.042969 0.043620 0.044271 0.044922 0.045573 0.046224 0.046875 0.047526 0.048177 0.048828 0.049479 0.050130 0.050781 0.051432 0.052083 0.052734 0.053385 0.054036 0.054688 0.055339 0.055990 0.056641 0.057292 0.057943 0.058594 0.059245 0.059896 0.060547 0.061198 0.061849 0.062500 0.063151 0.063802 0.064453 0.065104 0.065755 0.066406 0.067057 0.067708 0.068359 0.069010 0.069661 0.070312 0.070964 0.071615 0.072266 0.072917 0.073568 0.074219 0.074870 0.075521 0.076172 0.076823 0.077474 0.078125 0.078776 0.079427 0.080078 0.080729 0.081380 0.082031 0.082682 0.083333 0.083984 0.084635 0.085286 0.085938 0.086589 0.087240 0.087891 0.088542 0.089193 0.089844 0.090495 0.091146 0.091797 0.092448 0.093099 0.093750 0.094401 0.095052 0.095703 0.096354 0.097005 0.097656 0.098307 0.098958 0.099609 0.100260 0.100911 0.101562 0.102214 0.102865 0.103516 0.104167 0.104818 0.105469 0.106120 0.106771 0.107422 0.108073 0.108724 0.109375 0.110026 0.110677 0.111328 0.111979 0.112630 0.113281 0.113932 0.114583 0.115234 0.115885 0.116536 0.117188 0.117839 0.118490 0.119141 0.119792 0.120443 0.121094 0.121745 0.122396 0.123047 0.123698 0.124349 0.125000 0.125651 0.126302 0.126953 0.127604 0.128255 0.128906 0.129557 0.130208 0.130859 0.131510 0.132161 0.132812 0.133464 0.134115 0.134766 0.135417 0.136068 0.136719 0.137370 0.138021 0.138672 0.139323 0.139974 0.140625 0.141276 0.141927 0.142578 0.143229 0.143880 0.144531 0.145182 0.145833 0.146484 0.147135 0.147786 0.148438 0.149089 0.149740 0.150391 0.151042 0.151693 0.152344 0.152995 0.153646 0.154297 0.154948 0.155599 0.156250 0.156901 0.157552 0.158203 0.158854 0.159505 0.160156 0.160807 0.161458 0.162109 0.162760 0.163411 0.164062 0.164714 0.165365 0.166016 0.166667 0.167318 0.167969 0.168620 0.169271 0.169922 0.170573 0.171224 0.171875 0.172526 0.173177 0.173828 0.174479 0.175130 0.175781 0.176432 0.177083 0.177734 0.178385 0.179036 0.179688 0.180339 0.180990 0.181641 0.182292 0.182943 0.183594 0.184245 0.184896 0.185547 0.186198 0.186849 0.187500 0.188151 0.188802 0.189453 0.190104 0.190755 0.191406 0.192057 0.192708 0.193359 0.194010 0.194661 0.195312 0.195964 0.196615 0.197266 0.197917 0.198568 0.199219 0.199870 0.200521 0.201172 0.201823 0.202474 0.203125 0.203776 0.204427 0.205078 0.205729 0.206380 0.207031 0.207682 0.208333 0.208984 0.209635 0.210286 0.210938 0.211589 0.212240 0.212891 0.213542 0.214193 0.214844 0.215495 0.216146 0.216797 0.217448 0.218099 0.218750 0.219401 0.220052 0.220703 0.221354 0.222005 0.222656 0.223307 0.223958 0.224609 0.225260 0.225911 0.226562 0.227214 0.227865 0.228516 0.229167 0.229818 0.230469 0.231120 0.231771 0.232422 0.233073 0.233724 0.234375 0.235026 0.235677
       0.34537        0.34537        0.34537        0.34537        0.34537        0.34537        0.34537        0.34537        0.34537        0.34537        0.34537        0.34537        0.34537        0.34537        0.34537        0.34537        0.34537        0.34537        0.34537        0.34537        0.34537        0.34537        0.34537        0.34537        0.34537        0.34537        0.34537        0.34537        0.34537        0.34537        0.34537        0.34537        0.34537        0.34537        0.34537        0.34537        0.34537        0.34537        0.34537        0.34537        0.34537        0.34537        0.34537        0.34537        0.34537        0.34537        0.34537        0.34537        0.34537        0.34537        0.34537        0.69910        0.85758        0.53843        0.10546       -0.02911       -0.38540       -0.17981       -0.28842       -0.11588       -0.05490       -0.11248       -0.05318       -0.16599       -0.20518       -0.21324       -0.30654       -0.31779       -0.44333       -0.36185       -0.42512       -0.42028       -0.39324       -0.40614       -0.44595       -0.50695       -0.55832       -0.54889       -0.52292       -0.35563       -0.32518       -0.29043       -0.27031       -0.18496       -0.16920        0.06189        0.14281        0.17602        0.26679        0.38166        0.45809        0.52346        0.60168        0.59899        0.58516        0.70063        0.80303        0.70300        0.74464        0.61936        0.56898        0.48400        0.43332        0.51254        0.39824        0.27289        0.11750        0.11416        0.09491       -0.01227        0.04647        0.05385        0.01272        0.02863        0.03206        0.23696        0.27176        0.29693        0.43598        0.45425        0.41523        0.60109        0.61839        0.63458        0.72383        0.67622        0.64726        0.65596        0.56007        0.46052        0.41912        0.30475        0.27167        0.18562        0.13697        0.05260        0.06684        0.07710        0.10029        0.16070        0.24643        0.29916        0.42395        0.46591        0.48156        0.56452        0.60274        0.63691        0.61458        0.55793        0.46240        0.47375        0.37913        0.27863        0.21328        0.15683        0.17377        0.15416        0.16256        0.19210        0.32455        0.33899        0.40818        0.44743        0.42598        0.48048        0.56392        0.55560        0.50380        0.45790        0.41439        0.37385        0.34311        0.31041        0.26660        0.24816        0.25662        0.25770        0.22697        0.31084        0.36562        0.38479        0.43989        0.45625        0.46761        0.42795        0.41293        0.40271        0.36413        0.33908        0.27531        0.28238        0.26997        0.24773        0.29707        0.29427        0.35301        0.38415        0.43605        0.47708        0.40729        0.42323        0.43311        0.41267        0.35086        0.32950        0.29354        0.32780        0.27685        0.32478        0.31672        0.33436        0.34278        0.36565        0.31398        0.38861        0.41243        0.38152        0.35258        0.36984        0.31961        0.29643        0.30909        0.32051        0.30887        0.32096        0.34622        0.35843        0.34174        0.36451        0.36324        0.42448        0.39138        0.34057        0.34960        0.30042        0.29546        0.32787        0.32108        0.33136        0.34416        0.34400        0.38870        0.33185        0.33095        0.33928        0.35020        0.30526        0.31332        0.28317        0.30371        0.33225        0.30527        0.33287        0.35975        0.37164        0.29982        0.34412        0.30058        0.29386        0.27967        0.24803        0.30868        0.30863        0.34323        0.34010        0.34553        0.32859        0.34994        0.31615        0.34695        0.30680        0.32666        0.29317        0.33810        0.33229        0.37393        0.33213        0.33687        0.33749        0.29358        0.27671        0.31333        0.25105        0.23045        0.34120        0.32449        0.36890        0.34874        0.36471        0.33690        0.33473        0.35221        0.26715        0.27004        0.32029        0.30141        0.31243        0.31525        0.34016        0.32946        0.28930        0.29136        0.34570        0.32305        0.32291        0.30039        0.32262        0.33836        0.39338        0.36466        0.32157        0.28461        0.30468        0.29117        0.30816        0.27926        0.27179        0.31268        0.32917        0.34623        0.35653        0.33300        0.29646        0.30264        0.27223        0.28016        0.25747        0.30698        0.26119        0.24922        0.29022        0.28524        0.26205        0.29511        0.22069        0.21737        0.23968        0.19414        0.27427        0.35037        0.25455        0.24441        0.31839        0.30147        0.31044        0.31458        0.27402        0.25451        0.19308        0.21017        0.20908        0.28334        0.23709        0.28320        0.36646        0.37131        0.25627        0.18197        0.12581       -0.01305       -0.13237       -0.62984
2.809291 2.779475 2.749822 2.720332 2.691004 2.661838 2.632834 2.603993 2.575314 2.546798 2.518444 2.490252 2.462223 2.434356 2.406652 2.379109 2.351730 2.324512 2.297457 2.270565 2.243834 2.217266 2.190861 2.164618 2.138537 2.112618 2.086862 2.061269 2.035837 2.010568 1.985462 1.960518 1.935736 1.911116 1.886659 1.862365 1.838232 1.814262 1.790455 1.766809 1.743327 1.720006 1.696848 1.673852 1.651019 1.628348 1.605839 1.583493 1.561309 1.539288 1.517429 1.735627 2.162607 1.717585 1.194635 1.057345 0.455918 0.853089 0.562883 0.848619 0.818605 0.821852 0.760287 0.758786 0.599505 0.563341 0.503477 0.429165 0.250422 0.365246 0.200185 0.331578 0.219221 0.211376 0.185872 0.041509 0.001513 0.019025 -0.070317 0.134028 0.233908 0.189558 0.180143 0.325810 0.184654 0.524143 0.627973 0.637843 0.654556 0.881173 0.839862 0.948416 0.945309 1.042132 1.011805 1.094440 1.177013 1.049434 1.173023 0.914497 0.934557 0.800726 0.657633 0.813178 0.698254 0.500027 0.335105 0.252802 0.271262 0.150115 0.138915 0.167367 0.109661 0.120054 0.083440 0.249603 0.351370 0.342941 0.479649 0.547445 0.418698 0.597470 0.735496 0.647486 0.722910 0.713211 0.722285 0.648012 0.598264 0.491847 0.368593 0.277910 0.221481 0.092719 0.116511 -0.117670 -0.049696 -0.063511 -0.084807 -0.018867 0.129279 0.071033 0.243851 0.308863 0.337335 0.374480 0.497924 0.467510 0.479975 0.491452 0.305431 0.294307 0.287617 0.086422 0.046390 -0.082236 -0.015979 -0.063164 -0.097337 -0.070560 0.040478 0.095545 0.126399 0.225630 0.223947 0.220579 0.316627 0.342178 0.447130 0.256889 0.233002 0.227169 0.144091 0.145548 0.120388 -0.004138 0.015616 0.077495 -0.010885 0.044991 0.134113 0.135495 0.213819 0.234566 0.253604 0.167936 0.211683 0.128484 0.126929 0.115012 0.027142 -0.027114 -0.000930 -0.020882 -0.053003 0.055469 0.003998 0.106837 0.138889 0.193987 0.164230 0.118443 0.140578 0.159967 0.110394 0.035341 -0.026346 0.028857 0.028715 -0.043902 0.037864 0.020500 0.047984 0.039396 0.055341 0.020128 0.140219 0.118936 0.046321 0.037352 0.042308 0.005355 -0.030930 0.009197 0.004327 -0.004485 0.003149 0.057605 0.053650 0.039160 0.073567 0.061308 0.164612 0.064100 0.040953 0.043329 -0.035066 0.012562 0.047867 0.007724 0.032976 0.055885 0.077388 0.057894 0.042182 0.008128 0.079734 0.027089 0.020108 0.024625 -0.006228 0.032159 0.026811 0.020976 0.069492 0.075690 0.077996 0.041252 0.053048 0.023456 0.015323 -0.024310 -0.024641 0.037448 0.052829 0.080689 0.080722 0.067184 0.070922 0.097065 0.043246 0.090660 0.057347 0.044954 0.017756 0.105143 0.062882 0.125550 0.065615 0.067049 0.097293 0.030829 0.002418 0.085327 -0.039939 -0.029010 0.093274 0.043839 0.159859 0.092294 0.089514 0.065712 0.031636 0.090230 -0.026986 -0.025216 0.047940 0.032721 0.033115 0.018252 0.102141 0.030449 -0.014195 0.049209 0.040028 0.053758 0.055423 -0.009074 0.056951 0.049273 0.122578 0.051591 0.027686 -0.029346 -0.027826 -0.004812 0.006644 -0.057480 -0.023350 -0.000656 0.014931 0.034386 0.057554 0.004738 -0.033521 -0.029556 -0.019310 -0.066012 -0.047276 -0.035148 -0.130882 -0.095790 -0.058539 -0.094070 -0.107797 -0.026180 -0.152849 -0.104445 -0.113933 -0.190249 -0.069287 0.061603 -0.072960 -0.137732 0.049935 0.028834 -0.025876 0.072712 -0.024934 -0.001336 -0.089616 -0.040499 0.047573 0.128842 0.053151 0.135506 0.169218 0.437617 0.240140 0.330123 0.157370 -0.018457 -0.705202
0.072396 0.072899 0.074408 0.076923 0.080443 0.084966 0.090493 0.097021 0.104548 0.113072 0.122588 0.133093 0.144581 0.157047 0.170481 0.184875 0.200218 0.216497 0.233697 0.251800 0.270787 0.290635 0.311317 0.332804 0.355063 0.378056 0.401742 0.426076 0.451005 0.476475 0.502423 0.528783 0.555482 0.582440 0.609572 0.636786 0.663983 0.691058 0.717900 0.744388 0.770397 0.795794 0.820441 0.844191 0.866893 0.888389 0.908518 0.927111 0.943998 0.959005 0.971954 0.982668 0.990969 0.996677 0.999620 0.999624 0.996525 0.990162 0.980385 0.967055 0.950043 0.929238 0.904543 0.875881 0.843197 0.806459 0.765659 0.720818 0.671989 0.619254 0.562729 0.502567 0.438959 0.372132 0.302354 0.229934 0.155219 0.078598 0.000500 0.078606 0.158215 0.237788 0.316750 0.394500 0.470409 0.543830 0.614098 0.680541 0.742481 0.799247 0.850179 0.894637 0.932009 0.961725 0.983257 0.996137 0.999965 0.994413 0.979241 0.954304 0.919557 0.875065 0.821012 0.757702 0.685564 0.605157 0.517169 0.422414 0.321835 0.216489 0.107549 0.003709 0.115925 0.227657 0.337410 0.443650 0.544823 0.639385 0.725821 0.802673 0.868571 0.922252 0.962597 0.988652 0.999656 0.995066 0.974576 0.938138 0.885977 0.818602 0.736809 0.641687 0.534609 0.417220 0.291424 0.159356 0.023350 0.114095 0.250355 0.382739 0.508533 0.625062 0.729746 0.820164 0.894116 0.949682 0.985278 0.999712 0.992226 0.962542 0.910882 0.837996 0.745159 0.634173 0.507339 0.367427 0.217625 0.061471 0.097216 0.254429 0.406073 0.548073 0.676480 0.787594 0.878076 0.945056 0.986240 0.999998 0.985442 0.942481 0.871863 0.775180 0.654861 0.514126 0.356921 0.187820 0.011906 0.165376 0.338378 0.501434 0.649045 0.776068 0.877919 0.950734 0.991550 0.998431 0.970586 0.908432 0.813634 0.689086 0.538848 0.368040 0.182692 0.010462 0.204209 0.391130 0.563874 0.715466 0.839585 0.930860 0.985109 0.999566 0.973041 0.906025 0.800731 0.661055 0.492470 0.301835 0.097147 0.112785 0.318702 0.511305 0.681679 0.821715 0.924524 0.984790 0.999086 0.966094 0.886740 0.764221 0.603920 0.413212 0.201159 0.021907 0.244850 0.456298 0.645215 0.801493 0.916515 0.983661 0.998726 0.960219 0.869534 0.730957 0.551515 0.340666 0.109841 0.128152 0.359830 0.571779 0.751459 0.887954 0.972676 0.999947 0.967423 0.876338 0.731526 0.541229 0.316684 0.071496 0.179155 0.419433 0.633853 0.808284 0.930931 0.993150 0.990129 0.921308 0.790531 0.605911 0.379391 0.126023 0.136999 0.391470 0.619446 0.804511 0.933006 0.995075 0.985491 0.904152 0.756230 0.551919 0.305808 0.035892 0.237697 0.494187 0.713731 0.878986 0.976519 0.997965 0.940822 0.808790 0.611635 0.364553 0.087062 0.198492 0.468699 0.701020 0.875680 0.977417 0.996873 0.931547 0.786173 0.572484 0.308354 0.016385 0.277992 0.548691 0.771315 0.925372 0.996247 0.976661 0.867514 0.677996 0.424923 0.131329 0.175550 0.466779 0.714450 0.894379 0.988539 0.986960 0.888881 0.703039 0.447006 0.145643 0.171249 0.471833 0.725424 0.905661 0.993330 0.978499 0.861763 0.654419 0.377488 0.059704 0.265392 0.562964 0.800624 0.952002 0.999773 0.937753 0.771822 0.519522 0.208332 0.127214 0.449313 0.721138 0.911080 0.996521 0.966637 0.823912 0.584115 0.274714 0.068163 0.403862 0.692001 0.897378 0.994338 0.970116 0.826662 0.580694 0.261910 0.090459 0.432425 0.720679 0.918153 0.998859 0.951460 0.781025 0.508685 0.169184 0.193433
1.000000 1.000000 1.000000 1.000000 1.000000 1.000000 1.000000 1.000000 1.000000 1.000000 1.000000 1.000000 1.000000 1.000000 1.000000 1.000000 1.000000 1.000000 1.000000 1.000000 1.000000 1.000000 1.000000 1.000000 1.000000 1.000000 1.000000 1.000000 1.000000 1.000000 1.000000 1.000000 1.000000 1.000000 1.000000 1.000000 1.000000 1.000000 1.000000 1.000000 1.000000 1.000000 1.000000 1.000000 1.000000 1.000000 1.000000 1.000000 1.000000 1.000000 1.000000 1.000000 0.915767 0.915767 0.915767 0.911375 0.911375 0.911375 0.911375 0.911375 0.911375 0.911375 0.911375 0.911375 0.911375 0.911375 0.911375 0.911375 0.911375 0.911375 0.911375 0.911375 0.911375 0.911375 0.911375 0.911375 0.911375 0.911375 0.911375 0.911375 0.911375 0.911375 0.911375 0.911375 0.911375 0.911375 0.911375 0.911375 0.911375 0.911375 0.911375 0.911375 0.911375 0.911375 0.911375 0.911375 0.939859 0.941289 0.949632 0.949164 0.948568 0.946580 0.945321 0.944974 0.944887 0.945239 0.945975 0.946971 0.953193 0.954130 0.958542 0.961260 0.961232 0.962969 0.964935 0.964574 0.956260 0.956016 0.954584 0.953855 0.955966 0.954599 0.953362 0.953834 0.953452 0.955869 0.955429 0.954213 0.952563 0.950960 0.949659 0.949107 0.948874 0.949678 0.949756 0.951330 0.954357 0.954519 0.954255 0.951498 0.951112 0.952318 0.951759 0.953575 0.941416 0.940757 0.939287 0.939286 0.941890 0.941780 0.941681 0.942586 0.942288 0.942210 0.942356 0.937434 0.937326 0.930392 0.927184 0.925947 0.920769 0.916669 0.919155 0.921576 0.922695 0.923056 0.914124 0.911412 0.912543 0.911368 0.912748 0.912478 0.913513 0.913882 0.913787 0.908431 0.898414 0.896825 0.889074 0.891728 0.888537 0.885912 0.882897 0.873880 0.865119 0.877603 0.864447 0.822955 0.826524 0.830763 0.822372 0.818265 0.819070 0.820517 0.825426 0.819326 0.818045 0.812051 0.798830 0.793984 0.786163 0.772311 0.769740 0.760582 0.750349 0.744381 0.767880 0.761569 0.773281 0.777496 0.776962 0.773302 0.764052 0.752892 0.752365 0.751522 0.748199 0.725360 0.716216 0.716253 0.713496 0.700626 0.703994 0.691961 0.692536 0.680446 0.685610 0.691346 0.694816 0.690433 0.684252 0.675895 0.672100 0.685353 0.699397 0.691846 0.688026 0.694027 0.684683 0.679313 0.671740 0.675681 0.668493 0.660288 0.662657 0.696587 0.668875 0.658599 0.666370 0.667904 0.663758 0.664124 0.643521 0.637320 0.615024 0.632303 0.637945 0.654910 0.656719 0.659475 0.670644 0.676315 0.686933 0.691368 0.689758 0.650307 0.654327 0.672973 0.680920 0.670080 0.660380 0.655382 0.647544 0.683544 0.669123 0.626732 0.622846 0.623241 0.578911 0.558965 0.557600 0.559419 0.585830 0.578533 0.559709 0.533533 0.535595 0.537461 0.537232 0.535655 0.518532 0.526354 0.510956 0.487199 0.499746 0.507653 0.506140 0.490272 0.482725 0.495898 0.474358 0.502023 0.478787 0.460221 0.477490 0.475927 0.465199 0.392987 0.401371 0.390673 0.376933 0.333465 0.342906 0.352654 0.335007 0.260632 0.254584 0.255365 0.251929 0.232605 0.211239 0.197726 0.187643 0.165407 0.102932 0.054266 0.055051 0.058648 0.085714 0.045349 0.099909 0.167585 0.165755 0.165755 0.165755 0.165755 0.165755 0.165755 0.165755 0.165755 0.141390 0.141390 0.141390 0.141390 0.141390 0.141390 0.141390 0.141390 0.141390 0.165755 0.165755 0.165755 0.165755 0.165755 0.165755 0.165755 0.165755 0.165755 0.165755 0.165755 0.165755 0.165755 0.165755
0.000000 0.000000 0.000000 0.000000 0.000000 0.000000 0.000000 0.000000 0.000000 0.000000 0.000000 0.000000 0.000000 0.000000 0.000000 0.000000 0.000000 0.000000 0.000000 0.000000 0.000000 0.000000 0.000000 0.000000 0.000000 0.000000 0.000000 0.000000 0.000000 0.000000 0.000000 0.000000 0.000000 0.000000 0.000000 0.000000 0.000000 0.000000 0.000000 0.000000 0.000000 0.000000 0.000000 0.000000 0.000000 0.000000 0.000000 0.000000 0.000000 0.000000 0.000000 0.000000 0.180334 0.180334 0.180334 0.199007 0.199007 0.199007 0.199007 0.199007 0.199007 0.199007 0.199007 0.199007 0.199007 0.199007 0.199007 0.199007 0.199007 0.199007 0.199007 0.199007 0.199007 0.199007 0.199007 0.199007 0.199007 0.199007 0.199007 0.199007 0.199007 0.199007 0.199007 0.199007 0.199007 0.199007 0.199007 0.199007 0.199007 0.199007 0.199007 0.199007 0.199007 0.199007 0.199007 0.199007 0.225018 0.225018 0.225018 0.225018 0.225018 0.225018 0.225018 0.225018 0.225018 0.225018 0.225018 0.225018 0.225018 0.225018 0.225018 0.225018 0.225018 0.225018 0.225018 0.225018 0.225018 0.225018 0.225018 0.225018 0.225018 0.225018 0.225018 0.225018 0.225018 0.244339 0.244339 0.244339 0.244339 0.244339 0.244339 0.244339 0.244339 0.244339 0.244339 0.244339 0.244339 0.244339 0.244339 0.244339 0.244339 0.244339 0.244339 0.244339 0.244339 0.244339 0.244339 0.244339 0.256074 0.256074 0.256074 0.256074 0.256074 0.256074 0.256074 0.256074 0.256074 0.256074 0.256074 0.256074 0.256074 0.256074 0.256074 0.256074 0.256074 0.256074 0.256074 0.256074 0.256074 0.256074 0.256074 0.256074 0.256074 0.256074 0.256074 0.256074 0.256074 0.256074 0.256074 0.256074 0.256074 0.256074 0.256074 0.256074 0.256074 0.264906 0.264906 0.264906 0.264906 0.264906 0.264906 0.264906 0.264906 0.264906 0.264906 0.264906 0.264906 0.264906 0.264906 0.264906 0.264906 0.264906 0.264906 0.264906 0.264906 0.264906 0.264906 0.264906 0.264906 0.264906 0.264906 0.264906 0.264906 0.264906 0.264906 0.264906 0.264906 0.264906 0.264906 0.264906 0.264906 0.264906 0.264906 0.264906 0.264906 0.264906 0.264906 0.264906 0.264906 0.264906 0.264906 0.264906 0.264906 0.264906 0.264906 0.264906 0.264906 0.264906 0.264906 0.264906 0.264906 0.264906 0.264906 0.260378 0.260378 0.260378 0.260378 0.260378 0.260378 0.260378 0.260378 0.260378 0.260378 0.260378 0.260378 0.260378 0.264906 0.264906 0.264906 0.264906 0.264906 0.264906 0.264906 0.264906 0.264906 0.264906 0.264906 0.264906 0.269680 0.269680 0.269680 0.269680 0.269680 0.269680 0.269680 0.269680 0.269680 0.269680 0.269680 0.264906 0.264906 0.264906 0.264906 0.264906 0.264906 0.264906 0.264906 0.264906 0.264906 0.264906 0.256074 0.256074 0.256074 0.256074 0.256074 0.256074 0.256074 0.256074 0.256074 0.256074 0.256074 0.264906 0.264906 0.264906 0.264906 0.264906 0.264906 0.264906 0.264906 0.264906 0.264906 0.260378 0.260378 0.260378 0.260378 0.260378 0.260378 0.260378 0.260378 0.260378 0.260378 0.264906 0.264906 0.264906 0.264906 0.264906 0.264906 0.264906 0.264906 0.264906 0.251976 0.251976 0.251976 0.251976 0.251976 0.251976 0.251976 0.251976 0.251976 0.251976 0.256074 0.256074 0.256074 0.256074 0.256074 0.256074 0.256074 0.256074 0.256074 0.251976 0.251976 0.251976 0.251976 0.251976 0.251976 0.251976 0.251976 0.251976 0.251976 0.251976 0.251976 0.251976 0.251976
