# Output from CTFFind version 4.1.9, run on 2019-11-03 19:00:07
# Input file: stack1_bm3d_averaged_1_2.25_0_1250_half.mrc ; Number of micrographs: 1
# Pixel size: 3.000 Angstroms ; acceleration voltage: 300.0 keV ; spherical aberration: 0.00 mm ; amplitude contrast: 0.07
# Box size: 512 pixels ; min. res.: 30.0 Angstroms ; max. res.: 5.0 Angstroms ; min. def.: 5000.0 um; max. def. 50000.0 um; num. frames averaged: 1
# 6 lines per micrograph: #1 - spatial frequency (1/Angstroms); #2 - 1D rotational average of spectrum (assuming no astigmatism); #3 - 1D rotational average of spectrum; #4 - CTF fit; #5 - cross-correlation between spectrum and CTF fit; #6 - 2sigma of expected cross correlation of noise
0.000000 0.000651 0.001302 0.001953 0.002604 0.003255 0.003906 0.004557 0.005208 0.005859 0.006510 0.007161 0.007812 0.008464 0.009115 0.009766 0.010417 0.011068 0.011719 0.012370 0.013021 0.013672 0.014323 0.014974 0.015625 0.016276 0.016927 0.017578 0.018229 0.018880 0.019531 0.020182 0.020833 0.021484 0.022135 0.022786 0.023438 0.024089 0.024740 0.025391 0.026042 0.026693 0.027344 0.027995 0.028646 0.029297 0.029948 0.030599 0.031250 0.031901 0.032552 0.033203 0.033854 0.034505 0.035156 0.035807 0.036458 0.037109 0.037760 0.038411 0.039062 0.039714 0.040365 0.041016 0.041667 0.042318 0.042969 0.043620 0.044271 0.044922 0.045573 0.046224 0.046875 0.047526 0.048177 0.048828 0.049479 0.050130 0.050781 0.051432 0.052083 0.052734 0.053385 0.054036 0.054688 0.055339 0.055990 0.056641 0.057292 0.057943 0.058594 0.059245 0.059896 0.060547 0.061198 0.061849 0.062500 0.063151 0.063802 0.064453 0.065104 0.065755 0.066406 0.067057 0.067708 0.068359 0.069010 0.069661 0.070312 0.070964 0.071615 0.072266 0.072917 0.073568 0.074219 0.074870 0.075521 0.076172 0.076823 0.077474 0.078125 0.078776 0.079427 0.080078 0.080729 0.081380 0.082031 0.082682 0.083333 0.083984 0.084635 0.085286 0.085938 0.086589 0.087240 0.087891 0.088542 0.089193 0.089844 0.090495 0.091146 0.091797 0.092448 0.093099 0.093750 0.094401 0.095052 0.095703 0.096354 0.097005 0.097656 0.098307 0.098958 0.099609 0.100260 0.100911 0.101562 0.102214 0.102865 0.103516 0.104167 0.104818 0.105469 0.106120 0.106771 0.107422 0.108073 0.108724 0.109375 0.110026 0.110677 0.111328 0.111979 0.112630 0.113281 0.113932 0.114583 0.115234 0.115885 0.116536 0.117188 0.117839 0.118490 0.119141 0.119792 0.120443 0.121094 0.121745 0.122396 0.123047 0.123698 0.124349 0.125000 0.125651 0.126302 0.126953 0.127604 0.128255 0.128906 0.129557 0.130208 0.130859 0.131510 0.132161 0.132812 0.133464 0.134115 0.134766 0.135417 0.136068 0.136719 0.137370 0.138021 0.138672 0.139323 0.139974 0.140625 0.141276 0.141927 0.142578 0.143229 0.143880 0.144531 0.145182 0.145833 0.146484 0.147135 0.147786 0.148438 0.149089 0.149740 0.150391 0.151042 0.151693 0.152344 0.152995 0.153646 0.154297 0.154948 0.155599 0.156250 0.156901 0.157552 0.158203 0.158854 0.159505 0.160156 0.160807 0.161458 0.162109 0.162760 0.163411 0.164062 0.164714 0.165365 0.166016 0.166667 0.167318 0.167969 0.168620 0.169271 0.169922 0.170573 0.171224 0.171875 0.172526 0.173177 0.173828 0.174479 0.175130 0.175781 0.176432 0.177083 0.177734 0.178385 0.179036 0.179688 0.180339 0.180990 0.181641 0.182292 0.182943 0.183594 0.184245 0.184896 0.185547 0.186198 0.186849 0.187500 0.188151 0.188802 0.189453 0.190104 0.190755 0.191406 0.192057 0.192708 0.193359 0.194010 0.194661 0.195312 0.195964 0.196615 0.197266 0.197917 0.198568 0.199219 0.199870 0.200521 0.201172 0.201823 0.202474 0.203125 0.203776 0.204427 0.205078 0.205729 0.206380 0.207031 0.207682 0.208333 0.208984 0.209635 0.210286 0.210938 0.211589 0.212240 0.212891 0.213542 0.214193 0.214844 0.215495 0.216146 0.216797 0.217448 0.218099 0.218750 0.219401 0.220052 0.220703 0.221354 0.222005 0.222656 0.223307 0.223958 0.224609 0.225260 0.225911 0.226562 0.227214 0.227865 0.228516 0.229167 0.229818 0.230469 0.231120 0.231771 0.232422 0.233073 0.233724 0.234375 0.235026 0.235677
       0.33895        0.33895        0.33895        0.33895        0.33895        0.33895        0.33895        0.33895        0.33895        0.33895        0.33895        0.33895        0.33895        0.33895        0.33895        0.33895        0.33895        0.33895        0.33895        0.33895        0.33895        0.33895        0.33895        0.33895        0.33895        0.33895        0.33895        0.33895        0.33895        0.33895        0.33895        0.33895        0.33895        0.33895        0.33895        0.33895        0.33895        0.33895        0.33895        0.33895        0.33895        0.33895        0.33895        0.33895        0.33895        0.33895        0.33895        0.33895        0.33895        0.33895        0.33895        0.50438        0.72183        0.42347        0.19967       -0.06691       -0.24922       -0.06240       -0.12277       -0.06525        0.00307       -0.14516       -0.10612       -0.03873        0.00543       -0.14854       -0.22149       -0.33077       -0.46549       -0.57649       -0.52519       -0.46172       -0.36960       -0.55803       -0.44876       -0.61348       -0.50111       -0.47341       -0.39916       -0.37114       -0.32304       -0.23413       -0.16344       -0.13452        0.03091       -0.01264        0.11996        0.17828        0.32490        0.43027        0.48360        0.51497        0.55483        0.56418        0.70469        0.65717        0.68563        0.59319        0.56512        0.65152        0.52831        0.45044        0.41314        0.30629        0.25229        0.27164        0.25695        0.10121        0.08532        0.00867       -0.00217        0.02938       -0.01413        0.07110        0.09575        0.22425        0.28909        0.29483        0.40557        0.57363        0.55287        0.57507        0.67253        0.68716        0.63467        0.65317        0.64614        0.54049        0.56815        0.40016        0.36358        0.27463        0.18615        0.08628        0.14706        0.11550        0.11980        0.13025        0.20895        0.19198        0.31888        0.35489        0.41022        0.50108        0.55527        0.55155        0.56033        0.61168        0.54233        0.47993        0.48638        0.32866        0.26257        0.26307        0.25174        0.15237        0.15296        0.15869        0.23150        0.26931        0.34275        0.38874        0.41481        0.45430        0.45089        0.48356        0.44411        0.48231        0.44569        0.38911        0.36701        0.37614        0.34189        0.29759        0.21619        0.22502        0.23062        0.27795        0.26615        0.35619        0.39046        0.36534        0.41584        0.45119        0.44434        0.43548        0.44306        0.35927        0.34046        0.29114        0.25859        0.30258        0.26831        0.30077        0.31616        0.35109        0.33692        0.40710        0.39822        0.44095        0.40232        0.46086        0.41432        0.37588        0.28650        0.28337        0.28768        0.28103        0.28194        0.34261        0.36324        0.33623        0.36870        0.37767        0.35354        0.42162        0.40703        0.36951        0.35310        0.30417        0.30387        0.32425        0.31736        0.31749        0.30174        0.34252        0.36406        0.38163        0.34855        0.33635        0.33202        0.35708        0.32426        0.30271        0.32691        0.32595        0.33070        0.33461        0.34543        0.37116        0.33465        0.32705        0.34855        0.32028        0.27365        0.26336        0.28079        0.30935        0.32019        0.36049        0.29798        0.31052        0.33526        0.30223        0.32738        0.29561        0.28240        0.27911        0.28185        0.29260        0.34533        0.31874        0.33394        0.31897        0.34930        0.35402        0.31997        0.32706        0.33776        0.27391        0.29887        0.32223        0.28761        0.33212        0.32849        0.33369        0.32688        0.35769        0.34343        0.29347        0.25079        0.28693        0.34533        0.35918        0.35661        0.31300        0.30393        0.30305        0.31148        0.26756        0.29770        0.30859        0.33370        0.31177        0.29278        0.26813        0.34440        0.33695        0.34456        0.29790        0.30331        0.31451        0.39973        0.35562        0.34285        0.33290        0.30712        0.29377        0.31321        0.31789        0.29100        0.22949        0.26860        0.30813        0.30955        0.30052        0.27606        0.26120        0.23770        0.22974        0.29271        0.32289        0.30356        0.31142        0.32075        0.36242        0.24092        0.21280        0.25719        0.25324        0.28265        0.29549        0.33093        0.26373        0.29231        0.28138        0.23545        0.28462        0.28569        0.24296        0.20221        0.25097        0.24687        0.24020        0.30356        0.28858        0.35933        0.33978        0.28474        0.27210        0.20460        0.27168        0.30477        0.26441        0.18691        0.24092        0.26479        0.18939        0.24133        0.16904        0.10597       -0.50223       -0.81431
2.702072 2.673428 2.644939 2.616606 2.588428 2.560405 2.532538 2.504826 2.477269 2.449868 2.422622 2.395531 2.368595 2.341815 2.315190 2.288721 2.262406 2.236247 2.210244 2.184395 2.158702 2.133164 2.107782 2.082555 2.057483 2.032566 2.007805 1.983199 1.958749 1.934453 1.910313 1.886328 1.862499 1.838825 1.815306 1.791942 1.768734 1.745681 1.722784 1.700041 1.677454 1.655023 1.632746 1.610625 1.588659 1.566849 1.545193 1.523694 1.502349 1.481160 1.460126 1.522715 1.839258 1.504003 1.201709 0.945778 0.549993 0.915723 0.644504 0.849562 0.916839 0.596955 0.678476 0.785569 0.828126 0.616218 0.525801 0.363281 0.094103 0.050042 0.032493 0.043000 0.296495 -0.050059 0.061068 -0.126441 -0.031310 -0.016346 0.051839 0.069349 0.113329 0.183794 0.276329 0.244946 0.469402 0.392984 0.541825 0.535271 0.785794 0.795593 0.894217 0.955673 0.934457 0.966687 1.127248 0.952320 1.144999 0.940091 0.864343 1.010505 0.845214 0.769128 0.661473 0.570425 0.468322 0.431360 0.503156 0.257957 0.196792 0.165448 0.015874 0.186949 -0.022209 0.115337 0.164876 0.247486 0.338338 0.337480 0.442670 0.553642 0.689542 0.530974 0.736170 0.847697 0.628055 0.722212 0.688355 0.581145 0.526517 0.465449 0.317340 0.218501 0.121639 -0.022221 -0.020037 0.042217 -0.066937 -0.042862 0.072848 0.031460 0.095629 0.221772 0.234595 0.324808 0.430252 0.429652 0.460651 0.451845 0.463618 0.336140 0.340409 0.244610 0.052537 0.072612 0.022848 -0.038232 -0.094236 -0.086066 -0.025807 -0.015357 0.088509 0.142039 0.165147 0.250376 0.225025 0.248261 0.282094 0.233102 0.241018 0.215283 0.136854 0.122134 0.135399 0.037153 0.025682 -0.102176 -0.024193 0.007090 0.009250 0.019171 0.126229 0.093857 0.134940 0.200912 0.275873 0.167690 0.219634 0.122443 0.137750 0.043790 -0.021528 0.023440 0.008224 0.011854 0.015117 0.068289 0.070350 0.081001 0.166254 0.140111 0.173580 0.110313 0.209056 0.110465 0.027522 -0.023020 -0.021841 -0.014729 -0.039417 -0.012074 0.081758 0.076169 0.004951 0.118264 0.095468 0.083341 0.175049 0.094811 0.104342 0.069442 -0.015064 0.042073 0.029088 0.029151 0.044502 0.029651 0.067196 0.074871 0.091983 0.056504 0.054832 0.017395 0.096907 0.013743 0.017143 0.042096 0.027965 0.067086 0.057843 0.071344 0.081833 0.042860 0.029819 0.054276 0.013821 -0.047340 -0.023581 -0.007429 0.005168 0.026772 0.103981 -0.021340 0.056303 0.049248 0.006476 0.057702 0.017307 -0.004725 0.007591 0.021139 0.026108 0.085685 0.023186 0.083664 0.061944 0.109770 0.089180 0.081747 0.090237 0.065975 -0.001654 0.070970 0.062794 0.033988 0.108395 0.075054 0.041322 0.071441 0.098991 0.049508 0.026822 -0.062318 0.030878 0.110463 0.090863 0.079229 0.045635 0.010735 0.040784 0.037561 -0.037395 0.044422 0.036869 0.075594 0.064348 -0.029831 -0.011249 0.105985 0.040768 0.041576 0.007227 -0.016958 0.067058 0.127437 0.051941 0.025948 0.053639 0.008239 -0.037625 0.007243 0.001797 -0.042215 -0.108050 -0.040274 -0.018247 0.010694 -0.031620 -0.050690 -0.038075 -0.065951 -0.039073 -0.038833 0.054495 0.018325 0.028316 0.041969 0.096717 -0.074934 -0.074252 -0.029629 -0.054928 0.026595 0.001792 0.083245 -0.052818 0.009830 0.016509 -0.047350 0.028177 0.041650 -0.043004 -0.107637 -0.008584 0.007997 -0.030369 0.044125 0.031455 0.165604 0.079549 0.056273 0.037393 -0.032208 0.015568 0.063274 0.315358 0.227982 0.295156 0.288842 0.238063 0.272163 0.097336 0.132697 -0.959068
0.072396 0.072910 0.074453 0.077023 0.080620 0.085244 0.090892 0.097564 0.105257 0.113967 0.123693 0.134428 0.146167 0.158904 0.172630 0.187335 0.203008 0.219636 0.237201 0.255686 0.275070 0.295327 0.316431 0.338350 0.361048 0.384486 0.408621 0.433402 0.458776 0.484683 0.511058 0.537831 0.564922 0.592249 0.619720 0.647238 0.674699 0.701990 0.728994 0.755584 0.781627 0.806984 0.831506 0.855042 0.877431 0.898509 0.918105 0.936044 0.952148 0.966234 0.978121 0.987622 0.994555 0.998736 0.999988 0.998136 0.993012 0.984456 0.972321 0.956469 0.936779 0.913144 0.885479 0.853719 0.817822 0.777774 0.733587 0.685305 0.633005 0.576799 0.516835 0.453299 0.386419 0.316461 0.243737 0.168598 0.091437 0.012692 0.067160 0.147604 0.228086 0.308017 0.386778 0.463724 0.538186 0.609480 0.676910 0.739777 0.797387 0.849057 0.894125 0.931959 0.961968 0.983608 0.996397 0.999922 0.993848 0.977932 0.952028 0.916100 0.870224 0.814600 0.749557 0.675552 0.593180 0.503169 0.406381 0.303808 0.196565 0.085882 0.026904 0.140370 0.253012 0.363276 0.469569 0.570285 0.663835 0.748666 0.823295 0.886334 0.936521 0.972750 0.994096 0.999845 0.989519 0.962893 0.920020 0.861241 0.787198 0.698836 0.597398 0.484424 0.361733 0.231400 0.095730 0.042782 0.181486 0.317632 0.448419 0.571055 0.682821 0.781130 0.863598 0.928102 0.972848 0.996425 0.997860 0.976661 0.932851 0.866996 0.780213 0.674168 0.551065 0.413605 0.264947 0.108643 0.051443 0.211216 0.366462 0.512951 0.646559 0.763389 0.859889 0.932975 0.980139 0.999549 0.990132 0.951640 0.884694 0.790797 0.672332 0.532513 0.375325 0.205425 0.028013 0.151312 0.326727 0.492371 0.642547 0.771919 0.875718 0.949932 0.991477 0.998347 0.969723 0.906058 0.809100 0.681884 0.528659 0.354776 0.166518 0.029108 0.224616 0.412339 0.584709 0.734585 0.855552 0.942225 0.990499 0.997777 0.963132 0.887409 0.773247 0.625027 0.448739 0.251773 0.042625 0.169445 0.374820 0.563956 0.727839 0.858426 0.949064 0.994858 0.992967 0.942814 0.846189 0.707233 0.532314 0.329765 0.109528 0.117320 0.339101 0.544138 0.721380 0.861011 0.955027 0.997721 0.986082 0.920038 0.802551 0.639548 0.439669 0.213856 0.025218 0.263834 0.488001 0.684293 0.840659 0.947203 0.996844 0.985840 0.914115 0.785374 0.606974 0.389570 0.146522 0.106889 0.354398 0.579796 0.768001 0.906105 0.984286 0.996572 0.941353 0.821606 0.644829 0.422630 0.170028 0.095514 0.355274 0.590586 0.784194 0.921544 0.991935 0.989416 0.913354 0.768621 0.565371 0.318416 0.046183 0.230595 0.490455 0.712855 0.879848 0.977562 0.997423 0.936991 0.800308 0.597735 0.345248 0.063261 0.224984 0.495305 0.724618 0.892926 0.985135 0.992476 0.913429 0.754035 0.527544 0.253403 0.044330 0.339058 0.604005 0.814665 0.951112 0.999966 0.955796 0.821819 0.609799 0.339127 0.035130 0.273226 0.556076 0.785559 0.938609 0.999344 0.960829 0.825962 0.607419 0.326576 0.011519 0.305701 0.592289 0.818129 0.958995 0.999241 0.933659 0.768260 0.519878 0.214586 0.114948 0.432896 0.704159 0.898263 0.992880 0.976499 0.849963 0.626634 0.331134 0.003243 0.338219 0.634867 0.858163 0.981194 0.988521 0.878253 0.662559 0.366488 0.025200 0.320121 0.627197 0.857850 0.982831 0.985650 0.864909 0.634779 0.323519 0.029860 0.380374 0.682790 0.897459 0.995642 0.963484 0.804142 0.537700 0.198812 0.167643 0.512471 0.788712 0.958128 0.996615
1.000000 1.000000 1.000000 1.000000 1.000000 1.000000 1.000000 1.000000 1.000000 1.000000 1.000000 1.000000 1.000000 1.000000 1.000000 1.000000 1.000000 1.000000 1.000000 1.000000 1.000000 1.000000 1.000000 1.000000 1.000000 1.000000 1.000000 1.000000 1.000000 1.000000 1.000000 1.000000 1.000000 1.000000 1.000000 1.000000 1.000000 1.000000 1.000000 1.000000 1.000000 1.000000 1.000000 1.000000 1.000000 1.000000 1.000000 1.000000 1.000000 1.000000 1.000000 1.000000 0.912186 0.912186 0.901603 0.901603 0.901603 0.901603 0.901603 0.901603 0.901603 0.901603 0.901603 0.901603 0.901603 0.901603 0.901603 0.901603 0.901603 0.901603 0.901603 0.901603 0.901603 0.901603 0.901603 0.901603 0.901603 0.901603 0.901603 0.901603 0.901603 0.901603 0.901603 0.901603 0.901603 0.901603 0.901603 0.901603 0.901603 0.901603 0.901603 0.901603 0.901603 0.901603 0.901603 0.897630 0.902645 0.905218 0.903774 0.907360 0.907422 0.905323 0.904770 0.904411 0.904760 0.906210 0.916738 0.931244 0.938697 0.940989 0.946064 0.950333 0.952725 0.953475 0.957145 0.967196 0.964544 0.964077 0.964798 0.966318 0.968469 0.968680 0.970072 0.969219 0.969919 0.970031 0.969610 0.969013 0.968427 0.968539 0.968184 0.968067 0.969145 0.969629 0.969209 0.968839 0.968983 0.966961 0.965584 0.960831 0.963494 0.964854 0.964757 0.963430 0.961055 0.964833 0.965163 0.964924 0.964929 0.964600 0.964928 0.950547 0.945297 0.945407 0.938939 0.937882 0.934781 0.933646 0.932868 0.933799 0.934389 0.935569 0.931664 0.919902 0.909754 0.892521 0.913868 0.905816 0.887785 0.867185 0.865465 0.861093 0.861005 0.854424 0.845605 0.841519 0.838660 0.841019 0.846550 0.851689 0.848636 0.839987 0.842754 0.836354 0.799645 0.789214 0.778401 0.770576 0.769555 0.770953 0.766832 0.761711 0.770357 0.762020 0.758365 0.749841 0.737798 0.716528 0.706367 0.712541 0.720147 0.733428 0.727529 0.700861 0.649722 0.665846 0.684671 0.687423 0.689982 0.688027 0.681023 0.685334 0.687556 0.683453 0.680605 0.681371 0.681154 0.688992 0.690981 0.676774 0.672195 0.662876 0.649474 0.625212 0.637729 0.647341 0.627037 0.622421 0.614061 0.608749 0.614603 0.616861 0.618341 0.592412 0.575602 0.569640 0.565342 0.569122 0.576340 0.577126 0.566817 0.588171 0.575806 0.601380 0.574280 0.569478 0.569330 0.579772 0.564102 0.562115 0.561811 0.560675 0.562329 0.581622 0.588093 0.573748 0.568126 0.562297 0.572636 0.558714 0.573391 0.604860 0.582588 0.533407 0.495702 0.492393 0.457206 0.448787 0.411162 0.386135 0.400129 0.380767 0.372552 0.356003 0.350835 0.317748 0.279156 0.262201 0.256878 0.272066 0.298103 0.293565 0.287848 0.319592 0.359494 0.361658 0.352396 0.322318 0.289351 0.242038 0.226640 0.238147 0.198915 0.203245 0.189718 0.193466 0.195171 0.147299 0.189786 0.098357 0.082580 0.084433 0.110581 0.089203 0.087988 0.085212 0.052138 0.059638 0.059980 0.029267 0.025401 0.039126 0.011259 0.010559 0.025007 0.033473 0.034270 -0.002642 0.002123 0.003042 0.006915 -0.005584 -0.007440 0.032572 0.074742 0.079122 0.084892 0.083703 0.072456 0.072685 0.069929 0.030880 0.012415 -0.031902 -0.056405 -0.056405 -0.039033 -0.039033 -0.039033 -0.039033 -0.039033 -0.039033 -0.039033 -0.039033 -0.039033 -0.040807 -0.040807 -0.040807 -0.040807 -0.040807 -0.040807 -0.040807 -0.040807 -0.040807 -0.031197 -0.031197 -0.031197 -0.031197 -0.031197 -0.031197 -0.031197 -0.031197 -0.031197
0.000000 0.000000 0.000000 0.000000 0.000000 0.000000 0.000000 0.000000 0.000000 0.000000 0.000000 0.000000 0.000000 0.000000 0.000000 0.000000 0.000000 0.000000 0.000000 0.000000 0.000000 0.000000 0.000000 0.000000 0.000000 0.000000 0.000000 0.000000 0.000000 0.000000 0.000000 0.000000 0.000000 0.000000 0.000000 0.000000 0.000000 0.000000 0.000000 0.000000 0.000000 0.000000 0.000000 0.000000 0.000000 0.000000 0.000000 0.000000 0.000000 0.000000 0.000000 0.000000 0.181818 0.181818 0.199007 0.199007 0.199007 0.199007 0.199007 0.199007 0.199007 0.199007 0.199007 0.199007 0.199007 0.199007 0.199007 0.199007 0.199007 0.199007 0.199007 0.199007 0.199007 0.199007 0.199007 0.199007 0.199007 0.199007 0.199007 0.199007 0.199007 0.199007 0.199007 0.199007 0.199007 0.199007 0.199007 0.199007 0.199007 0.199007 0.199007 0.199007 0.199007 0.199007 0.199007 0.230940 0.230940 0.230940 0.230940 0.230940 0.230940 0.230940 0.230940 0.230940 0.230940 0.230940 0.230940 0.230940 0.230940 0.230940 0.230940 0.230940 0.230940 0.230940 0.230940 0.230940 0.230940 0.230940 0.230940 0.230940 0.230940 0.230940 0.230940 0.244339 0.244339 0.244339 0.244339 0.244339 0.244339 0.244339 0.244339 0.244339 0.244339 0.244339 0.244339 0.244339 0.244339 0.244339 0.244339 0.244339 0.244339 0.244339 0.244339 0.244339 0.244339 0.244339 0.251976 0.251976 0.251976 0.251976 0.251976 0.251976 0.251976 0.251976 0.251976 0.251976 0.251976 0.251976 0.251976 0.251976 0.251976 0.251976 0.251976 0.251976 0.251976 0.251976 0.264906 0.264906 0.264906 0.264906 0.264906 0.264906 0.264906 0.264906 0.264906 0.264906 0.264906 0.264906 0.264906 0.264906 0.264906 0.264906 0.264906 0.264906 0.264906 0.264906 0.264906 0.264906 0.264906 0.264906 0.264906 0.264906 0.264906 0.264906 0.264906 0.264906 0.264906 0.264906 0.264906 0.264906 0.264906 0.264906 0.264906 0.264906 0.264906 0.264906 0.264906 0.264906 0.264906 0.264906 0.264906 0.264906 0.264906 0.264906 0.264906 0.264906 0.264906 0.264906 0.264906 0.264906 0.264906 0.264906 0.264906 0.264906 0.264906 0.264906 0.264906 0.264906 0.264906 0.264906 0.264906 0.264906 0.264906 0.264906 0.264906 0.264906 0.264906 0.264906 0.264906 0.264906 0.264906 0.269680 0.269680 0.269680 0.269680 0.269680 0.269680 0.269680 0.269680 0.269680 0.269680 0.269680 0.269680 0.264906 0.264906 0.264906 0.264906 0.264906 0.264906 0.264906 0.264906 0.264906 0.264906 0.264906 0.264906 0.269680 0.269680 0.269680 0.269680 0.269680 0.269680 0.269680 0.269680 0.269680 0.269680 0.269680 0.264906 0.264906 0.264906 0.264906 0.264906 0.264906 0.264906 0.264906 0.264906 0.264906 0.264906 0.256074 0.256074 0.256074 0.256074 0.256074 0.256074 0.256074 0.256074 0.256074 0.256074 0.256074 0.264906 0.264906 0.264906 0.264906 0.264906 0.264906 0.264906 0.264906 0.264906 0.264906 0.269680 0.269680 0.269680 0.269680 0.269680 0.269680 0.269680 0.269680 0.269680 0.256074 0.256074 0.256074 0.256074 0.256074 0.256074 0.256074 0.256074 0.256074 0.256074 0.260378 0.260378 0.260378 0.260378 0.260378 0.260378 0.260378 0.260378 0.260378 0.256074 0.256074 0.256074 0.256074 0.256074 0.256074 0.256074 0.256074 0.256074 0.251976 0.251976 0.251976 0.251976 0.251976 0.251976 0.251976 0.251976 0.251976 0.264906 0.264906 0.264906 0.264906 0.264906 0.264906 0.264906 0.264906 0.264906
