# Output from CTFFind version 4.1.9, run on 2019-11-03 20:07:24
# Input file: stack16_bm3d_averaged_1_7.0_0_1250_half.mrc ; Number of micrographs: 1
# Pixel size: 3.000 Angstroms ; acceleration voltage: 300.0 keV ; spherical aberration: 0.00 mm ; amplitude contrast: 0.07
# Box size: 512 pixels ; min. res.: 30.0 Angstroms ; max. res.: 5.0 Angstroms ; min. def.: 5000.0 um; max. def. 50000.0 um; num. frames averaged: 1
# 6 lines per micrograph: #1 - spatial frequency (1/Angstroms); #2 - 1D rotational average of spectrum (assuming no astigmatism); #3 - 1D rotational average of spectrum; #4 - CTF fit; #5 - cross-correlation between spectrum and CTF fit; #6 - 2sigma of expected cross correlation of noise
0.000000 0.000651 0.001302 0.001953 0.002604 0.003255 0.003906 0.004557 0.005208 0.005859 0.006510 0.007161 0.007812 0.008464 0.009115 0.009766 0.010417 0.011068 0.011719 0.012370 0.013021 0.013672 0.014323 0.014974 0.015625 0.016276 0.016927 0.017578 0.018229 0.018880 0.019531 0.020182 0.020833 0.021484 0.022135 0.022786 0.023438 0.024089 0.024740 0.025391 0.026042 0.026693 0.027344 0.027995 0.028646 0.029297 0.029948 0.030599 0.031250 0.031901 0.032552 0.033203 0.033854 0.034505 0.035156 0.035807 0.036458 0.037109 0.037760 0.038411 0.039062 0.039714 0.040365 0.041016 0.041667 0.042318 0.042969 0.043620 0.044271 0.044922 0.045573 0.046224 0.046875 0.047526 0.048177 0.048828 0.049479 0.050130 0.050781 0.051432 0.052083 0.052734 0.053385 0.054036 0.054688 0.055339 0.055990 0.056641 0.057292 0.057943 0.058594 0.059245 0.059896 0.060547 0.061198 0.061849 0.062500 0.063151 0.063802 0.064453 0.065104 0.065755 0.066406 0.067057 0.067708 0.068359 0.069010 0.069661 0.070312 0.070964 0.071615 0.072266 0.072917 0.073568 0.074219 0.074870 0.075521 0.076172 0.076823 0.077474 0.078125 0.078776 0.079427 0.080078 0.080729 0.081380 0.082031 0.082682 0.083333 0.083984 0.084635 0.085286 0.085938 0.086589 0.087240 0.087891 0.088542 0.089193 0.089844 0.090495 0.091146 0.091797 0.092448 0.093099 0.093750 0.094401 0.095052 0.095703 0.096354 0.097005 0.097656 0.098307 0.098958 0.099609 0.100260 0.100911 0.101562 0.102214 0.102865 0.103516 0.104167 0.104818 0.105469 0.106120 0.106771 0.107422 0.108073 0.108724 0.109375 0.110026 0.110677 0.111328 0.111979 0.112630 0.113281 0.113932 0.114583 0.115234 0.115885 0.116536 0.117188 0.117839 0.118490 0.119141 0.119792 0.120443 0.121094 0.121745 0.122396 0.123047 0.123698 0.124349 0.125000 0.125651 0.126302 0.126953 0.127604 0.128255 0.128906 0.129557 0.130208 0.130859 0.131510 0.132161 0.132812 0.133464 0.134115 0.134766 0.135417 0.136068 0.136719 0.137370 0.138021 0.138672 0.139323 0.139974 0.140625 0.141276 0.141927 0.142578 0.143229 0.143880 0.144531 0.145182 0.145833 0.146484 0.147135 0.147786 0.148438 0.149089 0.149740 0.150391 0.151042 0.151693 0.152344 0.152995 0.153646 0.154297 0.154948 0.155599 0.156250 0.156901 0.157552 0.158203 0.158854 0.159505 0.160156 0.160807 0.161458 0.162109 0.162760 0.163411 0.164062 0.164714 0.165365 0.166016 0.166667 0.167318 0.167969 0.168620 0.169271 0.169922 0.170573 0.171224 0.171875 0.172526 0.173177 0.173828 0.174479 0.175130 0.175781 0.176432 0.177083 0.177734 0.178385 0.179036 0.179688 0.180339 0.180990 0.181641 0.182292 0.182943 0.183594 0.184245 0.184896 0.185547 0.186198 0.186849 0.187500 0.188151 0.188802 0.189453 0.190104 0.190755 0.191406 0.192057 0.192708 0.193359 0.194010 0.194661 0.195312 0.195964 0.196615 0.197266 0.197917 0.198568 0.199219 0.199870 0.200521 0.201172 0.201823 0.202474 0.203125 0.203776 0.204427 0.205078 0.205729 0.206380 0.207031 0.207682 0.208333 0.208984 0.209635 0.210286 0.210938 0.211589 0.212240 0.212891 0.213542 0.214193 0.214844 0.215495 0.216146 0.216797 0.217448 0.218099 0.218750 0.219401 0.220052 0.220703 0.221354 0.222005 0.222656 0.223307 0.223958 0.224609 0.225260 0.225911 0.226562 0.227214 0.227865 0.228516 0.229167 0.229818 0.230469 0.231120 0.231771 0.232422 0.233073 0.233724 0.234375 0.235026 0.235677
       0.35575        0.35575        0.35575        0.35575        0.35575        0.35575        0.35575        0.35575        0.35575        0.35575        0.35575        0.35575        0.35575        0.35575        0.35575        0.35575        0.35575        0.35575        0.35575        0.35575        0.35575        0.35575        0.35575        0.35575        0.35575        0.35575        0.35575        0.35575        0.35575        0.35575        0.35575        0.35575        0.35575        0.35575        0.35575        0.35575        0.35575        0.35575        0.35575        0.35575        0.35575        0.35575        0.35575        0.35575        0.35575        0.35575        0.35575        0.35575        0.35575        0.35575        0.35575        0.43355        0.55859        0.34503       -0.21596       -0.44782       -0.53871       -0.64121       -0.70933       -0.71414       -0.80685       -0.88264       -0.67292       -0.82601       -0.81140       -0.95225       -0.99164       -0.87293       -0.83180       -0.79157       -0.70117       -0.63283       -0.54266       -0.44975       -0.38606       -0.15837       -0.05691        0.04828        0.26821        0.26364        0.32246        0.37484        0.40753        0.53015        0.54220        0.57774        0.53565        0.47800        0.50906        0.53547        0.45932        0.33785        0.22391        0.18937        0.11757        0.02284        0.00638       -0.00302        0.06759        0.03431        0.08586        0.05831        0.17577        0.20373        0.41319        0.46434        0.55096        0.65956        0.68641        0.71375        0.64181        0.61422        0.54986        0.44579        0.39400        0.28749        0.22603        0.22343        0.11214        0.12446        0.12635        0.09714        0.10470        0.30989        0.42336        0.53073        0.53666        0.56966        0.60851        0.58947        0.57254        0.58688        0.57144        0.47274        0.31566        0.27403        0.26608        0.16422        0.10088        0.18029        0.22314        0.29489        0.35910        0.43321        0.47871        0.53500        0.60502        0.54961        0.50801        0.51128        0.36129        0.28975        0.27051        0.18520        0.21396        0.24925        0.28667        0.29169        0.33712        0.43625        0.47027        0.50179        0.45701        0.44505        0.49289        0.40244        0.33432        0.29436        0.27039        0.24190        0.23332        0.24535        0.34593        0.45497        0.44015        0.49164        0.55730        0.45601        0.41820        0.36137        0.32461        0.28252        0.28975        0.27702        0.29629        0.36442        0.37093        0.44640        0.47563        0.44648        0.46879        0.38528        0.38439        0.35825        0.28132        0.26246        0.26097        0.34462        0.38646        0.36915        0.39468        0.43702        0.44889        0.38820        0.34359        0.32896        0.35894        0.32344        0.29141        0.29619        0.36556        0.38236        0.40068        0.39258        0.39916        0.42704        0.41334        0.33184        0.29642        0.31928        0.34752        0.39113        0.36744        0.40857        0.35225        0.37591        0.39788        0.34726        0.36046        0.32846        0.30957        0.34353        0.35297        0.33721        0.36830        0.38378        0.33501        0.35548        0.32960        0.32354        0.30733        0.32819        0.33127        0.33326        0.37283        0.38169        0.36599        0.31554        0.30873        0.29356        0.33810        0.32209        0.32181        0.37774        0.36242        0.34691        0.32371        0.31234        0.31235        0.28418        0.32590        0.34032        0.35260        0.37825        0.36077        0.32494        0.34511        0.36322        0.34355        0.36096        0.35299        0.32200        0.33957        0.29810        0.32567        0.30662        0.32197        0.29161        0.32740        0.35548        0.33366        0.36234        0.32083        0.34202        0.36207        0.34777        0.32653        0.33610        0.37344        0.35185        0.35657        0.33748        0.31752        0.32821        0.32174        0.33275        0.33143        0.36963        0.33642        0.33857        0.30273        0.29953        0.27754        0.28184        0.36710        0.31695        0.33739        0.30058        0.26976        0.27955        0.36907        0.31267        0.29088        0.32906        0.32356        0.29938        0.26424        0.30485        0.27451        0.30750        0.31313        0.34850        0.34106        0.32661        0.32156        0.27294        0.28799        0.28689        0.28970        0.30576        0.36501        0.30596        0.21284        0.30934        0.30520        0.34042        0.27012        0.29941        0.28983        0.33361        0.28819        0.27688        0.27845        0.25243        0.31292        0.33772        0.32797        0.26061        0.31934        0.27083        0.24314        0.22764        0.33005        0.25743        0.16101        0.11556        0.20190        0.34947        0.26498        0.19185        0.14282       -0.40384       -0.53428
3.232088 3.190936 3.150053 3.109436 3.069088 3.029007 2.989193 2.949647 2.910369 2.871358 2.832614 2.794138 2.755930 2.717990 2.680317 2.642911 2.605773 2.568902 2.532300 2.495964 2.459897 2.424096 2.388564 2.353299 2.318301 2.283571 2.249109 2.214914 2.180987 2.147327 2.113935 2.080810 2.047953 2.015364 1.983042 1.950988 1.919201 1.887682 1.856430 1.825446 1.794729 1.764280 1.734099 1.704185 1.674539 1.645160 1.616049 1.587205 1.558629 1.530321 1.502280 1.538140 1.608084 1.548916 0.842306 0.599909 0.461405 0.391793 0.294859 0.222846 0.191211 -0.047824 0.211790 0.078597 -0.026672 -0.104525 -0.236110 -0.141825 -0.049898 -0.093724 -0.070450 0.038460 0.039061 0.232971 0.109770 0.358334 0.463956 0.498344 0.773755 0.682512 0.698026 0.821885 0.794775 0.844218 0.922145 0.851309 0.884640 0.724474 0.783708 0.843843 0.689397 0.604583 0.433161 0.427789 0.326893 0.192441 0.187443 0.113312 0.207814 0.119233 0.206713 0.104321 0.214017 0.226891 0.433927 0.398131 0.566173 0.604643 0.624830 0.713677 0.599985 0.569845 0.456213 0.406806 0.282548 0.258911 0.088763 0.147922 -0.031454 0.035457 -0.030972 -0.045745 -0.061476 0.021010 0.258069 0.287827 0.351938 0.289805 0.374928 0.384482 0.404546 0.386408 0.351792 0.320649 0.116531 0.069590 0.060080 -0.024452 -0.154372 -0.058333 -0.065323 0.033074 0.071154 0.144790 0.207073 0.219343 0.309014 0.403062 0.276896 0.358831 0.223871 0.141657 0.063846 0.032914 -0.000136 0.052590 0.068457 0.092004 0.117626 0.167640 0.236842 0.301514 0.261060 0.207512 0.249256 0.223738 0.108365 0.053857 0.054717 0.023932 0.004742 -0.027057 0.028726 0.166510 0.194412 0.186690 0.300810 0.172219 0.195790 0.070695 0.062839 0.013867 -0.007059 -0.005295 -0.012181 0.045460 0.073370 0.100499 0.155705 0.138690 0.222977 0.137508 0.076298 0.098372 0.040576 -0.048430 -0.018017 0.028247 0.068943 0.072032 0.064544 0.156182 0.102368 0.155461 0.036342 0.046279 0.044674 0.044630 0.027232 -0.020589 0.039977 0.051173 0.091619 0.099651 0.084187 0.112431 0.123338 0.079507 0.010897 -0.011040 0.020898 0.074503 0.074740 0.087365 0.080039 0.057514 0.101841 0.066035 0.041429 0.075539 -0.011348 0.011355 0.066233 0.040160 0.044431 0.071443 0.079762 0.048139 0.066581 0.017600 0.018786 0.010386 0.055334 0.014881 0.039445 0.074874 0.077409 0.044933 -0.005339 -0.002534 -0.019513 0.044359 0.001087 0.012044 0.072608 0.044753 0.003811 0.012248 -0.017652 0.005287 -0.039520 0.008288 0.017866 0.039861 0.052830 0.029464 -0.003272 0.005650 0.038404 0.008894 0.035426 0.008855 -0.013577 0.012556 -0.043546 -0.030284 -0.054822 -0.012111 -0.068554 0.004835 0.010162 -0.004202 -0.014983 -0.006469 -0.001476 0.027608 0.011822 -0.012629 0.010801 0.025249 0.032868 0.028638 0.004545 0.010270 0.008173 -0.008122 0.014738 -0.005628 0.095322 0.033923 0.025979 0.004534 -0.008591 -0.028155 0.003221 0.076900 0.000092 0.051821 -0.023255 -0.023994 -0.023472 0.093326 0.002562 -0.024539 0.055517 0.058097 0.005866 0.001324 0.015269 0.003823 0.043910 0.037513 0.093932 0.049715 0.051259 0.044587 -0.006957 0.020055 -0.001223 -0.002104 0.017923 0.089001 -0.008391 -0.084113 0.038348 0.001812 0.077375 -0.047904 -0.008220 -0.005219 0.018671 -0.005677 -0.028811 -0.014299 -0.068028 0.045652 0.038865 0.048103 -0.117974 0.026993 0.017056 -0.017334 -0.079244 0.094503 0.016994 -0.060593 -0.130523 -0.045619 0.345931 0.209806 0.130549 0.143957 -0.512693
0.072396 0.073047 0.074997 0.078248 0.082798 0.088646 0.095788 0.104223 0.113946 0.124953 0.137236 0.150787 0.165596 0.181651 0.198936 0.217432 0.237118 0.257968 0.279950 0.303029 0.327165 0.352310 0.378411 0.405406 0.433229 0.461802 0.491040 0.520848 0.551124 0.581751 0.612607 0.643554 0.674447 0.705127 0.735425 0.765159 0.794138 0.822158 0.849005 0.874455 0.898275 0.920223 0.940049 0.957499 0.972314 0.984231 0.992989 0.998328 0.999992 0.997732 0.991310 0.980503 0.965104 0.944926 0.919809 0.889621 0.854263 0.813673 0.767832 0.716767 0.660552 0.599318 0.533252 0.462601 0.387676 0.308854 0.226577 0.141357 0.053772 0.035533 0.125849 0.216404 0.306373 0.394879 0.481001 0.563783 0.642248 0.715402 0.782254 0.841825 0.893168 0.935379 0.967620 0.989130 0.999252 0.997443 0.983295 0.956553 0.917131 0.865125 0.800826 0.724729 0.637544 0.540193 0.433815 0.319759 0.199574 0.074996 0.052070 0.179579 0.305371 0.427206 0.542809 0.649905 0.746273 0.829792 0.898495 0.950620 0.984663 0.999427 0.994071 0.968149 0.921649 0.855018 0.769180 0.665546 0.546006 0.412912 0.269047 0.117582 0.037989 0.193920 0.346294 0.491127 0.624470 0.742522 0.841744 0.918981 0.971570 0.997450 0.995254 0.964391 0.905105 0.818514 0.706618 0.572287 0.419206 0.251806 0.075146 0.105221 0.283416 0.453416 0.609271 0.745304 0.856343 0.937927 0.986512 0.999645 0.976114 0.916048 0.820985 0.693870 0.539010 0.361961 0.169354 0.031322 0.231998 0.424347 0.600123 0.751525 0.871568 0.954422 0.995730 0.992870 0.945156 0.853950 0.722687 0.556802 0.363550 0.151729 0.068694 0.287020 0.492350 0.674113 0.822644 0.929712 0.989027 0.996647 0.951287 0.854497 0.710689 0.526999 0.313002 0.080248 0.158319 0.389064 0.598436 0.773777 0.904122 0.980925 0.998673 0.955346 0.852668 0.696143 0.494836 0.260921 0.009004 0.244761 0.483680 0.691628 0.854159 0.959557 0.999745 0.970973 0.874236 0.715366 0.504785 0.256900 0.010811 0.278986 0.527768 0.738274 0.894069 0.982510 0.995849 0.932002 0.794899 0.594368 0.345538 0.067791 0.216698 0.484691 0.713788 0.884341 0.981197 0.995146 0.923891 0.772473 0.553045 0.284038 0.011313 0.306900 0.576024 0.793833 0.939655 0.999061 0.965406 0.840685 0.635609 0.368823 0.065337 0.245733 0.533932 0.770431 0.930981 0.998497 0.964998 0.832691 0.614031 0.330715 0.011660 0.309856 0.599641 0.826220 0.964352 0.997946 0.922096 0.743931 0.482143 0.165199 0.171630 0.490121 0.753442 0.930449 0.999504 0.951271 0.790156 0.534141 0.212975 0.135148 0.468020 0.744534 0.929823 0.999770 0.944334 0.769181 0.495359 0.156981 0.202868 0.537531 0.802835 0.962985 0.995566 0.894875 0.673112 0.359153 0.004992 0.369666 0.684274 0.904358 0.997994 0.950635 0.767607 0.473815 0.110605 0.269870 0.612053 0.865100 0.990570 0.968450 0.800615 0.511050 0.142698 0.248699 0.602927 0.864572 0.991811 0.963322 0.782127 0.475669 0.091943 0.307804 0.658745 0.903004 0.999380 0.930522 0.706371 0.363079 0.042502 0.442070 0.767287 0.961552 0.990061 0.846343 0.554006 0.163217 0.257626 0.633750 0.897260 0.999584 0.920712 0.673447 0.301735 0.126793 0.532953 0.840579 0.990917 0.954152 0.735663 0.375717 0.057578 0.480911 0.811715 0.984373 0.963510 0.751626 0.389341 0.051972 0.483987 0.819034 0.987973 0.954780 0.724625 0.343610 0.110062 0.541842 0.860511 0.997581 0.922348 0.649217 0.235458 0.230391 0.647230
1.000000 1.000000 1.000000 1.000000 1.000000 1.000000 1.000000 1.000000 1.000000 1.000000 1.000000 1.000000 1.000000 1.000000 1.000000 1.000000 1.000000 1.000000 1.000000 1.000000 1.000000 1.000000 1.000000 1.000000 1.000000 1.000000 1.000000 1.000000 1.000000 1.000000 1.000000 1.000000 1.000000 1.000000 1.000000 1.000000 1.000000 1.000000 1.000000 1.000000 1.000000 1.000000 1.000000 1.000000 1.000000 1.000000 1.000000 1.000000 1.000000 1.000000 1.000000 1.000000 0.922844 0.922844 0.922844 0.922844 0.922844 0.922844 0.922844 0.922844 0.922844 0.922844 0.922844 0.922844 0.922844 0.922844 0.922844 0.922844 0.922844 0.922844 0.922844 0.922844 0.922844 0.922844 0.922844 0.922844 0.922844 0.922844 0.922844 0.922844 0.922844 0.922844 0.922844 0.922844 0.922844 0.913078 0.911216 0.912357 0.910877 0.909472 0.908880 0.908482 0.909518 0.911111 0.913199 0.934867 0.937964 0.939211 0.940550 0.941934 0.944232 0.942050 0.949558 0.956046 0.954947 0.956065 0.949804 0.951265 0.950570 0.949805 0.951171 0.951347 0.949611 0.947551 0.945819 0.945229 0.944989 0.948584 0.949186 0.949318 0.949918 0.949855 0.950570 0.951148 0.949224 0.951456 0.943447 0.942123 0.947402 0.945270 0.946616 0.946570 0.947259 0.948050 0.948371 0.948597 0.945685 0.945197 0.944210 0.937505 0.930218 0.930453 0.932579 0.935332 0.932788 0.930294 0.931609 0.933291 0.932393 0.935752 0.922817 0.918326 0.891226 0.876994 0.867862 0.868116 0.872392 0.875227 0.872947 0.866851 0.858176 0.854146 0.853507 0.849708 0.841000 0.856458 0.850565 0.846786 0.850417 0.853745 0.859246 0.857645 0.853195 0.848134 0.842939 0.832322 0.834034 0.834307 0.838860 0.820955 0.809310 0.826060 0.818793 0.810084 0.818538 0.820635 0.818036 0.816696 0.816873 0.814292 0.808081 0.800329 0.804239 0.813428 0.814520 0.804524 0.802052 0.800321 0.799384 0.795925 0.801667 0.803935 0.800399 0.795357 0.813434 0.782163 0.802711 0.804133 0.786179 0.770701 0.759536 0.768272 0.777719 0.775605 0.770483 0.778145 0.778296 0.770707 0.746822 0.736858 0.744576 0.743059 0.732944 0.719941 0.726635 0.722037 0.719632 0.717508 0.720185 0.723002 0.700668 0.714696 0.719294 0.711360 0.724202 0.727036 0.717864 0.721156 0.724446 0.727540 0.725077 0.693163 0.695893 0.654445 0.646812 0.610718 0.608674 0.602165 0.545841 0.551571 0.532734 0.519371 0.519561 0.483021 0.533912 0.438229 0.422802 0.449369 0.377493 0.337949 0.356320 0.357564 0.369196 0.373746 0.369535 0.372483 0.356831 0.332640 0.309266 0.337176 0.352885 0.327275 0.328121 0.305482 0.291063 0.244231 0.261524 0.265143 0.294867 0.297615 0.281273 0.302058 0.344960 0.282405 0.266074 0.244160 0.268969 0.282871 0.278303 0.267306 0.280589 0.228613 0.233500 0.254743 0.258072 0.290860 0.313329 0.330694 0.329297 0.335093 0.364513 0.319635 0.327904 0.331937 0.323580 0.351230 0.354547 0.361914 0.356582 0.384439 0.382853 0.392947 0.394633 0.407815 0.444918 0.421376 0.400235 0.365000 0.376120 0.372679 0.380430 0.324100 0.300764 0.299576 0.265732 0.221390 0.223122 0.223503 0.178966 0.171748 0.155264 0.122311 0.120459 0.128803 0.156267 0.128849 0.143607 0.146959 0.146959 0.146959 0.146959 0.146959 0.146959 0.146959 0.146959 0.146959 0.146959 0.146959 0.146959 0.146959 0.146959 0.168865 0.168865 0.168865 0.168865 0.168865 0.168865 0.168865 0.168865 0.168865 0.168865 0.168865 0.168865
0.000000 0.000000 0.000000 0.000000 0.000000 0.000000 0.000000 0.000000 0.000000 0.000000 0.000000 0.000000 0.000000 0.000000 0.000000 0.000000 0.000000 0.000000 0.000000 0.000000 0.000000 0.000000 0.000000 0.000000 0.000000 0.000000 0.000000 0.000000 0.000000 0.000000 0.000000 0.000000 0.000000 0.000000 0.000000 0.000000 0.000000 0.000000 0.000000 0.000000 0.000000 0.000000 0.000000 0.000000 0.000000 0.000000 0.000000 0.000000 0.000000 0.000000 0.000000 0.000000 0.209657 0.209657 0.209657 0.209657 0.209657 0.209657 0.209657 0.209657 0.209657 0.209657 0.209657 0.209657 0.209657 0.209657 0.209657 0.209657 0.209657 0.209657 0.209657 0.209657 0.209657 0.209657 0.209657 0.209657 0.209657 0.209657 0.209657 0.209657 0.209657 0.209657 0.209657 0.209657 0.209657 0.244339 0.244339 0.244339 0.244339 0.244339 0.244339 0.244339 0.244339 0.244339 0.244339 0.244339 0.244339 0.244339 0.244339 0.244339 0.244339 0.244339 0.244339 0.244339 0.244339 0.244339 0.244339 0.244339 0.244339 0.244339 0.260378 0.260378 0.260378 0.260378 0.260378 0.260378 0.260378 0.260378 0.260378 0.260378 0.260378 0.260378 0.260378 0.260378 0.260378 0.260378 0.260378 0.260378 0.260378 0.260378 0.269680 0.269680 0.269680 0.269680 0.269680 0.269680 0.269680 0.269680 0.269680 0.269680 0.269680 0.269680 0.269680 0.269680 0.269680 0.269680 0.269680 0.269680 0.269680 0.269680 0.269680 0.269680 0.269680 0.269680 0.269680 0.269680 0.269680 0.269680 0.269680 0.269680 0.269680 0.269680 0.269680 0.280056 0.280056 0.280056 0.280056 0.280056 0.280056 0.280056 0.280056 0.280056 0.280056 0.280056 0.280056 0.280056 0.280056 0.280056 0.280056 0.280056 0.280056 0.280056 0.280056 0.280056 0.280056 0.280056 0.280056 0.280056 0.280056 0.280056 0.274721 0.274721 0.274721 0.274721 0.274721 0.274721 0.274721 0.274721 0.274721 0.274721 0.274721 0.274721 0.274721 0.285714 0.285714 0.285714 0.285714 0.285714 0.285714 0.285714 0.285714 0.285714 0.285714 0.285714 0.280056 0.280056 0.280056 0.280056 0.280056 0.280056 0.280056 0.280056 0.280056 0.280056 0.280056 0.274721 0.274721 0.274721 0.274721 0.274721 0.274721 0.274721 0.274721 0.274721 0.274721 0.274721 0.280056 0.280056 0.280056 0.280056 0.280056 0.280056 0.280056 0.280056 0.280056 0.280056 0.285714 0.285714 0.285714 0.285714 0.285714 0.285714 0.285714 0.285714 0.285714 0.269680 0.269680 0.269680 0.269680 0.269680 0.269680 0.269680 0.269680 0.269680 0.269680 0.274721 0.274721 0.274721 0.274721 0.274721 0.274721 0.274721 0.274721 0.274721 0.285714 0.285714 0.285714 0.285714 0.285714 0.285714 0.285714 0.285714 0.264906 0.264906 0.264906 0.264906 0.264906 0.264906 0.264906 0.264906 0.264906 0.274721 0.274721 0.274721 0.274721 0.274721 0.274721 0.274721 0.274721 0.269680 0.269680 0.269680 0.269680 0.269680 0.269680 0.269680 0.269680 0.269680 0.269680 0.269680 0.269680 0.269680 0.269680 0.269680 0.269680 0.280056 0.280056 0.280056 0.280056 0.280056 0.280056 0.280056 0.260378 0.260378 0.260378 0.260378 0.260378 0.260378 0.260378 0.260378 0.269680 0.269680 0.269680 0.269680 0.269680 0.269680 0.269680 0.264906 0.264906 0.264906 0.264906 0.264906 0.264906 0.264906 0.264906 0.264906 0.264906 0.264906 0.264906 0.264906 0.264906 0.260378 0.260378 0.260378 0.260378 0.260378 0.260378 0.260378 0.260378 0.260378 0.260378 0.260378 0.260378
