# Output from CTFFind version 4.1.9, run on 2019-11-02 17:47:55
# Input file: stack16_bm3d_averaged_1_0.5_0_1500_half.mrc ; Number of micrographs: 1
# Pixel size: 3.000 Angstroms ; acceleration voltage: 300.0 keV ; spherical aberration: 0.00 mm ; amplitude contrast: 0.07
# Box size: 512 pixels ; min. res.: 30.0 Angstroms ; max. res.: 5.0 Angstroms ; min. def.: 5000.0 um; max. def. 50000.0 um; num. frames averaged: 1
# 6 lines per micrograph: #1 - spatial frequency (1/Angstroms); #2 - 1D rotational average of spectrum (assuming no astigmatism); #3 - 1D rotational average of spectrum; #4 - CTF fit; #5 - cross-correlation between spectrum and CTF fit; #6 - 2sigma of expected cross correlation of noise
0.000000 0.000651 0.001302 0.001953 0.002604 0.003255 0.003906 0.004557 0.005208 0.005859 0.006510 0.007161 0.007812 0.008464 0.009115 0.009766 0.010417 0.011068 0.011719 0.012370 0.013021 0.013672 0.014323 0.014974 0.015625 0.016276 0.016927 0.017578 0.018229 0.018880 0.019531 0.020182 0.020833 0.021484 0.022135 0.022786 0.023438 0.024089 0.024740 0.025391 0.026042 0.026693 0.027344 0.027995 0.028646 0.029297 0.029948 0.030599 0.031250 0.031901 0.032552 0.033203 0.033854 0.034505 0.035156 0.035807 0.036458 0.037109 0.037760 0.038411 0.039062 0.039714 0.040365 0.041016 0.041667 0.042318 0.042969 0.043620 0.044271 0.044922 0.045573 0.046224 0.046875 0.047526 0.048177 0.048828 0.049479 0.050130 0.050781 0.051432 0.052083 0.052734 0.053385 0.054036 0.054688 0.055339 0.055990 0.056641 0.057292 0.057943 0.058594 0.059245 0.059896 0.060547 0.061198 0.061849 0.062500 0.063151 0.063802 0.064453 0.065104 0.065755 0.066406 0.067057 0.067708 0.068359 0.069010 0.069661 0.070312 0.070964 0.071615 0.072266 0.072917 0.073568 0.074219 0.074870 0.075521 0.076172 0.076823 0.077474 0.078125 0.078776 0.079427 0.080078 0.080729 0.081380 0.082031 0.082682 0.083333 0.083984 0.084635 0.085286 0.085938 0.086589 0.087240 0.087891 0.088542 0.089193 0.089844 0.090495 0.091146 0.091797 0.092448 0.093099 0.093750 0.094401 0.095052 0.095703 0.096354 0.097005 0.097656 0.098307 0.098958 0.099609 0.100260 0.100911 0.101562 0.102214 0.102865 0.103516 0.104167 0.104818 0.105469 0.106120 0.106771 0.107422 0.108073 0.108724 0.109375 0.110026 0.110677 0.111328 0.111979 0.112630 0.113281 0.113932 0.114583 0.115234 0.115885 0.116536 0.117188 0.117839 0.118490 0.119141 0.119792 0.120443 0.121094 0.121745 0.122396 0.123047 0.123698 0.124349 0.125000 0.125651 0.126302 0.126953 0.127604 0.128255 0.128906 0.129557 0.130208 0.130859 0.131510 0.132161 0.132812 0.133464 0.134115 0.134766 0.135417 0.136068 0.136719 0.137370 0.138021 0.138672 0.139323 0.139974 0.140625 0.141276 0.141927 0.142578 0.143229 0.143880 0.144531 0.145182 0.145833 0.146484 0.147135 0.147786 0.148438 0.149089 0.149740 0.150391 0.151042 0.151693 0.152344 0.152995 0.153646 0.154297 0.154948 0.155599 0.156250 0.156901 0.157552 0.158203 0.158854 0.159505 0.160156 0.160807 0.161458 0.162109 0.162760 0.163411 0.164062 0.164714 0.165365 0.166016 0.166667 0.167318 0.167969 0.168620 0.169271 0.169922 0.170573 0.171224 0.171875 0.172526 0.173177 0.173828 0.174479 0.175130 0.175781 0.176432 0.177083 0.177734 0.178385 0.179036 0.179688 0.180339 0.180990 0.181641 0.182292 0.182943 0.183594 0.184245 0.184896 0.185547 0.186198 0.186849 0.187500 0.188151 0.188802 0.189453 0.190104 0.190755 0.191406 0.192057 0.192708 0.193359 0.194010 0.194661 0.195312 0.195964 0.196615 0.197266 0.197917 0.198568 0.199219 0.199870 0.200521 0.201172 0.201823 0.202474 0.203125 0.203776 0.204427 0.205078 0.205729 0.206380 0.207031 0.207682 0.208333 0.208984 0.209635 0.210286 0.210938 0.211589 0.212240 0.212891 0.213542 0.214193 0.214844 0.215495 0.216146 0.216797 0.217448 0.218099 0.218750 0.219401 0.220052 0.220703 0.221354 0.222005 0.222656 0.223307 0.223958 0.224609 0.225260 0.225911 0.226562 0.227214 0.227865 0.228516 0.229167 0.229818 0.230469 0.231120 0.231771 0.232422 0.233073 0.233724 0.234375 0.235026 0.235677
       0.34332        0.34332        0.34332        0.34332        0.34332        0.34332        0.34332        0.34332        0.34332        0.34332        0.34332        0.34332        0.34332        0.34332        0.34332        0.34332        0.34332        0.34332        0.34332        0.34332        0.34332        0.34332        0.34332        0.34332        0.34332        0.34332        0.34332        0.34332        0.34332        0.34332        0.34332        0.34332        0.34332        0.34332        0.34332        0.34332        0.34332        0.34332        0.34332        0.34332        0.34332        0.34332        0.34332        0.34332        0.34332        0.34332        0.34332        0.34332        0.34332        0.34332        0.34332        0.48952        0.70406        0.45563       -0.11038       -0.41347       -0.57154       -0.66113       -0.74596       -0.76265       -0.86912       -0.91396       -0.76040       -0.92490       -0.87157       -1.02446       -1.09607       -0.98936       -0.96177       -0.88349       -0.86291       -0.75162       -0.64163       -0.50057       -0.42336       -0.21811       -0.11845       -0.02316        0.20400        0.24407        0.30866        0.38639        0.44024        0.51707        0.58160        0.59600        0.59299        0.50281        0.54644        0.48634        0.39093        0.32460        0.20747        0.17395        0.10336       -0.06232       -0.11175       -0.09222        0.00961       -0.01695        0.01030        0.02985        0.21122        0.22017        0.39122        0.45800        0.56296        0.70135        0.76135        0.72898        0.70770        0.70476        0.58550        0.54427        0.40043        0.27297        0.19348        0.14392        0.06620        0.02209        0.02364        0.06147        0.07835        0.27162        0.41790        0.50498        0.58731        0.63925        0.70585        0.66168        0.65177        0.67199        0.61026        0.48029        0.28424        0.23350        0.20549        0.13113        0.04798        0.09324        0.12311        0.24994        0.33918        0.41511        0.50101        0.53980        0.66384        0.61080        0.55581        0.50835        0.36677        0.21069        0.21194        0.15297        0.11243        0.11977        0.21493        0.25446        0.36143        0.44403        0.44059        0.56841        0.51200        0.44668        0.45288        0.38473        0.32408        0.27756        0.22016        0.23841        0.21010        0.21303        0.32568        0.44867        0.48758        0.48016        0.55084        0.49601        0.45615        0.39552        0.29294        0.22430        0.23269        0.24721        0.26807        0.27189        0.32460        0.44291        0.49855        0.48644        0.45950        0.41880        0.38670        0.36283        0.24876        0.22872        0.24737        0.29455        0.35380        0.36346        0.39375        0.40840        0.44446        0.37102        0.34875        0.31348        0.30357        0.26601        0.25959        0.31187        0.34597        0.41660        0.41765        0.39903        0.39494        0.40839        0.35037        0.28811        0.29036        0.27538        0.31095        0.36077        0.36554        0.41533        0.36107        0.36728        0.39046        0.34618        0.31566        0.27976        0.29738        0.34047        0.33296        0.32714        0.37682        0.39672        0.33598        0.35327        0.29500        0.30855        0.28947        0.28236        0.30076        0.33109        0.38331        0.36680        0.34796        0.32893        0.28643        0.27782        0.29681        0.28216        0.31410        0.36930        0.39445        0.33860        0.31816        0.31241        0.29776        0.28142        0.27834        0.29947        0.34194        0.33663        0.34509        0.31803        0.34675        0.32477        0.28773        0.31586        0.32240        0.33119        0.33458        0.31933        0.31626        0.30747        0.32833        0.31399        0.33556        0.39079        0.33798        0.36114        0.32286        0.31566        0.28954        0.31061        0.28991        0.31093        0.31706        0.35263        0.36367        0.31847        0.32218        0.31406        0.29388        0.29407        0.29001        0.33538        0.34222        0.35829        0.33625        0.32614        0.25864        0.26860        0.31293        0.35104        0.31555        0.30013        0.28728        0.28785        0.32465        0.30683        0.30629        0.33354        0.34518        0.31495        0.24403        0.28818        0.28223        0.28796        0.32063        0.32149        0.34663        0.34312        0.27881        0.26511        0.29224        0.26630        0.28764        0.27560        0.24749        0.26686        0.24785        0.27848        0.27854        0.27664        0.26742        0.31621        0.32752        0.31698        0.29296        0.31163        0.24647        0.27084        0.25498        0.33721        0.34239        0.23283        0.25934        0.27365        0.24803        0.25133        0.29858        0.22907        0.14568        0.17180        0.25262        0.27890        0.22872        0.14753        0.03074       -0.40260       -0.73530
3.055798 3.017838 2.980122 2.942650 2.905422 2.868437 2.831696 2.795199 2.758946 2.722936 2.687171 2.651649 2.616370 2.581336 2.546545 2.511999 2.477696 2.443636 2.409821 2.376249 2.342921 2.309837 2.276997 2.244400 2.212047 2.179938 2.148073 2.116451 2.085073 2.053939 2.023049 1.992402 1.962000 1.931841 1.901926 1.872254 1.842827 1.813643 1.784703 1.756007 1.727554 1.699346 1.671381 1.643659 1.616182 1.588948 1.561959 1.535212 1.508710 1.482452 1.456437 1.512979 1.703826 1.613875 0.967602 0.682929 0.476683 0.432331 0.320664 0.264616 0.200252 0.021425 0.196958 0.081159 -0.005978 -0.059012 -0.197802 -0.151530 -0.091423 -0.091238 -0.098892 0.010091 0.030870 0.234326 0.149773 0.365833 0.446262 0.477500 0.717208 0.701231 0.709362 0.840223 0.824304 0.856030 0.924201 0.893514 0.942012 0.754135 0.837580 0.841994 0.621462 0.609161 0.458721 0.437869 0.389199 0.209068 0.120288 0.101304 0.205798 0.147371 0.193344 0.111965 0.315096 0.289896 0.457701 0.417979 0.582249 0.645565 0.767395 0.693167 0.663663 0.671031 0.534384 0.507173 0.371202 0.293316 0.118293 0.146367 0.001978 -0.013872 -0.037576 -0.028026 -0.001340 0.034128 0.274429 0.333343 0.383110 0.400516 0.469604 0.532808 0.458801 0.506762 0.401836 0.389680 0.155823 0.066617 0.072543 0.000200 -0.122194 -0.041772 -0.108643 0.018099 0.135007 0.156786 0.253836 0.257278 0.384699 0.463369 0.356218 0.388989 0.284259 0.128227 0.050022 0.052542 0.011705 0.002072 0.006126 0.108443 0.130794 0.264363 0.237850 0.307432 0.373485 0.235207 0.242773 0.219119 0.133110 0.081536 0.054747 0.027793 0.039190 -0.013023 0.029867 0.186170 0.222757 0.248902 0.279370 0.232816 0.239212 0.148266 0.105657 -0.023504 -0.016311 -0.004928 0.018015 0.008677 0.027933 0.105246 0.187740 0.201843 0.219819 0.138984 0.145838 0.079838 0.056193 -0.058220 -0.013522 -0.007272 0.054526 0.066057 0.078952 0.151842 0.085861 0.171200 0.069799 0.054405 0.045062 0.028032 0.001500 0.010989 0.056253 0.083895 0.135369 0.143740 0.067459 0.133394 0.102143 0.020199 0.008025 0.005589 -0.004401 0.059951 0.062490 0.099097 0.099609 0.077649 0.064850 0.083159 0.035019 0.013754 -0.011863 0.014509 0.057601 0.030888 0.041967 0.083931 0.085403 0.056286 0.033951 0.007121 0.015548 -0.005679 -0.012076 0.014997 0.053127 0.103881 0.060755 0.058475 0.040879 -0.013974 0.000052 0.014272 0.010464 0.028019 0.107303 0.054508 0.024767 0.043951 0.003361 0.026356 -0.012678 -0.004030 0.023443 0.066193 0.033467 0.046665 0.032068 0.055405 0.028326 -0.004159 0.030262 0.044084 0.039758 0.030259 0.029634 0.006217 -0.005655 0.028302 0.010439 0.045343 0.079954 0.048756 0.024934 0.015683 0.003466 -0.002737 0.007126 0.002859 0.013371 -0.003128 0.086930 0.053683 0.035432 0.039410 0.004629 0.010336 0.011755 -0.005228 0.055908 0.062917 0.087659 0.048663 0.050762 -0.025250 0.016557 0.036660 0.077782 0.026794 0.037040 0.009575 0.005695 0.049800 0.045216 0.036231 0.060015 0.076834 0.060146 -0.021383 0.019524 0.041283 0.025819 0.044602 0.074842 0.076194 0.072455 0.015515 0.003220 0.015789 -0.001204 0.017422 -0.015375 -0.030259 -0.007466 -0.047579 0.000088 -0.007061 0.007557 -0.071902 0.003583 0.015045 0.002478 -0.032007 0.033053 -0.091625 -0.020873 -0.040413 0.037166 0.066839 -0.103220 -0.015195 0.037033 0.018571 -0.039765 0.045000 0.030842 0.003952 -0.047696 0.080678 0.241278 0.200103 0.111142 0.029975 -0.645885
0.072396 0.073046 0.074994 0.078242 0.082786 0.088627 0.095761 0.104187 0.113899 0.124892 0.137161 0.150697 0.165490 0.181527 0.198792 0.217268 0.236932 0.257759 0.279717 0.302772 0.326882 0.352001 0.378075 0.405044 0.432840 0.461387 0.490599 0.520382 0.550634 0.581239 0.612074 0.643003 0.673881 0.704549 0.734838 0.764569 0.793548 0.821574 0.848434 0.873902 0.897748 0.919729 0.939598 0.957099 0.971974 0.983962 0.992801 0.998231 0.999997 0.997851 0.991555 0.980884 0.965632 0.945612 0.920663 0.890653 0.855481 0.815084 0.769443 0.718581 0.662573 0.601545 0.535684 0.465233 0.390501 0.311860 0.229752 0.144683 0.057228 0.031971 0.122209 0.212719 0.302678 0.391211 0.477403 0.560301 0.638928 0.712294 0.779409 0.839295 0.891003 0.933631 0.966337 0.988359 0.999034 0.997815 0.984287 0.958189 0.919426 0.868083 0.804442 0.728986 0.642412 0.545630 0.439765 0.326152 0.206328 0.082017 0.044890 0.172358 0.298234 0.420290 0.536252 0.643850 0.740860 0.825159 0.894772 0.947926 0.983102 0.999086 0.995015 0.970417 0.925252 0.859935 0.775360 0.672902 0.554416 0.422222 0.279071 0.128101 0.027216 0.183157 0.335821 0.481231 0.615440 0.734638 0.835269 0.914154 0.968594 0.996484 0.996405 0.967709 0.910574 0.826048 0.716064 0.583420 0.431735 0.265376 0.089352 0.090829 0.269316 0.440103 0.597234 0.735012 0.848225 0.932353 0.983775 0.999945 0.979544 0.922586 0.830483 0.706059 0.553496 0.378238 0.186821 0.013344 0.214243 0.407570 0.585072 0.738908 0.862015 0.948452 0.993724 0.995044 0.951539 0.864375 0.736788 0.574020 0.383148 0.172822 0.047098 0.265987 0.472957 0.657399 0.809548 0.921026 0.985336 0.998291 0.958331 0.866709 0.727539 0.547680 0.336451 0.105206 0.133250 0.365340 0.577491 0.756933 0.892504 0.975378 0.999700 0.963057 0.866757 0.715885 0.519115 0.288287 0.037748 0.216498 0.457794 0.669920 0.838209 0.950607 0.998590 0.977888 0.888932 0.736988 0.531945 0.287758 0.021570 0.247447 0.499449 0.715390 0.878497 0.975621 0.998384 0.943983 0.815598 0.622337 0.378694 0.103555 0.181196 0.452397 0.687474 0.866355 0.973258 0.998160 0.937842 0.796384 0.585036 0.321446 0.028280 0.268649 0.542633 0.768474 0.924848 0.996417 0.975434 0.862704 0.667761 0.408215 0.108285 0.203375 0.496367 0.741508 0.913793 0.995029 0.975884 0.857101 0.649703 0.374142 0.058410 0.264696 0.560937 0.798293 0.950454 0.999881 0.939961 0.776046 0.525176 0.214489 0.121581 0.445060 0.718680 0.910240 0.996502 0.966159 0.821495 0.578470 0.265169 0.081312 0.419127 0.706731 0.908029 0.997017 0.961321 0.804103 0.544058 0.213410 0.145917 0.487518 0.766487 0.945382 0.999399 0.920007 0.716505 0.415197 0.056204 0.311714 0.637711 0.875929 0.992035 0.968382 0.806920 0.529386 0.174629 0.206619 0.558910 0.830121 0.979281 0.982946 0.839133 0.568120 0.209879 0.181605 0.546344 0.827516 0.980433 0.979841 0.824365 0.537267 0.163268 0.238177 0.602225 0.869101 0.994064 0.955133 0.757253 0.432072 0.033170 0.372529 0.715930 0.937534 0.997985 0.885317 0.617644 0.240629 0.180033 0.569879 0.858837 0.993971 0.949429 0.731734 0.379278 0.044121 0.460529 0.792167 0.976031 0.976121 0.790825 0.453941 0.028911 0.402877 0.757539 0.965072 0.983411 0.807329 0.470205 0.038121 0.402787 0.763396 0.969664 0.978101 0.785333 0.429580 0.016481 0.460268 0.808388 0.986423 0.955114 0.719457 0.328483 0.134521 0.569471
1.000000 1.000000 1.000000 1.000000 1.000000 1.000000 1.000000 1.000000 1.000000 1.000000 1.000000 1.000000 1.000000 1.000000 1.000000 1.000000 1.000000 1.000000 1.000000 1.000000 1.000000 1.000000 1.000000 1.000000 1.000000 1.000000 1.000000 1.000000 1.000000 1.000000 1.000000 1.000000 1.000000 1.000000 1.000000 1.000000 1.000000 1.000000 1.000000 1.000000 1.000000 1.000000 1.000000 1.000000 1.000000 1.000000 1.000000 1.000000 1.000000 1.000000 1.000000 1.000000 0.932762 0.932762 0.932762 0.932762 0.932762 0.932762 0.932762 0.932762 0.932762 0.932762 0.932762 0.932762 0.932762 0.932762 0.932762 0.932762 0.932762 0.932762 0.932762 0.932762 0.932762 0.932762 0.932762 0.932762 0.932762 0.932762 0.932762 0.932762 0.932762 0.932762 0.932762 0.932762 0.932762 0.922197 0.923685 0.926678 0.927758 0.927718 0.927256 0.926934 0.927148 0.928864 0.931189 0.947824 0.950002 0.950575 0.951875 0.952120 0.954644 0.952885 0.952627 0.963202 0.961990 0.962685 0.955668 0.957280 0.956337 0.955389 0.955913 0.956185 0.954223 0.952045 0.950331 0.949676 0.949294 0.951067 0.951548 0.951498 0.952985 0.952936 0.952648 0.949241 0.947849 0.949327 0.951404 0.950562 0.956276 0.956093 0.964122 0.964890 0.963453 0.963366 0.963564 0.963763 0.952783 0.945903 0.940129 0.928235 0.918653 0.916617 0.919579 0.921628 0.920805 0.916442 0.915328 0.912652 0.907151 0.906276 0.906320 0.907991 0.904412 0.900872 0.884404 0.883852 0.886269 0.885508 0.883447 0.875288 0.870690 0.871403 0.874579 0.871951 0.868456 0.884516 0.879688 0.884750 0.887843 0.891104 0.894987 0.891298 0.890408 0.886613 0.882994 0.877976 0.879321 0.866195 0.869169 0.863653 0.854243 0.846676 0.849839 0.859531 0.867718 0.875944 0.874850 0.875116 0.874267 0.865176 0.866470 0.859156 0.860165 0.865815 0.872064 0.867863 0.865144 0.869288 0.867296 0.870620 0.872433 0.868330 0.866517 0.857156 0.857185 0.859335 0.876524 0.875693 0.865101 0.859923 0.851416 0.858012 0.861189 0.860533 0.862265 0.852987 0.854530 0.844270 0.833087 0.834765 0.839446 0.834433 0.836084 0.833851 0.837295 0.839324 0.837601 0.832928 0.831674 0.835868 0.813608 0.820945 0.824283 0.819619 0.823783 0.816217 0.810023 0.805282 0.804875 0.800585 0.813581 0.811915 0.779803 0.768280 0.776354 0.758520 0.749725 0.745255 0.745954 0.710026 0.690060 0.663408 0.657944 0.648928 0.650893 0.649275 0.640460 0.626502 0.612620 0.611302 0.626435 0.627401 0.594208 0.594037 0.586664 0.581542 0.576574 0.576807 0.574189 0.581145 0.586341 0.551576 0.547173 0.553206 0.527389 0.527179 0.525084 0.516637 0.487605 0.494062 0.493835 0.510620 0.530869 0.497089 0.495318 0.503577 0.516867 0.529010 0.529320 0.514892 0.495937 0.504506 0.479180 0.463605 0.480665 0.494683 0.486544 0.503412 0.491283 0.522405 0.515715 0.505504 0.529304 0.546503 0.544964 0.527190 0.540069 0.519639 0.522872 0.507899 0.466909 0.478257 0.464746 0.414284 0.405794 0.423356 0.409430 0.409721 0.383742 0.385497 0.362114 0.326777 0.339418 0.334146 0.300131 0.259740 0.260746 0.262866 0.231510 0.203976 0.223881 0.173567 0.165955 0.184704 0.194961 0.196923 0.186763 0.208203 0.208203 0.208203 0.208203 0.208203 0.208203 0.208203 0.208203 0.208203 0.208203 0.208203 0.208203 0.208203 0.208203 0.234049 0.234049 0.234049 0.234049 0.234049 0.234049 0.234049 0.234049 0.234049 0.234049 0.234049 0.234049
0.000000 0.000000 0.000000 0.000000 0.000000 0.000000 0.000000 0.000000 0.000000 0.000000 0.000000 0.000000 0.000000 0.000000 0.000000 0.000000 0.000000 0.000000 0.000000 0.000000 0.000000 0.000000 0.000000 0.000000 0.000000 0.000000 0.000000 0.000000 0.000000 0.000000 0.000000 0.000000 0.000000 0.000000 0.000000 0.000000 0.000000 0.000000 0.000000 0.000000 0.000000 0.000000 0.000000 0.000000 0.000000 0.000000 0.000000 0.000000 0.000000 0.000000 0.000000 0.000000 0.209657 0.209657 0.209657 0.209657 0.209657 0.209657 0.209657 0.209657 0.209657 0.209657 0.209657 0.209657 0.209657 0.209657 0.209657 0.209657 0.209657 0.209657 0.209657 0.209657 0.209657 0.209657 0.209657 0.209657 0.209657 0.209657 0.209657 0.209657 0.209657 0.209657 0.209657 0.209657 0.209657 0.244339 0.244339 0.244339 0.244339 0.244339 0.244339 0.244339 0.244339 0.244339 0.244339 0.244339 0.244339 0.244339 0.244339 0.244339 0.244339 0.244339 0.244339 0.244339 0.244339 0.244339 0.244339 0.244339 0.244339 0.244339 0.260378 0.260378 0.260378 0.260378 0.260378 0.260378 0.260378 0.260378 0.260378 0.260378 0.260378 0.260378 0.260378 0.260378 0.260378 0.260378 0.260378 0.260378 0.260378 0.260378 0.269680 0.269680 0.269680 0.269680 0.269680 0.269680 0.269680 0.269680 0.269680 0.269680 0.269680 0.269680 0.269680 0.269680 0.269680 0.269680 0.269680 0.269680 0.269680 0.269680 0.269680 0.269680 0.269680 0.269680 0.269680 0.269680 0.269680 0.269680 0.269680 0.269680 0.269680 0.269680 0.269680 0.280056 0.280056 0.280056 0.280056 0.280056 0.280056 0.280056 0.280056 0.280056 0.280056 0.280056 0.280056 0.280056 0.280056 0.280056 0.280056 0.280056 0.280056 0.280056 0.280056 0.280056 0.280056 0.280056 0.280056 0.280056 0.280056 0.280056 0.274721 0.274721 0.274721 0.274721 0.274721 0.274721 0.274721 0.274721 0.274721 0.274721 0.274721 0.274721 0.274721 0.285714 0.285714 0.285714 0.285714 0.285714 0.285714 0.285714 0.285714 0.285714 0.285714 0.285714 0.280056 0.280056 0.280056 0.280056 0.280056 0.280056 0.280056 0.280056 0.280056 0.280056 0.280056 0.274721 0.274721 0.274721 0.274721 0.274721 0.274721 0.274721 0.274721 0.274721 0.274721 0.274721 0.280056 0.280056 0.280056 0.280056 0.280056 0.280056 0.280056 0.280056 0.280056 0.280056 0.285714 0.285714 0.285714 0.285714 0.285714 0.285714 0.285714 0.285714 0.285714 0.269680 0.269680 0.269680 0.269680 0.269680 0.269680 0.269680 0.269680 0.269680 0.269680 0.274721 0.274721 0.274721 0.274721 0.274721 0.274721 0.274721 0.274721 0.274721 0.285714 0.285714 0.285714 0.285714 0.285714 0.285714 0.285714 0.285714 0.264906 0.264906 0.264906 0.264906 0.264906 0.264906 0.264906 0.264906 0.264906 0.274721 0.274721 0.274721 0.274721 0.274721 0.274721 0.274721 0.274721 0.269680 0.269680 0.269680 0.269680 0.269680 0.269680 0.269680 0.269680 0.269680 0.269680 0.269680 0.269680 0.269680 0.269680 0.269680 0.269680 0.280056 0.280056 0.280056 0.280056 0.280056 0.280056 0.280056 0.260378 0.260378 0.260378 0.260378 0.260378 0.260378 0.260378 0.260378 0.269680 0.269680 0.269680 0.269680 0.269680 0.269680 0.269680 0.264906 0.264906 0.264906 0.264906 0.264906 0.264906 0.264906 0.264906 0.264906 0.264906 0.264906 0.264906 0.264906 0.264906 0.260378 0.260378 0.260378 0.260378 0.260378 0.260378 0.260378 0.260378 0.260378 0.260378 0.260378 0.260378
