# Output from CTFFind version 4.1.9, run on 2019-11-03 20:06:44
# Input file: stack1_bm3d_averaged_1_7.5_0_1250_half.mrc ; Number of micrographs: 1
# Pixel size: 3.000 Angstroms ; acceleration voltage: 300.0 keV ; spherical aberration: 0.00 mm ; amplitude contrast: 0.07
# Box size: 512 pixels ; min. res.: 30.0 Angstroms ; max. res.: 5.0 Angstroms ; min. def.: 5000.0 um; max. def. 50000.0 um; num. frames averaged: 1
# 6 lines per micrograph: #1 - spatial frequency (1/Angstroms); #2 - 1D rotational average of spectrum (assuming no astigmatism); #3 - 1D rotational average of spectrum; #4 - CTF fit; #5 - cross-correlation between spectrum and CTF fit; #6 - 2sigma of expected cross correlation of noise
0.000000 0.000651 0.001302 0.001953 0.002604 0.003255 0.003906 0.004557 0.005208 0.005859 0.006510 0.007161 0.007812 0.008464 0.009115 0.009766 0.010417 0.011068 0.011719 0.012370 0.013021 0.013672 0.014323 0.014974 0.015625 0.016276 0.016927 0.017578 0.018229 0.018880 0.019531 0.020182 0.020833 0.021484 0.022135 0.022786 0.023438 0.024089 0.024740 0.025391 0.026042 0.026693 0.027344 0.027995 0.028646 0.029297 0.029948 0.030599 0.031250 0.031901 0.032552 0.033203 0.033854 0.034505 0.035156 0.035807 0.036458 0.037109 0.037760 0.038411 0.039062 0.039714 0.040365 0.041016 0.041667 0.042318 0.042969 0.043620 0.044271 0.044922 0.045573 0.046224 0.046875 0.047526 0.048177 0.048828 0.049479 0.050130 0.050781 0.051432 0.052083 0.052734 0.053385 0.054036 0.054688 0.055339 0.055990 0.056641 0.057292 0.057943 0.058594 0.059245 0.059896 0.060547 0.061198 0.061849 0.062500 0.063151 0.063802 0.064453 0.065104 0.065755 0.066406 0.067057 0.067708 0.068359 0.069010 0.069661 0.070312 0.070964 0.071615 0.072266 0.072917 0.073568 0.074219 0.074870 0.075521 0.076172 0.076823 0.077474 0.078125 0.078776 0.079427 0.080078 0.080729 0.081380 0.082031 0.082682 0.083333 0.083984 0.084635 0.085286 0.085938 0.086589 0.087240 0.087891 0.088542 0.089193 0.089844 0.090495 0.091146 0.091797 0.092448 0.093099 0.093750 0.094401 0.095052 0.095703 0.096354 0.097005 0.097656 0.098307 0.098958 0.099609 0.100260 0.100911 0.101562 0.102214 0.102865 0.103516 0.104167 0.104818 0.105469 0.106120 0.106771 0.107422 0.108073 0.108724 0.109375 0.110026 0.110677 0.111328 0.111979 0.112630 0.113281 0.113932 0.114583 0.115234 0.115885 0.116536 0.117188 0.117839 0.118490 0.119141 0.119792 0.120443 0.121094 0.121745 0.122396 0.123047 0.123698 0.124349 0.125000 0.125651 0.126302 0.126953 0.127604 0.128255 0.128906 0.129557 0.130208 0.130859 0.131510 0.132161 0.132812 0.133464 0.134115 0.134766 0.135417 0.136068 0.136719 0.137370 0.138021 0.138672 0.139323 0.139974 0.140625 0.141276 0.141927 0.142578 0.143229 0.143880 0.144531 0.145182 0.145833 0.146484 0.147135 0.147786 0.148438 0.149089 0.149740 0.150391 0.151042 0.151693 0.152344 0.152995 0.153646 0.154297 0.154948 0.155599 0.156250 0.156901 0.157552 0.158203 0.158854 0.159505 0.160156 0.160807 0.161458 0.162109 0.162760 0.163411 0.164062 0.164714 0.165365 0.166016 0.166667 0.167318 0.167969 0.168620 0.169271 0.169922 0.170573 0.171224 0.171875 0.172526 0.173177 0.173828 0.174479 0.175130 0.175781 0.176432 0.177083 0.177734 0.178385 0.179036 0.179688 0.180339 0.180990 0.181641 0.182292 0.182943 0.183594 0.184245 0.184896 0.185547 0.186198 0.186849 0.187500 0.188151 0.188802 0.189453 0.190104 0.190755 0.191406 0.192057 0.192708 0.193359 0.194010 0.194661 0.195312 0.195964 0.196615 0.197266 0.197917 0.198568 0.199219 0.199870 0.200521 0.201172 0.201823 0.202474 0.203125 0.203776 0.204427 0.205078 0.205729 0.206380 0.207031 0.207682 0.208333 0.208984 0.209635 0.210286 0.210938 0.211589 0.212240 0.212891 0.213542 0.214193 0.214844 0.215495 0.216146 0.216797 0.217448 0.218099 0.218750 0.219401 0.220052 0.220703 0.221354 0.222005 0.222656 0.223307 0.223958 0.224609 0.225260 0.225911 0.226562 0.227214 0.227865 0.228516 0.229167 0.229818 0.230469 0.231120 0.231771 0.232422 0.233073 0.233724 0.234375 0.235026 0.235677
       0.33890        0.33890        0.33890        0.33890        0.33890        0.33890        0.33890        0.33890        0.33890        0.33890        0.33890        0.33890        0.33890        0.33890        0.33890        0.33890        0.33890        0.33890        0.33890        0.33890        0.33890        0.33890        0.33890        0.33890        0.33890        0.33890        0.33890        0.33890        0.33890        0.33890        0.33890        0.33890        0.33890        0.33890        0.33890        0.33890        0.33890        0.33890        0.33890        0.33890        0.33890        0.33890        0.33890        0.33890        0.33890        0.33890        0.33890        0.33890        0.33890        0.33890        0.33890        0.32689        0.46067        0.21431        0.06708       -0.00043       -0.27184       -0.11987       -0.15340       -0.22389        0.00229       -0.14834       -0.06148       -0.06446       -0.04862       -0.12276       -0.16703       -0.24651       -0.29059       -0.40202       -0.33480       -0.23706       -0.21713       -0.31289       -0.23176       -0.28482       -0.25594       -0.27798       -0.12442       -0.14019       -0.19714       -0.03274        0.03533       -0.02137        0.06364        0.03803        0.23652        0.24495        0.33045        0.34548        0.36780        0.40401        0.48034        0.53795        0.54323        0.49556        0.48254        0.50725        0.46473        0.50489        0.42847        0.40519        0.41046        0.35343        0.29252        0.30504        0.32600        0.21545        0.19635        0.12931        0.15438        0.16094        0.17172        0.16080        0.23774        0.29837        0.31064        0.28309        0.39154        0.46814        0.39363        0.48254        0.58290        0.53225        0.50977        0.56411        0.59205        0.41479        0.47394        0.39985        0.32895        0.30530        0.28072        0.24998        0.19417        0.18393        0.15371        0.19766        0.25037        0.28020        0.33425        0.30062        0.40170        0.40745        0.44926        0.49123        0.47032        0.49541        0.43928        0.42749        0.40196        0.33468        0.30638        0.31135        0.31333        0.24648        0.24507        0.24928        0.24420        0.26930        0.31690        0.42160        0.46710        0.41319        0.42428        0.45905        0.43741        0.46201        0.45187        0.38323        0.35678        0.38902        0.35556        0.30839        0.29862        0.30648        0.27184        0.29421        0.30085        0.31765        0.36829        0.37081        0.40650        0.41365        0.35493        0.44336        0.40869        0.34406        0.30604        0.33786        0.32622        0.29384        0.30998        0.28951        0.29619        0.32173        0.32826        0.42745        0.39717        0.37377        0.39479        0.43277        0.36683        0.34650        0.33831        0.34717        0.27306        0.26951        0.30279        0.37896        0.37978        0.33668        0.34616        0.39221        0.38350        0.44940        0.37789        0.36495        0.33052        0.31254        0.31212        0.31290        0.33989        0.37529        0.36491        0.37161        0.32417        0.43029        0.34618        0.34992        0.33846        0.37639        0.36333        0.28967        0.30602        0.26409        0.31171        0.32284        0.31421        0.33587        0.31863        0.34606        0.33533        0.33695        0.31511        0.29595        0.27368        0.31682        0.33941        0.31782        0.29208        0.33389        0.32361        0.32952        0.33277        0.29760        0.28350        0.29617        0.32108        0.31222        0.31019        0.28487        0.30163        0.34741        0.32526        0.31627        0.38516        0.32442        0.26849        0.31129        0.32560        0.31251        0.34074        0.29969        0.32277        0.26857        0.31581        0.33505        0.35757        0.30018        0.31386        0.30684        0.28860        0.35869        0.35277        0.30932        0.30545        0.29322        0.28700        0.33974        0.33782        0.27876        0.32457        0.28462        0.26670        0.25629        0.30058        0.33187        0.32153        0.23742        0.27329        0.33858        0.30608        0.32407        0.33535        0.30558        0.31631        0.32310        0.30302        0.27771        0.27284        0.28401        0.32899        0.32720        0.30697        0.32412        0.35115        0.33576        0.29016        0.30409        0.29358        0.30313        0.29189        0.24003        0.25643        0.31361        0.35206        0.24648        0.21346        0.18321        0.28937        0.29655        0.28498        0.30431        0.27999        0.27440        0.24255        0.28452        0.26729        0.30680        0.23436        0.25408        0.25573        0.21553        0.25253        0.32371        0.32529        0.26583        0.22340        0.21762        0.15719        0.24049        0.24685        0.37923        0.28221        0.21957        0.30538        0.36188        0.14506       -0.07858       -0.13500       -0.61745       -0.78787
3.450634 3.412015 3.373616 3.335436 3.297475 3.259735 3.222213 3.184912 3.147829 3.110967 3.074324 3.037900 3.001696 2.965712 2.929947 2.894401 2.859075 2.823969 2.789082 2.754415 2.719967 2.685738 2.651730 2.617940 2.584371 2.551021 2.517890 2.484979 2.452287 2.419815 2.387563 2.355530 2.323717 2.292123 2.260748 2.229594 2.198658 2.167942 2.137446 2.107170 2.077112 2.047275 2.017657 1.988258 1.959079 1.930120 1.901380 1.872859 1.844558 1.816477 1.788615 1.671954 1.973389 1.715966 1.082905 1.156427 0.349858 0.896582 0.534217 0.639698 0.922558 0.659638 0.684606 0.754851 0.690880 0.651428 0.441789 0.342326 0.197480 0.001711 0.005438 0.136625 0.403093 -0.032903 0.162646 0.042766 0.171391 -0.059344 0.264651 0.176003 0.101324 0.304471 0.513686 0.302935 0.440940 0.362028 0.806785 0.656936 0.862003 0.900283 0.801463 1.029322 0.932391 1.252706 1.063922 1.108296 1.012919 1.030578 0.981736 0.899755 0.935541 0.768141 0.743963 0.670194 0.636465 0.460100 0.568524 0.439297 0.270283 0.209480 0.138400 0.178243 0.205530 0.144593 0.195405 0.396355 0.352649 0.364026 0.468085 0.561644 0.548523 0.429527 0.818052 0.809466 0.621052 0.703985 0.778369 0.561907 0.410453 0.522769 0.209202 0.268238 0.106856 0.151126 -0.009397 -0.041009 -0.108625 -0.102394 0.089156 -0.018339 0.122180 0.198465 0.155808 0.301056 0.300199 0.411811 0.345853 0.455522 0.308731 0.257380 0.243511 0.155247 0.067948 0.048035 0.026880 -0.003310 -0.050708 -0.116222 -0.116485 -0.047193 -0.074221 0.138519 0.325318 0.226861 0.198226 0.294985 0.315867 0.230923 0.352793 0.287146 0.153653 0.141097 0.260020 0.012974 0.047657 0.015829 0.052163 -0.025038 0.088701 0.005319 0.155666 0.009882 0.215788 0.241160 0.173666 0.274037 0.190836 0.146676 0.053232 0.076328 0.074168 0.033935 -0.013870 0.033090 -0.036317 0.008896 0.032477 0.116404 0.266564 0.143964 0.151910 0.270875 0.147076 0.177838 0.040530 0.101640 0.075617 -0.097497 0.003505 0.048224 0.184976 0.129376 0.054562 0.105849 0.191124 0.182889 0.279520 0.125095 0.127207 0.045666 0.008473 0.064554 0.050194 0.103026 0.170463 0.139212 0.096068 0.150402 0.203871 0.015804 0.111742 0.075282 0.160390 0.062169 -0.004268 -0.000096 -0.059354 0.042448 0.057511 0.046623 0.016363 0.052013 0.046199 0.011035 0.027904 -0.014267 -0.073811 -0.036713 -0.047433 0.077537 -0.053768 -0.015356 0.028394 0.002682 0.037519 0.049236 -0.040188 -0.035619 -0.025527 0.034165 0.001780 0.021048 -0.055082 -0.024490 0.095967 0.003215 -0.010481 0.165758 -0.071813 -0.081081 0.013882 0.007838 -0.017109 0.020449 -0.036322 0.001007 -0.107445 0.025242 0.057068 0.072442 -0.062401 0.002528 -0.044086 -0.028691 0.072311 0.069662 -0.064216 -0.015486 -0.060903 -0.061383 0.041568 -0.003519 -0.078492 0.044775 -0.083253 -0.103390 -0.094158 -0.048362 0.031179 -0.069149 -0.225591 -0.029193 0.059166 -0.051182 -0.035329 0.049198 -0.050983 -0.001455 -0.086989 -0.046619 -0.098268 -0.113123 -0.110756 0.052926 0.001476 -0.064174 -0.000408 0.106745 -0.114803 0.004064 0.022050 -0.087325 0.029666 -0.015567 -0.119030 -0.070923 0.030281 0.169338 -0.066444 -0.218657 -0.122346 0.126723 0.001458 -0.005097 0.138914 0.074133 0.018302 -0.026252 0.056517 0.076552 0.108169 -0.012580 0.062896 0.091361 -0.089294 0.100957 0.278183 0.150274 0.126009 0.090092 -0.036383 0.057984 -0.001438 0.055474 0.356314 0.577896 0.395344 0.587390 0.848086 0.279195 -0.334358 -0.230676 -1.409533
0.072396 0.072907 0.074441 0.076997 0.080574 0.085172 0.090789 0.097423 0.105073 0.113735 0.123406 0.134082 0.145756 0.158423 0.172073 0.186698 0.202285 0.218823 0.236293 0.254680 0.273961 0.294112 0.315107 0.336914 0.359499 0.382822 0.406841 0.431506 0.456766 0.482560 0.508826 0.535492 0.562483 0.589715 0.617100 0.644541 0.671935 0.699173 0.726137 0.752704 0.778741 0.804111 0.828670 0.852265 0.874739 0.895930 0.915669 0.933783 0.950096 0.964427 0.976595 0.986418 0.993712 0.998296 0.999994 0.998630 0.994038 0.986059 0.974542 0.959351 0.940361 0.917466 0.890576 0.859623 0.824563 0.785374 0.742066 0.694675 0.643272 0.587960 0.528880 0.466209 0.400163 0.331002 0.259022 0.184564 0.108011 0.029786 0.049645 0.129780 0.210078 0.289962 0.368825 0.446032 0.520926 0.592830 0.661057 0.724915 0.783712 0.836768 0.883421 0.923036 0.955014 0.978805 0.993913 0.999909 0.996440 0.983240 0.960137 0.927065 0.884067 0.831308 0.769077 0.697790 0.617999 0.530386 0.435769 0.335093 0.229428 0.119961 0.007986 0.105108 0.217857 0.328730 0.436157 0.538549 0.634321 0.721919 0.799846 0.866691 0.921158 0.962097 0.988525 0.999661 0.994947 0.974072 0.936991 0.883939 0.815447 0.732344 0.635757 0.527108 0.408102 0.280705 0.147122 0.009763 0.128799 0.265868 0.398678 0.524452 0.640458 0.744069 0.832837 0.904545 0.957277 0.989475 0.999992 0.988141 0.953732 0.897102 0.819130 0.721241 0.605399 0.474078 0.330225 0.177201 0.018714 0.141261 0.298587 0.449060 0.588530 0.713017 0.818830 0.902686 0.961826 0.994115 0.998132 0.973246 0.919666 0.838473 0.731621 0.601911 0.452942 0.289024 0.115072 0.063536 0.241110 0.411832 0.569951 0.709968 0.826851 0.916220 0.974532 0.999237 0.988910 0.943345 0.863611 0.752058 0.612285 0.449037 0.268085 0.076020 0.119952 0.312288 0.493392 0.655917 0.793070 0.898917 0.968660 0.998872 0.987696 0.934981 0.842343 0.713166 0.552506 0.366928 0.164269 0.046680 0.256535 0.455736 0.634985 0.785685 0.900380 0.973142 0.999910 0.978751 0.910023 0.796432 0.642980 0.456775 0.246749 0.023255 0.202425 0.418645 0.613980 0.777865 0.901167 0.976736 0.999853 0.968568 0.883889 0.749822 0.573237 0.363554 0.132296 0.107526 0.342128 0.557733 0.741396 0.881801 0.969996 1.000000 0.969261 0.878917 0.733827 0.542380 0.316055 0.068792 0.183852 0.425646 0.640749 0.814750 0.935669 0.994825 0.987524 0.913474 0.776942 0.586570 0.354909 0.097635 0.167468 0.421715 0.646845 0.826334 0.946663 0.998382 0.976912 0.883023 0.722916 0.507890 0.253630 0.020899 0.294805 0.546880 0.757215 0.908829 0.989087 0.990820 0.913043 0.761194 0.546850 0.286924 0.002406 0.283292 0.546251 0.764049 0.917708 0.993419 0.983849 0.888949 0.716127 0.479778 0.200181 0.098183 0.388726 0.645124 0.843704 0.965701 0.999104 0.939927 0.792777 0.570624 0.293759 0.011982 0.317549 0.593443 0.812568 0.952938 0.999974 0.948117 0.801587 0.574182 0.288100 0.028143 0.342486 0.622554 0.839012 0.968705 0.997213 0.920587 0.745984 0.491160 0.182771 0.146311 0.460451 0.725113 0.910675 0.995850 0.970227 0.835681 0.606423 0.307638 0.027154 0.359800 0.651813 0.868871 0.984915 0.985400 0.869254 0.649285 0.350938 0.009478 0.334096 0.637919 0.864403 0.984963 0.983739 0.859843 0.627773 0.315885 0.036924 0.385990 0.686493 0.899252 0.995924 0.962931 0.803520 0.537681 0.199806 0.165619 0.509808 0.786158 0.956625
1.000000 1.000000 1.000000 1.000000 1.000000 1.000000 1.000000 1.000000 1.000000 1.000000 1.000000 1.000000 1.000000 1.000000 1.000000 1.000000 1.000000 1.000000 1.000000 1.000000 1.000000 1.000000 1.000000 1.000000 1.000000 1.000000 1.000000 1.000000 1.000000 1.000000 1.000000 1.000000 1.000000 1.000000 1.000000 1.000000 1.000000 1.000000 1.000000 1.000000 1.000000 1.000000 1.000000 1.000000 1.000000 1.000000 1.000000 1.000000 1.000000 1.000000 1.000000 1.000000 0.822369 0.822369 0.822369 0.798540 0.798540 0.798540 0.798540 0.798540 0.798540 0.798540 0.798540 0.798540 0.798540 0.798540 0.798540 0.798540 0.798540 0.798540 0.798540 0.798540 0.798540 0.798540 0.798540 0.798540 0.798540 0.798540 0.798540 0.798540 0.798540 0.798540 0.798540 0.798540 0.798540 0.798540 0.798540 0.798540 0.798540 0.798540 0.798540 0.798540 0.798540 0.798540 0.798540 0.798540 0.853749 0.860408 0.865688 0.869403 0.869680 0.866675 0.865491 0.865058 0.864494 0.865726 0.874468 0.900229 0.913647 0.914876 0.928244 0.929681 0.934627 0.935360 0.955103 0.956560 0.957899 0.957000 0.957974 0.960039 0.966576 0.966749 0.964312 0.964370 0.967109 0.967745 0.967476 0.963911 0.962506 0.961744 0.959251 0.958968 0.958567 0.959064 0.959486 0.954234 0.954693 0.954967 0.956857 0.955386 0.945599 0.940105 0.936185 0.934282 0.916803 0.914237 0.914728 0.912855 0.904528 0.904979 0.894540 0.896033 0.894500 0.886125 0.885610 0.881913 0.877716 0.867300 0.865828 0.865820 0.868880 0.874110 0.876840 0.863591 0.847725 0.828199 0.812239 0.796370 0.797773 0.796091 0.791347 0.795385 0.796888 0.795374 0.793410 0.785863 0.773059 0.780606 0.778298 0.774420 0.768307 0.766435 0.753162 0.746442 0.741082 0.716426 0.703639 0.696622 0.706763 0.699988 0.700643 0.704336 0.712271 0.712019 0.712148 0.704975 0.701294 0.693164 0.674109 0.680462 0.690779 0.684205 0.677929 0.676923 0.651075 0.679872 0.683141 0.703167 0.711014 0.712115 0.712461 0.698210 0.672572 0.677957 0.678362 0.668743 0.674825 0.674354 0.669040 0.652454 0.656661 0.663688 0.684115 0.649162 0.642391 0.625801 0.627493 0.602294 0.587248 0.576587 0.574635 0.539871 0.538142 0.533848 0.525578 0.523588 0.510054 0.489004 0.470917 0.485494 0.469002 0.468285 0.463084 0.464473 0.455123 0.437238 0.414720 0.372365 0.385885 0.394720 0.375170 0.365622 0.334117 0.334004 0.335252 0.339461 0.302943 0.280334 0.279937 0.277105 0.262536 0.263190 0.266930 0.242339 0.244820 0.154386 0.153626 0.168094 0.171428 0.132753 0.122514 0.147591 0.149593 0.133783 0.107755 0.051165 0.010551 -0.004309 0.019729 0.028144 0.012621 -0.000119 -0.003190 -0.005483 0.010586 -0.034775 -0.045404 -0.058469 -0.059320 -0.053098 -0.022722 -0.035024 -0.058920 -0.048312 -0.028781 -0.062823 -0.048969 -0.044876 -0.048112 -0.019931 -0.038938 -0.067715 -0.066350 -0.080881 -0.073405 -0.043667 -0.054837 -0.069419 -0.050180 -0.047319 -0.050413 -0.068634 -0.081501 -0.098682 -0.092483 -0.121611 -0.108260 -0.081149 -0.077509 -0.057734 0.002835 0.005086 0.003719 -0.031749 0.005300 -0.018205 -0.025875 -0.008894 -0.040868 -0.043361 -0.002180 0.011301 0.023960 -0.024480 -0.039131 -0.039131 -0.039131 -0.066635 -0.066635 -0.066635 -0.066635 -0.066635 -0.066635 -0.066635 -0.066635 -0.066635 -0.070667 -0.070667 -0.070667 -0.070667 -0.070667 -0.070667 -0.070667 -0.070667 -0.070667 -0.070667 -0.070667 -0.070667 -0.070667 -0.070667 -0.070667 -0.070667 -0.070667
0.000000 0.000000 0.000000 0.000000 0.000000 0.000000 0.000000 0.000000 0.000000 0.000000 0.000000 0.000000 0.000000 0.000000 0.000000 0.000000 0.000000 0.000000 0.000000 0.000000 0.000000 0.000000 0.000000 0.000000 0.000000 0.000000 0.000000 0.000000 0.000000 0.000000 0.000000 0.000000 0.000000 0.000000 0.000000 0.000000 0.000000 0.000000 0.000000 0.000000 0.000000 0.000000 0.000000 0.000000 0.000000 0.000000 0.000000 0.000000 0.000000 0.000000 0.000000 0.000000 0.180334 0.180334 0.180334 0.199007 0.199007 0.199007 0.199007 0.199007 0.199007 0.199007 0.199007 0.199007 0.199007 0.199007 0.199007 0.199007 0.199007 0.199007 0.199007 0.199007 0.199007 0.199007 0.199007 0.199007 0.199007 0.199007 0.199007 0.199007 0.199007 0.199007 0.199007 0.199007 0.199007 0.199007 0.199007 0.199007 0.199007 0.199007 0.199007 0.199007 0.199007 0.199007 0.199007 0.199007 0.230940 0.230940 0.230940 0.230940 0.230940 0.230940 0.230940 0.230940 0.230940 0.230940 0.230940 0.230940 0.230940 0.230940 0.230940 0.230940 0.230940 0.230940 0.230940 0.230940 0.230940 0.230940 0.230940 0.230940 0.230940 0.230940 0.230940 0.230940 0.248069 0.248069 0.248069 0.248069 0.248069 0.248069 0.248069 0.248069 0.248069 0.248069 0.248069 0.248069 0.248069 0.248069 0.248069 0.248069 0.248069 0.248069 0.248069 0.248069 0.248069 0.248069 0.251976 0.251976 0.251976 0.251976 0.251976 0.251976 0.251976 0.251976 0.251976 0.251976 0.251976 0.251976 0.251976 0.251976 0.251976 0.251976 0.251976 0.251976 0.251976 0.251976 0.256074 0.256074 0.256074 0.256074 0.256074 0.256074 0.256074 0.256074 0.256074 0.256074 0.256074 0.256074 0.256074 0.256074 0.256074 0.256074 0.256074 0.256074 0.264906 0.264906 0.264906 0.264906 0.264906 0.264906 0.264906 0.264906 0.264906 0.264906 0.264906 0.264906 0.264906 0.264906 0.264906 0.264906 0.264906 0.264906 0.264906 0.264906 0.264906 0.264906 0.264906 0.264906 0.264906 0.264906 0.264906 0.264906 0.264906 0.264906 0.264906 0.274721 0.274721 0.274721 0.274721 0.274721 0.274721 0.274721 0.274721 0.274721 0.274721 0.274721 0.274721 0.274721 0.264906 0.264906 0.264906 0.264906 0.264906 0.264906 0.264906 0.264906 0.264906 0.264906 0.264906 0.264906 0.264906 0.260378 0.260378 0.260378 0.260378 0.260378 0.260378 0.260378 0.260378 0.260378 0.260378 0.260378 0.260378 0.260378 0.264906 0.264906 0.264906 0.264906 0.264906 0.264906 0.264906 0.264906 0.264906 0.264906 0.264906 0.264906 0.269680 0.269680 0.269680 0.269680 0.269680 0.269680 0.269680 0.269680 0.269680 0.269680 0.269680 0.264906 0.264906 0.264906 0.264906 0.264906 0.264906 0.264906 0.264906 0.264906 0.264906 0.264906 0.269680 0.269680 0.269680 0.269680 0.269680 0.269680 0.269680 0.269680 0.269680 0.269680 0.264906 0.264906 0.264906 0.264906 0.264906 0.264906 0.264906 0.264906 0.264906 0.264906 0.260378 0.260378 0.260378 0.260378 0.260378 0.260378 0.260378 0.260378 0.260378 0.260378 0.256074 0.256074 0.256074 0.256074 0.256074 0.256074 0.256074 0.256074 0.256074 0.256074 0.260378 0.260378 0.260378 0.260378 0.260378 0.260378 0.260378 0.260378 0.260378 0.256074 0.256074 0.256074 0.256074 0.256074 0.256074 0.256074 0.256074 0.256074 0.251976 0.251976 0.251976 0.251976 0.251976 0.251976 0.251976 0.251976 0.251976 0.251976 0.251976 0.251976 0.251976 0.251976 0.251976 0.251976 0.251976
