# Output from CTFFind version 4.1.9, run on 2019-11-03 20:06:59
# Input file: stack6_bm3d_averaged_1_6.5_0_1250_half.mrc ; Number of micrographs: 1
# Pixel size: 3.000 Angstroms ; acceleration voltage: 300.0 keV ; spherical aberration: 0.00 mm ; amplitude contrast: 0.07
# Box size: 512 pixels ; min. res.: 30.0 Angstroms ; max. res.: 5.0 Angstroms ; min. def.: 5000.0 um; max. def. 50000.0 um; num. frames averaged: 1
# 6 lines per micrograph: #1 - spatial frequency (1/Angstroms); #2 - 1D rotational average of spectrum (assuming no astigmatism); #3 - 1D rotational average of spectrum; #4 - CTF fit; #5 - cross-correlation between spectrum and CTF fit; #6 - 2sigma of expected cross correlation of noise
0.000000 0.000651 0.001302 0.001953 0.002604 0.003255 0.003906 0.004557 0.005208 0.005859 0.006510 0.007161 0.007812 0.008464 0.009115 0.009766 0.010417 0.011068 0.011719 0.012370 0.013021 0.013672 0.014323 0.014974 0.015625 0.016276 0.016927 0.017578 0.018229 0.018880 0.019531 0.020182 0.020833 0.021484 0.022135 0.022786 0.023438 0.024089 0.024740 0.025391 0.026042 0.026693 0.027344 0.027995 0.028646 0.029297 0.029948 0.030599 0.031250 0.031901 0.032552 0.033203 0.033854 0.034505 0.035156 0.035807 0.036458 0.037109 0.037760 0.038411 0.039062 0.039714 0.040365 0.041016 0.041667 0.042318 0.042969 0.043620 0.044271 0.044922 0.045573 0.046224 0.046875 0.047526 0.048177 0.048828 0.049479 0.050130 0.050781 0.051432 0.052083 0.052734 0.053385 0.054036 0.054688 0.055339 0.055990 0.056641 0.057292 0.057943 0.058594 0.059245 0.059896 0.060547 0.061198 0.061849 0.062500 0.063151 0.063802 0.064453 0.065104 0.065755 0.066406 0.067057 0.067708 0.068359 0.069010 0.069661 0.070312 0.070964 0.071615 0.072266 0.072917 0.073568 0.074219 0.074870 0.075521 0.076172 0.076823 0.077474 0.078125 0.078776 0.079427 0.080078 0.080729 0.081380 0.082031 0.082682 0.083333 0.083984 0.084635 0.085286 0.085938 0.086589 0.087240 0.087891 0.088542 0.089193 0.089844 0.090495 0.091146 0.091797 0.092448 0.093099 0.093750 0.094401 0.095052 0.095703 0.096354 0.097005 0.097656 0.098307 0.098958 0.099609 0.100260 0.100911 0.101562 0.102214 0.102865 0.103516 0.104167 0.104818 0.105469 0.106120 0.106771 0.107422 0.108073 0.108724 0.109375 0.110026 0.110677 0.111328 0.111979 0.112630 0.113281 0.113932 0.114583 0.115234 0.115885 0.116536 0.117188 0.117839 0.118490 0.119141 0.119792 0.120443 0.121094 0.121745 0.122396 0.123047 0.123698 0.124349 0.125000 0.125651 0.126302 0.126953 0.127604 0.128255 0.128906 0.129557 0.130208 0.130859 0.131510 0.132161 0.132812 0.133464 0.134115 0.134766 0.135417 0.136068 0.136719 0.137370 0.138021 0.138672 0.139323 0.139974 0.140625 0.141276 0.141927 0.142578 0.143229 0.143880 0.144531 0.145182 0.145833 0.146484 0.147135 0.147786 0.148438 0.149089 0.149740 0.150391 0.151042 0.151693 0.152344 0.152995 0.153646 0.154297 0.154948 0.155599 0.156250 0.156901 0.157552 0.158203 0.158854 0.159505 0.160156 0.160807 0.161458 0.162109 0.162760 0.163411 0.164062 0.164714 0.165365 0.166016 0.166667 0.167318 0.167969 0.168620 0.169271 0.169922 0.170573 0.171224 0.171875 0.172526 0.173177 0.173828 0.174479 0.175130 0.175781 0.176432 0.177083 0.177734 0.178385 0.179036 0.179688 0.180339 0.180990 0.181641 0.182292 0.182943 0.183594 0.184245 0.184896 0.185547 0.186198 0.186849 0.187500 0.188151 0.188802 0.189453 0.190104 0.190755 0.191406 0.192057 0.192708 0.193359 0.194010 0.194661 0.195312 0.195964 0.196615 0.197266 0.197917 0.198568 0.199219 0.199870 0.200521 0.201172 0.201823 0.202474 0.203125 0.203776 0.204427 0.205078 0.205729 0.206380 0.207031 0.207682 0.208333 0.208984 0.209635 0.210286 0.210938 0.211589 0.212240 0.212891 0.213542 0.214193 0.214844 0.215495 0.216146 0.216797 0.217448 0.218099 0.218750 0.219401 0.220052 0.220703 0.221354 0.222005 0.222656 0.223307 0.223958 0.224609 0.225260 0.225911 0.226562 0.227214 0.227865 0.228516 0.229167 0.229818 0.230469 0.231120 0.231771 0.232422 0.233073 0.233724 0.234375 0.235026 0.235677
       0.32464        0.32464        0.32464        0.32464        0.32464        0.32464        0.32464        0.32464        0.32464        0.32464        0.32464        0.32464        0.32464        0.32464        0.32464        0.32464        0.32464        0.32464        0.32464        0.32464        0.32464        0.32464        0.32464        0.32464        0.32464        0.32464        0.32464        0.32464        0.32464        0.32464        0.32464        0.32464        0.32464        0.32464        0.32464        0.32464        0.32464        0.32464        0.32464        0.32464        0.32464        0.32464        0.32464        0.32464        0.32464        0.32464        0.32464        0.32464        0.32464        0.32464        0.32464        0.59749        0.71404        0.36166        0.17629        0.13493       -0.13622        0.11128        0.03687        0.03955        0.09257        0.30839        0.31341        0.24025        0.14335       -0.03835       -0.01161        0.04784       -0.10379       -0.11060       -0.07432       -0.08506       -0.19127       -0.12363       -0.23528       -0.25377       -0.24988       -0.31084       -0.38504       -0.31724       -0.22468       -0.19268       -0.29708       -0.21794       -0.26409       -0.20567       -0.13862       -0.08217       -0.05084        0.00997        0.05315        0.14195        0.18382        0.22488        0.34317        0.40940        0.35863        0.47457        0.54548        0.55412        0.63364        0.56111        0.59115        0.60110        0.60624        0.60345        0.55700        0.58794        0.54440        0.39347        0.34379        0.37316        0.34433        0.20495        0.18792        0.15989        0.10464        0.10646        0.02995        0.09071        0.07173        0.03325        0.11921        0.17757        0.26866        0.35225        0.35746        0.38498        0.44853        0.48467        0.41924        0.64357        0.54540        0.48185        0.57148        0.50051        0.54945        0.51163        0.38111        0.31875        0.30010        0.25188        0.24182        0.20792        0.18833        0.16081        0.24597        0.22469        0.25418        0.22286        0.27236        0.33042        0.33803        0.44821        0.44209        0.42322        0.41907        0.47565        0.43509        0.42195        0.40057        0.40050        0.33731        0.28518        0.26445        0.26197        0.26083        0.20695        0.18745        0.24135        0.25415        0.28259        0.34979        0.37653        0.42334        0.40656        0.42990        0.47751        0.46539        0.42913        0.38710        0.41655        0.37500        0.32758        0.33573        0.32302        0.26528        0.28041        0.27743        0.24822        0.31550        0.29100        0.30916        0.33052        0.39026        0.41643        0.40995        0.43783        0.38368        0.42494        0.39664        0.31985        0.29405        0.26030        0.27537        0.24193        0.21427        0.30567        0.36510        0.32990        0.30265        0.35749        0.27997        0.33856        0.39346        0.38195        0.36382        0.38207        0.33900        0.35775        0.33592        0.29831        0.28496        0.25587        0.30944        0.32241        0.33710        0.35480        0.38489        0.37232        0.37268        0.32523        0.35248        0.35439        0.33691        0.32681        0.29371        0.28815        0.26283        0.33481        0.33473        0.33715        0.30722        0.34232        0.35462        0.33572        0.35350        0.33929        0.30552        0.30058        0.30342        0.27427        0.26148        0.25222        0.24970        0.26911        0.25941        0.29997        0.28151        0.32013        0.34554        0.26309        0.29719        0.28074        0.23190        0.28526        0.26742        0.26719        0.29543        0.31969        0.31909        0.31051        0.30936        0.30587        0.33581        0.34902        0.29546        0.32364        0.31785        0.36740        0.28360        0.27471        0.28146        0.30853        0.32675        0.34917        0.35552        0.30185        0.23257        0.29569        0.25860        0.25278        0.25520        0.26104        0.29647        0.22888        0.30104        0.32394        0.36087        0.31544        0.30260        0.26769        0.28906        0.28960        0.25030        0.27319        0.27412        0.29886        0.34597        0.33562        0.28978        0.30532        0.32880        0.26315        0.23236        0.18639        0.31780        0.33496        0.34865        0.32884        0.29815        0.23277        0.21500        0.25949        0.25986        0.26293        0.28143        0.28935        0.24275        0.26449        0.25671        0.30369        0.27025        0.26499        0.26658        0.25307        0.20235        0.26053        0.24496        0.22140        0.27968        0.25013        0.25954        0.21891        0.20380        0.27051        0.26482        0.25520        0.17789        0.14998        0.31454        0.22274        0.22823        0.27779        0.17149        0.16274        0.17822        0.25313        0.24086        0.12926       -0.07205       -0.59202       -0.94185
2.373192 2.353025 2.332948 2.312960 2.293063 2.273255 2.253538 2.233910 2.214372 2.194924 2.175565 2.156297 2.137118 2.118029 2.099031 2.080121 2.061302 2.042573 2.023933 2.005384 1.986924 1.968554 1.950274 1.932083 1.913983 1.895972 1.878051 1.860220 1.842479 1.824828 1.807266 1.789795 1.772413 1.755121 1.737919 1.720807 1.703785 1.686852 1.670009 1.653257 1.636594 1.620020 1.603537 1.587144 1.570840 1.554626 1.538502 1.522468 1.506524 1.490670 1.474905 1.834886 2.170802 1.503807 1.328970 1.093018 0.521965 0.923467 0.813989 0.838863 0.702687 1.399913 1.198191 1.213150 0.980136 0.613273 0.478060 0.747817 0.588491 0.268126 0.284886 0.484571 0.237866 0.259216 0.110228 -0.001011 -0.014928 -0.008408 -0.311102 -0.156973 0.006555 -0.013708 -0.088853 -0.016288 -0.116700 -0.099791 0.065904 0.182211 0.248560 0.278414 0.372580 0.616753 0.555367 0.646641 0.824683 1.042262 0.799879 1.236131 1.176788 1.249450 1.352654 1.248772 1.169075 1.346837 1.221470 1.345696 1.186153 1.163569 1.205946 0.956815 0.687129 0.738882 0.786798 0.483516 0.425013 0.365476 0.221650 0.195950 0.039430 0.208842 0.164710 0.040492 0.122643 0.229880 0.349349 0.607139 0.604173 0.596304 0.696678 0.878105 0.586039 1.023274 1.035487 0.766289 0.922023 0.762144 0.860551 0.898497 0.630628 0.396797 0.417730 0.361872 0.218218 0.214077 0.167774 -0.012042 0.228269 0.197456 0.251108 0.139190 0.257165 0.329828 0.283419 0.497974 0.598821 0.535145 0.362294 0.661508 0.554269 0.445883 0.524177 0.440240 0.288476 0.326677 0.128751 0.205032 0.032818 0.210779 -0.062098 0.057388 0.055020 0.253066 0.067982 0.392829 0.339897 0.394140 0.389752 0.408662 0.576545 0.406139 0.366350 0.418765 0.211102 0.344292 0.129617 0.268728 0.072050 0.105886 0.091085 0.075121 0.049416 0.161311 0.066828 0.156628 0.242309 0.282636 0.337347 0.270123 0.346560 0.263076 0.295667 0.179156 0.102249 0.026717 -0.010154 0.021023 -0.077784 -0.063473 0.120318 0.212866 0.066572 0.111992 0.116466 0.015356 0.181103 0.248140 0.189714 0.204633 0.136894 0.155866 0.115038 0.106682 0.052244 -0.081375 -0.015311 0.141585 0.031799 0.144391 0.122116 0.226371 0.199794 0.176354 0.116527 0.190634 0.105520 0.133046 0.108940 0.037841 -0.009059 0.003648 0.134061 0.132307 0.120269 0.058565 0.152411 0.135270 0.058112 0.139872 0.046495 -0.008803 0.024825 0.004150 -0.054073 -0.067166 -0.109051 -0.042259 -0.057064 -0.086910 0.018953 -0.013376 0.066890 0.089618 -0.085606 0.045891 -0.045711 -0.107988 0.038326 -0.048507 -0.069182 0.038388 0.088286 0.030185 0.062320 -0.036829 0.040597 0.161485 -0.000395 -0.025114 0.089618 0.043162 0.125067 -0.076268 -0.040910 -0.023005 0.072715 0.048145 0.083022 0.144198 -0.016742 -0.098077 0.010313 -0.060572 -0.065047 -0.049925 -0.058209 0.030669 -0.169040 0.112494 0.092517 0.181667 0.040477 0.014078 0.003485 0.023868 0.073629 -0.057291 0.028427 0.008311 0.084653 0.121883 0.166593 0.057493 0.122009 0.176875 -0.038639 -0.000417 -0.154189 0.200275 0.154458 0.192564 0.148289 0.052524 -0.049784 -0.083677 -0.014891 0.001279 -0.004069 0.036211 0.069593 -0.057520 -0.001462 0.059975 0.084304 0.053042 0.032979 0.060595 -0.043106 -0.042639 0.036938 0.009744 -0.057173 0.102654 0.014944 -0.008204 0.004810 -0.046921 0.092430 0.130028 0.029702 -0.079372 -0.262518 0.318472 0.500076 0.394106 0.557871 0.268569 0.309507 0.317924 0.536419 0.455856 0.187418 0.133297 -0.871762
0.072396 0.072838 0.074163 0.076371 0.079462 0.083435 0.088289 0.094022 0.100634 0.108122 0.116484 0.125716 0.135815 0.146776 0.158594 0.171262 0.184772 0.199116 0.214282 0.230259 0.247032 0.264586 0.282903 0.301961 0.321739 0.342209 0.363344 0.385111 0.407474 0.430396 0.453833 0.477738 0.502061 0.526747 0.551735 0.576960 0.602354 0.627843 0.653346 0.678779 0.704051 0.729069 0.753731 0.777931 0.801559 0.824499 0.846629 0.867825 0.887956 0.906890 0.924488 0.940610 0.955112 0.967851 0.978680 0.987451 0.994019 0.998237 0.999964 0.999060 0.995388 0.988821 0.979236 0.966518 0.950564 0.931282 0.908590 0.882425 0.852736 0.819493 0.782682 0.742313 0.698416 0.651047 0.600285 0.546238 0.489041 0.428857 0.365881 0.300336 0.232478 0.162594 0.091002 0.018050 0.055883 0.130388 0.205031 0.279348 0.352856 0.425047 0.495396 0.563366 0.628407 0.689964 0.747479 0.800402 0.848190 0.890315 0.926273 0.955588 0.977820 0.992569 0.999485 0.998277 0.988713 0.970632 0.943948 0.908657 0.864842 0.812675 0.752424 0.684454 0.609231 0.527317 0.439375 0.346165 0.248540 0.147440 0.043885 0.061028 0.166143 0.270251 0.372106 0.470437 0.563965 0.651424 0.731572 0.803218 0.865233 0.916578 0.956321 0.983654 0.997916 0.998607 0.985407 0.958192 0.917039 0.862242 0.794319 0.714007 0.622269 0.520285 0.409446 0.291336 0.167716 0.040506 0.088250 0.216406 0.341757 0.462066 0.575119 0.678750 0.770902 0.849658 0.913296 0.960323 0.989521 0.999980 0.991137 0.962795 0.915150 0.848800 0.764752 0.664419 0.549605 0.422480 0.285552 0.141622 0.006269 0.154897 0.300927 0.440980 0.571721 0.689935 0.792613 0.877034 0.940842 0.982127 0.999484 0.992074 0.959665 0.902665 0.822136 0.719788 0.597962 0.459586 0.308120 0.147478 0.018066 0.183983 0.345614 0.498297 0.637510 0.759000 0.858929 0.934004 0.981593 0.999836 0.987727 0.945176 0.873050 0.773168 0.648289 0.502048 0.338864 0.163824 0.017463 0.199040 0.374797 0.538674 0.684877 0.808085 0.903659 0.967832 0.997874 0.992225 0.950588 0.873990 0.764777 0.626575 0.464192 0.283467 0.091080 0.105682 0.299199 0.481803 0.646095 0.785242 0.893285 0.965408 0.998170 0.989698 0.939809 0.850073 0.723801 0.565943 0.382939 0.182460 0.026882 0.235900 0.435226 0.615737 0.768976 0.887568 0.965597 0.998919 0.985421 0.925170 0.820481 0.675864 0.497862 0.294798 0.076395 0.146661 0.363236 0.562304 0.733521 0.867767 0.957665 0.998014 0.986118 0.922006 0.808499 0.651135 0.457938 0.239048 0.006209 0.227834 0.450029 0.647754 0.809529 0.925727 0.989163 0.995583 0.943987 0.836772 0.679681 0.481538 0.253798 0.009912 0.235431 0.467203 0.670938 0.833664 0.944749 0.996643 0.985427 0.911160 0.777971 0.593885 0.370404 0.121820 0.135662 0.384967 0.609279 0.793179 0.923751 0.991510 0.991152 0.922021 0.788260 0.598637 0.366026 0.106581 0.161341 0.418481 0.646035 0.827068 0.947796 0.998685 0.975268 0.878586 0.715243 0.497021 0.240102 0.036101 0.310362 0.561273 0.768927 0.916516 0.991754 0.987952 0.904681 0.747947 0.529842 0.267673 0.017345 0.301778 0.561874 0.775578 0.924413 0.995148 0.981031 0.882517 0.707374 0.470168 0.191118 0.105567 0.393759 0.647693 0.844311 0.965377 0.999256 0.942097 0.798357 0.580554 0.308267 0.006448 0.296823 0.572914 0.795383 0.942524 0.999570 0.960250 0.827572 0.613716 0.339009 0.030078 0.282680 0.568056 0.797160 0.946401 0.999962
1.000000 1.000000 1.000000 1.000000 1.000000 1.000000 1.000000 1.000000 1.000000 1.000000 1.000000 1.000000 1.000000 1.000000 1.000000 1.000000 1.000000 1.000000 1.000000 1.000000 1.000000 1.000000 1.000000 1.000000 1.000000 1.000000 1.000000 1.000000 1.000000 1.000000 1.000000 1.000000 1.000000 1.000000 1.000000 1.000000 1.000000 1.000000 1.000000 1.000000 1.000000 1.000000 1.000000 1.000000 1.000000 1.000000 1.000000 1.000000 1.000000 1.000000 1.000000 1.000000 0.777843 0.777843 0.777843 0.777843 0.777843 0.777843 0.777843 0.760292 0.760292 0.760292 0.760292 0.760292 0.760292 0.760292 0.760292 0.760292 0.760292 0.760292 0.760292 0.760292 0.760292 0.760292 0.760292 0.760292 0.760292 0.760292 0.760292 0.760292 0.760292 0.760292 0.760292 0.760292 0.760292 0.760292 0.760292 0.760292 0.760292 0.760292 0.760292 0.760292 0.760292 0.760292 0.760292 0.760292 0.760292 0.760292 0.760292 0.760292 0.760292 0.760292 0.760292 0.902420 0.903856 0.906847 0.902244 0.904157 0.902019 0.895580 0.898515 0.898330 0.898153 0.899205 0.900832 0.902808 0.910136 0.919037 0.920908 0.927917 0.931377 0.932512 0.932392 0.931044 0.938544 0.936099 0.934340 0.922443 0.925797 0.927668 0.928600 0.927413 0.927529 0.928792 0.929422 0.927321 0.925513 0.923341 0.921578 0.923327 0.922934 0.923119 0.923280 0.923453 0.923354 0.923933 0.920078 0.922334 0.921210 0.917633 0.914217 0.913733 0.914798 0.913148 0.909951 0.904290 0.910571 0.910998 0.911167 0.910057 0.910265 0.910616 0.911338 0.911943 0.909223 0.909267 0.906845 0.908686 0.905109 0.900716 0.895785 0.896142 0.897810 0.904356 0.906410 0.905237 0.902920 0.896350 0.886866 0.885910 0.873048 0.841028 0.842953 0.846381 0.848768 0.849695 0.849215 0.846394 0.841499 0.831691 0.821958 0.826313 0.827171 0.818922 0.812922 0.813737 0.813334 0.820627 0.824970 0.817299 0.814695 0.814153 0.810054 0.809706 0.810582 0.807632 0.802005 0.804832 0.813036 0.813518 0.799506 0.793662 0.790940 0.775729 0.780247 0.786714 0.790598 0.792124 0.788703 0.776356 0.774204 0.767880 0.778325 0.786959 0.785529 0.780944 0.762055 0.719436 0.707940 0.688205 0.690574 0.691989 0.666238 0.664023 0.665411 0.670312 0.617537 0.600533 0.588073 0.588035 0.595366 0.600272 0.593983 0.563175 0.581373 0.578948 0.563905 0.559873 0.534146 0.518756 0.489509 0.492145 0.490362 0.477268 0.452666 0.447416 0.464638 0.474123 0.470842 0.468252 0.439562 0.419401 0.421815 0.417278 0.418948 0.421367 0.430028 0.379577 0.355617 0.339266 0.366240 0.367708 0.366650 0.379211 0.376387 0.371599 0.349465 0.329969 0.312419 0.325164 0.345235 0.351725 0.355189 0.320071 0.307079 0.286553 0.292003 0.336047 0.323204 0.334179 0.333369 0.338083 0.364621 0.342310 0.319259 0.296346 0.338748 0.332370 0.313691 0.293140 0.303326 0.322645 0.324242 0.319663 0.312273 0.359621 0.384556 0.370297 0.372935 0.339832 0.367657 0.406220 0.396713 0.398101 0.411453 0.411242 0.392858 0.346631 0.327763 0.328971 0.304282 0.301498 0.284846 0.269982 0.261291 0.271294 0.293502 0.299166 0.332617 0.306014 0.270435 0.176599 0.246462 0.165049 0.171401 0.171401 0.171401 0.171401 0.171401 0.171401 0.171401 0.171401 0.196384 0.196384 0.196384 0.196384 0.196384 0.196384 0.196384 0.196384 0.196384 0.196384 0.196384 0.196384 0.196384 0.196384 0.196384 0.196384 0.196384 0.196384 0.196384 0.196384 0.196384
0.000000 0.000000 0.000000 0.000000 0.000000 0.000000 0.000000 0.000000 0.000000 0.000000 0.000000 0.000000 0.000000 0.000000 0.000000 0.000000 0.000000 0.000000 0.000000 0.000000 0.000000 0.000000 0.000000 0.000000 0.000000 0.000000 0.000000 0.000000 0.000000 0.000000 0.000000 0.000000 0.000000 0.000000 0.000000 0.000000 0.000000 0.000000 0.000000 0.000000 0.000000 0.000000 0.000000 0.000000 0.000000 0.000000 0.000000 0.000000 0.000000 0.000000 0.000000 0.000000 0.173422 0.173422 0.173422 0.173422 0.173422 0.173422 0.173422 0.191565 0.191565 0.191565 0.191565 0.191565 0.191565 0.191565 0.191565 0.191565 0.191565 0.191565 0.191565 0.191565 0.191565 0.191565 0.191565 0.191565 0.191565 0.191565 0.191565 0.191565 0.191565 0.191565 0.191565 0.191565 0.191565 0.191565 0.191565 0.191565 0.191565 0.191565 0.191565 0.191565 0.191565 0.191565 0.191565 0.191565 0.191565 0.191565 0.191565 0.191565 0.191565 0.191565 0.191565 0.222222 0.222222 0.222222 0.222222 0.222222 0.222222 0.222222 0.222222 0.222222 0.222222 0.222222 0.222222 0.222222 0.222222 0.222222 0.222222 0.222222 0.222222 0.222222 0.222222 0.222222 0.222222 0.222222 0.222222 0.222222 0.222222 0.222222 0.222222 0.222222 0.222222 0.234082 0.234082 0.234082 0.234082 0.234082 0.234082 0.234082 0.234082 0.234082 0.234082 0.234082 0.234082 0.234082 0.234082 0.234082 0.234082 0.234082 0.234082 0.234082 0.234082 0.234082 0.234082 0.234082 0.234082 0.234082 0.244339 0.244339 0.244339 0.244339 0.244339 0.244339 0.244339 0.244339 0.244339 0.244339 0.244339 0.244339 0.244339 0.244339 0.244339 0.244339 0.244339 0.244339 0.244339 0.244339 0.244339 0.248069 0.248069 0.248069 0.248069 0.248069 0.248069 0.248069 0.248069 0.248069 0.248069 0.248069 0.248069 0.248069 0.248069 0.248069 0.248069 0.248069 0.248069 0.248069 0.256074 0.256074 0.256074 0.256074 0.256074 0.256074 0.256074 0.256074 0.256074 0.256074 0.256074 0.256074 0.256074 0.256074 0.256074 0.256074 0.256074 0.256074 0.256074 0.256074 0.256074 0.256074 0.256074 0.256074 0.256074 0.256074 0.256074 0.256074 0.256074 0.256074 0.256074 0.256074 0.256074 0.256074 0.256074 0.256074 0.256074 0.256074 0.256074 0.256074 0.256074 0.256074 0.256074 0.256074 0.256074 0.256074 0.256074 0.256074 0.256074 0.256074 0.256074 0.256074 0.256074 0.256074 0.256074 0.256074 0.256074 0.256074 0.256074 0.256074 0.256074 0.256074 0.260378 0.260378 0.260378 0.260378 0.260378 0.260378 0.260378 0.260378 0.260378 0.260378 0.260378 0.260378 0.260378 0.256074 0.256074 0.256074 0.256074 0.256074 0.256074 0.256074 0.256074 0.256074 0.256074 0.256074 0.256074 0.256074 0.260378 0.260378 0.260378 0.260378 0.260378 0.260378 0.260378 0.260378 0.260378 0.260378 0.260378 0.260378 0.251976 0.251976 0.251976 0.251976 0.251976 0.251976 0.251976 0.251976 0.251976 0.251976 0.251976 0.251976 0.256074 0.256074 0.256074 0.256074 0.256074 0.256074 0.256074 0.256074 0.256074 0.256074 0.256074 0.251976 0.251976 0.251976 0.251976 0.251976 0.251976 0.251976 0.251976 0.251976 0.251976 0.251976 0.260378 0.260378 0.260378 0.260378 0.260378 0.260378 0.260378 0.260378 0.260378 0.260378 0.244339 0.244339 0.244339 0.244339 0.244339 0.244339 0.244339 0.244339 0.244339 0.244339 0.244339 0.244339 0.244339 0.244339 0.244339 0.244339 0.244339 0.244339 0.244339 0.244339 0.244339
