# Output from CTFFind version 4.1.9, run on 2019-11-02 17:46:13
# Input file: stack16_bm3d_averaged_1_1.0_0_1000_half.mrc ; Number of micrographs: 1
# Pixel size: 3.000 Angstroms ; acceleration voltage: 300.0 keV ; spherical aberration: 0.00 mm ; amplitude contrast: 0.07
# Box size: 512 pixels ; min. res.: 30.0 Angstroms ; max. res.: 5.0 Angstroms ; min. def.: 5000.0 um; max. def. 50000.0 um; num. frames averaged: 1
# 6 lines per micrograph: #1 - spatial frequency (1/Angstroms); #2 - 1D rotational average of spectrum (assuming no astigmatism); #3 - 1D rotational average of spectrum; #4 - CTF fit; #5 - cross-correlation between spectrum and CTF fit; #6 - 2sigma of expected cross correlation of noise
0.000000 0.000651 0.001302 0.001953 0.002604 0.003255 0.003906 0.004557 0.005208 0.005859 0.006510 0.007161 0.007812 0.008464 0.009115 0.009766 0.010417 0.011068 0.011719 0.012370 0.013021 0.013672 0.014323 0.014974 0.015625 0.016276 0.016927 0.017578 0.018229 0.018880 0.019531 0.020182 0.020833 0.021484 0.022135 0.022786 0.023438 0.024089 0.024740 0.025391 0.026042 0.026693 0.027344 0.027995 0.028646 0.029297 0.029948 0.030599 0.031250 0.031901 0.032552 0.033203 0.033854 0.034505 0.035156 0.035807 0.036458 0.037109 0.037760 0.038411 0.039062 0.039714 0.040365 0.041016 0.041667 0.042318 0.042969 0.043620 0.044271 0.044922 0.045573 0.046224 0.046875 0.047526 0.048177 0.048828 0.049479 0.050130 0.050781 0.051432 0.052083 0.052734 0.053385 0.054036 0.054688 0.055339 0.055990 0.056641 0.057292 0.057943 0.058594 0.059245 0.059896 0.060547 0.061198 0.061849 0.062500 0.063151 0.063802 0.064453 0.065104 0.065755 0.066406 0.067057 0.067708 0.068359 0.069010 0.069661 0.070312 0.070964 0.071615 0.072266 0.072917 0.073568 0.074219 0.074870 0.075521 0.076172 0.076823 0.077474 0.078125 0.078776 0.079427 0.080078 0.080729 0.081380 0.082031 0.082682 0.083333 0.083984 0.084635 0.085286 0.085938 0.086589 0.087240 0.087891 0.088542 0.089193 0.089844 0.090495 0.091146 0.091797 0.092448 0.093099 0.093750 0.094401 0.095052 0.095703 0.096354 0.097005 0.097656 0.098307 0.098958 0.099609 0.100260 0.100911 0.101562 0.102214 0.102865 0.103516 0.104167 0.104818 0.105469 0.106120 0.106771 0.107422 0.108073 0.108724 0.109375 0.110026 0.110677 0.111328 0.111979 0.112630 0.113281 0.113932 0.114583 0.115234 0.115885 0.116536 0.117188 0.117839 0.118490 0.119141 0.119792 0.120443 0.121094 0.121745 0.122396 0.123047 0.123698 0.124349 0.125000 0.125651 0.126302 0.126953 0.127604 0.128255 0.128906 0.129557 0.130208 0.130859 0.131510 0.132161 0.132812 0.133464 0.134115 0.134766 0.135417 0.136068 0.136719 0.137370 0.138021 0.138672 0.139323 0.139974 0.140625 0.141276 0.141927 0.142578 0.143229 0.143880 0.144531 0.145182 0.145833 0.146484 0.147135 0.147786 0.148438 0.149089 0.149740 0.150391 0.151042 0.151693 0.152344 0.152995 0.153646 0.154297 0.154948 0.155599 0.156250 0.156901 0.157552 0.158203 0.158854 0.159505 0.160156 0.160807 0.161458 0.162109 0.162760 0.163411 0.164062 0.164714 0.165365 0.166016 0.166667 0.167318 0.167969 0.168620 0.169271 0.169922 0.170573 0.171224 0.171875 0.172526 0.173177 0.173828 0.174479 0.175130 0.175781 0.176432 0.177083 0.177734 0.178385 0.179036 0.179688 0.180339 0.180990 0.181641 0.182292 0.182943 0.183594 0.184245 0.184896 0.185547 0.186198 0.186849 0.187500 0.188151 0.188802 0.189453 0.190104 0.190755 0.191406 0.192057 0.192708 0.193359 0.194010 0.194661 0.195312 0.195964 0.196615 0.197266 0.197917 0.198568 0.199219 0.199870 0.200521 0.201172 0.201823 0.202474 0.203125 0.203776 0.204427 0.205078 0.205729 0.206380 0.207031 0.207682 0.208333 0.208984 0.209635 0.210286 0.210938 0.211589 0.212240 0.212891 0.213542 0.214193 0.214844 0.215495 0.216146 0.216797 0.217448 0.218099 0.218750 0.219401 0.220052 0.220703 0.221354 0.222005 0.222656 0.223307 0.223958 0.224609 0.225260 0.225911 0.226562 0.227214 0.227865 0.228516 0.229167 0.229818 0.230469 0.231120 0.231771 0.232422 0.233073 0.233724 0.234375 0.235026 0.235677
       0.34251        0.34251        0.34251        0.34251        0.34251        0.34251        0.34251        0.34251        0.34251        0.34251        0.34251        0.34251        0.34251        0.34251        0.34251        0.34251        0.34251        0.34251        0.34251        0.34251        0.34251        0.34251        0.34251        0.34251        0.34251        0.34251        0.34251        0.34251        0.34251        0.34251        0.34251        0.34251        0.34251        0.34251        0.34251        0.34251        0.34251        0.34251        0.34251        0.34251        0.34251        0.34251        0.34251        0.34251        0.34251        0.34251        0.34251        0.34251        0.34251        0.34251        0.34251        0.48869        0.70170        0.45548       -0.11138       -0.41318       -0.57192       -0.66176       -0.74523       -0.76227       -0.86934       -0.91469       -0.75976       -0.92530       -0.87203       -1.02485       -1.09713       -0.98900       -0.96234       -0.88408       -0.86006       -0.75029       -0.64136       -0.50063       -0.42395       -0.21931       -0.11775       -0.02310        0.20271        0.24308        0.30827        0.38421        0.43769        0.51524        0.57974        0.59576        0.59034        0.50071        0.54589        0.48550        0.39205        0.32462        0.20592        0.17150        0.10094       -0.06066       -0.11178       -0.09188        0.01057       -0.01759        0.01258        0.02792        0.20823        0.21839        0.39020        0.45630        0.56043        0.69945        0.76077        0.73044        0.70530        0.70143        0.58324        0.54182        0.39936        0.27323        0.19416        0.14516        0.06666        0.02490        0.02283        0.06165        0.07818        0.27226        0.41771        0.50533        0.58827        0.63813        0.70348        0.65953        0.65138        0.67089        0.60858        0.48072        0.28434        0.23547        0.20502        0.12950        0.04459        0.09189        0.11948        0.25021        0.34104        0.41449        0.50104        0.53897        0.66095        0.60865        0.55400        0.50916        0.36357        0.20808        0.21101        0.15264        0.11564        0.12085        0.21465        0.25294        0.35889        0.44211        0.43839        0.56290        0.51016        0.44949        0.45486        0.38213        0.32313        0.27562        0.21601        0.23545        0.21114        0.20901        0.32209        0.45027        0.48622        0.48108        0.55134        0.49605        0.45517        0.39590        0.29450        0.22501        0.23228        0.24425        0.26585        0.27312        0.32519        0.44231        0.49940        0.48674        0.45921        0.41718        0.38828        0.36201        0.24957        0.22520        0.24667        0.29311        0.35450        0.36213        0.39116        0.40971        0.44242        0.37123        0.34771        0.31389        0.30604        0.26700        0.25784        0.30843        0.34598        0.41499        0.41666        0.39599        0.39310        0.40559        0.34767        0.28661        0.29209        0.27852        0.30986        0.35872        0.36781        0.41549        0.35873        0.36580        0.38885        0.34520        0.31487        0.28106        0.29387        0.33909        0.32901        0.32432        0.37427        0.39430        0.33333        0.35152        0.29725        0.30803        0.28735        0.28149        0.30104        0.33072        0.38362        0.36530        0.34694        0.32717        0.28473        0.27642        0.29673        0.28275        0.31377        0.36846        0.39442        0.33663        0.31714        0.30990        0.29874        0.28471        0.27862        0.29958        0.34015        0.33539        0.34309        0.31758        0.34844        0.32212        0.28724        0.31455        0.32170        0.33458        0.33829        0.31870        0.31367        0.30373        0.32875        0.31360        0.33781        0.38902        0.33464        0.36139        0.31895        0.31072        0.28958        0.30990        0.29043        0.30956        0.31715        0.35106        0.36072        0.31313        0.32116        0.31490        0.29485        0.29127        0.28962        0.33078        0.34270        0.35574        0.33513        0.32252        0.26059        0.26492        0.31323        0.34905        0.31913        0.29711        0.28192        0.28728        0.32676        0.30888        0.30719        0.33351        0.34117        0.31134        0.24196        0.28783        0.28586        0.28608        0.32156        0.32348        0.34614        0.34196        0.28100        0.26844        0.29511        0.26890        0.29124        0.27514        0.24771        0.26257        0.25248        0.27909        0.28409        0.27748        0.26578        0.31812        0.32527        0.31260        0.28358        0.29947        0.24207        0.26915        0.25655        0.33114        0.34756        0.22935        0.25332        0.27490        0.24485        0.24693        0.30212        0.23180        0.14174        0.17460        0.23894        0.27081        0.22588        0.13643        0.03801       -0.42057       -0.76785
3.062459 3.024383 2.986551 2.948964 2.911622 2.874525 2.837672 2.801064 2.764700 2.728581 2.692707 2.657078 2.621693 2.586553 2.551658 2.517008 2.482602 2.448441 2.414524 2.380852 2.347425 2.314243 2.281305 2.248612 2.216164 2.183961 2.152002 2.120288 2.088818 2.057593 2.026613 1.995878 1.965387 1.935141 1.905140 1.875384 1.845872 1.816605 1.787582 1.758804 1.730271 1.701983 1.673939 1.646140 1.618586 1.591277 1.564212 1.537392 1.510816 1.484485 1.458399 1.516276 1.703404 1.616687 0.968403 0.684930 0.478139 0.432332 0.323096 0.265951 0.201357 0.021448 0.198411 0.082019 -0.006542 -0.058229 -0.198610 -0.151321 -0.090535 -0.091897 -0.095958 0.011274 0.032406 0.234014 0.150489 0.365524 0.446794 0.478838 0.716940 0.701145 0.710302 0.839613 0.822935 0.854240 0.923844 0.894747 0.940306 0.752893 0.837942 0.841366 0.623982 0.609237 0.458069 0.437339 0.385016 0.210983 0.120851 0.100683 0.207377 0.145547 0.196548 0.111943 0.311287 0.288190 0.458559 0.415275 0.581278 0.643992 0.765199 0.696623 0.663487 0.668069 0.531900 0.505926 0.368359 0.294093 0.118670 0.147265 0.002062 -0.011226 -0.038057 -0.028630 -0.001581 0.033332 0.276572 0.331780 0.388448 0.396479 0.468240 0.520554 0.470776 0.506566 0.400555 0.390884 0.154912 0.069202 0.074052 -0.002546 -0.124431 -0.043122 -0.111699 0.016998 0.137129 0.156753 0.254398 0.257616 0.382848 0.463586 0.353761 0.391392 0.283226 0.126111 0.049550 0.051795 0.015517 0.003541 0.007614 0.108865 0.127964 0.264949 0.237396 0.305132 0.368664 0.241977 0.245700 0.219988 0.131587 0.082878 0.051131 0.026286 0.039983 -0.013594 0.027920 0.186303 0.224416 0.248923 0.283079 0.231549 0.240960 0.147946 0.108221 -0.021144 -0.016217 -0.005429 0.016668 0.009574 0.028390 0.105021 0.190473 0.200552 0.224720 0.137815 0.146906 0.080266 0.058867 -0.059733 -0.015688 -0.005117 0.055144 0.066448 0.076812 0.154797 0.090721 0.163209 0.068839 0.053650 0.046991 0.028920 0.003050 0.007985 0.053763 0.085478 0.131430 0.140757 0.069869 0.130031 0.099196 0.015940 0.009023 0.006813 -0.003215 0.056948 0.060880 0.100667 0.098936 0.067597 0.070857 0.080618 0.034498 0.014048 -0.012416 0.010577 0.059932 0.024234 0.038877 0.081948 0.084037 0.054698 0.033525 0.009906 0.015011 -0.006545 -0.011700 0.014346 0.053751 0.105591 0.060198 0.058256 0.039176 -0.013587 -0.001277 0.015669 0.012191 0.028199 0.105506 0.062628 0.022311 0.043964 0.002814 0.027695 -0.010130 -0.002468 0.023458 0.063694 0.033233 0.045969 0.031456 0.055380 0.025455 -0.005150 0.029851 0.042526 0.042586 0.039411 0.024612 0.000725 -0.008594 0.029262 0.009248 0.048307 0.075690 0.043619 0.026184 0.013479 0.000052 -0.005472 0.008786 0.002828 0.012913 -0.003982 0.080480 0.052502 0.032201 0.038372 0.004014 0.010680 0.006759 -0.004868 0.052123 0.062083 0.083678 0.048566 0.048797 -0.024935 0.011479 0.035423 0.073993 0.034985 0.032332 0.002984 0.005786 0.052000 0.048274 0.035052 0.059025 0.070327 0.053389 -0.024818 0.017140 0.043952 0.020459 0.043048 0.074942 0.076837 0.067103 0.015365 0.005623 0.015400 -0.002049 0.022182 -0.018919 -0.026262 -0.016223 -0.044556 -0.001518 -0.004586 0.008110 -0.075509 0.005485 0.009924 -0.003513 -0.041472 0.020704 -0.096428 -0.022675 -0.043733 0.029224 0.068038 -0.110664 -0.023356 0.035479 0.008845 -0.040584 0.045620 0.029232 -0.009795 -0.043152 0.064968 0.236201 0.198616 0.092979 0.036611 -0.675155
0.072396 0.073046 0.074995 0.078242 0.082788 0.088629 0.095764 0.104190 0.113904 0.124899 0.137169 0.150707 0.165501 0.181540 0.198807 0.217285 0.236952 0.257780 0.279741 0.302798 0.326911 0.352033 0.378110 0.405082 0.432881 0.461430 0.490645 0.520431 0.550685 0.581293 0.612130 0.643061 0.673940 0.704609 0.734899 0.764630 0.793610 0.821635 0.848493 0.873960 0.897803 0.919781 0.939645 0.957141 0.972009 0.983990 0.992821 0.998241 0.999997 0.997839 0.991529 0.980845 0.965577 0.945541 0.920574 0.890545 0.855354 0.814937 0.769275 0.718392 0.662362 0.601313 0.535430 0.464959 0.390206 0.311547 0.229421 0.144336 0.056867 0.032343 0.122589 0.213104 0.303063 0.391594 0.477779 0.560665 0.639275 0.712619 0.779706 0.839560 0.891230 0.933815 0.966472 0.988441 0.999058 0.997777 0.984185 0.958020 0.919188 0.867776 0.804066 0.728544 0.641906 0.545064 0.439145 0.325486 0.205624 0.081285 0.045639 0.173112 0.298980 0.421013 0.536938 0.644483 0.741427 0.825645 0.895163 0.948210 0.983268 0.999125 0.994920 0.970184 0.924880 0.859426 0.774719 0.672138 0.553541 0.421252 0.278026 0.127005 0.028340 0.184281 0.336915 0.482267 0.616386 0.735465 0.835950 0.914664 0.968911 0.996592 0.996293 0.967370 0.910010 0.825269 0.715085 0.582264 0.430431 0.263964 0.087871 0.092331 0.270790 0.441497 0.598496 0.736094 0.849081 0.932945 0.984072 0.999926 0.979199 0.921916 0.829504 0.704796 0.551992 0.376545 0.185002 0.015220 0.216098 0.409326 0.586651 0.740237 0.863026 0.949092 0.993951 0.994836 0.950891 0.863304 0.735332 0.572235 0.381110 0.170624 0.049352 0.268188 0.474990 0.659159 0.810934 0.921955 0.985746 0.998145 0.957621 0.865458 0.725800 0.545538 0.334015 0.102605 0.135869 0.367826 0.579693 0.758716 0.893745 0.975989 0.999627 0.962286 0.865318 0.713851 0.516601 0.285444 0.034752 0.219454 0.460512 0.672212 0.839909 0.951581 0.998754 0.977210 0.887439 0.734767 0.529137 0.284553 0.018193 0.250749 0.502429 0.717815 0.880168 0.976393 0.998174 0.942786 0.813485 0.619454 0.375258 0.099831 0.184913 0.455796 0.690261 0.868288 0.974151 0.997912 0.936450 0.793946 0.581740 0.317568 0.024150 0.272663 0.546160 0.771179 0.926465 0.996772 0.974467 0.860477 0.664461 0.404140 0.103813 0.207814 0.500333 0.744595 0.915672 0.995484 0.974842 0.854637 0.646045 0.369648 0.053539 0.269434 0.565036 0.801292 0.952007 0.999790 0.938203 0.772783 0.520745 0.209370 0.126819 0.449816 0.722396 0.912463 0.996942 0.964729 0.818330 0.573921 0.259754 0.086942 0.424288 0.710775 0.910433 0.997450 0.959689 0.800578 0.539056 0.207555 0.151881 0.492814 0.770405 0.947373 0.999164 0.917538 0.712098 0.409417 0.049823 0.317819 0.642687 0.879056 0.992840 0.966711 0.802970 0.523688 0.167981 0.213266 0.564572 0.833943 0.980662 0.981638 0.835289 0.562286 0.202914 0.188649 0.552372 0.831572 0.981845 0.978344 0.820149 0.530962 0.155861 0.245506 0.608277 0.872861 0.994872 0.952808 0.752137 0.424985 0.025277 0.379895 0.721489 0.940301 0.997438 0.881499 0.611179 0.232616 0.188192 0.576718 0.863109 0.994863 0.946726 0.725878 0.371302 0.052770 0.468245 0.797482 0.977911 0.974157 0.785334 0.445929 0.019888 0.411170 0.763469 0.967438 0.981693 0.801811 0.461936 0.028727 0.411428 0.769507 0.971959 0.976054 0.779307 0.420769 0.026268 0.468983 0.814174 0.988009 0.952101 0.712431 0.318912 0.144599 0.577851
1.000000 1.000000 1.000000 1.000000 1.000000 1.000000 1.000000 1.000000 1.000000 1.000000 1.000000 1.000000 1.000000 1.000000 1.000000 1.000000 1.000000 1.000000 1.000000 1.000000 1.000000 1.000000 1.000000 1.000000 1.000000 1.000000 1.000000 1.000000 1.000000 1.000000 1.000000 1.000000 1.000000 1.000000 1.000000 1.000000 1.000000 1.000000 1.000000 1.000000 1.000000 1.000000 1.000000 1.000000 1.000000 1.000000 1.000000 1.000000 1.000000 1.000000 1.000000 1.000000 0.933054 0.933054 0.933054 0.933054 0.933054 0.933054 0.933054 0.933054 0.933054 0.933054 0.933054 0.933054 0.933054 0.933054 0.933054 0.933054 0.933054 0.933054 0.933054 0.933054 0.933054 0.933054 0.933054 0.933054 0.933054 0.933054 0.933054 0.933054 0.933054 0.933054 0.933054 0.933054 0.933054 0.922391 0.923878 0.926853 0.927926 0.927885 0.927428 0.927111 0.927330 0.929045 0.931366 0.947981 0.950160 0.950732 0.952023 0.952264 0.954783 0.953033 0.952850 0.963406 0.962222 0.962934 0.955985 0.957564 0.956651 0.955723 0.956229 0.956473 0.954542 0.952396 0.950708 0.950071 0.949697 0.951464 0.951941 0.951905 0.953377 0.953342 0.953066 0.949710 0.948282 0.949752 0.951790 0.950937 0.956647 0.956478 0.964517 0.965308 0.963901 0.963804 0.964002 0.964199 0.955008 0.949026 0.943824 0.932094 0.923048 0.920814 0.923657 0.925411 0.924332 0.919664 0.918626 0.916217 0.911085 0.910237 0.909834 0.911376 0.907236 0.903641 0.887193 0.886465 0.889053 0.888714 0.886557 0.878095 0.873176 0.873869 0.876896 0.874496 0.870999 0.887052 0.881735 0.886686 0.889727 0.892893 0.896811 0.893204 0.892068 0.888387 0.884739 0.879192 0.880534 0.871113 0.873865 0.869042 0.860138 0.853261 0.856270 0.865471 0.873533 0.881718 0.880814 0.880912 0.880109 0.871753 0.872754 0.863612 0.864494 0.869641 0.875460 0.871814 0.869202 0.873745 0.871867 0.873444 0.876194 0.872690 0.870860 0.862016 0.862336 0.864097 0.880747 0.880975 0.869102 0.860546 0.850720 0.857655 0.860988 0.860249 0.862062 0.852664 0.854260 0.844245 0.832662 0.834687 0.839495 0.833781 0.835003 0.833110 0.836767 0.839253 0.837670 0.833066 0.831895 0.836462 0.811844 0.818514 0.821131 0.815706 0.819945 0.812398 0.805858 0.800598 0.799971 0.795382 0.806375 0.804627 0.771935 0.764278 0.772027 0.754347 0.745143 0.741584 0.742812 0.721426 0.702872 0.673054 0.667733 0.653362 0.653913 0.653133 0.644482 0.629151 0.615751 0.606493 0.621586 0.624916 0.592675 0.592620 0.586212 0.581402 0.576589 0.575534 0.572681 0.579439 0.584129 0.548788 0.544161 0.551495 0.525753 0.523897 0.521778 0.512692 0.484452 0.490718 0.486769 0.506480 0.534076 0.495439 0.489479 0.501010 0.515752 0.527636 0.527568 0.513438 0.492998 0.506099 0.480101 0.461431 0.477052 0.485188 0.475746 0.491462 0.482764 0.512884 0.504830 0.483635 0.509468 0.520688 0.518706 0.519781 0.534140 0.524772 0.528037 0.518723 0.472694 0.482755 0.465015 0.408061 0.405455 0.423519 0.410610 0.409905 0.383789 0.385644 0.361817 0.329442 0.336062 0.330631 0.295245 0.257598 0.260929 0.262854 0.230628 0.202081 0.223552 0.173935 0.166518 0.186292 0.194941 0.186008 0.184522 0.206422 0.206422 0.206422 0.206422 0.206422 0.206422 0.206422 0.206422 0.206422 0.206422 0.206422 0.206422 0.206422 0.206422 0.231819 0.231819 0.231819 0.231819 0.231819 0.231819 0.231819 0.231819 0.231819 0.231819 0.231819 0.231819
0.000000 0.000000 0.000000 0.000000 0.000000 0.000000 0.000000 0.000000 0.000000 0.000000 0.000000 0.000000 0.000000 0.000000 0.000000 0.000000 0.000000 0.000000 0.000000 0.000000 0.000000 0.000000 0.000000 0.000000 0.000000 0.000000 0.000000 0.000000 0.000000 0.000000 0.000000 0.000000 0.000000 0.000000 0.000000 0.000000 0.000000 0.000000 0.000000 0.000000 0.000000 0.000000 0.000000 0.000000 0.000000 0.000000 0.000000 0.000000 0.000000 0.000000 0.000000 0.000000 0.209657 0.209657 0.209657 0.209657 0.209657 0.209657 0.209657 0.209657 0.209657 0.209657 0.209657 0.209657 0.209657 0.209657 0.209657 0.209657 0.209657 0.209657 0.209657 0.209657 0.209657 0.209657 0.209657 0.209657 0.209657 0.209657 0.209657 0.209657 0.209657 0.209657 0.209657 0.209657 0.209657 0.244339 0.244339 0.244339 0.244339 0.244339 0.244339 0.244339 0.244339 0.244339 0.244339 0.244339 0.244339 0.244339 0.244339 0.244339 0.244339 0.244339 0.244339 0.244339 0.244339 0.244339 0.244339 0.244339 0.244339 0.244339 0.260378 0.260378 0.260378 0.260378 0.260378 0.260378 0.260378 0.260378 0.260378 0.260378 0.260378 0.260378 0.260378 0.260378 0.260378 0.260378 0.260378 0.260378 0.260378 0.260378 0.269680 0.269680 0.269680 0.269680 0.269680 0.269680 0.269680 0.269680 0.269680 0.269680 0.269680 0.269680 0.269680 0.269680 0.269680 0.269680 0.269680 0.269680 0.269680 0.269680 0.269680 0.269680 0.269680 0.269680 0.269680 0.269680 0.269680 0.269680 0.269680 0.269680 0.269680 0.269680 0.269680 0.280056 0.280056 0.280056 0.280056 0.280056 0.280056 0.280056 0.280056 0.280056 0.280056 0.280056 0.280056 0.280056 0.280056 0.280056 0.280056 0.280056 0.280056 0.280056 0.280056 0.280056 0.280056 0.280056 0.280056 0.280056 0.280056 0.280056 0.274721 0.274721 0.274721 0.274721 0.274721 0.274721 0.274721 0.274721 0.274721 0.274721 0.274721 0.274721 0.274721 0.285714 0.285714 0.285714 0.285714 0.285714 0.285714 0.285714 0.285714 0.285714 0.285714 0.285714 0.280056 0.280056 0.280056 0.280056 0.280056 0.280056 0.280056 0.280056 0.280056 0.280056 0.280056 0.274721 0.274721 0.274721 0.274721 0.274721 0.274721 0.274721 0.274721 0.274721 0.274721 0.274721 0.280056 0.280056 0.280056 0.280056 0.280056 0.280056 0.280056 0.280056 0.280056 0.280056 0.285714 0.285714 0.285714 0.285714 0.285714 0.285714 0.285714 0.285714 0.285714 0.269680 0.269680 0.269680 0.269680 0.269680 0.269680 0.269680 0.269680 0.269680 0.269680 0.274721 0.274721 0.274721 0.274721 0.274721 0.274721 0.274721 0.274721 0.274721 0.285714 0.285714 0.285714 0.285714 0.285714 0.285714 0.285714 0.285714 0.264906 0.264906 0.264906 0.264906 0.264906 0.264906 0.264906 0.264906 0.264906 0.274721 0.274721 0.274721 0.274721 0.274721 0.274721 0.274721 0.274721 0.269680 0.269680 0.269680 0.269680 0.269680 0.269680 0.269680 0.269680 0.269680 0.269680 0.269680 0.269680 0.269680 0.269680 0.269680 0.269680 0.280056 0.280056 0.280056 0.280056 0.280056 0.280056 0.280056 0.260378 0.260378 0.260378 0.260378 0.260378 0.260378 0.260378 0.260378 0.269680 0.269680 0.269680 0.269680 0.269680 0.269680 0.269680 0.264906 0.264906 0.264906 0.264906 0.264906 0.264906 0.264906 0.264906 0.264906 0.264906 0.264906 0.264906 0.264906 0.264906 0.260378 0.260378 0.260378 0.260378 0.260378 0.260378 0.260378 0.260378 0.260378 0.260378 0.260378 0.260378
