# Output from CTFFind version 4.1.9, run on 2019-11-02 17:43:27
# Input file: stack11_bm3d_averaged_1_0.75_0_50_half.mrc ; Number of micrographs: 1
# Pixel size: 3.000 Angstroms ; acceleration voltage: 300.0 keV ; spherical aberration: 0.00 mm ; amplitude contrast: 0.07
# Box size: 512 pixels ; min. res.: 30.0 Angstroms ; max. res.: 5.0 Angstroms ; min. def.: 5000.0 um; max. def. 50000.0 um; num. frames averaged: 1
# 6 lines per micrograph: #1 - spatial frequency (1/Angstroms); #2 - 1D rotational average of spectrum (assuming no astigmatism); #3 - 1D rotational average of spectrum; #4 - CTF fit; #5 - cross-correlation between spectrum and CTF fit; #6 - 2sigma of expected cross correlation of noise
0.000000 0.000651 0.001302 0.001953 0.002604 0.003255 0.003906 0.004557 0.005208 0.005859 0.006510 0.007161 0.007812 0.008464 0.009115 0.009766 0.010417 0.011068 0.011719 0.012370 0.013021 0.013672 0.014323 0.014974 0.015625 0.016276 0.016927 0.017578 0.018229 0.018880 0.019531 0.020182 0.020833 0.021484 0.022135 0.022786 0.023438 0.024089 0.024740 0.025391 0.026042 0.026693 0.027344 0.027995 0.028646 0.029297 0.029948 0.030599 0.031250 0.031901 0.032552 0.033203 0.033854 0.034505 0.035156 0.035807 0.036458 0.037109 0.037760 0.038411 0.039062 0.039714 0.040365 0.041016 0.041667 0.042318 0.042969 0.043620 0.044271 0.044922 0.045573 0.046224 0.046875 0.047526 0.048177 0.048828 0.049479 0.050130 0.050781 0.051432 0.052083 0.052734 0.053385 0.054036 0.054688 0.055339 0.055990 0.056641 0.057292 0.057943 0.058594 0.059245 0.059896 0.060547 0.061198 0.061849 0.062500 0.063151 0.063802 0.064453 0.065104 0.065755 0.066406 0.067057 0.067708 0.068359 0.069010 0.069661 0.070312 0.070964 0.071615 0.072266 0.072917 0.073568 0.074219 0.074870 0.075521 0.076172 0.076823 0.077474 0.078125 0.078776 0.079427 0.080078 0.080729 0.081380 0.082031 0.082682 0.083333 0.083984 0.084635 0.085286 0.085938 0.086589 0.087240 0.087891 0.088542 0.089193 0.089844 0.090495 0.091146 0.091797 0.092448 0.093099 0.093750 0.094401 0.095052 0.095703 0.096354 0.097005 0.097656 0.098307 0.098958 0.099609 0.100260 0.100911 0.101562 0.102214 0.102865 0.103516 0.104167 0.104818 0.105469 0.106120 0.106771 0.107422 0.108073 0.108724 0.109375 0.110026 0.110677 0.111328 0.111979 0.112630 0.113281 0.113932 0.114583 0.115234 0.115885 0.116536 0.117188 0.117839 0.118490 0.119141 0.119792 0.120443 0.121094 0.121745 0.122396 0.123047 0.123698 0.124349 0.125000 0.125651 0.126302 0.126953 0.127604 0.128255 0.128906 0.129557 0.130208 0.130859 0.131510 0.132161 0.132812 0.133464 0.134115 0.134766 0.135417 0.136068 0.136719 0.137370 0.138021 0.138672 0.139323 0.139974 0.140625 0.141276 0.141927 0.142578 0.143229 0.143880 0.144531 0.145182 0.145833 0.146484 0.147135 0.147786 0.148438 0.149089 0.149740 0.150391 0.151042 0.151693 0.152344 0.152995 0.153646 0.154297 0.154948 0.155599 0.156250 0.156901 0.157552 0.158203 0.158854 0.159505 0.160156 0.160807 0.161458 0.162109 0.162760 0.163411 0.164062 0.164714 0.165365 0.166016 0.166667 0.167318 0.167969 0.168620 0.169271 0.169922 0.170573 0.171224 0.171875 0.172526 0.173177 0.173828 0.174479 0.175130 0.175781 0.176432 0.177083 0.177734 0.178385 0.179036 0.179688 0.180339 0.180990 0.181641 0.182292 0.182943 0.183594 0.184245 0.184896 0.185547 0.186198 0.186849 0.187500 0.188151 0.188802 0.189453 0.190104 0.190755 0.191406 0.192057 0.192708 0.193359 0.194010 0.194661 0.195312 0.195964 0.196615 0.197266 0.197917 0.198568 0.199219 0.199870 0.200521 0.201172 0.201823 0.202474 0.203125 0.203776 0.204427 0.205078 0.205729 0.206380 0.207031 0.207682 0.208333 0.208984 0.209635 0.210286 0.210938 0.211589 0.212240 0.212891 0.213542 0.214193 0.214844 0.215495 0.216146 0.216797 0.217448 0.218099 0.218750 0.219401 0.220052 0.220703 0.221354 0.222005 0.222656 0.223307 0.223958 0.224609 0.225260 0.225911 0.226562 0.227214 0.227865 0.228516 0.229167 0.229818 0.230469 0.231120 0.231771 0.232422 0.233073 0.233724 0.234375 0.235026 0.235677
       0.31905        0.31905        0.31905        0.31905        0.31905        0.31905        0.31905        0.31905        0.31905        0.31905        0.31905        0.31905        0.31905        0.31905        0.31905        0.31905        0.31905        0.31905        0.31905        0.31905        0.31905        0.31905        0.31905        0.31905        0.31905        0.31905        0.31905        0.31905        0.31905        0.31905        0.31905        0.31905        0.31905        0.31905        0.31905        0.31905        0.31905        0.31905        0.31905        0.31905        0.31905        0.31905        0.31905        0.31905        0.31905        0.31905        0.31905        0.31905        0.31905        0.31905        0.31905        0.68596        0.87054        0.52452        0.09149       -0.05916       -0.42010       -0.20435       -0.29347       -0.11410       -0.07200       -0.11621       -0.06443       -0.20459       -0.23044       -0.25429       -0.32454       -0.33531       -0.48338       -0.37854       -0.46405       -0.44669       -0.41808       -0.46622       -0.53855       -0.55695       -0.58390       -0.62120       -0.57397       -0.41358       -0.37671       -0.32466       -0.30961       -0.21340       -0.19969        0.01927        0.07812        0.11212        0.22915        0.37348        0.44300        0.51314        0.55971        0.55698        0.56766        0.69942        0.81319        0.73724        0.73357        0.66697        0.58165        0.48448        0.41127        0.49572        0.38014        0.21235        0.07837        0.05507        0.01799       -0.05913       -0.03384       -0.01842       -0.06860       -0.00903       -0.01395        0.21424        0.25065        0.28854        0.42962        0.46064        0.40784        0.54352        0.63095        0.70160        0.76128        0.68889        0.65031        0.69850        0.58700        0.50413        0.42138        0.28776        0.18727        0.15703        0.10455        0.04407        0.01599        0.00239        0.07781        0.13242        0.20921        0.28576        0.39887        0.42296        0.51440        0.60778        0.63325        0.62434        0.63213        0.55877        0.44969        0.45085        0.35437        0.23160        0.17580        0.14935        0.11713        0.12156        0.07157        0.10240        0.23392        0.26486        0.34786        0.35766        0.45122        0.51404        0.54059        0.55252        0.47274        0.43662        0.39462        0.36626        0.30540        0.25294        0.20186        0.19021        0.16388        0.19052        0.18170        0.27365        0.33450        0.37239        0.43096        0.46158        0.48080        0.44270        0.39474        0.42098        0.37192        0.29033        0.26935        0.22369        0.21644        0.19628        0.21919        0.23181        0.32999        0.37577        0.36836        0.46047        0.44064        0.43788        0.43229        0.39786        0.34598        0.32628        0.27610        0.24579        0.23970        0.27532        0.27336        0.30367        0.30880        0.34100        0.32950        0.41005        0.42312        0.37701        0.34666        0.37234        0.28444        0.28373        0.26092        0.28438        0.26332        0.27735        0.28802        0.31030        0.35258        0.36552        0.36323        0.34018        0.35552        0.28463        0.31779        0.26779        0.24710        0.29122        0.28312        0.31116        0.31172        0.33157        0.33458        0.31620        0.31510        0.28591        0.29538        0.26838        0.28004        0.25884        0.30803        0.28588        0.27210        0.30809        0.31636        0.32649        0.28651        0.30512        0.28961        0.25390        0.24670        0.22448        0.28300        0.27602        0.32305        0.31512        0.31886        0.32009        0.31222        0.27775        0.29055        0.32947        0.27161        0.26244        0.29910        0.29388        0.33521        0.33248        0.35339        0.33215        0.31024        0.28119        0.27090        0.25822        0.22992        0.27838        0.30557        0.29551        0.28314        0.29524        0.27850        0.32749        0.31688        0.24920        0.21789        0.28107        0.32911        0.27567        0.31237        0.32616        0.32700        0.31131        0.32217        0.34181        0.30708        0.29820        0.26263        0.28795        0.36043        0.35547        0.26211        0.26628        0.25777        0.29493        0.22380        0.29134        0.22550        0.25083        0.33259        0.32437        0.34436        0.29719        0.24986        0.24422        0.24675        0.23690        0.19991        0.23325        0.26386        0.30990        0.26554        0.31100        0.31422        0.27964        0.27031        0.21190        0.16899        0.19492        0.23383        0.21089        0.21134        0.22917        0.19783        0.23980        0.33956        0.30705        0.32223        0.23960        0.23238        0.22368        0.29244        0.30203        0.13323        0.20339        0.22522        0.11757        0.20157        0.11409        0.15121        0.16966        0.08032       -0.11258       -0.54549
2.601305 2.574065 2.546974 2.520030 2.493234 2.466587 2.440087 2.413736 2.387532 2.361477 2.335569 2.309810 2.284198 2.258735 2.233420 2.208252 2.183233 2.158362 2.133638 2.109063 2.084636 2.060357 2.036225 2.012242 1.988407 1.964720 1.941181 1.917790 1.894547 1.871452 1.848505 1.825706 1.803055 1.780552 1.758197 1.735990 1.713931 1.692020 1.670258 1.648643 1.627176 1.605857 1.584687 1.563664 1.542789 1.522063 1.501484 1.481054 1.460771 1.440636 1.420650 1.641036 2.049442 1.621717 1.136107 0.992160 0.427781 0.813327 0.565949 0.836140 0.779191 0.790812 0.754847 0.710793 0.567804 0.518182 0.489574 0.443872 0.210055 0.383698 0.201851 0.305735 0.240289 0.181031 0.132066 0.009412 0.042108 -0.015156 -0.056125 0.104139 0.207126 0.195964 0.158465 0.326047 0.194896 0.492055 0.581234 0.554264 0.596701 0.874907 0.809358 0.940127 0.886226 0.973080 0.942333 1.076287 1.139531 1.072779 1.118410 0.944627 0.943257 0.779385 0.652435 0.769836 0.706864 0.468070 0.307150 0.251325 0.220223 0.146859 0.088606 0.127622 0.070654 0.140713 0.056415 0.260219 0.376153 0.349627 0.476959 0.573104 0.462092 0.553820 0.697760 0.743893 0.777371 0.726759 0.717480 0.709167 0.626186 0.567469 0.423104 0.285265 0.198946 0.074970 0.123516 -0.049003 -0.028390 -0.081896 -0.042872 -0.000509 0.143319 0.090757 0.292624 0.278984 0.362905 0.459525 0.519025 0.513429 0.514632 0.510026 0.331689 0.307163 0.276554 0.101451 0.040395 -0.017954 -0.025947 -0.044936 -0.093825 -0.109506 -0.007825 0.059572 0.128473 0.146145 0.226192 0.326318 0.310322 0.425475 0.391275 0.280000 0.235046 0.242084 0.193212 0.105333 0.072059 0.012019 0.003957 0.001678 -0.021461 0.063172 0.144246 0.145160 0.233918 0.252982 0.308949 0.248522 0.220442 0.190317 0.211151 0.142771 0.044884 0.033440 -0.009605 -0.009782 -0.032256 0.021338 0.014819 0.170798 0.130229 0.175845 0.239968 0.195187 0.185447 0.199641 0.139882 0.096785 0.058149 0.046640 -0.031899 0.006005 0.026982 0.052395 0.053076 0.082674 0.093253 0.118119 0.144230 0.194623 0.081315 0.100639 0.077246 0.008110 0.007968 0.007922 0.001048 0.020243 0.000219 0.024357 0.069015 0.085493 0.127571 0.053140 0.111693 0.055344 0.010236 0.059260 -0.034751 -0.009029 0.031683 -0.000579 0.061293 0.049853 0.054978 0.070225 0.053131 0.041747 0.023166 0.011504 0.015515 0.005760 -0.015716 0.072757 -0.011282 0.016346 0.057149 0.053654 0.047800 0.044570 0.041701 0.018421 -0.010573 -0.039179 -0.009881 0.022823 0.027590 0.075318 0.057618 0.063901 0.081661 0.068061 0.031472 0.069483 0.086653 0.018359 0.019716 0.068655 0.049948 0.096649 0.108308 0.095205 0.117104 0.065900 0.035435 0.034205 -0.001208 0.002436 0.053880 0.076031 0.041150 0.035318 0.031809 0.026233 0.092610 0.045569 -0.048194 -0.049652 0.033632 0.086227 0.005927 0.026065 0.069606 0.078056 0.038841 0.051022 0.081044 0.039076 0.043691 -0.039913 0.025560 0.117354 0.071233 -0.055970 -0.026007 -0.047058 0.041872 -0.110063 0.030101 -0.097808 -0.034250 0.051868 0.043326 0.021010 -0.038057 -0.051456 -0.072128 -0.078054 -0.062668 -0.094530 -0.092758 -0.028957 0.048244 -0.032327 0.055196 0.009310 -0.035275 0.046817 -0.097130 -0.096070 -0.077395 0.006429 -0.030508 -0.048199 0.019462 -0.001216 0.015502 0.202440 0.004832 0.177305 0.051730 0.236630 0.247203 0.331521 0.287607 0.098204 0.206045 0.268330 0.054200 0.221510 0.121078 0.128757 0.234584 0.081644 -0.565711
0.072396 0.072899 0.074406 0.076918 0.080434 0.084952 0.090473 0.096994 0.104513 0.113027 0.122533 0.133026 0.144502 0.156953 0.170373 0.184751 0.200077 0.216339 0.233520 0.251605 0.270572 0.290398 0.311059 0.332524 0.354761 0.377732 0.401396 0.425707 0.450614 0.476061 0.501988 0.528327 0.555005 0.581944 0.609058 0.636257 0.663440 0.690504 0.717337 0.743819 0.769826 0.795224 0.819876 0.843635 0.866352 0.887868 0.908022 0.926647 0.943572 0.958623 0.971624 0.982397 0.990764 0.996548 0.999574 0.999669 0.996670 0.990415 0.980755 0.967549 0.950670 0.930005 0.905458 0.876951 0.844428 0.807855 0.767225 0.722558 0.673904 0.621344 0.564994 0.505005 0.441565 0.374900 0.305275 0.232997 0.158412 0.081906 0.003906 0.075123 0.154677 0.234219 0.313178 0.390953 0.466920 0.540432 0.610826 0.677430 0.739570 0.796574 0.847783 0.892556 0.930282 0.960387 0.982343 0.995681 0.999995 0.994955 0.980317 0.955929 0.921742 0.877815 0.824323 0.761564 0.689959 0.610059 0.522542 0.428215 0.328010 0.222977 0.114281 0.003187 0.108947 0.220691 0.330553 0.437003 0.538491 0.633474 0.720437 0.797921 0.864548 0.919052 0.960306 0.987344 0.999394 0.995896 0.976529 0.941226 0.890193 0.823916 0.743172 0.649025 0.542826 0.426199 0.301025 0.169419 0.033699 0.103651 0.240020 0.372725 0.499056 0.616336 0.721982 0.813561 0.888858 0.945930 0.983168 0.999348 0.993678 0.965837 0.916007 0.844892 0.753721 0.644249 0.518734 0.379902 0.230900 0.075236 0.083298 0.240718 0.392937 0.535879 0.665588 0.778343 0.870772 0.939965 0.983573 0.999906 0.988005 0.947705 0.879671 0.785417 0.667287 0.528424 0.372701 0.204630 0.029241 0.148056 0.321637 0.485837 0.635141 0.764373 0.868889 0.944755 0.988913 0.999321 0.975066 0.916441 0.824977 0.703439 0.555759 0.386950 0.202940 0.010389 0.183541 0.371453 0.545987 0.700120 0.827462 0.922531 0.981012 0.999977 0.978055 0.915547 0.814467 0.678522 0.513003 0.324614 0.121219 0.088457 0.295207 0.489731 0.663057 0.806978 0.914450 0.979965 0.999862 0.972564 0.898722 0.781259 0.625291 0.437952 0.228103 0.005929 0.217524 0.430901 0.623110 0.783912 0.904489 0.977953 0.999782 0.968131 0.884018 0.751355 0.576820 0.369564 0.140772 0.096911 0.330070 0.545259 0.729799 0.872533 0.964543 0.999742 0.975322 0.892026 0.754199 0.569626 0.349148 0.106063 0.144632 0.387164 0.605963 0.786673 0.917137 0.988239 0.994603 0.935051 0.812797 0.635351 0.414124 0.163750 0.098844 0.355556 0.588352 0.780547 0.918025 0.990328 0.991517 0.920711 0.782293 0.585725 0.344963 0.077543 0.196677 0.456950 0.683223 0.857699 0.966288 0.999795 0.954785 0.833986 0.646237 0.405921 0.131937 0.153739 0.427775 0.667405 0.852325 0.966472 0.999487 0.947731 0.814764 0.611211 0.354003 0.065053 0.230564 0.506758 0.738735 0.905252 0.990625 0.986294 0.891768 0.714863 0.471166 0.182752 0.123729 0.419494 0.676307 0.869205 0.978992 0.994224 0.912515 0.740962 0.495674 0.200343 0.115940 0.421517 0.685318 0.880054 0.985093 0.988761 0.889740 0.697436 0.431219 0.118587 0.207596 0.512515 0.763111 0.931719 0.999214 0.957277 0.809559 0.571526 0.268963 0.064690 0.391994 0.675666 0.882872 0.989103 0.981178 0.859029 0.635970 0.337396 0.001974 0.342055 0.642107 0.865620 0.984856 0.984392 0.863275 0.635415 0.328164 0.020829 0.368159 0.670021 0.887758 0.992913 0.971075 0.824012 0.569753 0.240571 0.121006
1.000000 1.000000 1.000000 1.000000 1.000000 1.000000 1.000000 1.000000 1.000000 1.000000 1.000000 1.000000 1.000000 1.000000 1.000000 1.000000 1.000000 1.000000 1.000000 1.000000 1.000000 1.000000 1.000000 1.000000 1.000000 1.000000 1.000000 1.000000 1.000000 1.000000 1.000000 1.000000 1.000000 1.000000 1.000000 1.000000 1.000000 1.000000 1.000000 1.000000 1.000000 1.000000 1.000000 1.000000 1.000000 1.000000 1.000000 1.000000 1.000000 1.000000 1.000000 1.000000 0.931720 0.931720 0.931720 0.922073 0.922073 0.922073 0.922073 0.922073 0.922073 0.922073 0.922073 0.922073 0.922073 0.922073 0.922073 0.922073 0.922073 0.922073 0.922073 0.922073 0.922073 0.922073 0.922073 0.922073 0.922073 0.922073 0.922073 0.922073 0.922073 0.922073 0.922073 0.922073 0.922073 0.922073 0.922073 0.922073 0.922073 0.922073 0.922073 0.922073 0.922073 0.922073 0.922073 0.922073 0.947270 0.948543 0.956460 0.956294 0.955770 0.953648 0.952686 0.951558 0.951091 0.951382 0.952024 0.952905 0.964665 0.965704 0.967255 0.968086 0.968809 0.969465 0.969305 0.970032 0.969257 0.968712 0.968213 0.964284 0.964882 0.965450 0.965585 0.966618 0.966503 0.968495 0.968641 0.968052 0.967178 0.966442 0.965730 0.965310 0.965036 0.965537 0.965831 0.967130 0.970295 0.969741 0.969430 0.969588 0.969692 0.969877 0.970317 0.972006 0.968330 0.968950 0.967322 0.967774 0.969333 0.969225 0.969009 0.970364 0.970723 0.971097 0.968806 0.964609 0.959119 0.957944 0.955045 0.946006 0.943870 0.944653 0.946775 0.947122 0.946005 0.938385 0.939004 0.932748 0.934028 0.937336 0.932222 0.931284 0.932410 0.931237 0.929425 0.928853 0.926064 0.922581 0.920625 0.920452 0.923562 0.924496 0.925658 0.925300 0.919644 0.911510 0.897517 0.893631 0.888471 0.891715 0.879594 0.878971 0.878926 0.874954 0.878739 0.880687 0.881712 0.877595 0.856939 0.833851 0.824596 0.828904 0.834735 0.831328 0.829819 0.822974 0.835418 0.818842 0.831859 0.836255 0.834102 0.834322 0.833360 0.829973 0.823948 0.823591 0.825641 0.826839 0.826056 0.827025 0.822425 0.812443 0.815684 0.752465 0.739184 0.735429 0.741021 0.747205 0.749919 0.748880 0.756383 0.761167 0.752259 0.736555 0.729593 0.721596 0.726837 0.731106 0.735618 0.725497 0.705420 0.697446 0.659767 0.676875 0.701255 0.655691 0.680416 0.691687 0.684135 0.682711 0.675418 0.668686 0.661025 0.664299 0.676943 0.695962 0.715588 0.741384 0.737570 0.728682 0.726343 0.710219 0.704239 0.699889 0.706724 0.689404 0.685654 0.704273 0.704731 0.691281 0.673389 0.658617 0.649135 0.647683 0.652790 0.645647 0.643136 0.625262 0.596260 0.587080 0.623815 0.639465 0.657606 0.627431 0.613541 0.601873 0.574742 0.589372 0.538672 0.538584 0.561942 0.569022 0.545440 0.533087 0.542392 0.556876 0.563907 0.555423 0.526532 0.512006 0.525017 0.554145 0.545616 0.521940 0.530535 0.527291 0.520943 0.453840 0.452840 0.422480 0.392955 0.346356 0.321933 0.316557 0.300187 0.293929 0.261408 0.257382 0.269800 0.278851 0.283942 0.283392 0.263435 0.275445 0.272515 0.259357 0.199131 0.189335 0.181510 0.171107 0.171354 0.151964 0.172933 0.230239 0.231907 0.231907 0.231907 0.231907 0.231907 0.231907 0.241351 0.241351 0.241351 0.241351 0.241351 0.241351 0.241351 0.241351 0.241351 0.251406 0.251406 0.251406 0.251406 0.251406 0.251406 0.251406 0.251406 0.251406 0.251406 0.251406 0.251406 0.251406 0.251406
0.000000 0.000000 0.000000 0.000000 0.000000 0.000000 0.000000 0.000000 0.000000 0.000000 0.000000 0.000000 0.000000 0.000000 0.000000 0.000000 0.000000 0.000000 0.000000 0.000000 0.000000 0.000000 0.000000 0.000000 0.000000 0.000000 0.000000 0.000000 0.000000 0.000000 0.000000 0.000000 0.000000 0.000000 0.000000 0.000000 0.000000 0.000000 0.000000 0.000000 0.000000 0.000000 0.000000 0.000000 0.000000 0.000000 0.000000 0.000000 0.000000 0.000000 0.000000 0.000000 0.180334 0.180334 0.180334 0.199007 0.199007 0.199007 0.199007 0.199007 0.199007 0.199007 0.199007 0.199007 0.199007 0.199007 0.199007 0.199007 0.199007 0.199007 0.199007 0.199007 0.199007 0.199007 0.199007 0.199007 0.199007 0.199007 0.199007 0.199007 0.199007 0.199007 0.199007 0.199007 0.199007 0.199007 0.199007 0.199007 0.199007 0.199007 0.199007 0.199007 0.199007 0.199007 0.199007 0.199007 0.225018 0.225018 0.225018 0.225018 0.225018 0.225018 0.225018 0.225018 0.225018 0.225018 0.225018 0.225018 0.225018 0.225018 0.225018 0.225018 0.225018 0.225018 0.225018 0.225018 0.225018 0.225018 0.225018 0.225018 0.225018 0.225018 0.225018 0.225018 0.225018 0.244339 0.244339 0.244339 0.244339 0.244339 0.244339 0.244339 0.244339 0.244339 0.244339 0.244339 0.244339 0.244339 0.244339 0.244339 0.244339 0.244339 0.244339 0.244339 0.244339 0.244339 0.244339 0.244339 0.251976 0.251976 0.251976 0.251976 0.251976 0.251976 0.251976 0.251976 0.251976 0.251976 0.251976 0.251976 0.251976 0.251976 0.251976 0.251976 0.251976 0.251976 0.251976 0.251976 0.264906 0.264906 0.264906 0.264906 0.264906 0.264906 0.264906 0.264906 0.264906 0.264906 0.264906 0.264906 0.264906 0.264906 0.264906 0.264906 0.264906 0.264906 0.264906 0.264906 0.264906 0.264906 0.264906 0.264906 0.264906 0.264906 0.264906 0.264906 0.264906 0.264906 0.264906 0.264906 0.264906 0.264906 0.264906 0.264906 0.264906 0.264906 0.264906 0.264906 0.264906 0.264906 0.264906 0.264906 0.264906 0.264906 0.264906 0.264906 0.264906 0.264906 0.264906 0.264906 0.264906 0.264906 0.264906 0.264906 0.264906 0.264906 0.264906 0.264906 0.264906 0.264906 0.256074 0.256074 0.256074 0.256074 0.256074 0.256074 0.256074 0.256074 0.256074 0.256074 0.256074 0.256074 0.256074 0.256074 0.269680 0.269680 0.269680 0.269680 0.269680 0.269680 0.269680 0.269680 0.269680 0.269680 0.269680 0.269680 0.264906 0.264906 0.264906 0.264906 0.264906 0.264906 0.264906 0.264906 0.264906 0.264906 0.264906 0.264906 0.269680 0.269680 0.269680 0.269680 0.269680 0.269680 0.269680 0.269680 0.269680 0.269680 0.269680 0.264906 0.264906 0.264906 0.264906 0.264906 0.264906 0.264906 0.264906 0.264906 0.264906 0.264906 0.256074 0.256074 0.256074 0.256074 0.256074 0.256074 0.256074 0.256074 0.256074 0.256074 0.256074 0.264906 0.264906 0.264906 0.264906 0.264906 0.264906 0.264906 0.264906 0.264906 0.264906 0.260378 0.260378 0.260378 0.260378 0.260378 0.260378 0.260378 0.260378 0.260378 0.260378 0.256074 0.256074 0.256074 0.256074 0.256074 0.256074 0.256074 0.256074 0.256074 0.256074 0.260378 0.260378 0.260378 0.260378 0.260378 0.260378 0.260378 0.260378 0.260378 0.256074 0.256074 0.256074 0.256074 0.256074 0.256074 0.256074 0.256074 0.256074 0.251976 0.251976 0.251976 0.251976 0.251976 0.251976 0.251976 0.251976 0.251976 0.251976 0.251976 0.251976 0.251976 0.251976
