# Output from CTFFind version 4.1.9, run on 2019-11-03 20:05:52
# Input file: stack1_bm3d_averaged_1_6.5_0_1000_half.mrc ; Number of micrographs: 1
# Pixel size: 3.000 Angstroms ; acceleration voltage: 300.0 keV ; spherical aberration: 0.00 mm ; amplitude contrast: 0.07
# Box size: 512 pixels ; min. res.: 30.0 Angstroms ; max. res.: 5.0 Angstroms ; min. def.: 5000.0 um; max. def. 50000.0 um; num. frames averaged: 1
# 6 lines per micrograph: #1 - spatial frequency (1/Angstroms); #2 - 1D rotational average of spectrum (assuming no astigmatism); #3 - 1D rotational average of spectrum; #4 - CTF fit; #5 - cross-correlation between spectrum and CTF fit; #6 - 2sigma of expected cross correlation of noise
0.000000 0.000651 0.001302 0.001953 0.002604 0.003255 0.003906 0.004557 0.005208 0.005859 0.006510 0.007161 0.007812 0.008464 0.009115 0.009766 0.010417 0.011068 0.011719 0.012370 0.013021 0.013672 0.014323 0.014974 0.015625 0.016276 0.016927 0.017578 0.018229 0.018880 0.019531 0.020182 0.020833 0.021484 0.022135 0.022786 0.023438 0.024089 0.024740 0.025391 0.026042 0.026693 0.027344 0.027995 0.028646 0.029297 0.029948 0.030599 0.031250 0.031901 0.032552 0.033203 0.033854 0.034505 0.035156 0.035807 0.036458 0.037109 0.037760 0.038411 0.039062 0.039714 0.040365 0.041016 0.041667 0.042318 0.042969 0.043620 0.044271 0.044922 0.045573 0.046224 0.046875 0.047526 0.048177 0.048828 0.049479 0.050130 0.050781 0.051432 0.052083 0.052734 0.053385 0.054036 0.054688 0.055339 0.055990 0.056641 0.057292 0.057943 0.058594 0.059245 0.059896 0.060547 0.061198 0.061849 0.062500 0.063151 0.063802 0.064453 0.065104 0.065755 0.066406 0.067057 0.067708 0.068359 0.069010 0.069661 0.070312 0.070964 0.071615 0.072266 0.072917 0.073568 0.074219 0.074870 0.075521 0.076172 0.076823 0.077474 0.078125 0.078776 0.079427 0.080078 0.080729 0.081380 0.082031 0.082682 0.083333 0.083984 0.084635 0.085286 0.085938 0.086589 0.087240 0.087891 0.088542 0.089193 0.089844 0.090495 0.091146 0.091797 0.092448 0.093099 0.093750 0.094401 0.095052 0.095703 0.096354 0.097005 0.097656 0.098307 0.098958 0.099609 0.100260 0.100911 0.101562 0.102214 0.102865 0.103516 0.104167 0.104818 0.105469 0.106120 0.106771 0.107422 0.108073 0.108724 0.109375 0.110026 0.110677 0.111328 0.111979 0.112630 0.113281 0.113932 0.114583 0.115234 0.115885 0.116536 0.117188 0.117839 0.118490 0.119141 0.119792 0.120443 0.121094 0.121745 0.122396 0.123047 0.123698 0.124349 0.125000 0.125651 0.126302 0.126953 0.127604 0.128255 0.128906 0.129557 0.130208 0.130859 0.131510 0.132161 0.132812 0.133464 0.134115 0.134766 0.135417 0.136068 0.136719 0.137370 0.138021 0.138672 0.139323 0.139974 0.140625 0.141276 0.141927 0.142578 0.143229 0.143880 0.144531 0.145182 0.145833 0.146484 0.147135 0.147786 0.148438 0.149089 0.149740 0.150391 0.151042 0.151693 0.152344 0.152995 0.153646 0.154297 0.154948 0.155599 0.156250 0.156901 0.157552 0.158203 0.158854 0.159505 0.160156 0.160807 0.161458 0.162109 0.162760 0.163411 0.164062 0.164714 0.165365 0.166016 0.166667 0.167318 0.167969 0.168620 0.169271 0.169922 0.170573 0.171224 0.171875 0.172526 0.173177 0.173828 0.174479 0.175130 0.175781 0.176432 0.177083 0.177734 0.178385 0.179036 0.179688 0.180339 0.180990 0.181641 0.182292 0.182943 0.183594 0.184245 0.184896 0.185547 0.186198 0.186849 0.187500 0.188151 0.188802 0.189453 0.190104 0.190755 0.191406 0.192057 0.192708 0.193359 0.194010 0.194661 0.195312 0.195964 0.196615 0.197266 0.197917 0.198568 0.199219 0.199870 0.200521 0.201172 0.201823 0.202474 0.203125 0.203776 0.204427 0.205078 0.205729 0.206380 0.207031 0.207682 0.208333 0.208984 0.209635 0.210286 0.210938 0.211589 0.212240 0.212891 0.213542 0.214193 0.214844 0.215495 0.216146 0.216797 0.217448 0.218099 0.218750 0.219401 0.220052 0.220703 0.221354 0.222005 0.222656 0.223307 0.223958 0.224609 0.225260 0.225911 0.226562 0.227214 0.227865 0.228516 0.229167 0.229818 0.230469 0.231120 0.231771 0.232422 0.233073 0.233724 0.234375 0.235026 0.235677
       0.34792        0.34792        0.34792        0.34793        0.34792        0.34792        0.34793        0.34792        0.34792        0.34792        0.34793        0.34792        0.34793        0.34792        0.34792        0.34792        0.34792        0.34792        0.34792        0.34793        0.34792        0.34792        0.34792        0.34793        0.34792        0.34792        0.34792        0.34792        0.34792        0.34793        0.34792        0.34792        0.34792        0.34792        0.34793        0.34792        0.34793        0.34792        0.34793        0.34792        0.34793        0.34792        0.34793        0.34793        0.34792        0.34793        0.34793        0.34792        0.34792        0.34793        0.34792        0.35736        0.51089        0.23622        0.08778       -0.00013       -0.27067       -0.11136       -0.16380       -0.22158        0.01240       -0.14193       -0.08094       -0.06115       -0.04423       -0.12687       -0.15888       -0.26195       -0.32398       -0.43843       -0.37307       -0.27250       -0.23386       -0.33234       -0.24967       -0.31799       -0.28413       -0.30977       -0.14347       -0.15225       -0.21576       -0.04524        0.01681       -0.03084        0.07807        0.03271        0.22522        0.24369        0.33907        0.35432        0.39741        0.43585        0.50983        0.56961        0.58808        0.51934        0.49176        0.51193        0.46528        0.53443        0.45617        0.41554        0.41592        0.35002        0.29826        0.30899        0.33741        0.23164        0.19675        0.12477        0.14911        0.16071        0.18557        0.15866        0.22717        0.27817        0.31461        0.29848        0.37963        0.46777        0.40037        0.48939        0.60747        0.56998        0.52894        0.55997        0.59891        0.41965        0.48639        0.39117        0.32112        0.30002        0.28151        0.25592        0.18869        0.18424        0.14789        0.20932        0.26130        0.29094        0.34792        0.30933        0.41387        0.43883        0.46306        0.47926        0.48865        0.52402        0.46782        0.44051        0.41254        0.34283        0.32908        0.30862        0.31929        0.25169        0.24130        0.26158        0.24698        0.27199        0.32796        0.43300        0.45097        0.42518        0.41903        0.48008        0.47135        0.46898        0.46226        0.38085        0.36983        0.40625        0.36863        0.30652        0.29666        0.32576        0.29027        0.30306        0.29904        0.31882        0.35853        0.38351        0.44296        0.45887        0.37009        0.45441        0.42820        0.36293        0.30474        0.35696        0.33100        0.31031        0.32857        0.27758        0.27499        0.32319        0.33935        0.44526        0.41460        0.37295        0.38612        0.42844        0.36274        0.35860        0.33832        0.34153        0.29102        0.28863        0.29848        0.37211        0.37915        0.34147        0.35020        0.39979        0.39667        0.45592        0.40456        0.36080        0.33760        0.34094        0.32947        0.31960        0.34376        0.39227        0.36537        0.36957        0.33114        0.44132        0.36733        0.34996        0.33515        0.37922        0.37689        0.31888        0.31992        0.28780        0.31245        0.33311        0.31384        0.33429        0.34174        0.36052        0.34869        0.33937        0.30387        0.29947        0.28761        0.33720        0.33390        0.35067        0.30823        0.34902        0.35076        0.33926        0.33755        0.30826        0.28554        0.32383        0.32651        0.32754        0.31906        0.30969        0.32361        0.33168        0.33508        0.34108        0.37805        0.34364        0.28256        0.32471        0.32226        0.32995        0.33715        0.28251        0.32568        0.29370        0.32112        0.31303        0.37981        0.33092        0.30808        0.28252        0.29238        0.37510        0.35793        0.32854        0.33286        0.31005        0.31458        0.33490        0.33200        0.28831        0.32141        0.26664        0.26963        0.29295        0.30404        0.30698        0.32170        0.23368        0.29224        0.34375        0.35589        0.35074        0.32709        0.31480        0.30238        0.32114        0.31573        0.25515        0.29329        0.28623        0.32839        0.33107        0.36177        0.35812        0.32066        0.32081        0.34209        0.32916        0.31822        0.33190        0.33575        0.27297        0.29418        0.33110        0.32655        0.24329        0.19814        0.22439        0.29063        0.30644        0.30224        0.26483        0.29129        0.28733        0.24270        0.26308        0.27321        0.22953        0.27102        0.27881        0.25310        0.20625        0.24580        0.32430        0.39525        0.28276        0.24680        0.19088        0.20195        0.29913        0.29878        0.38926        0.23699        0.21777        0.27729        0.35287        0.24303        0.08399       -0.08962       -0.53516       -0.75054
3.388371 3.350754 3.313350 3.276159 3.239179 3.202412 3.165857 3.129514 3.093384 3.057466 3.021759 2.986266 2.950984 2.915915 2.881058 2.846413 2.811980 2.777760 2.743752 2.709956 2.676372 2.643000 2.609841 2.576894 2.544160 2.511637 2.479327 2.447229 2.415343 2.383670 2.352208 2.320959 2.289922 2.259098 2.228485 2.198085 2.167897 2.137921 2.108158 2.078607 2.049268 2.020141 1.991227 1.962524 1.934034 1.905757 1.877691 1.849838 1.822197 1.794768 1.767551 1.678673 2.009578 1.731055 1.114830 1.171539 0.385596 0.926413 0.538507 0.656792 0.943820 0.694581 0.653808 0.778428 0.710610 0.653123 0.491123 0.350971 0.176931 -0.013904 -0.010239 0.088642 0.414364 -0.031501 0.164389 0.041099 0.131998 -0.062804 0.261099 0.190658 0.097942 0.302338 0.493143 0.289694 0.478693 0.387667 0.765833 0.645018 0.874517 0.867335 0.845571 1.064805 0.960675 1.256505 1.158111 1.127102 0.966418 1.015726 0.957941 0.918173 0.953162 0.776509 0.729172 0.658787 0.616378 0.476187 0.566679 0.453329 0.297060 0.198223 0.141260 0.183185 0.231049 0.163782 0.180342 0.347668 0.353550 0.368455 0.465079 0.521174 0.541859 0.409433 0.835935 0.764292 0.694018 0.655720 0.762936 0.525152 0.439748 0.486016 0.197481 0.239476 0.100074 0.175431 -0.022868 -0.029659 -0.104095 -0.103295 0.118743 0.019936 0.134137 0.186088 0.179007 0.323794 0.335934 0.347047 0.343176 0.451752 0.368429 0.281596 0.262068 0.149801 0.116935 0.061614 0.029768 0.007115 -0.078950 -0.072176 -0.057226 -0.076758 -0.050542 0.143083 0.311465 0.191180 0.220359 0.220560 0.443311 0.257031 0.347320 0.292352 0.160001 0.137646 0.298937 0.010145 0.049665 0.038333 0.072518 0.004684 0.093811 -0.012074 0.144888 -0.010815 0.246845 0.308607 0.204824 0.241183 0.227004 0.166819 0.048027 0.082557 0.100213 0.017427 0.009353 0.054047 -0.088260 -0.027253 0.021835 0.124386 0.295301 0.117573 0.124737 0.200916 0.139351 0.104105 0.062874 0.033743 0.051983 -0.072803 -0.021297 0.028011 0.116621 0.103701 0.030308 0.076597 0.177978 0.142919 0.279886 0.097174 0.072180 0.045395 0.018754 0.050727 0.015078 0.079483 0.155700 0.078210 0.073513 0.036533 0.270288 0.046417 0.036536 0.036765 0.104537 0.064868 -0.022747 0.002776 -0.066003 -0.016991 0.027663 0.002249 0.000043 -0.001074 0.045871 0.008885 -0.010410 -0.078587 -0.056236 -0.060191 -0.026412 0.022149 -0.009762 -0.017381 0.014579 0.025401 0.008358 0.043854 -0.049768 -0.043787 0.011712 0.002374 0.025423 0.011729 -0.014566 -0.002572 0.022675 0.036618 0.055260 0.150996 -0.029174 -0.046847 0.028813 0.014206 0.030537 0.032383 -0.057100 0.034538 -0.020187 -0.005676 0.008525 0.128407 0.001091 -0.042753 -0.057603 -0.026289 0.118923 0.057331 -0.010991 0.030510 -0.012809 -0.002842 0.019372 0.010016 -0.050345 0.026081 -0.108663 -0.078554 -0.034209 -0.029386 -0.038870 -0.053614 -0.208873 0.003277 0.067558 0.017292 0.004738 0.022375 -0.044854 -0.039100 -0.057360 -0.048637 -0.115792 -0.092504 -0.112146 -0.017587 0.009500 0.017285 0.021443 -0.053465 -0.020046 -0.043613 0.003986 -0.073361 -0.005160 -0.004370 -0.109386 -0.045157 -0.000701 -0.026045 -0.101415 -0.232599 -0.107941 0.078009 0.026613 -0.038405 -0.013748 0.035540 -0.067039 0.089373 -0.077635 0.011816 -0.087703 0.043744 0.014375 0.009598 -0.131541 0.028583 0.275882 0.192113 0.042709 0.048899 -0.165334 -0.036758 0.115172 0.074031 0.290667 0.331005 0.374211 0.483593 0.627863 0.422020 0.078660 -0.143038 -1.268969
0.072396 0.072906 0.074437 0.076987 0.080556 0.085143 0.090748 0.097368 0.105000 0.113643 0.123293 0.133945 0.145593 0.158232 0.171852 0.186445 0.201999 0.218500 0.235933 0.254280 0.273520 0.293630 0.314581 0.336344 0.358884 0.382161 0.406134 0.430754 0.455968 0.481717 0.507939 0.534563 0.561514 0.588708 0.616059 0.643469 0.670837 0.698053 0.725001 0.751557 0.777591 0.802966 0.827538 0.851156 0.873664 0.894899 0.914694 0.932876 0.949270 0.963697 0.975976 0.985925 0.993361 0.998104 0.999976 0.998805 0.994423 0.986670 0.975398 0.960467 0.941754 0.919151 0.892568 0.861935 0.827205 0.788357 0.745397 0.698360 0.647313 0.592357 0.533629 0.471303 0.405592 0.336749 0.265068 0.190885 0.114578 0.036566 0.042692 0.122697 0.202914 0.282770 0.361663 0.438964 0.514018 0.586153 0.654685 0.718923 0.778178 0.831772 0.879041 0.919350 0.952098 0.976731 0.992749 0.999716 0.997274 0.985146 0.963151 0.931211 0.889357 0.837739 0.776630 0.706433 0.627680 0.541037 0.447303 0.347406 0.242396 0.133445 0.021828 0.091080 0.203828 0.314898 0.422729 0.525739 0.622345 0.710993 0.790183 0.858495 0.914622 0.957394 0.985809 0.999060 0.996559 0.977961 0.943182 0.892417 0.826154 0.745174 0.650561 0.543690 0.426219 0.300071 0.167409 0.030609 0.107787 0.245107 0.378604 0.505505 0.623076 0.728682 0.819847 0.894323 0.950148 0.985708 0.999791 0.991635 0.960967 0.908034 0.833622 0.739063 0.626224 0.497487 0.355712 0.204182 0.046542 0.113291 0.271210 0.423032 0.564602 0.691913 0.801227 0.889191 0.952951 0.990259 0.999562 0.980080 0.931866 0.855829 0.753757 0.628285 0.482853 0.321629 0.149405 0.028536 0.206571 0.378913 0.539798 0.683681 0.805439 0.900562 0.965335 0.997008 0.993920 0.955612 0.882885 0.777819 0.643745 0.485168 0.307634 0.117560 0.077985 0.271532 0.455494 0.622468 0.765540 0.878585 0.956549 0.995696 0.993816 0.950371 0.866576 0.745411 0.591549 0.411213 0.211947 0.002326 0.208399 0.410703 0.595216 0.753169 0.876827 0.959888 0.997836 0.988222 0.930845 0.827841 0.683652 0.504877 0.300005 0.079055 0.146915 0.366325 0.567682 0.740183 0.874313 0.962404 0.999103 0.981741 0.910560 0.788794 0.622575 0.420678 0.194092 0.044537 0.281598 0.503278 0.696381 0.849120 0.951881 0.997858 0.983559 0.909111 0.778363 0.598752 0.380933 0.138202 0.114285 0.360442 0.584260 0.770879 0.907584 0.984726 0.996448 0.941192 0.821919 0.646041 0.425011 0.173654 0.090793 0.349841 0.585019 0.779227 0.917988 0.990597 0.990989 0.918324 0.777189 0.577383 0.333333 0.063084 0.212964 0.473593 0.698389 0.869381 0.972508 0.998857 0.945493 0.815858 0.619646 0.372177 0.093254 0.194351 0.466743 0.700884 0.876570 0.978233 0.996384 0.928593 0.779869 0.562402 0.294653 0.000121 0.295865 0.565981 0.785749 0.934629 0.998245 0.969871 0.851229 0.652533 0.391720 0.092921 0.215702 0.504584 0.745587 0.914776 0.994875 0.977126 0.862350 0.661086 0.392743 0.083839 0.234555 0.529898 0.771518 0.933835 0.999159 0.959720 0.818714 0.590203 0.297841 0.027473 0.350777 0.636809 0.853844 0.977301 0.992623 0.897123 0.700534 0.424184 0.098788 0.238853 0.549980 0.798331 0.954424 0.999153 0.926272 0.743391 0.471360 0.142030 0.205355 0.528804 0.788628 0.952391 0.999049 0.921808 0.729262 0.444611 0.103036 0.252563 0.576875 0.827976 0.972819 0.991697 0.881100 0.654488 0.340828 0.018939 0.377127 0.685628 0.902381
1.000000 1.000000 1.000000 1.000000 1.000000 1.000000 1.000000 1.000000 1.000000 1.000000 1.000000 1.000000 1.000000 1.000000 1.000000 1.000000 1.000000 1.000000 1.000000 1.000000 1.000000 1.000000 1.000000 1.000000 1.000000 1.000000 1.000000 1.000000 1.000000 1.000000 1.000000 1.000000 1.000000 1.000000 1.000000 1.000000 1.000000 1.000000 1.000000 1.000000 1.000000 1.000000 1.000000 1.000000 1.000000 1.000000 1.000000 1.000000 1.000000 1.000000 1.000000 1.000000 0.826447 0.826447 0.826447 0.813753 0.813753 0.813753 0.813753 0.813753 0.813753 0.813753 0.813753 0.813753 0.813753 0.813753 0.813753 0.813753 0.813753 0.813753 0.813753 0.813753 0.813753 0.813753 0.813753 0.813753 0.813753 0.813753 0.813753 0.813753 0.813753 0.813753 0.813753 0.813753 0.813753 0.813753 0.813753 0.813753 0.813753 0.813753 0.813753 0.813753 0.813753 0.813753 0.813753 0.813753 0.851706 0.859287 0.862129 0.865069 0.865954 0.863481 0.862168 0.861716 0.861605 0.862591 0.868701 0.893733 0.910923 0.913734 0.925165 0.928775 0.934060 0.937093 0.953049 0.954550 0.956136 0.955149 0.955712 0.957753 0.962099 0.958444 0.959572 0.959589 0.964330 0.960376 0.959758 0.958519 0.957296 0.954282 0.955454 0.955206 0.952291 0.952720 0.947305 0.947670 0.947985 0.946059 0.944054 0.931120 0.926048 0.925347 0.925498 0.905575 0.898468 0.887905 0.872471 0.894534 0.888089 0.868761 0.867807 0.844377 0.847033 0.846858 0.838078 0.834721 0.832195 0.827575 0.818457 0.819343 0.818226 0.827177 0.831365 0.833531 0.823555 0.803349 0.779042 0.763345 0.763048 0.761231 0.757187 0.761603 0.762678 0.761539 0.759332 0.757643 0.748897 0.759635 0.759997 0.755789 0.749284 0.747499 0.732971 0.727250 0.720980 0.696152 0.676629 0.664461 0.666039 0.651598 0.643099 0.644346 0.651398 0.657979 0.667832 0.661546 0.657582 0.637816 0.611224 0.568767 0.583685 0.592177 0.567644 0.558144 0.544311 0.581306 0.604091 0.627380 0.644706 0.647323 0.650956 0.626492 0.591003 0.577405 0.579910 0.580279 0.579866 0.572379 0.578695 0.596554 0.581048 0.544614 0.545475 0.542473 0.552728 0.570733 0.570662 0.569930 0.535507 0.519030 0.494143 0.468273 0.417435 0.405902 0.406913 0.417905 0.397215 0.385886 0.390128 0.411749 0.399604 0.401857 0.387993 0.383533 0.358335 0.355984 0.358778 0.342306 0.326046 0.286151 0.239591 0.226398 0.239274 0.243486 0.292783 0.316270 0.314072 0.287078 0.287024 0.323732 0.341415 0.353998 0.357919 0.328686 0.311367 0.206127 0.202402 0.239874 0.262228 0.269762 0.248022 0.244453 0.245460 0.221115 0.208605 0.150947 0.107074 0.074861 0.092646 0.097377 0.091501 0.080108 0.029492 0.023489 0.020235 0.012497 -0.015521 -0.019807 0.010131 0.020180 0.031074 0.050325 0.031292 -0.002628 0.024979 0.019161 0.030107 0.045824 0.019381 0.025601 -0.001424 -0.034753 -0.039550 -0.054158 -0.071762 -0.051544 -0.033583 -0.013729 -0.037740 -0.021983 -0.021291 -0.035562 -0.108473 -0.146076 -0.135991 -0.147760 -0.140726 -0.139024 -0.134202 -0.155260 -0.154449 -0.162244 -0.054395 -0.070139 -0.075929 -0.078988 -0.091780 -0.118090 -0.130866 -0.121032 -0.063500 -0.041694 -0.029966 -0.056231 -0.080032 -0.080032 -0.080032 -0.094057 -0.094057 -0.094057 -0.094057 -0.094057 -0.094057 -0.094057 -0.094057 -0.094057 -0.105665 -0.105665 -0.105665 -0.105665 -0.105665 -0.105665 -0.105665 -0.105665 -0.105665 -0.105665 -0.105665 -0.105665 -0.105665 -0.105665 -0.105665 -0.105665 -0.105665
0.000000 0.000000 0.000000 0.000000 0.000000 0.000000 0.000000 0.000000 0.000000 0.000000 0.000000 0.000000 0.000000 0.000000 0.000000 0.000000 0.000000 0.000000 0.000000 0.000000 0.000000 0.000000 0.000000 0.000000 0.000000 0.000000 0.000000 0.000000 0.000000 0.000000 0.000000 0.000000 0.000000 0.000000 0.000000 0.000000 0.000000 0.000000 0.000000 0.000000 0.000000 0.000000 0.000000 0.000000 0.000000 0.000000 0.000000 0.000000 0.000000 0.000000 0.000000 0.000000 0.180334 0.180334 0.180334 0.199007 0.199007 0.199007 0.199007 0.199007 0.199007 0.199007 0.199007 0.199007 0.199007 0.199007 0.199007 0.199007 0.199007 0.199007 0.199007 0.199007 0.199007 0.199007 0.199007 0.199007 0.199007 0.199007 0.199007 0.199007 0.199007 0.199007 0.199007 0.199007 0.199007 0.199007 0.199007 0.199007 0.199007 0.199007 0.199007 0.199007 0.199007 0.199007 0.199007 0.199007 0.230940 0.230940 0.230940 0.230940 0.230940 0.230940 0.230940 0.230940 0.230940 0.230940 0.230940 0.230940 0.230940 0.230940 0.230940 0.230940 0.230940 0.230940 0.230940 0.230940 0.230940 0.230940 0.230940 0.230940 0.230940 0.230940 0.230940 0.230940 0.244339 0.244339 0.244339 0.244339 0.244339 0.244339 0.244339 0.244339 0.244339 0.244339 0.244339 0.244339 0.244339 0.244339 0.244339 0.244339 0.244339 0.244339 0.244339 0.244339 0.244339 0.244339 0.244339 0.256074 0.256074 0.256074 0.256074 0.256074 0.256074 0.256074 0.256074 0.256074 0.256074 0.256074 0.256074 0.256074 0.256074 0.256074 0.256074 0.256074 0.256074 0.256074 0.256074 0.256074 0.256074 0.256074 0.256074 0.256074 0.256074 0.256074 0.256074 0.256074 0.256074 0.256074 0.256074 0.256074 0.256074 0.256074 0.256074 0.256074 0.264906 0.264906 0.264906 0.264906 0.264906 0.264906 0.264906 0.264906 0.264906 0.264906 0.264906 0.264906 0.264906 0.264906 0.264906 0.264906 0.264906 0.264906 0.264906 0.264906 0.264906 0.264906 0.264906 0.264906 0.264906 0.264906 0.264906 0.264906 0.264906 0.264906 0.264906 0.264906 0.264906 0.264906 0.264906 0.264906 0.264906 0.264906 0.264906 0.264906 0.264906 0.264906 0.264906 0.264906 0.264906 0.264906 0.264906 0.264906 0.264906 0.264906 0.264906 0.264906 0.264906 0.264906 0.264906 0.264906 0.264906 0.264906 0.269680 0.269680 0.269680 0.269680 0.269680 0.269680 0.269680 0.269680 0.269680 0.269680 0.269680 0.269680 0.264906 0.264906 0.264906 0.264906 0.264906 0.264906 0.264906 0.264906 0.264906 0.264906 0.264906 0.264906 0.269680 0.269680 0.269680 0.269680 0.269680 0.269680 0.269680 0.269680 0.269680 0.269680 0.269680 0.264906 0.264906 0.264906 0.264906 0.264906 0.264906 0.264906 0.264906 0.264906 0.264906 0.264906 0.256074 0.256074 0.256074 0.256074 0.256074 0.256074 0.256074 0.256074 0.256074 0.256074 0.256074 0.264906 0.264906 0.264906 0.264906 0.264906 0.264906 0.264906 0.264906 0.264906 0.264906 0.260378 0.260378 0.260378 0.260378 0.260378 0.260378 0.260378 0.260378 0.260378 0.260378 0.264906 0.264906 0.264906 0.264906 0.264906 0.264906 0.264906 0.264906 0.264906 0.260378 0.260378 0.260378 0.260378 0.260378 0.260378 0.260378 0.260378 0.260378 0.256074 0.256074 0.256074 0.256074 0.256074 0.256074 0.256074 0.256074 0.256074 0.251976 0.251976 0.251976 0.251976 0.251976 0.251976 0.251976 0.251976 0.251976 0.251976 0.251976 0.251976 0.251976 0.251976 0.251976 0.251976 0.251976
