# Output from CTFFind version 4.1.9, run on 2019-11-02 17:43:53
# Input file: stack1_bm3d_averaged_1_1.0_0_250_half.mrc ; Number of micrographs: 1
# Pixel size: 3.000 Angstroms ; acceleration voltage: 300.0 keV ; spherical aberration: 0.00 mm ; amplitude contrast: 0.07
# Box size: 512 pixels ; min. res.: 30.0 Angstroms ; max. res.: 5.0 Angstroms ; min. def.: 5000.0 um; max. def. 50000.0 um; num. frames averaged: 1
# 6 lines per micrograph: #1 - spatial frequency (1/Angstroms); #2 - 1D rotational average of spectrum (assuming no astigmatism); #3 - 1D rotational average of spectrum; #4 - CTF fit; #5 - cross-correlation between spectrum and CTF fit; #6 - 2sigma of expected cross correlation of noise
0.000000 0.000651 0.001302 0.001953 0.002604 0.003255 0.003906 0.004557 0.005208 0.005859 0.006510 0.007161 0.007812 0.008464 0.009115 0.009766 0.010417 0.011068 0.011719 0.012370 0.013021 0.013672 0.014323 0.014974 0.015625 0.016276 0.016927 0.017578 0.018229 0.018880 0.019531 0.020182 0.020833 0.021484 0.022135 0.022786 0.023438 0.024089 0.024740 0.025391 0.026042 0.026693 0.027344 0.027995 0.028646 0.029297 0.029948 0.030599 0.031250 0.031901 0.032552 0.033203 0.033854 0.034505 0.035156 0.035807 0.036458 0.037109 0.037760 0.038411 0.039062 0.039714 0.040365 0.041016 0.041667 0.042318 0.042969 0.043620 0.044271 0.044922 0.045573 0.046224 0.046875 0.047526 0.048177 0.048828 0.049479 0.050130 0.050781 0.051432 0.052083 0.052734 0.053385 0.054036 0.054688 0.055339 0.055990 0.056641 0.057292 0.057943 0.058594 0.059245 0.059896 0.060547 0.061198 0.061849 0.062500 0.063151 0.063802 0.064453 0.065104 0.065755 0.066406 0.067057 0.067708 0.068359 0.069010 0.069661 0.070312 0.070964 0.071615 0.072266 0.072917 0.073568 0.074219 0.074870 0.075521 0.076172 0.076823 0.077474 0.078125 0.078776 0.079427 0.080078 0.080729 0.081380 0.082031 0.082682 0.083333 0.083984 0.084635 0.085286 0.085938 0.086589 0.087240 0.087891 0.088542 0.089193 0.089844 0.090495 0.091146 0.091797 0.092448 0.093099 0.093750 0.094401 0.095052 0.095703 0.096354 0.097005 0.097656 0.098307 0.098958 0.099609 0.100260 0.100911 0.101562 0.102214 0.102865 0.103516 0.104167 0.104818 0.105469 0.106120 0.106771 0.107422 0.108073 0.108724 0.109375 0.110026 0.110677 0.111328 0.111979 0.112630 0.113281 0.113932 0.114583 0.115234 0.115885 0.116536 0.117188 0.117839 0.118490 0.119141 0.119792 0.120443 0.121094 0.121745 0.122396 0.123047 0.123698 0.124349 0.125000 0.125651 0.126302 0.126953 0.127604 0.128255 0.128906 0.129557 0.130208 0.130859 0.131510 0.132161 0.132812 0.133464 0.134115 0.134766 0.135417 0.136068 0.136719 0.137370 0.138021 0.138672 0.139323 0.139974 0.140625 0.141276 0.141927 0.142578 0.143229 0.143880 0.144531 0.145182 0.145833 0.146484 0.147135 0.147786 0.148438 0.149089 0.149740 0.150391 0.151042 0.151693 0.152344 0.152995 0.153646 0.154297 0.154948 0.155599 0.156250 0.156901 0.157552 0.158203 0.158854 0.159505 0.160156 0.160807 0.161458 0.162109 0.162760 0.163411 0.164062 0.164714 0.165365 0.166016 0.166667 0.167318 0.167969 0.168620 0.169271 0.169922 0.170573 0.171224 0.171875 0.172526 0.173177 0.173828 0.174479 0.175130 0.175781 0.176432 0.177083 0.177734 0.178385 0.179036 0.179688 0.180339 0.180990 0.181641 0.182292 0.182943 0.183594 0.184245 0.184896 0.185547 0.186198 0.186849 0.187500 0.188151 0.188802 0.189453 0.190104 0.190755 0.191406 0.192057 0.192708 0.193359 0.194010 0.194661 0.195312 0.195964 0.196615 0.197266 0.197917 0.198568 0.199219 0.199870 0.200521 0.201172 0.201823 0.202474 0.203125 0.203776 0.204427 0.205078 0.205729 0.206380 0.207031 0.207682 0.208333 0.208984 0.209635 0.210286 0.210938 0.211589 0.212240 0.212891 0.213542 0.214193 0.214844 0.215495 0.216146 0.216797 0.217448 0.218099 0.218750 0.219401 0.220052 0.220703 0.221354 0.222005 0.222656 0.223307 0.223958 0.224609 0.225260 0.225911 0.226562 0.227214 0.227865 0.228516 0.229167 0.229818 0.230469 0.231120 0.231771 0.232422 0.233073 0.233724 0.234375 0.235026 0.235677
       0.33229        0.33229        0.33229        0.33229        0.33229        0.33229        0.33229        0.33229        0.33229        0.33229        0.33229        0.33229        0.33229        0.33229        0.33229        0.33229        0.33229        0.33229        0.33229        0.33229        0.33229        0.33229        0.33229        0.33229        0.33229        0.33229        0.33229        0.33229        0.33229        0.33229        0.33229        0.33229        0.33229        0.33229        0.33229        0.33229        0.33229        0.33229        0.33229        0.33229        0.33229        0.33229        0.33229        0.33229        0.33229        0.33229        0.33229        0.33229        0.33229        0.33229        0.33229        0.50132        0.71880        0.42866        0.18906       -0.08201       -0.26037       -0.06767       -0.13167       -0.05422       -0.00451       -0.14873       -0.09182       -0.05601       -0.00493       -0.15395       -0.22437       -0.34674       -0.46094       -0.55542       -0.51257       -0.44312       -0.37005       -0.54629       -0.45123       -0.62183       -0.50596       -0.47264       -0.38942       -0.38645       -0.33970       -0.25140       -0.16279       -0.14025        0.03242       -0.01197        0.12002        0.16546        0.30516        0.41086        0.45972        0.50134        0.54233        0.55120        0.68908        0.64231        0.67550        0.59006        0.55375        0.64922        0.52552        0.42688        0.38224        0.31946        0.23206        0.26062        0.25293        0.10367        0.07943        0.00015       -0.00358        0.04123       -0.00917        0.07161        0.10412        0.23344        0.28706        0.29954        0.38045        0.56196        0.53154        0.57828        0.66557        0.70176        0.62962        0.64162        0.63405        0.55676        0.57351        0.40142        0.34610        0.26384        0.18224        0.07524        0.14112        0.11752        0.09738        0.10609        0.20549        0.21152        0.31697        0.35933        0.41248        0.49456        0.57908        0.54313        0.55593        0.60264        0.52961        0.45748        0.48321        0.32689        0.24568        0.25758        0.23994        0.13918        0.14367        0.15305        0.21876        0.24085        0.33351        0.37097        0.39495        0.46799        0.44495        0.48117        0.44782        0.47048        0.44809        0.40528        0.38444        0.35443        0.31624        0.29175        0.20463        0.19185        0.21946        0.27090        0.26526        0.34899        0.37683        0.35667        0.41154        0.45056        0.44237        0.42686        0.44506        0.37969        0.33351        0.28201        0.25789        0.29006        0.26417        0.29397        0.29936        0.34120        0.33974        0.39380        0.40152        0.42580        0.40669        0.43616        0.40252        0.36011        0.28130        0.28957        0.30420        0.27090        0.24963        0.32346        0.36780        0.34154        0.35285        0.36182        0.35511        0.41044        0.40502        0.36530        0.33918        0.30430        0.31314        0.32116        0.31914        0.29928        0.27871        0.33557        0.35822        0.37928        0.33760        0.33307        0.33707        0.34437        0.30986        0.28072        0.30371        0.31124        0.33926        0.31590        0.32855        0.35609        0.32471        0.31478        0.32793        0.30047        0.26507        0.25549        0.26289        0.30578        0.32178        0.35414        0.29946        0.30595        0.32769        0.29429        0.31535        0.28677        0.28349        0.29374        0.29448        0.30629        0.34611        0.33328        0.33101        0.33859        0.31990        0.33761        0.32084        0.32055        0.30909        0.27298        0.28567        0.30729        0.29239        0.32147        0.33148        0.33322        0.32940        0.34889        0.32526        0.28106        0.24822        0.26950        0.33151        0.35097        0.33789        0.31258        0.29068        0.29607        0.30826        0.25614        0.29894        0.30846        0.33776        0.30200        0.30389        0.27541        0.33269        0.33754        0.33969        0.31104        0.29162        0.31725        0.39593        0.32448        0.31353        0.31400        0.28636        0.28060        0.30117        0.28110        0.32507        0.23119        0.26619        0.29821        0.31083        0.29813        0.25912        0.28870        0.24207        0.21963        0.26613        0.29714        0.30626        0.27767        0.28030        0.32618        0.26230        0.22712        0.30145        0.26494        0.26249        0.28338        0.38602        0.28763        0.29293        0.25586        0.24498        0.27448        0.26328        0.23251        0.18225        0.25969        0.22844        0.23893        0.31338        0.25293        0.35942        0.32161        0.23869        0.22171        0.21819        0.24984        0.31694        0.22271        0.13404        0.18194        0.23707        0.24136        0.26903        0.20300        0.01223       -0.46196       -0.96723
2.645097 2.617241 2.589534 2.561976 2.534567 2.507307 2.480196 2.453235 2.426422 2.399759 2.373245 2.346880 2.320664 2.294598 2.268680 2.242912 2.217293 2.191822 2.166501 2.141330 2.116307 2.091433 2.066709 2.042134 2.017708 1.993431 1.969303 1.945324 1.921495 1.897814 1.874283 1.850901 1.827668 1.804584 1.781649 1.758863 1.736227 1.713740 1.691401 1.669212 1.647172 1.625282 1.603540 1.581948 1.560504 1.539210 1.518065 1.497069 1.476222 1.455525 1.434976 1.504058 1.805416 1.504490 1.139737 0.921160 0.531840 0.896992 0.621000 0.858108 0.907987 0.576093 0.698271 0.758495 0.803745 0.615160 0.520138 0.338437 0.097796 0.073357 0.043937 0.081571 0.296906 -0.042589 0.074808 -0.139843 -0.022742 -0.018155 0.078024 0.050932 0.098506 0.170026 0.272329 0.240278 0.473379 0.392483 0.542692 0.516971 0.757028 0.782240 0.864789 0.917165 0.929556 0.938739 1.074308 0.965850 1.128121 0.933068 0.844691 0.999893 0.837179 0.749214 0.613351 0.584218 0.460192 0.409552 0.504609 0.262312 0.190839 0.153145 0.015492 0.214230 -0.006064 0.112313 0.183508 0.259505 0.335570 0.343419 0.423480 0.540074 0.650880 0.537649 0.728201 0.869411 0.632694 0.700591 0.665962 0.593997 0.532519 0.467284 0.300289 0.213157 0.116542 -0.039017 -0.017042 0.052361 -0.088936 -0.053629 0.052005 0.050298 0.111691 0.222582 0.237589 0.315313 0.430570 0.429941 0.447946 0.474433 0.435541 0.314209 0.336495 0.244524 0.045415 0.059506 0.024133 -0.056690 -0.093499 -0.099272 -0.012114 -0.058265 0.073742 0.132060 0.131890 0.257678 0.224604 0.244248 0.287526 0.252374 0.249062 0.209667 0.177444 0.112913 0.110229 0.034116 0.015907 -0.120989 -0.055231 0.009668 0.004612 0.016241 0.103398 0.086387 0.131227 0.188160 0.256398 0.164172 0.195569 0.114599 0.145670 0.014575 -0.030431 0.012650 -0.017413 -0.009457 -0.000965 0.032269 0.062926 0.062859 0.140335 0.113689 0.154768 0.069923 0.153530 0.086157 -0.008431 -0.056296 -0.019300 -0.033304 -0.077602 -0.067581 0.047910 0.064063 -0.008343 0.052499 0.067487 0.070501 0.148203 0.075898 0.068888 0.043158 -0.025891 0.034204 0.009220 0.014367 0.005028 -0.012948 0.044985 0.067711 0.069801 0.036872 0.047687 0.019069 0.065267 -0.009112 -0.022323 0.021863 0.009860 0.065522 0.029255 0.041446 0.069672 0.031600 0.017390 0.037096 -0.001174 -0.037875 -0.026329 -0.028843 0.025434 0.048999 0.097982 0.003898 0.052985 0.060528 0.000933 0.069095 0.027642 0.023015 0.051476 0.052760 0.052040 0.108933 0.072483 0.081600 0.086505 0.101314 0.073201 0.077487 0.090235 0.034060 -0.006691 0.046201 0.041229 0.059321 0.063822 0.097526 0.000458 0.078632 0.079135 0.018159 0.016422 -0.072738 -0.015671 0.107738 0.068059 0.051346 0.035040 -0.021820 0.035959 0.019045 -0.048103 0.040027 0.047282 0.074111 0.036605 -0.001945 -0.005012 0.041585 0.053057 0.024719 0.028631 -0.025804 0.066699 0.116075 0.012086 -0.002544 0.012473 -0.025753 -0.026840 -0.012009 -0.038391 0.020000 -0.106645 -0.025814 -0.024314 0.019168 -0.024691 -0.063492 -0.000848 -0.058547 -0.055125 -0.053000 0.045602 0.009156 0.016218 -0.004392 0.076983 -0.041160 -0.036487 0.033286 -0.019342 0.030399 0.007077 0.183333 -0.020823 0.014639 0.042644 -0.026649 0.004687 0.007062 -0.025449 -0.134435 0.020520 -0.032818 -0.008663 0.037444 -0.026883 0.156272 0.066127 -0.000272 -0.092235 -0.026798 -0.040019 0.077679 0.265374 0.160652 0.229723 0.225019 0.317995 0.302733 0.229903 0.084394 -0.320494
0.072396 0.072910 0.074450 0.077017 0.080610 0.085228 0.090870 0.097533 0.105217 0.113917 0.123630 0.134352 0.146077 0.158799 0.172508 0.187196 0.202851 0.219458 0.237003 0.255467 0.274828 0.295062 0.316143 0.338037 0.360710 0.384124 0.408233 0.432989 0.458338 0.484221 0.510572 0.537321 0.564391 0.591697 0.619149 0.646651 0.674097 0.701377 0.728373 0.754958 0.781000 0.806359 0.830890 0.854439 0.876847 0.897950 0.917577 0.935555 0.951704 0.965844 0.977792 0.987364 0.994376 0.998646 0.999995 0.998250 0.993242 0.984813 0.972813 0.957105 0.937568 0.914095 0.886599 0.855016 0.819301 0.779440 0.735445 0.687357 0.635252 0.579241 0.519469 0.456121 0.389421 0.319637 0.247074 0.172081 0.095052 0.016418 0.063345 0.143724 0.224167 0.304091 0.382878 0.459884 0.534443 0.605873 0.673481 0.736568 0.794440 0.846416 0.891833 0.930060 0.960501 0.982614 0.995911 0.999977 0.994473 0.979150 0.953858 0.918552 0.873303 0.818302 0.753869 0.680453 0.598639 0.509145 0.412824 0.310656 0.203747 0.093320 0.019302 0.132699 0.245377 0.355788 0.462341 0.563438 0.657486 0.742935 0.818296 0.882178 0.933310 0.970575 0.993038 0.999967 0.990868 0.965497 0.923884 0.866349 0.793507 0.706278 0.605881 0.493831 0.371920 0.242202 0.106957 0.031335 0.170042 0.306425 0.437688 0.561044 0.673769 0.773268 0.857139 0.923240 0.969749 0.995222 0.998647 0.979488 0.937722 0.873865 0.788980 0.684683 0.563123 0.426955 0.279290 0.123640 0.036162 0.196049 0.351819 0.499248 0.634202 0.752765 0.851352 0.926835 0.976647 0.998889 0.992410 0.956879 0.892824 0.801657 0.685666 0.547977 0.392493 0.223797 0.047028 0.132259 0.308267 0.475139 0.627161 0.758961 0.865705 0.943298 0.988551 0.999335 0.974700 0.914949 0.821686 0.697795 0.547382 0.375674 0.188844 0.006184 0.201981 0.390900 0.565359 0.718160 0.842804 0.933774 0.986810 0.999126 0.969591 0.898827 0.789252 0.645032 0.471957 0.277244 0.069254 0.142846 0.349475 0.541074 0.708555 0.843740 0.939787 0.991566 0.995963 0.952099 0.861448 0.727843 0.557359 0.358069 0.139708 0.086784 0.309803 0.517654 0.699185 0.844397 0.945018 0.995013 0.990987 0.932450 0.821939 0.664965 0.469796 0.247056 0.009191 0.230203 0.457154 0.658129 0.820850 0.935083 0.993317 0.991303 0.928417 0.807801 0.636279 0.424031 0.184031 0.068696 0.317995 0.547613 0.742259 0.888648 0.976456 0.999093 0.954257 0.844210 0.675754 0.459877 0.211093 0.053474 0.315249 0.555507 0.756701 0.903799 0.985434 0.994855 0.930551 0.796501 0.602018 0.361184 0.091888 0.185451 0.449415 0.679235 0.856453 0.966449 0.999714 0.952743 0.828477 0.636226 0.391055 0.112693 0.176024 0.450969 0.688766 0.868791 0.975006 0.997482 0.933396 0.787461 0.571690 0.304505 0.009244 0.287830 0.559839 0.781743 0.932672 0.997970 0.970710 0.852519 0.653633 0.392116 0.092329 0.217293 0.506891 0.748061 0.916693 0.995448 0.975635 0.858284 0.654265 0.383395 0.072635 0.246533 0.541254 0.780702 0.939331 0.999707 0.954522 0.807601 0.573741 0.277345 0.050015 0.372900 0.655813 0.867132 0.982716 0.988768 0.883616 0.678159 0.394890 0.065569 0.272268 0.579525 0.820089 0.965152 0.996745 0.910121 0.714585 0.432676 0.097701 0.250091 0.568298 0.817541 0.966404 0.995509 0.900192 0.691381 0.394534 0.046672 0.308116 0.624226 0.860424 0.985294 0.981565 0.848652 0.603081 0.276593 0.087774 0.441310 0.736074 0.931488 1.000000
1.000000 1.000000 1.000000 1.000000 1.000000 1.000000 1.000000 1.000000 1.000000 1.000000 1.000000 1.000000 1.000000 1.000000 1.000000 1.000000 1.000000 1.000000 1.000000 1.000000 1.000000 1.000000 1.000000 1.000000 1.000000 1.000000 1.000000 1.000000 1.000000 1.000000 1.000000 1.000000 1.000000 1.000000 1.000000 1.000000 1.000000 1.000000 1.000000 1.000000 1.000000 1.000000 1.000000 1.000000 1.000000 1.000000 1.000000 1.000000 1.000000 1.000000 1.000000 1.000000 0.915645 0.915645 0.904218 0.904218 0.904218 0.904218 0.904218 0.904218 0.904218 0.904218 0.904218 0.904218 0.904218 0.904218 0.904218 0.904218 0.904218 0.904218 0.904218 0.904218 0.904218 0.904218 0.904218 0.904218 0.904218 0.904218 0.904218 0.904218 0.904218 0.904218 0.904218 0.904218 0.904218 0.904218 0.904218 0.904218 0.904218 0.904218 0.904218 0.904218 0.904218 0.904218 0.904218 0.900158 0.904728 0.906740 0.904987 0.908630 0.908725 0.907997 0.908264 0.907861 0.908132 0.909522 0.920128 0.931280 0.941859 0.943272 0.948349 0.952879 0.955104 0.956104 0.957488 0.966943 0.965764 0.965188 0.965915 0.967565 0.969849 0.968344 0.968238 0.971354 0.972112 0.970272 0.968304 0.967671 0.967032 0.966744 0.966303 0.966454 0.966367 0.966862 0.967077 0.966888 0.967024 0.967046 0.965273 0.965440 0.967720 0.968821 0.968586 0.967212 0.961133 0.965063 0.965224 0.964987 0.964890 0.964418 0.964803 0.950910 0.946145 0.946129 0.941101 0.940117 0.937231 0.935343 0.932355 0.932692 0.932819 0.933923 0.929732 0.918393 0.904803 0.890208 0.913184 0.898326 0.883502 0.862844 0.863359 0.862848 0.863633 0.858039 0.851029 0.846020 0.843007 0.844145 0.841803 0.844510 0.842711 0.832004 0.834789 0.832895 0.806105 0.788725 0.773903 0.773279 0.771268 0.772637 0.772166 0.770517 0.778669 0.766743 0.765198 0.757449 0.738907 0.702877 0.689601 0.699726 0.708256 0.714955 0.711420 0.696370 0.660839 0.671026 0.699375 0.690979 0.693507 0.682375 0.674535 0.677748 0.680804 0.670678 0.661616 0.660595 0.658621 0.665962 0.671077 0.671157 0.660322 0.643795 0.630692 0.616734 0.628104 0.633699 0.598915 0.592943 0.579733 0.571383 0.557483 0.539073 0.536069 0.511440 0.502518 0.504015 0.506484 0.509558 0.516336 0.518407 0.503381 0.523122 0.530776 0.558040 0.539643 0.537756 0.538985 0.542767 0.529911 0.512077 0.510123 0.511009 0.520974 0.546988 0.585205 0.570574 0.557131 0.545648 0.549561 0.508023 0.511788 0.533109 0.510430 0.455885 0.406111 0.405667 0.363039 0.358733 0.336510 0.323786 0.319847 0.314370 0.304808 0.290630 0.275691 0.210364 0.169624 0.153438 0.138325 0.137391 0.157402 0.155461 0.155275 0.171449 0.220298 0.218383 0.209363 0.177301 0.168913 0.140902 0.138829 0.163973 0.119312 0.113138 0.105630 0.082396 0.056491 0.010852 0.033813 -0.055704 -0.077197 -0.078979 -0.057292 -0.044648 -0.045166 -0.043032 -0.079311 -0.069162 -0.027499 -0.023312 -0.033491 -0.089318 -0.069831 -0.059030 -0.059649 -0.076032 -0.088604 -0.081862 -0.093993 -0.094252 -0.088105 -0.043759 0.017273 0.021042 0.012723 0.008971 -0.003894 -0.013520 -0.002041 0.017810 0.023615 0.001777 0.001794 0.000536 -0.039356 -0.039356 -0.040770 -0.040770 -0.040770 -0.040770 -0.040770 -0.040770 -0.040770 -0.040770 -0.040770 -0.043583 -0.043583 -0.043583 -0.043583 -0.043583 -0.043583 -0.043583 -0.043583 -0.043583 -0.043583 -0.043583 -0.043583 -0.043583 -0.043583 -0.043583 -0.043583 -0.043583 -0.043583
0.000000 0.000000 0.000000 0.000000 0.000000 0.000000 0.000000 0.000000 0.000000 0.000000 0.000000 0.000000 0.000000 0.000000 0.000000 0.000000 0.000000 0.000000 0.000000 0.000000 0.000000 0.000000 0.000000 0.000000 0.000000 0.000000 0.000000 0.000000 0.000000 0.000000 0.000000 0.000000 0.000000 0.000000 0.000000 0.000000 0.000000 0.000000 0.000000 0.000000 0.000000 0.000000 0.000000 0.000000 0.000000 0.000000 0.000000 0.000000 0.000000 0.000000 0.000000 0.000000 0.181818 0.181818 0.199007 0.199007 0.199007 0.199007 0.199007 0.199007 0.199007 0.199007 0.199007 0.199007 0.199007 0.199007 0.199007 0.199007 0.199007 0.199007 0.199007 0.199007 0.199007 0.199007 0.199007 0.199007 0.199007 0.199007 0.199007 0.199007 0.199007 0.199007 0.199007 0.199007 0.199007 0.199007 0.199007 0.199007 0.199007 0.199007 0.199007 0.199007 0.199007 0.199007 0.199007 0.230940 0.230940 0.230940 0.230940 0.230940 0.230940 0.230940 0.230940 0.230940 0.230940 0.230940 0.230940 0.230940 0.230940 0.230940 0.230940 0.230940 0.230940 0.230940 0.230940 0.230940 0.230940 0.230940 0.230940 0.230940 0.230940 0.230940 0.230940 0.244339 0.244339 0.244339 0.244339 0.244339 0.244339 0.244339 0.244339 0.244339 0.244339 0.244339 0.244339 0.244339 0.244339 0.244339 0.244339 0.244339 0.244339 0.244339 0.244339 0.244339 0.244339 0.244339 0.251976 0.251976 0.251976 0.251976 0.251976 0.251976 0.251976 0.251976 0.251976 0.251976 0.251976 0.251976 0.251976 0.251976 0.251976 0.251976 0.251976 0.251976 0.251976 0.251976 0.264906 0.264906 0.264906 0.264906 0.264906 0.264906 0.264906 0.264906 0.264906 0.264906 0.264906 0.264906 0.264906 0.264906 0.264906 0.264906 0.264906 0.264906 0.264906 0.264906 0.264906 0.264906 0.264906 0.264906 0.264906 0.264906 0.264906 0.264906 0.264906 0.264906 0.264906 0.264906 0.264906 0.264906 0.264906 0.264906 0.264906 0.264906 0.264906 0.264906 0.264906 0.264906 0.264906 0.264906 0.264906 0.264906 0.264906 0.264906 0.264906 0.264906 0.264906 0.264906 0.264906 0.264906 0.264906 0.264906 0.264906 0.264906 0.264906 0.264906 0.264906 0.264906 0.264906 0.264906 0.264906 0.264906 0.264906 0.264906 0.264906 0.264906 0.264906 0.264906 0.264906 0.264906 0.264906 0.269680 0.269680 0.269680 0.269680 0.269680 0.269680 0.269680 0.269680 0.269680 0.269680 0.269680 0.269680 0.264906 0.264906 0.264906 0.264906 0.264906 0.264906 0.264906 0.264906 0.264906 0.264906 0.264906 0.264906 0.269680 0.269680 0.269680 0.269680 0.269680 0.269680 0.269680 0.269680 0.269680 0.269680 0.269680 0.264906 0.264906 0.264906 0.264906 0.264906 0.264906 0.264906 0.264906 0.264906 0.264906 0.264906 0.256074 0.256074 0.256074 0.256074 0.256074 0.256074 0.256074 0.256074 0.256074 0.256074 0.256074 0.264906 0.264906 0.264906 0.264906 0.264906 0.264906 0.264906 0.264906 0.264906 0.264906 0.260378 0.260378 0.260378 0.260378 0.260378 0.260378 0.260378 0.260378 0.260378 0.260378 0.264906 0.264906 0.264906 0.264906 0.264906 0.264906 0.264906 0.264906 0.264906 0.260378 0.260378 0.260378 0.260378 0.260378 0.260378 0.260378 0.260378 0.260378 0.256074 0.256074 0.256074 0.256074 0.256074 0.256074 0.256074 0.256074 0.256074 0.251976 0.251976 0.251976 0.251976 0.251976 0.251976 0.251976 0.251976 0.251976 0.251976 0.251976 0.251976 0.251976 0.251976 0.251976 0.251976 0.251976 0.251976
