# Output from CTFFind version 4.1.9, run on 2019-11-02 17:46:51
# Input file: stack11_bm3d_averaged_1_1.25_0_1250_half.mrc ; Number of micrographs: 1
# Pixel size: 3.000 Angstroms ; acceleration voltage: 300.0 keV ; spherical aberration: 0.00 mm ; amplitude contrast: 0.07
# Box size: 512 pixels ; min. res.: 30.0 Angstroms ; max. res.: 5.0 Angstroms ; min. def.: 5000.0 um; max. def. 50000.0 um; num. frames averaged: 1
# 6 lines per micrograph: #1 - spatial frequency (1/Angstroms); #2 - 1D rotational average of spectrum (assuming no astigmatism); #3 - 1D rotational average of spectrum; #4 - CTF fit; #5 - cross-correlation between spectrum and CTF fit; #6 - 2sigma of expected cross correlation of noise
0.000000 0.000651 0.001302 0.001953 0.002604 0.003255 0.003906 0.004557 0.005208 0.005859 0.006510 0.007161 0.007812 0.008464 0.009115 0.009766 0.010417 0.011068 0.011719 0.012370 0.013021 0.013672 0.014323 0.014974 0.015625 0.016276 0.016927 0.017578 0.018229 0.018880 0.019531 0.020182 0.020833 0.021484 0.022135 0.022786 0.023438 0.024089 0.024740 0.025391 0.026042 0.026693 0.027344 0.027995 0.028646 0.029297 0.029948 0.030599 0.031250 0.031901 0.032552 0.033203 0.033854 0.034505 0.035156 0.035807 0.036458 0.037109 0.037760 0.038411 0.039062 0.039714 0.040365 0.041016 0.041667 0.042318 0.042969 0.043620 0.044271 0.044922 0.045573 0.046224 0.046875 0.047526 0.048177 0.048828 0.049479 0.050130 0.050781 0.051432 0.052083 0.052734 0.053385 0.054036 0.054688 0.055339 0.055990 0.056641 0.057292 0.057943 0.058594 0.059245 0.059896 0.060547 0.061198 0.061849 0.062500 0.063151 0.063802 0.064453 0.065104 0.065755 0.066406 0.067057 0.067708 0.068359 0.069010 0.069661 0.070312 0.070964 0.071615 0.072266 0.072917 0.073568 0.074219 0.074870 0.075521 0.076172 0.076823 0.077474 0.078125 0.078776 0.079427 0.080078 0.080729 0.081380 0.082031 0.082682 0.083333 0.083984 0.084635 0.085286 0.085938 0.086589 0.087240 0.087891 0.088542 0.089193 0.089844 0.090495 0.091146 0.091797 0.092448 0.093099 0.093750 0.094401 0.095052 0.095703 0.096354 0.097005 0.097656 0.098307 0.098958 0.099609 0.100260 0.100911 0.101562 0.102214 0.102865 0.103516 0.104167 0.104818 0.105469 0.106120 0.106771 0.107422 0.108073 0.108724 0.109375 0.110026 0.110677 0.111328 0.111979 0.112630 0.113281 0.113932 0.114583 0.115234 0.115885 0.116536 0.117188 0.117839 0.118490 0.119141 0.119792 0.120443 0.121094 0.121745 0.122396 0.123047 0.123698 0.124349 0.125000 0.125651 0.126302 0.126953 0.127604 0.128255 0.128906 0.129557 0.130208 0.130859 0.131510 0.132161 0.132812 0.133464 0.134115 0.134766 0.135417 0.136068 0.136719 0.137370 0.138021 0.138672 0.139323 0.139974 0.140625 0.141276 0.141927 0.142578 0.143229 0.143880 0.144531 0.145182 0.145833 0.146484 0.147135 0.147786 0.148438 0.149089 0.149740 0.150391 0.151042 0.151693 0.152344 0.152995 0.153646 0.154297 0.154948 0.155599 0.156250 0.156901 0.157552 0.158203 0.158854 0.159505 0.160156 0.160807 0.161458 0.162109 0.162760 0.163411 0.164062 0.164714 0.165365 0.166016 0.166667 0.167318 0.167969 0.168620 0.169271 0.169922 0.170573 0.171224 0.171875 0.172526 0.173177 0.173828 0.174479 0.175130 0.175781 0.176432 0.177083 0.177734 0.178385 0.179036 0.179688 0.180339 0.180990 0.181641 0.182292 0.182943 0.183594 0.184245 0.184896 0.185547 0.186198 0.186849 0.187500 0.188151 0.188802 0.189453 0.190104 0.190755 0.191406 0.192057 0.192708 0.193359 0.194010 0.194661 0.195312 0.195964 0.196615 0.197266 0.197917 0.198568 0.199219 0.199870 0.200521 0.201172 0.201823 0.202474 0.203125 0.203776 0.204427 0.205078 0.205729 0.206380 0.207031 0.207682 0.208333 0.208984 0.209635 0.210286 0.210938 0.211589 0.212240 0.212891 0.213542 0.214193 0.214844 0.215495 0.216146 0.216797 0.217448 0.218099 0.218750 0.219401 0.220052 0.220703 0.221354 0.222005 0.222656 0.223307 0.223958 0.224609 0.225260 0.225911 0.226562 0.227214 0.227865 0.228516 0.229167 0.229818 0.230469 0.231120 0.231771 0.232422 0.233073 0.233724 0.234375 0.235026 0.235677
       0.31696        0.31696        0.31696        0.31696        0.31695        0.31696        0.31696        0.31696        0.31696        0.31696        0.31696        0.31696        0.31696        0.31695        0.31696        0.31695        0.31696        0.31695        0.31695        0.31696        0.31696        0.31695        0.31695        0.31696        0.31695        0.31696        0.31696        0.31696        0.31695        0.31696        0.31695        0.31695        0.31696        0.31696        0.31696        0.31695        0.31696        0.31695        0.31696        0.31695        0.31695        0.31696        0.31695        0.31696        0.31695        0.31696        0.31696        0.31696        0.31695        0.31696        0.31696        0.68379        0.86989        0.52262        0.08771       -0.06499       -0.42539       -0.20704       -0.29632       -0.11817       -0.07718       -0.11835       -0.06869       -0.20803       -0.23537       -0.25785       -0.33038       -0.33752       -0.49055       -0.38291       -0.46623       -0.44874       -0.42162       -0.46981       -0.54425       -0.56225       -0.58832       -0.62489       -0.57872       -0.41545       -0.37885       -0.33120       -0.31581       -0.21185       -0.20012        0.01782        0.07139        0.10520        0.22575        0.37263        0.44292        0.51641        0.55908        0.55390        0.57141        0.69842        0.81277        0.74250        0.73344        0.67040        0.58098        0.48546        0.40711        0.49379        0.37514        0.20259        0.07764        0.04618        0.01083       -0.06140       -0.03947       -0.02363       -0.07321       -0.00722       -0.02091        0.21214        0.25048        0.29082        0.43085        0.46403        0.40347        0.53562        0.62739        0.70026        0.76507        0.69035        0.65859        0.69889        0.58601        0.50270        0.41913        0.29013        0.18722        0.15618        0.10754        0.03733        0.01238       -0.00136        0.07545        0.13176        0.20375        0.28184        0.40038        0.41655        0.50906        0.60078        0.63412        0.61570        0.63057        0.55326        0.44663        0.44622        0.35193        0.22862        0.18496        0.14909        0.10854        0.12216        0.06846        0.10051        0.22477        0.26303        0.34082        0.35108        0.45220        0.51339        0.53730        0.54954        0.47067        0.42959        0.39060        0.36925        0.30701        0.25083        0.20129        0.18641        0.16191        0.19355        0.17791        0.26932        0.33273        0.36448        0.42328        0.46082        0.47790        0.44406        0.39360        0.41416        0.37473        0.28768        0.27313        0.22571        0.21291        0.19496        0.21434        0.22969        0.32802        0.37389        0.36791        0.46055        0.43810        0.43887        0.43039        0.39462        0.34461        0.32863        0.27776        0.23760        0.23730        0.27022        0.27119        0.30118        0.30203        0.33907        0.32907        0.40856        0.41574        0.37566        0.34528        0.36463        0.28051        0.28128        0.26157        0.27703        0.26119        0.28084        0.29127        0.31312        0.35005        0.35923        0.35958        0.33308        0.35212        0.28620        0.32307        0.26943        0.24718        0.28458        0.28347        0.30720        0.31274        0.33078        0.32656        0.31408        0.31774        0.28707        0.28662        0.25928        0.28143        0.26749        0.30982        0.28407        0.26452        0.30741        0.31022        0.31524        0.28723        0.29865        0.28810        0.24707        0.24066        0.21873        0.27936        0.27569        0.31506        0.31468        0.32102        0.31695        0.30619        0.27697        0.28448        0.33103        0.27071        0.26210        0.29459        0.29308        0.34172        0.33623        0.35877        0.33395        0.31189        0.28135        0.26505        0.26074        0.22743        0.26959        0.30285        0.29673        0.27860        0.29473        0.26891        0.32373        0.33156        0.25211        0.21996        0.27341        0.33772        0.27632        0.31166        0.32559        0.32583        0.29854        0.32328        0.34342        0.29699        0.29080        0.25888        0.27988        0.35176        0.35283        0.26022        0.26737        0.25577        0.28296        0.22245        0.29310        0.22319        0.24989        0.33290        0.32035        0.34792        0.29641        0.24052        0.23847        0.24080        0.23793        0.18482        0.22453        0.26365        0.29802        0.27459        0.30603        0.29686        0.27530        0.27900        0.20945        0.17422        0.19181        0.22965        0.19831        0.21427        0.23024        0.20575        0.24999        0.33998        0.29871        0.31044        0.22307        0.25679        0.23324        0.28066        0.29738        0.14373        0.22481        0.22487        0.11905        0.22390        0.11006        0.16033        0.20321        0.12319       -0.12767       -0.61967
2.586738 2.559740 2.532887 2.506181 2.479622 2.453208 2.426941 2.400820 2.374846 2.349018 2.323336 2.297801 2.272412 2.247170 2.222074 2.197124 2.172320 2.147663 2.123152 2.098788 2.074570 2.050498 2.026573 2.002794 1.979161 1.955675 1.932335 1.909142 1.886094 1.863193 1.840439 1.817831 1.795369 1.773053 1.750884 1.728862 1.706985 1.685255 1.663672 1.642234 1.620943 1.599799 1.578800 1.557949 1.537243 1.516684 1.496271 1.476004 1.455884 1.435911 1.416083 1.637257 2.043550 1.616801 1.129442 0.988291 0.422108 0.811661 0.561770 0.834107 0.772956 0.787473 0.752133 0.710519 0.562776 0.514200 0.485191 0.444333 0.206087 0.379385 0.203028 0.307742 0.237532 0.180274 0.131380 0.005419 0.041727 -0.014365 -0.055788 0.105058 0.206796 0.194476 0.153239 0.332363 0.197591 0.495305 0.576673 0.549936 0.594022 0.878077 0.809958 0.945726 0.888937 0.973865 0.941886 1.080113 1.139572 1.075718 1.126778 0.951363 0.943195 0.785560 0.651709 0.770233 0.705930 0.461836 0.307576 0.253426 0.214760 0.147526 0.089402 0.127677 0.067530 0.152150 0.052668 0.262083 0.379048 0.358771 0.480824 0.582120 0.466363 0.546198 0.698058 0.744413 0.781714 0.732258 0.733876 0.714786 0.626943 0.568964 0.429155 0.287121 0.207098 0.077930 0.131812 -0.044602 -0.030067 -0.080203 -0.038332 0.003704 0.146177 0.088971 0.300395 0.277829 0.363345 0.453970 0.522585 0.507065 0.520038 0.504888 0.332984 0.310051 0.278228 0.099234 0.048540 -0.003881 -0.033549 -0.039905 -0.090256 -0.103739 -0.012863 0.056204 0.133731 0.139921 0.228153 0.331889 0.310114 0.418603 0.391878 0.284938 0.230814 0.246085 0.204269 0.103080 0.073715 0.018279 0.001142 0.007976 -0.015158 0.057399 0.147760 0.142345 0.226649 0.253541 0.304498 0.258364 0.221899 0.184208 0.212664 0.145447 0.045219 0.044220 -0.010859 -0.011412 -0.030620 0.016371 0.015748 0.169992 0.127708 0.182511 0.237357 0.200262 0.191903 0.196531 0.139191 0.103263 0.064852 0.046532 -0.036911 0.008449 0.022698 0.054511 0.051476 0.078805 0.096440 0.121180 0.134793 0.185278 0.078607 0.096926 0.072259 -0.000797 0.005114 0.008410 -0.010215 0.019299 0.003930 0.029350 0.066981 0.080551 0.119478 0.048428 0.100059 0.054884 0.012388 0.063568 -0.035122 -0.014028 0.024970 0.001070 0.053207 0.052317 0.050473 0.055429 0.054324 0.047639 0.020382 -0.000772 0.008462 0.014803 -0.010749 0.071025 -0.014051 0.010644 0.057029 0.046723 0.035530 0.043730 0.036921 0.017503 -0.020522 -0.041212 -0.017120 0.019948 0.026302 0.067963 0.059176 0.061910 0.082142 0.064014 0.023796 0.063771 0.087418 0.017841 0.020195 0.059461 0.054159 0.103821 0.108758 0.115260 0.116865 0.067334 0.042895 0.032177 0.004888 0.000215 0.050599 0.080207 0.046928 0.032887 0.031740 0.017210 0.092144 0.062637 -0.045494 -0.051528 0.031920 0.096116 0.004957 0.028595 0.058676 0.088007 0.023463 0.059443 0.081171 0.031314 0.036975 -0.041041 0.020035 0.109366 0.068522 -0.053854 -0.022008 -0.048472 0.022690 -0.109197 0.039325 -0.106716 -0.034934 0.056121 0.031025 0.031784 -0.044240 -0.065714 -0.088559 -0.085109 -0.070240 -0.128248 -0.092493 -0.035449 0.025890 -0.033127 0.040494 -0.019521 -0.047987 0.051320 -0.110513 -0.099517 -0.089721 -0.016032 -0.052047 -0.042959 0.000097 0.007700 0.017620 0.186342 -0.009643 0.148682 0.010689 0.264201 0.250266 0.321493 0.272752 0.107972 0.227672 0.267755 0.037752 0.247607 0.117058 0.130707 0.274047 0.125991 -0.640880
0.072396 0.072899 0.074406 0.076917 0.080433 0.084951 0.090471 0.096991 0.104509 0.113022 0.122527 0.133019 0.144494 0.156944 0.170362 0.184739 0.200064 0.216323 0.233503 0.251585 0.270550 0.290375 0.311034 0.332497 0.354732 0.377700 0.401362 0.425671 0.450575 0.476021 0.501945 0.528282 0.554958 0.581896 0.609008 0.636205 0.663387 0.690450 0.717282 0.743764 0.769770 0.795168 0.819821 0.843581 0.866299 0.887817 0.907973 0.926601 0.943530 0.958586 0.971592 0.982371 0.990744 0.996535 0.999569 0.999674 0.996684 0.990439 0.980791 0.967597 0.950731 0.930080 0.905547 0.877055 0.844548 0.807991 0.767378 0.722728 0.674091 0.621548 0.565215 0.505243 0.441819 0.375170 0.305560 0.233296 0.158724 0.082229 0.004239 0.074782 0.154331 0.233870 0.312828 0.390607 0.466579 0.540099 0.610505 0.677126 0.739285 0.796312 0.847548 0.892351 0.930112 0.960255 0.982253 0.995635 0.999996 0.995006 0.980420 0.956086 0.921954 0.878082 0.824646 0.761940 0.690388 0.610537 0.523066 0.428781 0.328612 0.223610 0.114939 0.003861 0.108265 0.220010 0.329882 0.436352 0.537871 0.632895 0.719909 0.797453 0.864152 0.918737 0.960079 0.987213 0.999364 0.995973 0.976715 0.941524 0.890601 0.824432 0.743790 0.649739 0.543626 0.427074 0.301961 0.170401 0.034711 0.102629 0.239008 0.371744 0.498126 0.615480 0.721218 0.812910 0.888337 0.945556 0.982954 0.999304 0.993811 0.966151 0.916501 0.845558 0.754551 0.645228 0.519843 0.381117 0.232195 0.076581 0.081938 0.239375 0.391648 0.534681 0.664516 0.777430 0.870048 0.939455 0.983300 0.999884 0.988242 0.948202 0.880422 0.786406 0.668491 0.529813 0.374237 0.206270 0.030935 0.146361 0.319995 0.484305 0.633771 0.763217 0.867991 0.944154 0.988636 0.999388 0.975484 0.917205 0.826068 0.704825 0.557400 0.388789 0.204913 0.012426 0.181518 0.369520 0.544224 0.698603 0.826257 0.921694 0.980585 0.999989 0.978517 0.916450 0.815786 0.680209 0.514994 0.326830 0.123568 0.086078 0.292903 0.487606 0.661214 0.805510 0.913434 0.979458 0.999901 0.973160 0.899859 0.782893 0.627355 0.440352 0.230726 0.008649 0.214844 0.428400 0.620922 0.782159 0.903272 0.977350 0.999838 0.968858 0.885391 0.753311 0.579265 0.372370 0.143789 0.093854 0.327143 0.542638 0.727641 0.870976 0.963693 0.999663 0.976036 0.893505 0.756368 0.572366 0.352299 0.109436 0.141249 0.383984 0.603195 0.784508 0.915725 0.987690 0.994969 0.936325 0.814912 0.638180 0.417489 0.167426 0.095108 0.352017 0.585266 0.778140 0.916482 0.989780 0.992020 0.922248 0.784772 0.588976 0.348759 0.081605 0.192647 0.453268 0.680175 0.855534 0.965191 0.999873 0.956051 0.836361 0.649549 0.409919 0.136307 0.149347 0.423726 0.664043 0.849942 0.965289 0.999624 0.949199 0.817460 0.614921 0.358420 0.069803 0.225899 0.502593 0.735453 0.903163 0.989941 0.987099 0.894015 0.718365 0.475618 0.187752 0.118643 0.414807 0.672473 0.866609 0.977905 0.994778 0.914680 0.744551 0.500351 0.205659 0.110512 0.416526 0.681280 0.877395 0.984114 0.989589 0.892315 0.701514 0.436396 0.124324 0.201906 0.507482 0.759294 0.929553 0.998960 0.958993 0.813085 0.576492 0.274836 0.058564 0.386305 0.671074 0.879921 0.988157 0.982380 0.862269 0.640894 0.343447 0.004500 0.335933 0.637073 0.862303 0.983686 0.985543 0.866637 0.640603 0.334560 0.014014 0.361777 0.664888 0.884545 0.992061 0.972725 0.827986 0.575569 0.247489 0.113892
1.000000 1.000000 1.000000 1.000000 1.000000 1.000000 1.000000 1.000000 1.000000 1.000000 1.000000 1.000000 1.000000 1.000000 1.000000 1.000000 1.000000 1.000000 1.000000 1.000000 1.000000 1.000000 1.000000 1.000000 1.000000 1.000000 1.000000 1.000000 1.000000 1.000000 1.000000 1.000000 1.000000 1.000000 1.000000 1.000000 1.000000 1.000000 1.000000 1.000000 1.000000 1.000000 1.000000 1.000000 1.000000 1.000000 1.000000 1.000000 1.000000 1.000000 1.000000 1.000000 0.931559 0.931559 0.931559 0.921984 0.921984 0.921984 0.921984 0.921984 0.921984 0.921984 0.921984 0.921984 0.921984 0.921984 0.921984 0.921984 0.921984 0.921984 0.921984 0.921984 0.921984 0.921984 0.921984 0.921984 0.921984 0.921984 0.921984 0.921984 0.921984 0.921984 0.921984 0.921984 0.921984 0.921984 0.921984 0.921984 0.921984 0.921984 0.921984 0.921984 0.921984 0.921984 0.921984 0.921984 0.947280 0.948561 0.956476 0.956305 0.955776 0.953635 0.952682 0.951539 0.951076 0.951366 0.952006 0.952886 0.964658 0.965724 0.967295 0.968121 0.968837 0.969485 0.969316 0.970039 0.969251 0.968691 0.968178 0.964207 0.964829 0.965392 0.965510 0.966542 0.966422 0.968446 0.968613 0.968011 0.967126 0.966380 0.965660 0.965235 0.964955 0.965460 0.965753 0.967058 0.970235 0.969664 0.969365 0.969523 0.969624 0.969805 0.970241 0.971932 0.968202 0.968841 0.967192 0.965024 0.969216 0.966371 0.966148 0.967510 0.967892 0.968289 0.967091 0.963419 0.957410 0.956476 0.953687 0.944535 0.943153 0.943782 0.946143 0.946577 0.945145 0.937729 0.938316 0.932035 0.933225 0.936504 0.931374 0.931405 0.932550 0.931855 0.930641 0.930002 0.927294 0.924527 0.922928 0.922625 0.925614 0.925706 0.926876 0.926732 0.921332 0.913017 0.900293 0.898905 0.893515 0.896588 0.886415 0.886311 0.886457 0.882218 0.885636 0.885300 0.886213 0.883099 0.867056 0.849370 0.841871 0.845540 0.850509 0.845727 0.844328 0.837335 0.848850 0.828619 0.841246 0.852800 0.849214 0.849598 0.849052 0.846819 0.840535 0.841368 0.843631 0.845328 0.843460 0.841514 0.840444 0.823437 0.824491 0.760279 0.742941 0.735637 0.741270 0.747631 0.748825 0.748105 0.755954 0.761100 0.755079 0.738102 0.730222 0.722029 0.726957 0.728303 0.731755 0.717739 0.690943 0.685664 0.653878 0.671450 0.685117 0.644648 0.667842 0.678728 0.676751 0.675624 0.668748 0.666013 0.661923 0.664910 0.672403 0.685451 0.704467 0.727733 0.724346 0.714586 0.714055 0.694903 0.687781 0.678560 0.691299 0.671081 0.667117 0.685392 0.684933 0.670689 0.649196 0.637592 0.627462 0.622784 0.632941 0.624451 0.620334 0.608623 0.583330 0.575924 0.612368 0.628589 0.648834 0.618997 0.605393 0.594792 0.575772 0.589427 0.533452 0.533112 0.553586 0.560983 0.539273 0.525500 0.535914 0.544149 0.546731 0.537278 0.523328 0.513107 0.529084 0.559889 0.550455 0.530077 0.532357 0.531374 0.525953 0.440261 0.433807 0.404736 0.373969 0.314032 0.291693 0.284225 0.266391 0.253671 0.219068 0.215190 0.224901 0.233832 0.247048 0.249360 0.234776 0.240967 0.233452 0.220112 0.158297 0.147367 0.139845 0.129640 0.129542 0.105630 0.129035 0.194911 0.197562 0.197562 0.197562 0.197562 0.197562 0.197562 0.208439 0.208439 0.208439 0.208439 0.208439 0.208439 0.208439 0.208439 0.208439 0.217619 0.217619 0.217619 0.217619 0.217619 0.217619 0.217619 0.217619 0.217619 0.217619 0.217619 0.217619 0.217619 0.217619
0.000000 0.000000 0.000000 0.000000 0.000000 0.000000 0.000000 0.000000 0.000000 0.000000 0.000000 0.000000 0.000000 0.000000 0.000000 0.000000 0.000000 0.000000 0.000000 0.000000 0.000000 0.000000 0.000000 0.000000 0.000000 7.000000 4.000000 0.000000 0.000000 0.000000 0.000000 0.000000 0.000000 0.000000 0.000000 0.000000 0.000000 0.000000 0.000000 0.000000 0.000000 0.000000 0.000000 0.000000 0.000000 0.000000 0.000000 0.000000 0.000000 0.000000 0.000000 0.000000 0.180334 0.180334 0.180334 0.199007 0.199007 0.199007 0.199007 0.199007 0.199007 0.199007 0.199007 0.199007 0.199007 0.199007 0.199007 0.199007 0.199007 0.199007 0.199007 0.199007 0.199007 0.199007 0.199007 0.199007 0.199007 0.199007 0.199007 0.199007 0.199007 0.199007 0.199007 0.199007 0.199007 0.199007 0.199007 0.199007 0.199007 0.199007 0.199007 0.199007 0.199007 0.199007 0.199007 0.199007 0.225018 0.225018 0.225018 0.225018 0.225018 0.225018 0.225018 0.225018 0.225018 0.225018 0.225018 0.225018 0.225018 0.225018 0.225018 0.225018 0.225018 0.225018 0.225018 0.225018 0.225018 0.225018 0.225018 0.225018 0.225018 0.225018 0.225018 0.225018 0.225018 0.244339 0.244339 0.244339 0.244339 0.244339 0.244339 0.244339 0.244339 0.244339 0.244339 0.244339 0.244339 0.244339 0.244339 0.244339 0.244339 0.244339 0.244339 0.244339 0.244339 0.244339 0.244339 0.244339 0.251976 0.251976 0.251976 0.251976 0.251976 0.251976 0.251976 0.251976 0.251976 0.251976 0.251976 0.251976 0.251976 0.251976 0.251976 0.251976 0.251976 0.251976 0.251976 0.251976 0.264906 0.264906 0.264906 0.264906 0.264906 0.264906 0.264906 0.264906 0.264906 0.264906 0.264906 0.264906 0.264906 0.264906 0.264906 0.264906 0.264906 0.264906 0.264906 0.264906 0.264906 0.264906 0.264906 0.264906 0.264906 0.264906 0.264906 0.264906 0.264906 0.264906 0.264906 0.264906 0.264906 0.264906 0.264906 0.264906 0.264906 0.264906 0.264906 0.264906 0.264906 0.264906 0.264906 0.264906 0.264906 0.264906 0.264906 0.264906 0.264906 0.264906 0.264906 0.264906 0.264906 0.264906 0.264906 0.264906 0.264906 0.264906 0.264906 0.264906 0.264906 0.264906 0.256074 0.256074 0.256074 0.256074 0.256074 0.256074 0.256074 0.256074 0.256074 0.256074 0.256074 0.256074 0.256074 0.256074 0.269680 0.269680 0.269680 0.269680 0.269680 0.269680 0.269680 0.269680 0.269680 0.269680 0.269680 0.269680 0.264906 0.264906 0.264906 0.264906 0.264906 0.264906 0.264906 0.264906 0.264906 0.264906 0.264906 0.264906 0.269680 0.269680 0.269680 0.269680 0.269680 0.269680 0.269680 0.269680 0.269680 0.269680 0.269680 0.264906 0.264906 0.264906 0.264906 0.264906 0.264906 0.264906 0.264906 0.264906 0.264906 0.264906 0.256074 0.256074 0.256074 0.256074 0.256074 0.256074 0.256074 0.256074 0.256074 0.256074 0.256074 0.264906 0.264906 0.264906 0.264906 0.264906 0.264906 0.264906 0.264906 0.264906 0.264906 0.260378 0.260378 0.260378 0.260378 0.260378 0.260378 0.260378 0.260378 0.260378 0.260378 0.256074 0.256074 0.256074 0.256074 0.256074 0.256074 0.256074 0.256074 0.256074 0.256074 0.260378 0.260378 0.260378 0.260378 0.260378 0.260378 0.260378 0.260378 0.260378 0.256074 0.256074 0.256074 0.256074 0.256074 0.256074 0.256074 0.256074 0.256074 0.251976 0.251976 0.251976 0.251976 0.251976 0.251976 0.251976 0.251976 0.251976 0.251976 0.251976 0.251976 0.251976 0.251976
