# Output from CTFFind version 4.1.9, run on 2019-11-03 20:09:01
# Input file: stack11_bm3d_averaged_1_10_0_2000_half.mrc ; Number of micrographs: 1
# Pixel size: 3.000 Angstroms ; acceleration voltage: 300.0 keV ; spherical aberration: 0.00 mm ; amplitude contrast: 0.07
# Box size: 512 pixels ; min. res.: 30.0 Angstroms ; max. res.: 5.0 Angstroms ; min. def.: 5000.0 um; max. def. 50000.0 um; num. frames averaged: 1
# 6 lines per micrograph: #1 - spatial frequency (1/Angstroms); #2 - 1D rotational average of spectrum (assuming no astigmatism); #3 - 1D rotational average of spectrum; #4 - CTF fit; #5 - cross-correlation between spectrum and CTF fit; #6 - 2sigma of expected cross correlation of noise
0.000000 0.000651 0.001302 0.001953 0.002604 0.003255 0.003906 0.004557 0.005208 0.005859 0.006510 0.007161 0.007812 0.008464 0.009115 0.009766 0.010417 0.011068 0.011719 0.012370 0.013021 0.013672 0.014323 0.014974 0.015625 0.016276 0.016927 0.017578 0.018229 0.018880 0.019531 0.020182 0.020833 0.021484 0.022135 0.022786 0.023438 0.024089 0.024740 0.025391 0.026042 0.026693 0.027344 0.027995 0.028646 0.029297 0.029948 0.030599 0.031250 0.031901 0.032552 0.033203 0.033854 0.034505 0.035156 0.035807 0.036458 0.037109 0.037760 0.038411 0.039062 0.039714 0.040365 0.041016 0.041667 0.042318 0.042969 0.043620 0.044271 0.044922 0.045573 0.046224 0.046875 0.047526 0.048177 0.048828 0.049479 0.050130 0.050781 0.051432 0.052083 0.052734 0.053385 0.054036 0.054688 0.055339 0.055990 0.056641 0.057292 0.057943 0.058594 0.059245 0.059896 0.060547 0.061198 0.061849 0.062500 0.063151 0.063802 0.064453 0.065104 0.065755 0.066406 0.067057 0.067708 0.068359 0.069010 0.069661 0.070312 0.070964 0.071615 0.072266 0.072917 0.073568 0.074219 0.074870 0.075521 0.076172 0.076823 0.077474 0.078125 0.078776 0.079427 0.080078 0.080729 0.081380 0.082031 0.082682 0.083333 0.083984 0.084635 0.085286 0.085938 0.086589 0.087240 0.087891 0.088542 0.089193 0.089844 0.090495 0.091146 0.091797 0.092448 0.093099 0.093750 0.094401 0.095052 0.095703 0.096354 0.097005 0.097656 0.098307 0.098958 0.099609 0.100260 0.100911 0.101562 0.102214 0.102865 0.103516 0.104167 0.104818 0.105469 0.106120 0.106771 0.107422 0.108073 0.108724 0.109375 0.110026 0.110677 0.111328 0.111979 0.112630 0.113281 0.113932 0.114583 0.115234 0.115885 0.116536 0.117188 0.117839 0.118490 0.119141 0.119792 0.120443 0.121094 0.121745 0.122396 0.123047 0.123698 0.124349 0.125000 0.125651 0.126302 0.126953 0.127604 0.128255 0.128906 0.129557 0.130208 0.130859 0.131510 0.132161 0.132812 0.133464 0.134115 0.134766 0.135417 0.136068 0.136719 0.137370 0.138021 0.138672 0.139323 0.139974 0.140625 0.141276 0.141927 0.142578 0.143229 0.143880 0.144531 0.145182 0.145833 0.146484 0.147135 0.147786 0.148438 0.149089 0.149740 0.150391 0.151042 0.151693 0.152344 0.152995 0.153646 0.154297 0.154948 0.155599 0.156250 0.156901 0.157552 0.158203 0.158854 0.159505 0.160156 0.160807 0.161458 0.162109 0.162760 0.163411 0.164062 0.164714 0.165365 0.166016 0.166667 0.167318 0.167969 0.168620 0.169271 0.169922 0.170573 0.171224 0.171875 0.172526 0.173177 0.173828 0.174479 0.175130 0.175781 0.176432 0.177083 0.177734 0.178385 0.179036 0.179688 0.180339 0.180990 0.181641 0.182292 0.182943 0.183594 0.184245 0.184896 0.185547 0.186198 0.186849 0.187500 0.188151 0.188802 0.189453 0.190104 0.190755 0.191406 0.192057 0.192708 0.193359 0.194010 0.194661 0.195312 0.195964 0.196615 0.197266 0.197917 0.198568 0.199219 0.199870 0.200521 0.201172 0.201823 0.202474 0.203125 0.203776 0.204427 0.205078 0.205729 0.206380 0.207031 0.207682 0.208333 0.208984 0.209635 0.210286 0.210938 0.211589 0.212240 0.212891 0.213542 0.214193 0.214844 0.215495 0.216146 0.216797 0.217448 0.218099 0.218750 0.219401 0.220052 0.220703 0.221354 0.222005 0.222656 0.223307 0.223958 0.224609 0.225260 0.225911 0.226562 0.227214 0.227865 0.228516 0.229167 0.229818 0.230469 0.231120 0.231771 0.232422 0.233073 0.233724 0.234375 0.235026 0.235677
       0.34933        0.34933        0.34933        0.34933        0.34933        0.34933        0.34933        0.34933        0.34933        0.34933        0.34933        0.34933        0.34933        0.34933        0.34933        0.34933        0.34933        0.34933        0.34933        0.34933        0.34933        0.34933        0.34933        0.34933        0.34933        0.34933        0.34933        0.34933        0.34933        0.34933        0.34933        0.34933        0.34933        0.34933        0.34933        0.34933        0.34933        0.34933        0.34933        0.34933        0.34933        0.34933        0.34933        0.34933        0.34933        0.34933        0.34933        0.34933        0.34933        0.34933        0.34933        0.70149        0.85798        0.54068        0.10659       -0.02790       -0.37920       -0.17743       -0.28756       -0.11653       -0.05302       -0.11259       -0.05225       -0.16032       -0.20191       -0.20949       -0.30312       -0.31392       -0.43860       -0.35992       -0.42005       -0.41613       -0.38876       -0.39810       -0.43753       -0.50039       -0.55475       -0.54151       -0.51464       -0.35010       -0.31785       -0.28416       -0.26399       -0.18153       -0.16467        0.06561        0.14870        0.18310        0.27172        0.38222        0.45960        0.52547        0.60670        0.60392        0.58895        0.70352        0.80122        0.70177        0.74723        0.61750        0.56998        0.48681        0.43821        0.51433        0.40221        0.28178        0.12256        0.12183        0.10394       -0.00423        0.05717        0.06110        0.02123        0.03165        0.04041        0.23703        0.27374        0.29830        0.43884        0.45666        0.41792        0.60758        0.61540        0.62874        0.72101        0.67553        0.64849        0.65347        0.56059        0.45909        0.42030        0.30901        0.28105        0.19227        0.14100        0.05394        0.07422        0.08727        0.10492        0.16754        0.25202        0.30681        0.43373        0.46850        0.48305        0.56136        0.60198        0.63798        0.61136        0.55553        0.46616        0.47409        0.37956        0.28521        0.21859        0.15807        0.17952        0.15796        0.17308        0.20362        0.33108        0.34657        0.41556        0.45333        0.42495        0.47799        0.56603        0.55877        0.50898        0.45933        0.41843        0.38015        0.34942        0.31761        0.27552        0.25269        0.26734        0.26304        0.23131        0.31560        0.37088        0.38570        0.44144        0.45678        0.46628        0.43196        0.41744        0.40491        0.36868        0.34954        0.27854        0.29058        0.27505        0.25714        0.30397        0.30089        0.35797        0.39148        0.44366        0.47808        0.40735        0.42372        0.43341        0.41634        0.35445        0.33522        0.29446        0.33415        0.28323        0.33168        0.32271        0.34067        0.34876        0.37085        0.31125        0.38710        0.41297        0.38472        0.35572        0.37051        0.32336        0.30158        0.31490        0.32092        0.31127        0.32328        0.35272        0.36588        0.34558        0.36421        0.36198        0.43249        0.39800        0.34548        0.35386        0.30318        0.30207        0.33231        0.32398        0.33433        0.34867        0.35116        0.39355        0.33393        0.33352        0.34094        0.35668        0.30571        0.31497        0.28770        0.30534        0.33859        0.30563        0.33840        0.36583        0.38045        0.30550        0.35332        0.30516        0.29200        0.28201        0.25308        0.31586        0.31509        0.34494        0.34245        0.35168        0.33241        0.35180        0.32139        0.34799        0.30474        0.33244        0.30212        0.34323        0.34328        0.38419        0.34027        0.33919        0.33612        0.29680        0.28224        0.31853        0.25708        0.23665        0.34046        0.32897        0.37467        0.35221        0.36950        0.34355        0.33550        0.35911        0.27248        0.27915        0.32429        0.30178        0.31471        0.31173        0.34191        0.33001        0.28971        0.29710        0.34682        0.32616        0.33122        0.31206        0.32109        0.33802        0.38931        0.37264        0.32920        0.29065        0.30681        0.29392        0.31750        0.28737        0.28113        0.31281        0.32538        0.34882        0.35851        0.33762        0.30212        0.30676        0.27879        0.28749        0.26050        0.30599        0.25639        0.25860        0.28243        0.27537        0.25827        0.29326        0.22838        0.22932        0.23463        0.20054        0.28258        0.35945        0.25977        0.25795        0.32073        0.29631        0.30590        0.31744        0.28401        0.26418        0.20038        0.21382        0.22755        0.30925        0.23909        0.28192        0.37398        0.39426        0.27082        0.21330        0.16573       -0.01314       -0.16876       -0.63887
2.722269 2.693350 2.664588 2.635984 2.607537 2.579248 2.551117 2.523143 2.495326 2.467667 2.440165 2.412821 2.385634 2.358605 2.331733 2.305019 2.278462 2.252063 2.225821 2.199737 2.173810 2.148040 2.122429 2.096974 2.071677 2.046538 2.021556 1.996731 1.972064 1.947555 1.923203 1.899008 1.874971 1.851092 1.827370 1.803805 1.780398 1.757148 1.734056 1.711122 1.688344 1.665725 1.643262 1.620958 1.598810 1.576821 1.554988 1.533313 1.511796 1.490436 1.469234 1.679138 2.092894 1.663142 1.152702 1.018427 0.442405 0.820818 0.538817 0.813605 0.790223 0.789543 0.728456 0.734585 0.577958 0.542452 0.484304 0.410711 0.242286 0.346386 0.191093 0.318862 0.207017 0.205897 0.180808 0.040203 -0.004405 0.017636 -0.068835 0.128954 0.225934 0.182856 0.175701 0.310342 0.175939 0.506128 0.605307 0.620731 0.635760 0.846988 0.808701 0.913159 0.917118 1.008246 0.981742 1.044434 1.155194 1.008943 1.135047 0.879828 0.899101 0.773235 0.636187 0.786673 0.670124 0.488250 0.324738 0.243785 0.265395 0.146196 0.140395 0.164043 0.107936 0.109946 0.084703 0.237557 0.332642 0.327644 0.462926 0.526178 0.401929 0.577830 0.710638 0.610368 0.698286 0.681442 0.695982 0.620066 0.575218 0.465830 0.349976 0.269068 0.213882 0.095257 0.111361 -0.121850 -0.048898 -0.060853 -0.084316 -0.016228 0.122757 0.070425 0.239328 0.298394 0.325044 0.354367 0.474444 0.432751 0.466653 0.467837 0.292428 0.280765 0.274191 0.081575 0.045034 -0.082552 -0.019103 -0.062069 -0.095715 -0.058457 0.040007 0.093243 0.123702 0.222420 0.211495 0.211806 0.299899 0.325037 0.434433 0.244094 0.223502 0.221415 0.138012 0.141681 0.119081 -0.003850 0.014818 0.080950 -0.013777 0.040851 0.129868 0.129073 0.201667 0.225386 0.237617 0.156379 0.203567 0.124918 0.111442 0.118148 0.021631 -0.026493 -0.001960 -0.021324 -0.048078 0.054615 0.000250 0.104426 0.134309 0.190589 0.145369 0.117679 0.132479 0.149356 0.104433 0.030118 -0.027191 0.020748 0.032403 -0.046454 0.042531 0.016194 0.045708 0.038895 0.051145 0.011618 0.121406 0.107959 0.042568 0.031178 0.037598 0.002085 -0.028465 0.006219 -0.001769 -0.007860 -0.001800 0.062162 0.052346 0.035653 0.063378 0.059289 0.165873 0.064305 0.041822 0.043111 -0.035037 0.015321 0.048569 0.007295 0.030476 0.056018 0.074133 0.066127 0.040341 0.007563 0.077335 0.033089 0.014820 0.026808 -0.003315 0.029000 0.029013 0.018105 0.071301 0.077025 0.081080 0.041961 0.057131 0.017129 0.015282 -0.028858 -0.022247 0.040021 0.051448 0.074825 0.074668 0.064020 0.067543 0.088894 0.037819 0.078073 0.046038 0.046751 0.014806 0.103136 0.064316 0.128242 0.062815 0.059343 0.076574 0.021301 0.001505 0.080049 -0.037875 -0.034555 0.077706 0.040392 0.150976 0.089318 0.074338 0.063920 0.016016 0.078453 -0.020812 -0.023565 0.037345 0.020881 0.023562 0.001938 0.103138 0.013417 -0.019859 0.046345 0.028948 0.049188 0.051304 -0.002795 0.041537 0.038343 0.100042 0.064930 0.030163 -0.028733 -0.038606 -0.003516 0.014282 -0.056325 -0.016046 -0.006594 0.020600 0.024680 0.062822 0.003972 -0.030015 -0.022357 -0.015863 -0.055783 -0.042951 -0.044573 -0.126137 -0.087488 -0.073688 -0.108693 -0.116503 -0.036545 -0.148538 -0.089103 -0.123562 -0.199547 -0.069255 0.062148 -0.079688 -0.121208 0.045008 0.004181 -0.036746 0.060761 -0.024433 -0.002972 -0.078043 -0.048409 0.057281 0.146348 0.043043 0.121439 0.148172 0.502631 0.305470 0.361418 0.200323 -0.017112 -0.695112
0.072396 0.072899 0.074409 0.076924 0.080445 0.084970 0.090498 0.097028 0.104557 0.113083 0.122602 0.133110 0.144602 0.157070 0.170508 0.184906 0.200253 0.216537 0.233741 0.251849 0.270841 0.290694 0.311382 0.332874 0.355139 0.378138 0.401830 0.426169 0.451104 0.476580 0.502533 0.528898 0.555602 0.582565 0.609701 0.636919 0.664120 0.691198 0.718042 0.744531 0.770541 0.795938 0.820583 0.844331 0.867029 0.888520 0.908642 0.927228 0.944106 0.959101 0.972037 0.982736 0.991020 0.996710 0.999631 0.999613 0.996488 0.990098 0.980292 0.966929 0.949884 0.929043 0.904311 0.875610 0.842886 0.806105 0.765263 0.720379 0.671505 0.618725 0.562156 0.501952 0.438301 0.371433 0.301617 0.229160 0.154412 0.077763 0.000359 0.079485 0.159108 0.238688 0.317651 0.395394 0.471289 0.544686 0.614923 0.681324 0.743213 0.799919 0.850781 0.895159 0.932442 0.962059 0.983483 0.996248 0.999953 0.994272 0.978965 0.953889 0.919000 0.874367 0.820172 0.756723 0.684451 0.603917 0.515810 0.420948 0.320274 0.214850 0.105850 0.005450 0.117684 0.229413 0.339138 0.445323 0.546416 0.640871 0.727172 0.803865 0.869577 0.923050 0.963164 0.988971 0.999711 0.994845 0.974071 0.937347 0.884902 0.817249 0.735192 0.639825 0.532527 0.414948 0.288998 0.156813 0.020737 0.116728 0.252959 0.385259 0.510916 0.627252 0.731690 0.821813 0.895424 0.950608 0.985788 0.999780 0.991836 0.961687 0.909566 0.836233 0.742978 0.631612 0.504449 0.364268 0.214268 0.057995 0.100725 0.257881 0.409376 0.551132 0.679206 0.789902 0.879888 0.946307 0.986876 0.999983 0.984756 0.941125 0.869856 0.772564 0.651697 0.510496 0.352923 0.183568 0.007529 0.169739 0.342587 0.505345 0.652520 0.778979 0.880149 0.952190 0.992159 0.998149 0.969398 0.906356 0.810722 0.685420 0.534544 0.363243 0.177570 0.015724 0.209410 0.396068 0.568349 0.719285 0.842581 0.932889 0.986065 0.999382 0.971695 0.903546 0.797195 0.656588 0.487242 0.296059 0.091063 0.118913 0.324600 0.516699 0.686311 0.825352 0.926970 0.985904 0.998783 0.964356 0.883617 0.759833 0.598456 0.406920 0.194332 0.028929 0.251716 0.462650 0.650710 0.805825 0.919428 0.984968 0.998320 0.958087 0.865754 0.725702 0.545047 0.333322 0.102018 0.136019 0.367284 0.578381 0.756803 0.891698 0.974563 0.999826 0.965260 0.872222 0.725671 0.533963 0.308432 0.062757 0.187834 0.427495 0.640764 0.813576 0.934220 0.994181 0.988789 0.917639 0.784737 0.598346 0.370540 0.116470 0.146598 0.400444 0.627145 0.810364 0.936556 0.996023 0.983718 0.899737 0.749451 0.543237 0.295840 0.025369 0.247984 0.503444 0.721227 0.884102 0.978812 0.997204 0.937011 0.802180 0.602709 0.353994 0.075705 0.209725 0.478874 0.709272 0.881279 0.979842 0.995863 0.927130 0.778673 0.562499 0.296716 0.004091 0.289861 0.559067 0.779239 0.930086 0.997267 0.973832 0.861034 0.668406 0.413070 0.118291 0.188554 0.478515 0.723762 0.900331 0.990497 0.984668 0.882497 0.693130 0.434505 0.131763 0.185130 0.484304 0.735183 0.911663 0.994894 0.975393 0.854242 0.643203 0.363713 0.044805 0.279834 0.575384 0.809637 0.956572 0.999327 0.932266 0.761828 0.506072 0.192894 0.142923 0.463504 0.732160 0.917615 0.997743 0.962325 0.814492 0.570623 0.258696 0.084834 0.419184 0.704112 0.904755 0.996011 0.965797 0.816800 0.566435 0.244980 0.107977 0.448320 0.732907 0.925100 0.999557 0.945732 0.769528 0.492843 0.151012 0.211566
1.000000 1.000000 1.000000 1.000000 1.000000 1.000000 1.000000 1.000000 1.000000 1.000000 1.000000 1.000000 1.000000 1.000000 1.000000 1.000000 1.000000 1.000000 1.000000 1.000000 1.000000 1.000000 1.000000 1.000000 1.000000 1.000000 1.000000 1.000000 1.000000 1.000000 1.000000 1.000000 1.000000 1.000000 1.000000 1.000000 1.000000 1.000000 1.000000 1.000000 1.000000 1.000000 1.000000 1.000000 1.000000 1.000000 1.000000 1.000000 1.000000 1.000000 1.000000 1.000000 0.914358 0.914358 0.914358 0.911668 0.911668 0.911668 0.911668 0.911668 0.911668 0.911668 0.911668 0.911668 0.911668 0.911668 0.911668 0.911668 0.911668 0.911668 0.911668 0.911668 0.911668 0.911668 0.911668 0.911668 0.911668 0.911668 0.911668 0.911668 0.911668 0.911668 0.911668 0.911668 0.911668 0.911668 0.911668 0.911668 0.911668 0.911668 0.911668 0.911668 0.911668 0.911668 0.911668 0.911668 0.940009 0.941411 0.949803 0.949288 0.948752 0.946814 0.945531 0.945332 0.945253 0.945610 0.946345 0.947338 0.953532 0.954465 0.958847 0.961581 0.961557 0.963323 0.965325 0.964983 0.956813 0.956552 0.955093 0.954397 0.956521 0.955212 0.954030 0.954523 0.952225 0.956387 0.955985 0.954818 0.953226 0.951677 0.948155 0.947736 0.947487 0.948298 0.948387 0.949966 0.952990 0.951320 0.951432 0.948766 0.948327 0.949541 0.949200 0.950910 0.938924 0.938050 0.936397 0.936339 0.938928 0.938714 0.938610 0.939563 0.939275 0.939199 0.939216 0.933463 0.933361 0.926680 0.922098 0.921132 0.915145 0.911005 0.913782 0.916822 0.917860 0.918283 0.907918 0.905124 0.906204 0.904880 0.906170 0.907563 0.908811 0.909162 0.909098 0.904095 0.895266 0.893846 0.882771 0.885456 0.880605 0.877835 0.875113 0.867317 0.859069 0.870537 0.857631 0.811888 0.815449 0.820074 0.813090 0.808990 0.813109 0.813965 0.818911 0.813448 0.812674 0.805822 0.790997 0.789287 0.784175 0.769252 0.763142 0.753253 0.742793 0.736792 0.759721 0.753398 0.765494 0.769080 0.768418 0.764022 0.753355 0.740986 0.741693 0.742520 0.737906 0.713672 0.705888 0.705394 0.704782 0.690167 0.692283 0.681466 0.681882 0.667066 0.672739 0.678883 0.682405 0.676847 0.669342 0.660901 0.655723 0.669964 0.682318 0.672812 0.669566 0.683700 0.675139 0.670935 0.661486 0.663885 0.654537 0.655024 0.652966 0.688914 0.663608 0.653529 0.659829 0.661420 0.656566 0.654307 0.631980 0.626560 0.602020 0.619960 0.624520 0.639568 0.643758 0.649067 0.660379 0.667542 0.677905 0.683398 0.678701 0.637559 0.643694 0.663699 0.671821 0.663733 0.654486 0.644195 0.627074 0.663916 0.642503 0.604768 0.598749 0.603598 0.560306 0.543123 0.540612 0.539071 0.567924 0.568485 0.554631 0.530971 0.532855 0.529495 0.520707 0.519675 0.506392 0.510659 0.493779 0.473074 0.489242 0.496926 0.495910 0.479878 0.471111 0.483781 0.468539 0.486270 0.471109 0.458148 0.473590 0.473862 0.466089 0.392784 0.400335 0.396525 0.377638 0.337340 0.345422 0.356090 0.333670 0.259909 0.255866 0.256593 0.252291 0.224323 0.198667 0.184456 0.177638 0.156848 0.092120 0.040866 0.044718 0.047990 0.074426 0.037570 0.096135 0.168708 0.160806 0.160806 0.160806 0.160806 0.160806 0.160806 0.160806 0.160806 0.140661 0.140661 0.140661 0.140661 0.140661 0.140661 0.140661 0.140661 0.140661 0.160806 0.160806 0.160806 0.160806 0.160806 0.160806 0.160806 0.160806 0.160806 0.160806 0.160806 0.160806 0.160806 0.160806
0.000000 0.000000 0.000000 0.000000 0.000000 0.000000 0.000000 0.000000 0.000000 0.000000 0.000000 0.000000 0.000000 0.000000 0.000000 0.000000 0.000000 0.000000 0.000000 0.000000 0.000000 0.000000 0.000000 0.000000 0.000000 0.000000 0.000000 0.000000 0.000000 0.000000 0.000000 0.000000 0.000000 0.000000 0.000000 0.000000 0.000000 0.000000 0.000000 0.000000 0.000000 0.000000 0.000000 0.000000 0.000000 0.000000 0.000000 0.000000 0.000000 0.000000 0.000000 0.000000 0.180334 0.180334 0.180334 0.199007 0.199007 0.199007 0.199007 0.199007 0.199007 0.199007 0.199007 0.199007 0.199007 0.199007 0.199007 0.199007 0.199007 0.199007 0.199007 0.199007 0.199007 0.199007 0.199007 0.199007 0.199007 0.199007 0.199007 0.199007 0.199007 0.199007 0.199007 0.199007 0.199007 0.199007 0.199007 0.199007 0.199007 0.199007 0.199007 0.199007 0.199007 0.199007 0.199007 0.199007 0.225018 0.225018 0.225018 0.225018 0.225018 0.225018 0.225018 0.225018 0.225018 0.225018 0.225018 0.225018 0.225018 0.225018 0.225018 0.225018 0.225018 0.225018 0.225018 0.225018 0.225018 0.225018 0.225018 0.225018 0.225018 0.225018 0.225018 0.225018 0.225018 0.244339 0.244339 0.244339 0.244339 0.244339 0.244339 0.244339 0.244339 0.244339 0.244339 0.244339 0.244339 0.244339 0.244339 0.244339 0.244339 0.244339 0.244339 0.244339 0.244339 0.244339 0.244339 0.244339 0.256074 0.256074 0.256074 0.256074 0.256074 0.256074 0.256074 0.256074 0.256074 0.256074 0.256074 0.256074 0.256074 0.256074 0.256074 0.256074 0.256074 0.256074 0.256074 0.256074 0.256074 0.256074 0.256074 0.256074 0.256074 0.256074 0.256074 0.256074 0.256074 0.256074 0.256074 0.256074 0.256074 0.256074 0.256074 0.256074 0.256074 0.264906 0.264906 0.264906 0.264906 0.264906 0.264906 0.264906 0.264906 0.264906 0.264906 0.264906 0.264906 0.264906 0.264906 0.264906 0.264906 0.264906 0.264906 0.264906 0.264906 0.264906 0.264906 0.264906 0.264906 0.264906 0.264906 0.264906 0.264906 0.264906 0.264906 0.264906 0.264906 0.264906 0.264906 0.264906 0.264906 0.264906 0.264906 0.264906 0.264906 0.264906 0.264906 0.264906 0.264906 0.264906 0.264906 0.264906 0.264906 0.264906 0.264906 0.264906 0.264906 0.264906 0.264906 0.264906 0.264906 0.264906 0.264906 0.260378 0.260378 0.260378 0.260378 0.260378 0.260378 0.260378 0.260378 0.260378 0.260378 0.260378 0.260378 0.260378 0.264906 0.264906 0.264906 0.264906 0.264906 0.264906 0.264906 0.264906 0.264906 0.264906 0.264906 0.264906 0.269680 0.269680 0.269680 0.269680 0.269680 0.269680 0.269680 0.269680 0.269680 0.269680 0.269680 0.264906 0.264906 0.264906 0.264906 0.264906 0.264906 0.264906 0.264906 0.264906 0.264906 0.264906 0.256074 0.256074 0.256074 0.256074 0.256074 0.256074 0.256074 0.256074 0.256074 0.256074 0.256074 0.264906 0.264906 0.264906 0.264906 0.264906 0.264906 0.264906 0.264906 0.264906 0.264906 0.260378 0.260378 0.260378 0.260378 0.260378 0.260378 0.260378 0.260378 0.260378 0.260378 0.264906 0.264906 0.264906 0.264906 0.264906 0.264906 0.264906 0.264906 0.264906 0.251976 0.251976 0.251976 0.251976 0.251976 0.251976 0.251976 0.251976 0.251976 0.251976 0.256074 0.256074 0.256074 0.256074 0.256074 0.256074 0.256074 0.256074 0.256074 0.251976 0.251976 0.251976 0.251976 0.251976 0.251976 0.251976 0.251976 0.251976 0.251976 0.251976 0.251976 0.251976 0.251976
