# Output from CTFFind version 4.1.9, run on 2019-11-02 17:46:25
# Input file: stack1_bm3d_averaged_1_1.25_0_1250_half.mrc ; Number of micrographs: 1
# Pixel size: 3.000 Angstroms ; acceleration voltage: 300.0 keV ; spherical aberration: 0.00 mm ; amplitude contrast: 0.07
# Box size: 512 pixels ; min. res.: 30.0 Angstroms ; max. res.: 5.0 Angstroms ; min. def.: 5000.0 um; max. def. 50000.0 um; num. frames averaged: 1
# 6 lines per micrograph: #1 - spatial frequency (1/Angstroms); #2 - 1D rotational average of spectrum (assuming no astigmatism); #3 - 1D rotational average of spectrum; #4 - CTF fit; #5 - cross-correlation between spectrum and CTF fit; #6 - 2sigma of expected cross correlation of noise
0.000000 0.000651 0.001302 0.001953 0.002604 0.003255 0.003906 0.004557 0.005208 0.005859 0.006510 0.007161 0.007812 0.008464 0.009115 0.009766 0.010417 0.011068 0.011719 0.012370 0.013021 0.013672 0.014323 0.014974 0.015625 0.016276 0.016927 0.017578 0.018229 0.018880 0.019531 0.020182 0.020833 0.021484 0.022135 0.022786 0.023438 0.024089 0.024740 0.025391 0.026042 0.026693 0.027344 0.027995 0.028646 0.029297 0.029948 0.030599 0.031250 0.031901 0.032552 0.033203 0.033854 0.034505 0.035156 0.035807 0.036458 0.037109 0.037760 0.038411 0.039062 0.039714 0.040365 0.041016 0.041667 0.042318 0.042969 0.043620 0.044271 0.044922 0.045573 0.046224 0.046875 0.047526 0.048177 0.048828 0.049479 0.050130 0.050781 0.051432 0.052083 0.052734 0.053385 0.054036 0.054688 0.055339 0.055990 0.056641 0.057292 0.057943 0.058594 0.059245 0.059896 0.060547 0.061198 0.061849 0.062500 0.063151 0.063802 0.064453 0.065104 0.065755 0.066406 0.067057 0.067708 0.068359 0.069010 0.069661 0.070312 0.070964 0.071615 0.072266 0.072917 0.073568 0.074219 0.074870 0.075521 0.076172 0.076823 0.077474 0.078125 0.078776 0.079427 0.080078 0.080729 0.081380 0.082031 0.082682 0.083333 0.083984 0.084635 0.085286 0.085938 0.086589 0.087240 0.087891 0.088542 0.089193 0.089844 0.090495 0.091146 0.091797 0.092448 0.093099 0.093750 0.094401 0.095052 0.095703 0.096354 0.097005 0.097656 0.098307 0.098958 0.099609 0.100260 0.100911 0.101562 0.102214 0.102865 0.103516 0.104167 0.104818 0.105469 0.106120 0.106771 0.107422 0.108073 0.108724 0.109375 0.110026 0.110677 0.111328 0.111979 0.112630 0.113281 0.113932 0.114583 0.115234 0.115885 0.116536 0.117188 0.117839 0.118490 0.119141 0.119792 0.120443 0.121094 0.121745 0.122396 0.123047 0.123698 0.124349 0.125000 0.125651 0.126302 0.126953 0.127604 0.128255 0.128906 0.129557 0.130208 0.130859 0.131510 0.132161 0.132812 0.133464 0.134115 0.134766 0.135417 0.136068 0.136719 0.137370 0.138021 0.138672 0.139323 0.139974 0.140625 0.141276 0.141927 0.142578 0.143229 0.143880 0.144531 0.145182 0.145833 0.146484 0.147135 0.147786 0.148438 0.149089 0.149740 0.150391 0.151042 0.151693 0.152344 0.152995 0.153646 0.154297 0.154948 0.155599 0.156250 0.156901 0.157552 0.158203 0.158854 0.159505 0.160156 0.160807 0.161458 0.162109 0.162760 0.163411 0.164062 0.164714 0.165365 0.166016 0.166667 0.167318 0.167969 0.168620 0.169271 0.169922 0.170573 0.171224 0.171875 0.172526 0.173177 0.173828 0.174479 0.175130 0.175781 0.176432 0.177083 0.177734 0.178385 0.179036 0.179688 0.180339 0.180990 0.181641 0.182292 0.182943 0.183594 0.184245 0.184896 0.185547 0.186198 0.186849 0.187500 0.188151 0.188802 0.189453 0.190104 0.190755 0.191406 0.192057 0.192708 0.193359 0.194010 0.194661 0.195312 0.195964 0.196615 0.197266 0.197917 0.198568 0.199219 0.199870 0.200521 0.201172 0.201823 0.202474 0.203125 0.203776 0.204427 0.205078 0.205729 0.206380 0.207031 0.207682 0.208333 0.208984 0.209635 0.210286 0.210938 0.211589 0.212240 0.212891 0.213542 0.214193 0.214844 0.215495 0.216146 0.216797 0.217448 0.218099 0.218750 0.219401 0.220052 0.220703 0.221354 0.222005 0.222656 0.223307 0.223958 0.224609 0.225260 0.225911 0.226562 0.227214 0.227865 0.228516 0.229167 0.229818 0.230469 0.231120 0.231771 0.232422 0.233073 0.233724 0.234375 0.235026 0.235677
       0.33153        0.33153        0.33153        0.33153        0.33153        0.33153        0.33153        0.33153        0.33153        0.33153        0.33153        0.33153        0.33153        0.33153        0.33153        0.33153        0.33153        0.33153        0.33153        0.33153        0.33153        0.33153        0.33153        0.33153        0.33153        0.33153        0.33153        0.33153        0.33153        0.33153        0.33153        0.33153        0.33153        0.33153        0.33153        0.33153        0.33153        0.33153        0.33153        0.33153        0.33153        0.33153        0.33153        0.33153        0.33153        0.33153        0.33153        0.33153        0.33153        0.33153        0.33153        0.50071        0.71729        0.42647        0.19001       -0.08028       -0.26143       -0.06898       -0.13291       -0.05689       -0.00294       -0.14867       -0.09602       -0.05070       -0.00276       -0.15290       -0.22224       -0.34496       -0.46414       -0.56280       -0.52028       -0.45118       -0.37236       -0.55032       -0.45107       -0.62235       -0.50508       -0.47445       -0.39209       -0.38388       -0.33938       -0.24929       -0.16322       -0.13966        0.03114       -0.01396        0.11763        0.16731        0.30422        0.40999        0.46243        0.49589        0.53984        0.54880        0.69080        0.64421        0.67641        0.58878        0.55500        0.65201        0.52591        0.42710        0.38543        0.31764        0.22888        0.26203        0.25043        0.10342        0.08179       -0.00068       -0.00820        0.03369       -0.00797        0.07179        0.09403        0.22997        0.28306        0.30053        0.38314        0.56043        0.53644        0.57647        0.66890        0.69711        0.62833        0.63337        0.63314        0.54915        0.57148        0.39503        0.34625        0.26451        0.18337        0.07237        0.14377        0.11666        0.09440        0.10732        0.20660        0.20664        0.31493        0.35651        0.41160        0.49062        0.57775        0.54351        0.55521        0.60474        0.53658        0.46129        0.48063        0.32269        0.24860        0.25522        0.24209        0.13936        0.14304        0.15037        0.22056        0.24613        0.33060        0.36765        0.39247        0.46425        0.44472        0.47484        0.44689        0.47029        0.44429        0.40178        0.37864        0.35543        0.31268        0.28574        0.20523        0.20035        0.22247        0.26949        0.26368        0.34581        0.37453        0.35520        0.40916        0.45339        0.44555        0.42404        0.44017        0.36682        0.33337        0.27990        0.26013        0.28727        0.26384        0.29327        0.30005        0.34526        0.33703        0.39750        0.39793        0.42203        0.40954        0.43243        0.40312        0.36548        0.28272        0.28886        0.30288        0.27594        0.25406        0.32819        0.36967        0.33751        0.35371        0.36066        0.35092        0.40546        0.39960        0.36035        0.33875        0.30766        0.31056        0.31725        0.31265        0.29898        0.28565        0.33642        0.35735        0.37389        0.33431        0.32976        0.33419        0.34523        0.30721        0.28044        0.30633        0.31725        0.33351        0.31987        0.33149        0.35353        0.32954        0.31494        0.32817        0.29974        0.25922        0.24919        0.26372        0.30404        0.32151        0.35280        0.29913        0.31125        0.33184        0.29135        0.31743        0.29044        0.27997        0.28967        0.29573        0.30862        0.34335        0.32259        0.32720        0.33085        0.31846        0.33303        0.31698        0.31933        0.31322        0.27655        0.28761        0.30727        0.28814        0.32327        0.33061        0.33450        0.32001        0.34538        0.32079        0.27789        0.24842        0.27141        0.32918        0.35797        0.34677        0.31632        0.29242        0.29873        0.31272        0.25064        0.29472        0.30098        0.32393        0.29443        0.30574        0.27656        0.33342        0.34072        0.34064        0.32114        0.29335        0.31120        0.39459        0.33260        0.31091        0.30336        0.29668        0.28332        0.29549        0.27411        0.31060        0.23215        0.26935        0.29712        0.31211        0.29649        0.27310        0.29200        0.23730        0.22546        0.26687        0.30660        0.30408        0.28744        0.28292        0.33304        0.25446        0.22185        0.30106        0.26262        0.26078        0.27748        0.38528        0.28292        0.28439        0.25402        0.24637        0.26683        0.25053        0.23167        0.17053        0.24022        0.23004        0.24752        0.31376        0.27409        0.34473        0.29609        0.25542        0.23794        0.21549        0.24563        0.28968        0.22039        0.13658        0.17545        0.24341        0.23513        0.32270        0.27684        0.04142       -0.41907       -0.92434
2.716682 2.687865 2.659203 2.630697 2.602347 2.574152 2.546113 2.518230 2.490503 2.462931 2.435515 2.408254 2.381150 2.354201 2.327407 2.300770 2.274288 2.247962 2.221791 2.195776 2.169917 2.144214 2.118666 2.093274 2.068038 2.042957 2.018032 1.993263 1.968649 1.944191 1.919889 1.895743 1.871752 1.847917 1.824238 1.800714 1.777346 1.754134 1.731077 1.708177 1.685431 1.662842 1.640408 1.618130 1.596008 1.574041 1.552230 1.530575 1.509075 1.487731 1.466543 1.536257 1.839901 1.529934 1.197710 0.947305 0.549787 0.918726 0.640407 0.876111 0.931308 0.595439 0.710156 0.786125 0.826663 0.630819 0.540079 0.352958 0.104121 0.076149 0.043488 0.077760 0.303772 -0.036720 0.080377 -0.134951 -0.016278 -0.016062 0.079831 0.064260 0.102481 0.178615 0.282892 0.248837 0.482930 0.398402 0.549573 0.529572 0.770944 0.792093 0.881613 0.927018 0.940119 0.950357 1.122367 0.942022 1.145418 0.949219 0.854136 1.019011 0.849743 0.761107 0.622844 0.594615 0.457909 0.419149 0.508192 0.264717 0.198123 0.157635 0.010449 0.204548 -0.008044 0.118646 0.174485 0.257109 0.335798 0.346757 0.430496 0.541501 0.667497 0.538516 0.740958 0.863765 0.639911 0.698919 0.670910 0.591980 0.537580 0.464352 0.301841 0.214508 0.117900 -0.041859 -0.017762 0.054547 -0.092729 -0.057661 0.050934 0.049834 0.109734 0.220544 0.239418 0.312332 0.442571 0.449954 0.437260 0.474066 0.452527 0.330551 0.337609 0.245901 0.051134 0.062451 0.019454 -0.045765 -0.098506 -0.096258 -0.014483 -0.047641 0.077287 0.127971 0.128078 0.263433 0.230617 0.240994 0.283014 0.239066 0.240373 0.210328 0.163274 0.112798 0.106026 0.024017 0.009621 -0.116275 -0.049614 0.006256 0.001201 0.019097 0.099725 0.083100 0.125899 0.207428 0.268204 0.178247 0.195814 0.115912 0.147584 0.023993 -0.030952 0.026290 -0.017445 0.009836 0.001893 0.042834 0.085322 0.061541 0.164439 0.103837 0.184740 0.082971 0.167556 0.105116 0.009024 -0.044082 -0.006115 -0.018661 -0.053946 -0.055018 0.075023 0.076245 0.000150 0.099687 0.080798 0.079957 0.159840 0.086409 0.083207 0.066559 -0.006837 0.044899 0.017448 0.026678 0.019513 0.011176 0.058806 0.081067 0.082848 0.048454 0.060792 0.035932 0.075920 0.003851 -0.003700 0.037676 0.028048 0.072107 0.047901 0.067134 0.069400 0.056484 0.024317 0.039666 0.003123 -0.044705 -0.026219 -0.019268 0.028094 0.046432 0.104303 0.005327 0.059824 0.056138 -0.007236 0.068360 0.016967 0.003973 0.034432 0.048838 0.037636 0.089986 0.046966 0.068031 0.076382 0.081357 0.066723 0.071291 0.089335 0.042100 -0.010404 0.049155 0.041104 0.045750 0.074092 0.083497 0.026263 0.066315 0.086514 0.013506 0.007717 -0.064277 -0.014127 0.113151 0.082696 0.066407 0.028830 -0.000402 0.055618 0.027621 -0.058158 0.048834 0.036139 0.062616 0.040128 -0.000348 0.044289 0.013071 0.055668 0.032553 0.038186 -0.041852 0.066187 0.116484 0.015639 -0.008369 0.010953 -0.009197 -0.038071 -0.019757 -0.040613 -0.008911 -0.101783 -0.027469 -0.029255 0.014431 -0.028955 -0.066612 0.022255 -0.064642 -0.048492 -0.075832 0.055619 0.009548 0.018632 -0.011286 0.086627 -0.047661 -0.070422 0.041392 -0.033480 0.009064 -0.007034 0.185379 -0.044615 0.021233 0.006340 -0.023418 0.002850 -0.017245 -0.019503 -0.148852 0.009674 -0.028740 -0.010852 0.058517 0.020606 0.144204 0.051511 0.024950 -0.002050 0.015508 -0.015879 0.337604 0.266955 0.169550 0.223771 0.247611 0.315815 0.353406 0.321939 0.050945 -1.089047
0.072396 0.072910 0.074453 0.077024 0.080623 0.085248 0.090898 0.097572 0.105267 0.113981 0.123709 0.134447 0.146190 0.158931 0.172661 0.187372 0.203050 0.219682 0.237253 0.255744 0.275133 0.295397 0.316507 0.338432 0.361136 0.384581 0.408722 0.433510 0.458890 0.484804 0.511186 0.537964 0.565061 0.592393 0.619869 0.647391 0.674856 0.702151 0.729157 0.755748 0.781791 0.807147 0.831667 0.855200 0.877584 0.898655 0.918243 0.936172 0.952263 0.966336 0.978206 0.987689 0.994601 0.998759 0.999986 0.998105 0.992951 0.984362 0.972192 0.956302 0.936572 0.912895 0.885186 0.853379 0.817435 0.777337 0.733100 0.684768 0.632417 0.576160 0.516145 0.452560 0.385633 0.315630 0.242864 0.167686 0.090492 0.011718 0.068158 0.148619 0.229110 0.309043 0.387797 0.464727 0.539163 0.610421 0.677804 0.740613 0.798154 0.849744 0.894720 0.932452 0.962347 0.983864 0.996519 0.999902 0.993679 0.977607 0.951544 0.915453 0.869413 0.813627 0.748423 0.674265 0.591748 0.501602 0.404693 0.302015 0.194685 0.083936 0.028893 0.142375 0.255007 0.365231 0.471454 0.572070 0.665488 0.750156 0.824592 0.887410 0.937349 0.973305 0.994359 0.999799 0.989151 0.962196 0.918994 0.859891 0.785535 0.696876 0.595167 0.481954 0.359061 0.228570 0.092791 0.045775 0.184475 0.320556 0.451214 0.573660 0.685171 0.783167 0.865264 0.929348 0.973631 0.996711 0.997625 0.975892 0.931548 0.865172 0.777894 0.671396 0.547891 0.410099 0.261187 0.104716 0.055437 0.215175 0.370277 0.516514 0.649764 0.766134 0.862083 0.934538 0.981007 0.999673 0.989487 0.950222 0.882521 0.787916 0.668807 0.528438 0.370813 0.200608 0.023038 0.156286 0.331534 0.496846 0.646528 0.775256 0.878276 0.951601 0.992172 0.998015 0.968349 0.903663 0.805746 0.677668 0.523719 0.349279 0.160664 0.035101 0.230519 0.417909 0.589717 0.738811 0.858805 0.944342 0.991364 0.997322 0.961343 0.884328 0.768976 0.619724 0.442614 0.245081 0.035655 0.176383 0.381402 0.569870 0.732790 0.862157 0.951366 0.995586 0.992048 0.940254 0.842077 0.701740 0.525684 0.322313 0.101615 0.125289 0.346711 0.550977 0.727067 0.865214 0.957483 0.998257 0.984626 0.916626 0.797333 0.632780 0.431705 0.205130 0.034215 0.272578 0.495972 0.690995 0.845665 0.950171 0.997551 0.984194 0.910170 0.779328 0.599169 0.380464 0.136674 0.116855 0.363832 0.588067 0.774540 0.910437 0.986076 0.995647 0.937721 0.815466 0.636558 0.412766 0.159236 0.106482 0.365640 0.599587 0.791146 0.925898 0.993322 0.987676 0.908557 0.761072 0.555594 0.307119 0.034207 0.242326 0.501016 0.721394 0.885648 0.980104 0.996446 0.932511 0.792627 0.587426 0.333126 0.050305 0.237702 0.506701 0.733692 0.898857 0.987356 0.990727 0.907796 0.744947 0.515750 0.239913 0.058327 0.352299 0.615268 0.822877 0.955460 0.999981 0.951403 0.813358 0.598008 0.325080 0.020144 0.287711 0.568636 0.794930 0.943807 0.999785 0.956390 0.817014 0.594795 0.311511 0.004484 0.320991 0.605268 0.827400 0.963518 0.998462 0.927576 0.757445 0.505428 0.198013 0.131862 0.448292 0.716304 0.905757 0.994810 0.972560 0.840513 0.612668 0.314193 0.021250 0.355215 0.648846 0.867432 0.984588 0.985547 0.869174 0.648377 0.348847 0.006201 0.338170 0.642055 0.867627 0.986234 0.982159 0.854864 0.619363 0.304618 0.049863 0.398920 0.697443 0.906256 0.997343 0.957765 0.791653 0.520017 0.178238 0.188378 0.530547 0.801627 0.964040 0.994613
1.000000 1.000000 1.000000 1.000000 1.000000 1.000000 1.000000 1.000000 1.000000 1.000000 1.000000 1.000000 1.000000 1.000000 1.000000 1.000000 1.000000 1.000000 1.000000 1.000000 1.000000 1.000000 1.000000 1.000000 1.000000 1.000000 1.000000 1.000000 1.000000 1.000000 1.000000 1.000000 1.000000 1.000000 1.000000 1.000000 1.000000 1.000000 1.000000 1.000000 1.000000 1.000000 1.000000 1.000000 1.000000 1.000000 1.000000 1.000000 1.000000 1.000000 1.000000 1.000000 0.919767 0.919767 0.906558 0.906558 0.906558 0.906558 0.906558 0.906558 0.906558 0.906558 0.906558 0.906558 0.906558 0.906558 0.906558 0.906558 0.906558 0.906558 0.906558 0.906558 0.906558 0.906558 0.906558 0.906558 0.906558 0.906558 0.906558 0.906558 0.906558 0.906558 0.906558 0.906558 0.906558 0.906558 0.906558 0.906558 0.906558 0.906558 0.906558 0.906558 0.906558 0.906558 0.906558 0.902521 0.907502 0.909467 0.908034 0.911506 0.911551 0.910853 0.911233 0.910921 0.911277 0.912659 0.923095 0.934033 0.945191 0.945686 0.950856 0.955197 0.957726 0.958561 0.960243 0.970535 0.967971 0.967552 0.968198 0.969517 0.971541 0.970388 0.969778 0.972999 0.973589 0.972114 0.969720 0.969125 0.968545 0.968666 0.968327 0.968206 0.968055 0.968571 0.968789 0.968380 0.968526 0.968589 0.969593 0.970739 0.973225 0.974235 0.974139 0.973137 0.968154 0.971705 0.972803 0.972243 0.972242 0.971867 0.972127 0.956542 0.953275 0.953172 0.949359 0.948404 0.945764 0.943956 0.942527 0.943238 0.942357 0.942313 0.938869 0.925768 0.912026 0.899587 0.920674 0.905330 0.892750 0.868297 0.868545 0.861467 0.861895 0.854381 0.847621 0.843121 0.840509 0.842523 0.841853 0.846131 0.842740 0.826952 0.830448 0.826849 0.793857 0.779885 0.765073 0.763334 0.760297 0.761443 0.759978 0.754860 0.763613 0.755091 0.752964 0.743226 0.722268 0.689518 0.676701 0.688036 0.698311 0.699161 0.694988 0.679287 0.640536 0.653448 0.681330 0.673869 0.675104 0.667266 0.660102 0.668353 0.668297 0.665275 0.658563 0.657836 0.657553 0.667989 0.671413 0.664425 0.656000 0.642057 0.632286 0.621685 0.635539 0.643053 0.612148 0.606243 0.601154 0.595818 0.584273 0.557720 0.556599 0.536362 0.524041 0.523181 0.525388 0.527678 0.538179 0.538275 0.516209 0.541092 0.542285 0.574319 0.553602 0.551985 0.553692 0.562287 0.542908 0.527920 0.521120 0.522464 0.537492 0.570408 0.611334 0.605822 0.594823 0.586028 0.594149 0.576651 0.584815 0.608214 0.585944 0.516375 0.473060 0.470790 0.438256 0.429318 0.416908 0.393426 0.373962 0.371352 0.365823 0.351353 0.341615 0.286429 0.251376 0.231751 0.214551 0.219904 0.233707 0.226811 0.224704 0.254543 0.302613 0.302496 0.292100 0.285504 0.289159 0.290761 0.246728 0.247473 0.209085 0.197665 0.227578 0.172579 0.177952 0.123839 0.115843 0.130366 0.157527 0.169866 0.123613 0.108576 0.132417 0.149820 0.144139 0.134656 0.087363 0.058044 0.047008 0.059890 0.043330 0.011627 0.023071 0.029303 0.013863 -0.004846 0.004078 0.009066 0.019526 0.007057 0.005970 0.056575 0.083808 0.073557 0.077072 0.094294 0.092395 0.069541 0.061256 0.047786 0.040199 -0.009986 -0.036050 -0.036050 -0.031337 -0.031337 -0.031337 -0.031337 -0.031337 -0.031337 -0.031337 -0.031337 -0.031337 -0.031853 -0.031853 -0.031853 -0.031853 -0.031853 -0.031853 -0.031853 -0.031853 -0.031853 -0.010334 -0.010334 -0.010334 -0.010334 -0.010334 -0.010334 -0.010334 -0.010334 -0.010334
0.000000 0.000000 0.000000 0.000000 0.000000 0.000000 0.000000 0.000000 0.000000 0.000000 0.000000 0.000000 0.000000 0.000000 0.000000 0.000000 0.000000 0.000000 0.000000 0.000000 0.000000 0.000000 0.000000 0.000000 0.000000 0.000000 0.000000 0.000000 0.000000 0.000000 0.000000 0.000000 0.000000 0.000000 0.000000 0.000000 0.000000 0.000000 0.000000 0.000000 0.000000 0.000000 0.000000 0.000000 0.000000 0.000000 0.000000 0.000000 0.000000 0.000000 0.000000 0.000000 0.181818 0.181818 0.199007 0.199007 0.199007 0.199007 0.199007 0.199007 0.199007 0.199007 0.199007 0.199007 0.199007 0.199007 0.199007 0.199007 0.199007 0.199007 0.199007 0.199007 0.199007 0.199007 0.199007 0.199007 0.199007 0.199007 0.199007 0.199007 0.199007 0.199007 0.199007 0.199007 0.199007 0.199007 0.199007 0.199007 0.199007 0.199007 0.199007 0.199007 0.199007 0.199007 0.199007 0.230940 0.230940 0.230940 0.230940 0.230940 0.230940 0.230940 0.230940 0.230940 0.230940 0.230940 0.230940 0.230940 0.230940 0.230940 0.230940 0.230940 0.230940 0.230940 0.230940 0.230940 0.230940 0.230940 0.230940 0.230940 0.230940 0.230940 0.230940 0.244339 0.244339 0.244339 0.244339 0.244339 0.244339 0.244339 0.244339 0.244339 0.244339 0.244339 0.244339 0.244339 0.244339 0.244339 0.244339 0.244339 0.244339 0.244339 0.244339 0.244339 0.244339 0.244339 0.251976 0.251976 0.251976 0.251976 0.251976 0.251976 0.251976 0.251976 0.251976 0.251976 0.251976 0.251976 0.251976 0.251976 0.251976 0.251976 0.251976 0.251976 0.251976 0.251976 0.264906 0.264906 0.264906 0.264906 0.264906 0.264906 0.264906 0.264906 0.264906 0.264906 0.264906 0.264906 0.264906 0.264906 0.264906 0.264906 0.264906 0.264906 0.264906 0.264906 0.264906 0.264906 0.264906 0.264906 0.264906 0.264906 0.264906 0.264906 0.264906 0.264906 0.264906 0.264906 0.264906 0.264906 0.264906 0.264906 0.264906 0.264906 0.264906 0.264906 0.264906 0.264906 0.264906 0.264906 0.264906 0.264906 0.264906 0.264906 0.264906 0.264906 0.264906 0.264906 0.264906 0.264906 0.264906 0.264906 0.264906 0.264906 0.264906 0.264906 0.264906 0.264906 0.264906 0.264906 0.264906 0.264906 0.264906 0.264906 0.264906 0.264906 0.264906 0.264906 0.264906 0.264906 0.264906 0.269680 0.269680 0.269680 0.269680 0.269680 0.269680 0.269680 0.269680 0.269680 0.269680 0.269680 0.269680 0.264906 0.264906 0.264906 0.264906 0.264906 0.264906 0.264906 0.264906 0.264906 0.264906 0.264906 0.264906 0.269680 0.269680 0.269680 0.269680 0.269680 0.269680 0.269680 0.269680 0.269680 0.269680 0.269680 0.264906 0.264906 0.264906 0.264906 0.264906 0.264906 0.264906 0.264906 0.264906 0.264906 0.264906 0.269680 0.269680 0.269680 0.269680 0.269680 0.269680 0.269680 0.269680 0.269680 0.269680 0.251976 0.251976 0.251976 0.251976 0.251976 0.251976 0.251976 0.251976 0.251976 0.251976 0.251976 0.269680 0.269680 0.269680 0.269680 0.269680 0.269680 0.269680 0.269680 0.269680 0.256074 0.256074 0.256074 0.256074 0.256074 0.256074 0.256074 0.256074 0.256074 0.256074 0.260378 0.260378 0.260378 0.260378 0.260378 0.260378 0.260378 0.260378 0.260378 0.256074 0.256074 0.256074 0.256074 0.256074 0.256074 0.256074 0.256074 0.256074 0.251976 0.251976 0.251976 0.251976 0.251976 0.251976 0.251976 0.251976 0.251976 0.264906 0.264906 0.264906 0.264906 0.264906 0.264906 0.264906 0.264906 0.264906
