# Output from CTFFind version 4.1.9, run on 2019-11-02 17:43:53
# Input file: stack1_bm3d_averaged_1_1.5_0_250_half.mrc ; Number of micrographs: 1
# Pixel size: 3.000 Angstroms ; acceleration voltage: 300.0 keV ; spherical aberration: 0.00 mm ; amplitude contrast: 0.07
# Box size: 512 pixels ; min. res.: 30.0 Angstroms ; max. res.: 5.0 Angstroms ; min. def.: 5000.0 um; max. def. 50000.0 um; num. frames averaged: 1
# 6 lines per micrograph: #1 - spatial frequency (1/Angstroms); #2 - 1D rotational average of spectrum (assuming no astigmatism); #3 - 1D rotational average of spectrum; #4 - CTF fit; #5 - cross-correlation between spectrum and CTF fit; #6 - 2sigma of expected cross correlation of noise
0.000000 0.000651 0.001302 0.001953 0.002604 0.003255 0.003906 0.004557 0.005208 0.005859 0.006510 0.007161 0.007812 0.008464 0.009115 0.009766 0.010417 0.011068 0.011719 0.012370 0.013021 0.013672 0.014323 0.014974 0.015625 0.016276 0.016927 0.017578 0.018229 0.018880 0.019531 0.020182 0.020833 0.021484 0.022135 0.022786 0.023438 0.024089 0.024740 0.025391 0.026042 0.026693 0.027344 0.027995 0.028646 0.029297 0.029948 0.030599 0.031250 0.031901 0.032552 0.033203 0.033854 0.034505 0.035156 0.035807 0.036458 0.037109 0.037760 0.038411 0.039062 0.039714 0.040365 0.041016 0.041667 0.042318 0.042969 0.043620 0.044271 0.044922 0.045573 0.046224 0.046875 0.047526 0.048177 0.048828 0.049479 0.050130 0.050781 0.051432 0.052083 0.052734 0.053385 0.054036 0.054688 0.055339 0.055990 0.056641 0.057292 0.057943 0.058594 0.059245 0.059896 0.060547 0.061198 0.061849 0.062500 0.063151 0.063802 0.064453 0.065104 0.065755 0.066406 0.067057 0.067708 0.068359 0.069010 0.069661 0.070312 0.070964 0.071615 0.072266 0.072917 0.073568 0.074219 0.074870 0.075521 0.076172 0.076823 0.077474 0.078125 0.078776 0.079427 0.080078 0.080729 0.081380 0.082031 0.082682 0.083333 0.083984 0.084635 0.085286 0.085938 0.086589 0.087240 0.087891 0.088542 0.089193 0.089844 0.090495 0.091146 0.091797 0.092448 0.093099 0.093750 0.094401 0.095052 0.095703 0.096354 0.097005 0.097656 0.098307 0.098958 0.099609 0.100260 0.100911 0.101562 0.102214 0.102865 0.103516 0.104167 0.104818 0.105469 0.106120 0.106771 0.107422 0.108073 0.108724 0.109375 0.110026 0.110677 0.111328 0.111979 0.112630 0.113281 0.113932 0.114583 0.115234 0.115885 0.116536 0.117188 0.117839 0.118490 0.119141 0.119792 0.120443 0.121094 0.121745 0.122396 0.123047 0.123698 0.124349 0.125000 0.125651 0.126302 0.126953 0.127604 0.128255 0.128906 0.129557 0.130208 0.130859 0.131510 0.132161 0.132812 0.133464 0.134115 0.134766 0.135417 0.136068 0.136719 0.137370 0.138021 0.138672 0.139323 0.139974 0.140625 0.141276 0.141927 0.142578 0.143229 0.143880 0.144531 0.145182 0.145833 0.146484 0.147135 0.147786 0.148438 0.149089 0.149740 0.150391 0.151042 0.151693 0.152344 0.152995 0.153646 0.154297 0.154948 0.155599 0.156250 0.156901 0.157552 0.158203 0.158854 0.159505 0.160156 0.160807 0.161458 0.162109 0.162760 0.163411 0.164062 0.164714 0.165365 0.166016 0.166667 0.167318 0.167969 0.168620 0.169271 0.169922 0.170573 0.171224 0.171875 0.172526 0.173177 0.173828 0.174479 0.175130 0.175781 0.176432 0.177083 0.177734 0.178385 0.179036 0.179688 0.180339 0.180990 0.181641 0.182292 0.182943 0.183594 0.184245 0.184896 0.185547 0.186198 0.186849 0.187500 0.188151 0.188802 0.189453 0.190104 0.190755 0.191406 0.192057 0.192708 0.193359 0.194010 0.194661 0.195312 0.195964 0.196615 0.197266 0.197917 0.198568 0.199219 0.199870 0.200521 0.201172 0.201823 0.202474 0.203125 0.203776 0.204427 0.205078 0.205729 0.206380 0.207031 0.207682 0.208333 0.208984 0.209635 0.210286 0.210938 0.211589 0.212240 0.212891 0.213542 0.214193 0.214844 0.215495 0.216146 0.216797 0.217448 0.218099 0.218750 0.219401 0.220052 0.220703 0.221354 0.222005 0.222656 0.223307 0.223958 0.224609 0.225260 0.225911 0.226562 0.227214 0.227865 0.228516 0.229167 0.229818 0.230469 0.231120 0.231771 0.232422 0.233073 0.233724 0.234375 0.235026 0.235677
       0.32810        0.32810        0.32810        0.32810        0.32810        0.32810        0.32810        0.32810        0.32810        0.32810        0.32810        0.32810        0.32810        0.32810        0.32810        0.32810        0.32810        0.32810        0.32810        0.32810        0.32810        0.32810        0.32810        0.32810        0.32810        0.32810        0.32810        0.32810        0.32810        0.32810        0.32810        0.32810        0.32810        0.32810        0.32810        0.32810        0.32810        0.32810        0.32810        0.32810        0.32810        0.32810        0.32810        0.32810        0.32810        0.32810        0.32810        0.32810        0.32810        0.32810        0.32810        0.49790        0.71540        0.42397        0.18614       -0.08270       -0.25982       -0.06908       -0.13421       -0.05875       -0.00777       -0.15401       -0.09947       -0.05762       -0.00728       -0.15791       -0.22812       -0.34843       -0.46499       -0.56247       -0.51899       -0.45070       -0.37550       -0.55385       -0.45734       -0.62632       -0.51100       -0.47557       -0.39510       -0.38905       -0.33911       -0.25306       -0.16910       -0.14663        0.02767       -0.01855        0.11229        0.16049        0.30474        0.41087        0.45750        0.49892        0.54106        0.54837        0.68185        0.63839        0.67276        0.58643        0.55205        0.64521        0.52187        0.42309        0.38259        0.31416        0.22893        0.25535        0.24771        0.09678        0.07498       -0.00129       -0.00903        0.03328       -0.01608        0.06530        0.09717        0.22880        0.28362        0.29118        0.37992        0.56169        0.53055        0.57433        0.66198        0.69544        0.62479        0.63525        0.63068        0.54786        0.56903        0.39866        0.34416        0.25825        0.17946        0.07305        0.13877        0.11000        0.09492        0.10417        0.20187        0.20116        0.31310        0.35470        0.40870        0.48676        0.56982        0.54114        0.55234        0.59809        0.52502        0.45555        0.48184        0.32359        0.23944        0.25431        0.23626        0.13312        0.13788        0.14986        0.21804        0.23724        0.33084        0.36948        0.39181        0.45986        0.44104        0.47847        0.44261        0.46917        0.44429        0.39661        0.37501        0.35477        0.31693        0.28794        0.20148        0.19336        0.21864        0.26372        0.25710        0.33888        0.37041        0.35047        0.40574        0.44499        0.43577        0.42534        0.44284        0.37136        0.32844        0.27717        0.25217        0.28774        0.25652        0.28875        0.29644        0.33572        0.33323        0.38757        0.39180        0.42302        0.40268        0.43572        0.39758        0.35960        0.27790        0.28294        0.29388        0.26857        0.24943        0.31895        0.36393        0.33491        0.35485        0.36294        0.34818        0.40600        0.40367        0.36330        0.33494        0.29915        0.31013        0.31789        0.31200        0.29762        0.27530        0.33496        0.35349        0.37425        0.33481        0.32994        0.33237        0.34464        0.30833        0.27768        0.30161        0.31026        0.33325        0.31407        0.32275        0.34782        0.32089        0.31537        0.32315        0.29411        0.25789        0.25073        0.26198        0.30376        0.31676        0.35561        0.29690        0.29914        0.31984        0.28856        0.31263        0.28328        0.27506        0.28437        0.29024        0.30192        0.34104        0.32483        0.32749        0.33034        0.31920        0.33511        0.31535        0.32237        0.31366        0.26767        0.27951        0.29424        0.28478        0.31358        0.32001        0.32791        0.32572        0.34445        0.32611        0.28471        0.23770        0.26398        0.32618        0.34819        0.34071        0.31503        0.28887        0.29542        0.30599        0.25411        0.29365        0.30639        0.32998        0.29211        0.28339        0.26185        0.32578        0.33254        0.33413        0.30750        0.29086        0.30469        0.38891        0.33047        0.30582        0.30573        0.29301        0.28134        0.29703        0.28357        0.31656        0.22965        0.26134        0.30157        0.31336        0.29109        0.25328        0.28288        0.23548        0.21350        0.27805        0.29756        0.29922        0.27916        0.27453        0.32432        0.26400        0.22867        0.28418        0.25029        0.26383        0.27276        0.36526        0.27085        0.28081        0.25438        0.23665        0.27219        0.26917        0.23444        0.17871        0.22939        0.22369        0.24978        0.30661        0.25592        0.34950        0.31735        0.23958        0.22020        0.20174        0.25096        0.31099        0.23173        0.15246        0.19474        0.23238        0.22893        0.27572        0.20808        0.04562       -0.45352       -0.99014
2.630867 2.603222 2.575725 2.548376 2.521174 2.494120 2.467214 2.440456 2.413846 2.387383 2.361068 2.334901 2.308881 2.283010 2.257286 2.231710 2.206281 2.181001 2.155868 2.130883 2.106046 2.081357 2.056815 2.032421 2.008175 1.984076 1.960126 1.936323 1.912668 1.889161 1.865801 1.842590 1.819526 1.796609 1.773841 1.751220 1.728748 1.706423 1.684245 1.662216 1.640334 1.618600 1.597014 1.575575 1.554285 1.533142 1.512147 1.491299 1.470600 1.450048 1.429644 1.498846 1.802661 1.499616 1.136417 0.919786 0.532734 0.896443 0.620668 0.852344 0.903645 0.573547 0.689552 0.756219 0.804689 0.609440 0.517360 0.340259 0.094406 0.068085 0.040140 0.072734 0.293133 -0.047652 0.068474 -0.140384 -0.026974 -0.017847 0.072551 0.050746 0.104276 0.170108 0.270770 0.234932 0.470783 0.389956 0.536603 0.517071 0.758847 0.784465 0.865352 0.923163 0.927349 0.943635 1.071279 0.966707 1.129249 0.933761 0.847299 1.000764 0.838768 0.747722 0.619139 0.585155 0.460996 0.408575 0.502765 0.261129 0.189541 0.159933 0.015467 0.208110 -0.007243 0.110667 0.178623 0.262768 0.339315 0.339432 0.426761 0.545177 0.658426 0.538627 0.730330 0.866559 0.634965 0.697913 0.669958 0.589796 0.531832 0.472252 0.305129 0.212740 0.119588 -0.033251 -0.013184 0.050725 -0.084078 -0.053841 0.059592 0.047958 0.107986 0.226256 0.239550 0.315963 0.424861 0.431886 0.456442 0.467148 0.439638 0.314792 0.341562 0.250731 0.039298 0.063724 0.025841 -0.057596 -0.095262 -0.096190 -0.009580 -0.054712 0.079797 0.132261 0.138694 0.256374 0.220918 0.250299 0.290425 0.250651 0.252616 0.210042 0.169402 0.117461 0.117404 0.035046 0.021457 -0.116894 -0.046875 0.009691 0.002738 0.010665 0.103355 0.081329 0.128751 0.192473 0.254994 0.162225 0.201808 0.116718 0.141846 0.016303 -0.033247 0.013209 -0.016593 -0.009335 -0.000942 0.031576 0.061372 0.063683 0.137329 0.111097 0.158811 0.073579 0.156940 0.087551 -0.004535 -0.053784 -0.026051 -0.034112 -0.073495 -0.063033 0.049214 0.062893 -0.009118 0.063176 0.069511 0.068218 0.149514 0.079189 0.075298 0.039783 -0.021652 0.037139 0.007775 0.013043 0.008427 -0.010599 0.052110 0.065870 0.066947 0.036639 0.048057 0.014596 0.070249 -0.009047 -0.021569 0.022379 0.009924 0.063127 0.029152 0.037426 0.060013 0.031523 0.016025 0.030375 -0.009581 -0.044457 -0.031059 -0.028263 0.022105 0.041543 0.104214 -0.000000 0.046431 0.052617 0.006287 0.069860 0.026132 0.017320 0.046970 0.054605 0.053275 0.104831 0.069337 0.086388 0.082604 0.107608 0.075124 0.079819 0.099395 0.045629 -0.007826 0.048787 0.030249 0.057923 0.065101 0.092619 0.011915 0.080534 0.085539 0.030003 0.032339 -0.077812 -0.009770 0.112679 0.076209 0.067317 0.048459 -0.012525 0.043286 0.028070 -0.040805 0.042875 0.054519 0.074400 0.039806 -0.023298 -0.006364 0.044033 0.055590 0.024706 0.036228 -0.021114 0.060879 0.117349 0.028717 -0.008567 0.013637 -0.011964 -0.022276 -0.016351 -0.027127 0.014424 -0.104144 -0.030203 -0.009421 0.021910 -0.035003 -0.060929 -0.006324 -0.064089 -0.051838 -0.038897 0.044916 0.005392 0.017470 -0.010026 0.079882 -0.040908 -0.034880 0.005325 -0.035712 0.031214 -0.009363 0.160910 -0.045014 -0.001978 0.046467 -0.039677 0.005149 0.013738 -0.025973 -0.127698 -0.014139 -0.037229 -0.002784 0.030170 -0.017361 0.145750 0.071863 0.003892 -0.095423 -0.048515 -0.024907 0.063701 0.275925 0.180206 0.242792 0.224079 0.306139 0.305384 0.216421 0.124993 -0.297203
0.072396 0.072910 0.074450 0.077017 0.080610 0.085228 0.090870 0.097533 0.105216 0.113917 0.123630 0.134352 0.146077 0.158798 0.172508 0.187196 0.202850 0.219458 0.237002 0.255466 0.274827 0.295061 0.316141 0.338035 0.360709 0.384122 0.408231 0.432987 0.458336 0.484218 0.510570 0.537319 0.564388 0.591694 0.619146 0.646648 0.674094 0.701374 0.728370 0.754954 0.780997 0.806356 0.830887 0.854436 0.876844 0.897947 0.917574 0.935552 0.951702 0.965842 0.977791 0.987363 0.994375 0.998646 0.999995 0.998251 0.993243 0.984815 0.972815 0.957109 0.937572 0.914100 0.886605 0.855022 0.819309 0.779449 0.735454 0.687368 0.635264 0.579253 0.519482 0.456135 0.389437 0.319653 0.247091 0.172099 0.095070 0.016437 0.063325 0.143704 0.224147 0.304071 0.382858 0.459864 0.534424 0.605855 0.673463 0.736551 0.794425 0.846403 0.891822 0.930050 0.960494 0.982608 0.995908 0.999977 0.994476 0.979156 0.953867 0.918565 0.873319 0.818321 0.753891 0.680478 0.598667 0.509176 0.412857 0.310691 0.203784 0.093358 0.019263 0.132659 0.245338 0.355749 0.462304 0.563403 0.657454 0.742906 0.818271 0.882156 0.933293 0.970564 0.993032 0.999968 0.990875 0.965510 0.923903 0.866375 0.793539 0.706316 0.605925 0.493879 0.371972 0.242256 0.107014 0.031276 0.169983 0.306367 0.437633 0.560993 0.673723 0.773227 0.857106 0.923215 0.969733 0.995215 0.998650 0.979502 0.937747 0.873899 0.789024 0.684736 0.563185 0.427023 0.279364 0.123717 0.036083 0.195970 0.351743 0.499177 0.634138 0.752710 0.851308 0.926803 0.976629 0.998885 0.992421 0.956905 0.892865 0.801712 0.685733 0.548056 0.392581 0.223891 0.047125 0.132161 0.308170 0.475050 0.627082 0.758893 0.865653 0.943262 0.988535 0.999339 0.974724 0.914994 0.821749 0.697875 0.547478 0.375782 0.188959 0.006065 0.201866 0.390790 0.565258 0.718075 0.842737 0.933730 0.986789 0.999132 0.969622 0.898884 0.789333 0.645133 0.472075 0.277374 0.069389 0.142709 0.349343 0.540957 0.708455 0.843663 0.939737 0.991547 0.995976 0.952144 0.861524 0.727948 0.557485 0.358213 0.139863 0.086629 0.309653 0.517516 0.699070 0.844309 0.944963 0.994997 0.991010 0.932511 0.822036 0.665094 0.469949 0.247225 0.009369 0.230029 0.456994 0.657992 0.820746 0.935018 0.993296 0.991328 0.928487 0.807913 0.636428 0.424205 0.184222 0.068500 0.317808 0.547446 0.742123 0.888555 0.976412 0.999102 0.954319 0.844323 0.675911 0.460067 0.211302 0.053257 0.315043 0.555323 0.756556 0.903703 0.985395 0.994878 0.930635 0.796639 0.602201 0.361401 0.092120 0.185219 0.449204 0.679058 0.856329 0.966387 0.999720 0.952818 0.828615 0.636417 0.391287 0.112943 0.175773 0.450738 0.688578 0.868660 0.974948 0.997501 0.933492 0.787628 0.571912 0.304767 0.009519 0.287564 0.559608 0.781567 0.932569 0.997952 0.970778 0.852669 0.653853 0.392387 0.092621 0.217006 0.506631 0.747861 0.916573 0.995419 0.975703 0.858442 0.654498 0.383684 0.072947 0.246226 0.540988 0.780501 0.939221 0.999699 0.954619 0.807794 0.574013 0.277664 0.049684 0.372588 0.655559 0.866963 0.982653 0.988819 0.883779 0.678417 0.395213 0.065920 0.271927 0.579232 0.819884 0.965057 0.996774 0.910273 0.714844 0.433009 0.098073 0.249729 0.567988 0.817324 0.966306 0.995546 0.900360 0.691662 0.394892 0.047065 0.307739 0.623916 0.860220 0.985225 0.981642 0.848870 0.603403 0.276989 0.087363 0.440934 0.735795 0.931335 1.000000
1.000000 1.000000 1.000000 1.000000 1.000000 1.000000 1.000000 1.000000 1.000000 1.000000 1.000000 1.000000 1.000000 1.000000 1.000000 1.000000 1.000000 1.000000 1.000000 1.000000 1.000000 1.000000 1.000000 1.000000 1.000000 1.000000 1.000000 1.000000 1.000000 1.000000 1.000000 1.000000 1.000000 1.000000 1.000000 1.000000 1.000000 1.000000 1.000000 1.000000 1.000000 1.000000 1.000000 1.000000 1.000000 1.000000 1.000000 1.000000 1.000000 1.000000 1.000000 1.000000 0.914188 0.914188 0.902438 0.902438 0.902438 0.902438 0.902438 0.902438 0.902438 0.902438 0.902438 0.902438 0.902438 0.902438 0.902438 0.902438 0.902438 0.902438 0.902438 0.902438 0.902438 0.902438 0.902438 0.902438 0.902438 0.902438 0.902438 0.902438 0.902438 0.902438 0.902438 0.902438 0.902438 0.902438 0.902438 0.902438 0.902438 0.902438 0.902438 0.902438 0.902438 0.902438 0.902438 0.900242 0.904807 0.906817 0.905061 0.908703 0.908798 0.906444 0.906037 0.905622 0.905896 0.907311 0.917938 0.929110 0.939692 0.941138 0.946246 0.950749 0.952960 0.953875 0.955193 0.964581 0.963311 0.962676 0.963445 0.965207 0.967552 0.966051 0.965964 0.968930 0.969741 0.967886 0.965896 0.965215 0.964529 0.964212 0.963759 0.963912 0.963834 0.964342 0.964574 0.964413 0.964555 0.964577 0.962813 0.962982 0.965317 0.966505 0.966280 0.964839 0.958622 0.962493 0.962502 0.962266 0.962178 0.961734 0.962138 0.948091 0.944159 0.944150 0.939025 0.938033 0.935535 0.933677 0.931129 0.931494 0.931314 0.932618 0.928755 0.917842 0.904509 0.890065 0.912307 0.901029 0.885856 0.865911 0.865603 0.864195 0.864964 0.859311 0.852267 0.847494 0.844466 0.845524 0.845749 0.849050 0.847116 0.836447 0.839121 0.836762 0.808485 0.793994 0.778977 0.776808 0.774734 0.776139 0.775196 0.774841 0.782869 0.770940 0.769782 0.761657 0.743349 0.706896 0.695571 0.705438 0.713778 0.720761 0.717301 0.702282 0.660407 0.670706 0.698778 0.689582 0.692021 0.681319 0.673632 0.675668 0.675401 0.665270 0.656225 0.654654 0.651831 0.659392 0.664499 0.661983 0.652848 0.638688 0.625115 0.610577 0.621366 0.622518 0.587403 0.582130 0.567988 0.559351 0.548981 0.528541 0.524885 0.499931 0.490829 0.490818 0.490566 0.494045 0.500025 0.502255 0.485652 0.501822 0.504236 0.533051 0.514083 0.514729 0.516694 0.519103 0.505800 0.495336 0.492982 0.493951 0.502762 0.524610 0.559434 0.541770 0.527559 0.517822 0.525535 0.487909 0.494342 0.522239 0.499763 0.444358 0.388724 0.387781 0.345353 0.342457 0.315866 0.300219 0.295660 0.291763 0.281607 0.267300 0.253363 0.200484 0.159267 0.140687 0.124634 0.129533 0.150432 0.147530 0.152763 0.171673 0.218287 0.220711 0.208519 0.178799 0.166473 0.133436 0.131745 0.147248 0.103458 0.099062 0.088959 0.069033 0.047931 0.007027 0.031482 -0.055838 -0.076859 -0.084435 -0.060453 -0.052405 -0.048445 -0.049903 -0.087043 -0.085140 -0.048762 -0.044919 -0.051911 -0.105263 -0.082186 -0.069482 -0.072396 -0.089057 -0.107482 -0.099592 -0.116118 -0.116146 -0.112002 -0.066221 -0.003424 0.000812 0.001280 -0.001097 -0.013048 -0.022411 -0.009648 0.013561 0.019452 -0.003597 -0.007828 -0.008245 -0.048949 -0.048949 -0.044452 -0.044452 -0.044452 -0.044452 -0.044452 -0.044452 -0.044452 -0.044452 -0.044452 -0.048384 -0.048384 -0.048384 -0.048384 -0.048384 -0.048384 -0.048384 -0.048384 -0.048384 -0.048384 -0.048384 -0.048384 -0.048384 -0.048384 -0.048384 -0.048384 -0.048384 -0.048384
0.000000 0.000000 0.000000 0.000000 0.000000 0.000000 0.000000 0.000000 0.000000 0.000000 0.000000 0.000000 0.000000 0.000000 0.000000 0.000000 0.000000 0.000000 0.000000 0.000000 0.000000 0.000000 0.000000 0.000000 0.000000 0.000000 0.000000 0.000000 0.000000 0.000000 0.000000 0.000000 0.000000 0.000000 0.000000 0.000000 0.000000 0.000000 0.000000 0.000000 0.000000 0.000000 0.000000 0.000000 0.000000 0.000000 0.000000 0.000000 0.000000 0.000000 0.000000 0.000000 0.181818 0.181818 0.199007 0.199007 0.199007 0.199007 0.199007 0.199007 0.199007 0.199007 0.199007 0.199007 0.199007 0.199007 0.199007 0.199007 0.199007 0.199007 0.199007 0.199007 0.199007 0.199007 0.199007 0.199007 0.199007 0.199007 0.199007 0.199007 0.199007 0.199007 0.199007 0.199007 0.199007 0.199007 0.199007 0.199007 0.199007 0.199007 0.199007 0.199007 0.199007 0.199007 0.199007 0.230940 0.230940 0.230940 0.230940 0.230940 0.230940 0.230940 0.230940 0.230940 0.230940 0.230940 0.230940 0.230940 0.230940 0.230940 0.230940 0.230940 0.230940 0.230940 0.230940 0.230940 0.230940 0.230940 0.230940 0.230940 0.230940 0.230940 0.230940 0.244339 0.244339 0.244339 0.244339 0.244339 0.244339 0.244339 0.244339 0.244339 0.244339 0.244339 0.244339 0.244339 0.244339 0.244339 0.244339 0.244339 0.244339 0.244339 0.244339 0.244339 0.244339 0.244339 0.251976 0.251976 0.251976 0.251976 0.251976 0.251976 0.251976 0.251976 0.251976 0.251976 0.251976 0.251976 0.251976 0.251976 0.251976 0.251976 0.251976 0.251976 0.251976 0.251976 0.264906 0.264906 0.264906 0.264906 0.264906 0.264906 0.264906 0.264906 0.264906 0.264906 0.264906 0.264906 0.264906 0.264906 0.264906 0.264906 0.264906 0.264906 0.264906 0.264906 0.264906 0.264906 0.264906 0.264906 0.264906 0.264906 0.264906 0.264906 0.264906 0.264906 0.264906 0.264906 0.264906 0.264906 0.264906 0.264906 0.264906 0.264906 0.264906 0.264906 0.264906 0.264906 0.264906 0.264906 0.264906 0.264906 0.264906 0.264906 0.264906 0.264906 0.264906 0.264906 0.264906 0.264906 0.264906 0.264906 0.264906 0.264906 0.264906 0.264906 0.264906 0.264906 0.264906 0.264906 0.264906 0.264906 0.264906 0.264906 0.264906 0.264906 0.264906 0.264906 0.264906 0.264906 0.264906 0.269680 0.269680 0.269680 0.269680 0.269680 0.269680 0.269680 0.269680 0.269680 0.269680 0.269680 0.269680 0.264906 0.264906 0.264906 0.264906 0.264906 0.264906 0.264906 0.264906 0.264906 0.264906 0.264906 0.264906 0.269680 0.269680 0.269680 0.269680 0.269680 0.269680 0.269680 0.269680 0.269680 0.269680 0.269680 0.264906 0.264906 0.264906 0.264906 0.264906 0.264906 0.264906 0.264906 0.264906 0.264906 0.264906 0.256074 0.256074 0.256074 0.256074 0.256074 0.256074 0.256074 0.256074 0.256074 0.256074 0.256074 0.264906 0.264906 0.264906 0.264906 0.264906 0.264906 0.264906 0.264906 0.264906 0.264906 0.260378 0.260378 0.260378 0.260378 0.260378 0.260378 0.260378 0.260378 0.260378 0.260378 0.264906 0.264906 0.264906 0.264906 0.264906 0.264906 0.264906 0.264906 0.264906 0.260378 0.260378 0.260378 0.260378 0.260378 0.260378 0.260378 0.260378 0.260378 0.256074 0.256074 0.256074 0.256074 0.256074 0.256074 0.256074 0.256074 0.256074 0.251976 0.251976 0.251976 0.251976 0.251976 0.251976 0.251976 0.251976 0.251976 0.251976 0.251976 0.251976 0.251976 0.251976 0.251976 0.251976 0.251976 0.251976
