# Output from CTFFind version 4.1.9, run on 2019-11-03 20:03:32
# Input file: stack1_bm3d_averaged_1_7.0_0_250_half.mrc ; Number of micrographs: 1
# Pixel size: 3.000 Angstroms ; acceleration voltage: 300.0 keV ; spherical aberration: 0.00 mm ; amplitude contrast: 0.07
# Box size: 512 pixels ; min. res.: 30.0 Angstroms ; max. res.: 5.0 Angstroms ; min. def.: 5000.0 um; max. def. 50000.0 um; num. frames averaged: 1
# 6 lines per micrograph: #1 - spatial frequency (1/Angstroms); #2 - 1D rotational average of spectrum (assuming no astigmatism); #3 - 1D rotational average of spectrum; #4 - CTF fit; #5 - cross-correlation between spectrum and CTF fit; #6 - 2sigma of expected cross correlation of noise
0.000000 0.000651 0.001302 0.001953 0.002604 0.003255 0.003906 0.004557 0.005208 0.005859 0.006510 0.007161 0.007812 0.008464 0.009115 0.009766 0.010417 0.011068 0.011719 0.012370 0.013021 0.013672 0.014323 0.014974 0.015625 0.016276 0.016927 0.017578 0.018229 0.018880 0.019531 0.020182 0.020833 0.021484 0.022135 0.022786 0.023438 0.024089 0.024740 0.025391 0.026042 0.026693 0.027344 0.027995 0.028646 0.029297 0.029948 0.030599 0.031250 0.031901 0.032552 0.033203 0.033854 0.034505 0.035156 0.035807 0.036458 0.037109 0.037760 0.038411 0.039062 0.039714 0.040365 0.041016 0.041667 0.042318 0.042969 0.043620 0.044271 0.044922 0.045573 0.046224 0.046875 0.047526 0.048177 0.048828 0.049479 0.050130 0.050781 0.051432 0.052083 0.052734 0.053385 0.054036 0.054688 0.055339 0.055990 0.056641 0.057292 0.057943 0.058594 0.059245 0.059896 0.060547 0.061198 0.061849 0.062500 0.063151 0.063802 0.064453 0.065104 0.065755 0.066406 0.067057 0.067708 0.068359 0.069010 0.069661 0.070312 0.070964 0.071615 0.072266 0.072917 0.073568 0.074219 0.074870 0.075521 0.076172 0.076823 0.077474 0.078125 0.078776 0.079427 0.080078 0.080729 0.081380 0.082031 0.082682 0.083333 0.083984 0.084635 0.085286 0.085938 0.086589 0.087240 0.087891 0.088542 0.089193 0.089844 0.090495 0.091146 0.091797 0.092448 0.093099 0.093750 0.094401 0.095052 0.095703 0.096354 0.097005 0.097656 0.098307 0.098958 0.099609 0.100260 0.100911 0.101562 0.102214 0.102865 0.103516 0.104167 0.104818 0.105469 0.106120 0.106771 0.107422 0.108073 0.108724 0.109375 0.110026 0.110677 0.111328 0.111979 0.112630 0.113281 0.113932 0.114583 0.115234 0.115885 0.116536 0.117188 0.117839 0.118490 0.119141 0.119792 0.120443 0.121094 0.121745 0.122396 0.123047 0.123698 0.124349 0.125000 0.125651 0.126302 0.126953 0.127604 0.128255 0.128906 0.129557 0.130208 0.130859 0.131510 0.132161 0.132812 0.133464 0.134115 0.134766 0.135417 0.136068 0.136719 0.137370 0.138021 0.138672 0.139323 0.139974 0.140625 0.141276 0.141927 0.142578 0.143229 0.143880 0.144531 0.145182 0.145833 0.146484 0.147135 0.147786 0.148438 0.149089 0.149740 0.150391 0.151042 0.151693 0.152344 0.152995 0.153646 0.154297 0.154948 0.155599 0.156250 0.156901 0.157552 0.158203 0.158854 0.159505 0.160156 0.160807 0.161458 0.162109 0.162760 0.163411 0.164062 0.164714 0.165365 0.166016 0.166667 0.167318 0.167969 0.168620 0.169271 0.169922 0.170573 0.171224 0.171875 0.172526 0.173177 0.173828 0.174479 0.175130 0.175781 0.176432 0.177083 0.177734 0.178385 0.179036 0.179688 0.180339 0.180990 0.181641 0.182292 0.182943 0.183594 0.184245 0.184896 0.185547 0.186198 0.186849 0.187500 0.188151 0.188802 0.189453 0.190104 0.190755 0.191406 0.192057 0.192708 0.193359 0.194010 0.194661 0.195312 0.195964 0.196615 0.197266 0.197917 0.198568 0.199219 0.199870 0.200521 0.201172 0.201823 0.202474 0.203125 0.203776 0.204427 0.205078 0.205729 0.206380 0.207031 0.207682 0.208333 0.208984 0.209635 0.210286 0.210938 0.211589 0.212240 0.212891 0.213542 0.214193 0.214844 0.215495 0.216146 0.216797 0.217448 0.218099 0.218750 0.219401 0.220052 0.220703 0.221354 0.222005 0.222656 0.223307 0.223958 0.224609 0.225260 0.225911 0.226562 0.227214 0.227865 0.228516 0.229167 0.229818 0.230469 0.231120 0.231771 0.232422 0.233073 0.233724 0.234375 0.235026 0.235677
       0.34322        0.34322        0.34322        0.34322        0.34322        0.34322        0.34322        0.34322        0.34322        0.34322        0.34322        0.34322        0.34322        0.34322        0.34322        0.34322        0.34322        0.34322        0.34322        0.34322        0.34322        0.34322        0.34322        0.34322        0.34322        0.34322        0.34322        0.34322        0.34322        0.34322        0.34322        0.34322        0.34322        0.34322        0.34322        0.34322        0.34322        0.34322        0.34322        0.34322        0.34322        0.34322        0.34322        0.34322        0.34322        0.34322        0.34322        0.34322        0.34322        0.34322        0.34322        0.33993        0.48088        0.22490        0.07689        0.00167       -0.26949       -0.11505       -0.15705       -0.22186        0.00643       -0.14655       -0.06900       -0.06406       -0.04820       -0.12427       -0.16285       -0.25268       -0.30325       -0.41563       -0.34911       -0.25080       -0.22350       -0.32052       -0.23852       -0.29696       -0.26712       -0.28998       -0.13138       -0.14456       -0.20421       -0.03656        0.03001       -0.02542        0.07037        0.03424        0.23266        0.24385        0.33478        0.34995        0.38008        0.41813        0.49449        0.55138        0.55916        0.50533        0.48510        0.51067        0.46432        0.51692        0.44149        0.41017        0.41364        0.35377        0.29688        0.30701        0.33231        0.22460        0.19579        0.12970        0.15470        0.16316        0.18088        0.16321        0.23483        0.28928        0.31337        0.29020        0.39052        0.46846        0.39411        0.48445        0.59206        0.54588        0.51788        0.56131        0.59473        0.41687        0.47940        0.39734        0.32748        0.30353        0.28197        0.25186        0.19339        0.18416        0.15130        0.20307        0.25608        0.28483        0.33978        0.30486        0.40765        0.42050        0.45588        0.48895        0.47966        0.50769        0.45027        0.43325        0.40628        0.33826        0.31607        0.31311        0.31828        0.25222        0.24551        0.25332        0.24250        0.27083        0.32496        0.42726        0.46363        0.41751        0.42401        0.46804        0.45324        0.46585        0.45991        0.38294        0.36311        0.39733        0.36114        0.30632        0.29953        0.31612        0.27921        0.29789        0.30089        0.31582        0.36456        0.37652        0.42211        0.43111        0.35880        0.44860        0.41572        0.35118        0.30624        0.34488        0.32731        0.30175        0.31657        0.28411        0.28946        0.32351        0.33660        0.43789        0.40738        0.37413        0.39278        0.43168        0.36515        0.35111        0.34024        0.34925        0.27900        0.27568        0.30297        0.37774        0.38209        0.33981        0.34732        0.39533        0.38914        0.45124        0.39112        0.36410        0.33133        0.32195        0.31888        0.31585        0.34114        0.38398        0.36827        0.37268        0.32764        0.43632        0.35417        0.34943        0.33527        0.37800        0.36931        0.30012        0.31078        0.27412        0.31254        0.32636        0.31456        0.33962        0.32999        0.35320        0.34238        0.33725        0.31038        0.29856        0.28141        0.32622        0.33973        0.33226        0.29756        0.34111        0.33265        0.33391        0.33587        0.30373        0.28695        0.30829        0.32587        0.31879        0.31347        0.29337        0.31128        0.34432        0.32962        0.32466        0.38483        0.33334        0.27157        0.31377        0.32699        0.31737        0.34324        0.29671        0.32625        0.27896        0.31674        0.32331        0.36361        0.31419        0.31397        0.30381        0.28382        0.36607        0.36001        0.31957        0.31599        0.29895        0.29736        0.33836        0.33487        0.28062        0.32092        0.27787        0.26390        0.27243        0.30459        0.32454        0.32576        0.23481        0.27862        0.33969        0.32442        0.33383        0.33546        0.30749        0.31578        0.32674        0.31322        0.26281        0.27207        0.28482        0.33407        0.32335        0.33007        0.34240        0.34539        0.34022        0.31968        0.31950        0.30441        0.30900        0.30523        0.25183        0.27606        0.32200        0.33922        0.24428        0.20083        0.20304        0.30089        0.30774        0.29216        0.28511        0.27253        0.27805        0.23926        0.27466        0.26860        0.28527        0.25178        0.25329        0.25469        0.20696        0.25119        0.32069        0.35305        0.26451        0.23170        0.21207        0.18042        0.27047        0.27899        0.38322        0.27551        0.24197        0.30326        0.36413        0.16452       -0.03780       -0.12167       -0.55328       -0.76278
3.399885 3.361918 3.324166 3.286629 3.249308 3.212202 3.175312 3.138636 3.102176 3.065932 3.029902 2.994088 2.958489 2.923105 2.887937 2.852984 2.818246 2.783723 2.749416 2.715324 2.681448 2.647786 2.614340 2.581109 2.548094 2.515293 2.482708 2.450339 2.418184 2.386245 2.354521 2.323013 2.291719 2.260641 2.229779 2.199131 2.168699 2.138482 2.108480 2.078694 2.049123 2.019767 1.990627 1.961701 1.932992 1.904497 1.876218 1.848153 1.820305 1.792671 1.765253 1.661514 1.970327 1.708972 1.085169 1.154273 0.364945 0.902902 0.530833 0.643096 0.923413 0.666211 0.665508 0.754854 0.690165 0.644525 0.458525 0.343321 0.186986 -0.004719 -0.000633 0.116450 0.403182 -0.034566 0.161537 0.042978 0.152978 -0.060339 0.260486 0.179035 0.098794 0.299839 0.503421 0.291296 0.453431 0.361167 0.782868 0.643085 0.858305 0.879587 0.808947 1.035577 0.936302 1.244994 1.064626 1.108114 0.994107 1.015830 0.960736 0.894432 0.936631 0.762441 0.732043 0.658160 0.624934 0.461128 0.559503 0.447857 0.271499 0.204260 0.139979 0.179143 0.217181 0.154813 0.186797 0.369247 0.346562 0.362794 0.465579 0.542022 0.533643 0.414924 0.804972 0.810808 0.621364 0.677725 0.759881 0.539048 0.415204 0.501888 0.201074 0.252678 0.101536 0.155899 -0.016328 -0.039705 -0.109794 -0.104072 0.101624 -0.008105 0.123380 0.192754 0.157488 0.308376 0.308020 0.391508 0.339884 0.470748 0.315039 0.263351 0.241608 0.146254 0.082552 0.054037 0.024193 0.002769 -0.058413 -0.103540 -0.104349 -0.063811 -0.064468 0.140412 0.316355 0.204317 0.203236 0.282179 0.325088 0.240049 0.346797 0.283160 0.154493 0.133857 0.270347 0.005113 0.044288 0.024884 0.055430 -0.017369 0.086388 -0.005592 0.139946 -0.001411 0.224515 0.252902 0.189388 0.257271 0.196485 0.145424 0.049561 0.076857 0.073785 0.026564 -0.011528 0.037729 -0.062005 -0.007010 0.027912 0.124453 0.270925 0.147705 0.134268 0.230180 0.142354 0.148499 0.046205 0.076473 0.068613 -0.092308 -0.004296 0.038530 0.157855 0.121482 0.044983 0.085325 0.183051 0.168783 0.279857 0.117320 0.104178 0.042735 0.009772 0.061112 0.036416 0.096322 0.166525 0.123159 0.088877 0.141536 0.193560 0.018499 0.084101 0.060188 0.143356 0.066598 -0.008684 0.004950 -0.054221 0.021262 0.050821 0.034247 0.026530 -0.022360 0.054518 0.017218 0.016749 -0.034083 -0.058831 -0.036242 -0.033075 0.066804 -0.034124 -0.009365 0.031808 0.030627 0.025373 0.051045 -0.035644 -0.029592 -0.004115 0.027703 0.014747 0.018461 -0.036794 -0.012390 0.085814 0.023436 0.000520 0.164387 -0.051988 -0.072987 0.021485 0.010551 0.000341 0.034900 -0.042307 0.016631 -0.091884 0.033458 0.034325 0.088594 -0.033689 -0.009187 -0.039782 -0.037215 0.085442 0.072304 -0.042064 0.010634 -0.052999 -0.039000 0.028723 -0.002386 -0.074738 0.032568 -0.108930 -0.092643 -0.058606 -0.057626 0.036483 -0.072748 -0.218739 -0.026627 0.059316 -0.034048 -0.025998 0.046189 -0.054848 -0.013761 -0.064892 -0.047825 -0.124022 -0.131001 -0.119180 0.036882 -0.011848 -0.038136 0.007879 0.059927 -0.095546 0.025254 0.001802 -0.085587 -0.009936 -0.014055 -0.131803 -0.056446 0.010039 0.081422 -0.081222 -0.263758 -0.109802 0.117399 0.010095 -0.033498 0.064957 0.030080 0.015412 -0.064694 0.007084 0.043838 0.046541 0.007327 0.019216 0.056075 -0.126668 0.073685 0.243042 0.172054 0.071375 0.074507 -0.079954 0.046658 0.054954 0.096212 0.336251 0.539667 0.422156 0.554403 0.779909 0.313533 -0.189632 -0.202541 -1.321577
0.072396 0.072907 0.074441 0.076996 0.080573 0.085171 0.090787 0.097421 0.105070 0.113731 0.123401 0.134076 0.145749 0.158414 0.172063 0.186686 0.202272 0.218808 0.236277 0.254662 0.273941 0.294090 0.315083 0.336888 0.359471 0.382792 0.406808 0.431472 0.456729 0.482522 0.508786 0.535450 0.562439 0.589670 0.617053 0.644492 0.671886 0.699122 0.726086 0.752652 0.778689 0.804059 0.828618 0.852215 0.874691 0.895884 0.915625 0.933742 0.950059 0.964394 0.976567 0.986395 0.993696 0.998288 0.999993 0.998638 0.994056 0.986087 0.974581 0.959402 0.940425 0.917543 0.890667 0.859729 0.824683 0.785510 0.742217 0.694843 0.643456 0.588160 0.529096 0.466440 0.400410 0.331263 0.259296 0.184851 0.108309 0.030094 0.049330 0.129459 0.209753 0.289636 0.368501 0.445712 0.520613 0.592528 0.660769 0.724644 0.783462 0.836543 0.883224 0.922870 0.954884 0.978713 0.993862 0.999902 0.996480 0.983329 0.960277 0.927256 0.884310 0.831603 0.769422 0.698184 0.618440 0.530872 0.436294 0.335653 0.230017 0.120573 0.008614 0.104473 0.217222 0.328104 0.435550 0.537971 0.633781 0.721427 0.799412 0.866324 0.920867 0.961889 0.988408 0.999640 0.995027 0.974255 0.937278 0.884331 0.815939 0.732932 0.636433 0.527865 0.408927 0.281586 0.148044 0.010709 0.127847 0.264929 0.397772 0.523598 0.639676 0.743380 0.832257 0.904092 0.956965 0.989316 0.999996 0.988313 0.954073 0.897611 0.819799 0.722060 0.606354 0.475148 0.331387 0.178428 0.019978 0.139994 0.297350 0.447887 0.587455 0.712073 0.818047 0.902092 0.961443 0.993961 0.998218 0.973577 0.920241 0.839281 0.732642 0.603122 0.454310 0.290511 0.116633 0.061949 0.239549 0.410351 0.568599 0.708795 0.825903 0.915537 0.974145 0.999168 0.989170 0.943933 0.864515 0.753254 0.613733 0.450692 0.269888 0.077909 0.118052 0.310452 0.491693 0.654426 0.791853 0.898033 0.968153 0.998772 0.988019 0.935722 0.843483 0.714664 0.554304 0.368955 0.166440 0.044458 0.254364 0.453718 0.633214 0.784254 0.899363 0.972597 0.999876 0.979240 0.911024 0.797909 0.644867 0.458988 0.249183 0.025790 0.199919 0.416298 0.611923 0.776212 0.900015 0.976159 0.999896 0.969242 0.885170 0.751652 0.575523 0.366177 0.135112 0.104676 0.339411 0.555310 0.739419 0.880400 0.969265 0.999998 0.970004 0.880374 0.735923 0.544994 0.319033 0.071950 0.180712 0.422732 0.638257 0.812851 0.934501 0.994482 0.988046 0.914843 0.779078 0.589344 0.358138 0.101101 0.164007 0.418506 0.644124 0.824307 0.945491 0.998168 0.977690 0.884753 0.725486 0.511123 0.257285 0.017085 0.291136 0.543637 0.754663 0.907185 0.988496 0.991350 0.914672 0.763808 0.550250 0.290846 0.006533 0.279302 0.542741 0.761322 0.916013 0.992920 0.984611 0.890927 0.719167 0.483629 0.204515 0.093748 0.384589 0.641667 0.841254 0.964503 0.999288 0.941500 0.795617 0.574480 0.298277 0.007217 0.312998 0.589553 0.809725 0.951443 0.999997 0.949681 0.804558 0.578285 0.292933 0.023059 0.337675 0.618516 0.836183 0.967396 0.997591 0.922636 0.749513 0.495812 0.188061 0.140950 0.455608 0.721327 0.908382 0.995329 0.971565 0.838754 0.610908 0.313045 0.021437 0.354423 0.647410 0.865973 0.983885 0.986387 0.872169 0.653809 0.356550 0.015512 0.328366 0.633204 0.861299 0.983877 0.984836 0.863017 0.632651 0.321876 0.030569 0.380085 0.681803 0.896403 0.995317 0.964674 0.807418 0.543246 0.206321 0.159024 0.504014 0.781958 0.954623
1.000000 1.000000 1.000000 1.000000 1.000000 1.000000 1.000000 1.000000 1.000000 1.000000 1.000000 1.000000 1.000000 1.000000 1.000000 1.000000 1.000000 1.000000 1.000000 1.000000 1.000000 1.000000 1.000000 1.000000 1.000000 1.000000 1.000000 1.000000 1.000000 1.000000 1.000000 1.000000 1.000000 1.000000 1.000000 1.000000 1.000000 1.000000 1.000000 1.000000 1.000000 1.000000 1.000000 1.000000 1.000000 1.000000 1.000000 1.000000 1.000000 1.000000 1.000000 1.000000 0.830534 0.830534 0.830534 0.806530 0.806530 0.806530 0.806530 0.806530 0.806530 0.806530 0.806530 0.806530 0.806530 0.806530 0.806530 0.806530 0.806530 0.806530 0.806530 0.806530 0.806530 0.806530 0.806530 0.806530 0.806530 0.806530 0.806530 0.806530 0.806530 0.806530 0.806530 0.806530 0.806530 0.806530 0.806530 0.806530 0.806530 0.806530 0.806530 0.806530 0.806530 0.806530 0.806530 0.806530 0.854187 0.860793 0.866011 0.869041 0.869293 0.866225 0.865064 0.864616 0.864028 0.865256 0.871588 0.896899 0.914149 0.916974 0.928260 0.929732 0.934621 0.937260 0.957008 0.958517 0.959917 0.959051 0.960011 0.961980 0.968473 0.968621 0.968715 0.969058 0.969180 0.969763 0.969494 0.968743 0.967759 0.967547 0.965115 0.964739 0.965233 0.966081 0.966406 0.961094 0.961325 0.961548 0.963481 0.961990 0.952308 0.946662 0.942866 0.941078 0.921718 0.922731 0.921459 0.917280 0.908940 0.908982 0.898585 0.899712 0.898902 0.893654 0.892897 0.889866 0.886232 0.877513 0.876304 0.875301 0.877146 0.881526 0.884355 0.869954 0.854514 0.836956 0.821100 0.807605 0.808567 0.810400 0.806260 0.809939 0.812424 0.811102 0.809558 0.803568 0.789734 0.797341 0.795617 0.792118 0.786054 0.785051 0.771845 0.764296 0.759938 0.734681 0.718778 0.707058 0.710519 0.703090 0.701374 0.704197 0.711945 0.713442 0.715490 0.709093 0.706184 0.695369 0.672746 0.678561 0.688984 0.682145 0.672521 0.669479 0.645658 0.673099 0.678398 0.697959 0.706131 0.706851 0.706578 0.688854 0.661956 0.627700 0.629003 0.612997 0.623900 0.628631 0.626124 0.613180 0.622293 0.632097 0.647219 0.607530 0.601751 0.584875 0.583115 0.573812 0.573221 0.541019 0.524796 0.514453 0.487310 0.466049 0.481404 0.474241 0.469546 0.493640 0.456796 0.455676 0.452089 0.451636 0.452120 0.439713 0.414400 0.416440 0.415564 0.399425 0.376893 0.322019 0.316420 0.324692 0.327348 0.329229 0.327768 0.339706 0.300658 0.276680 0.279512 0.295160 0.288731 0.299279 0.304275 0.275110 0.274151 0.180829 0.179360 0.200624 0.206316 0.218933 0.200087 0.221789 0.222290 0.201814 0.176569 0.111582 0.064829 0.046506 0.071252 0.078737 0.076099 0.065534 0.049019 0.052508 0.063855 0.018993 0.007171 -0.002894 -0.006799 0.001963 0.030888 0.027133 0.017622 0.028810 0.048350 0.017399 0.020821 0.026123 0.026542 0.049126 0.029246 -0.003033 -0.003305 -0.024846 -0.033463 0.000306 -0.006117 -0.006322 0.020384 0.022844 0.020372 -0.006677 -0.058377 -0.087011 -0.081125 -0.109088 -0.097399 -0.085233 -0.077328 -0.058250 0.005470 0.008505 0.009628 -0.019653 0.008059 -0.030774 -0.040447 -0.029094 -0.050725 -0.040159 0.008203 0.021318 0.027732 -0.024552 -0.037195 -0.037195 -0.037195 -0.060328 -0.060328 -0.060328 -0.060328 -0.060328 -0.060328 -0.060328 -0.060328 -0.060328 -0.070552 -0.070552 -0.070552 -0.070552 -0.070552 -0.070552 -0.070552 -0.070552 -0.070552 -0.070552 -0.070552 -0.070552 -0.070552 -0.070552 -0.070552 -0.070552 -0.070552
0.000000 0.000000 0.000000 0.000000 0.000000 0.000000 0.000000 0.000000 0.000000 0.000000 0.000000 0.000000 0.000000 0.000000 0.000000 0.000000 0.000000 0.000000 0.000000 0.000000 0.000000 0.000000 0.000000 0.000000 0.000000 0.000000 0.000000 0.000000 0.000000 0.000000 0.000000 0.000000 0.000000 0.000000 0.000000 0.000000 0.000000 0.000000 0.000000 0.000000 0.000000 0.000000 0.000000 0.000000 0.000000 0.000000 0.000000 0.000000 0.000000 0.000000 0.000000 0.000000 0.180334 0.180334 0.180334 0.199007 0.199007 0.199007 0.199007 0.199007 0.199007 0.199007 0.199007 0.199007 0.199007 0.199007 0.199007 0.199007 0.199007 0.199007 0.199007 0.199007 0.199007 0.199007 0.199007 0.199007 0.199007 0.199007 0.199007 0.199007 0.199007 0.199007 0.199007 0.199007 0.199007 0.199007 0.199007 0.199007 0.199007 0.199007 0.199007 0.199007 0.199007 0.199007 0.199007 0.199007 0.230940 0.230940 0.230940 0.230940 0.230940 0.230940 0.230940 0.230940 0.230940 0.230940 0.230940 0.230940 0.230940 0.230940 0.230940 0.230940 0.230940 0.230940 0.230940 0.230940 0.230940 0.230940 0.230940 0.230940 0.230940 0.230940 0.230940 0.230940 0.248069 0.248069 0.248069 0.248069 0.248069 0.248069 0.248069 0.248069 0.248069 0.248069 0.248069 0.248069 0.248069 0.248069 0.248069 0.248069 0.248069 0.248069 0.248069 0.248069 0.248069 0.248069 0.251976 0.251976 0.251976 0.251976 0.251976 0.251976 0.251976 0.251976 0.251976 0.251976 0.251976 0.251976 0.251976 0.251976 0.251976 0.251976 0.251976 0.251976 0.251976 0.251976 0.256074 0.256074 0.256074 0.256074 0.256074 0.256074 0.256074 0.256074 0.256074 0.256074 0.256074 0.256074 0.256074 0.256074 0.256074 0.256074 0.256074 0.256074 0.264906 0.264906 0.264906 0.264906 0.264906 0.264906 0.264906 0.264906 0.264906 0.264906 0.264906 0.264906 0.264906 0.264906 0.264906 0.264906 0.264906 0.264906 0.264906 0.264906 0.264906 0.264906 0.264906 0.264906 0.264906 0.264906 0.264906 0.264906 0.264906 0.264906 0.264906 0.274721 0.274721 0.274721 0.274721 0.274721 0.274721 0.274721 0.274721 0.274721 0.274721 0.274721 0.274721 0.274721 0.256074 0.256074 0.256074 0.256074 0.256074 0.256074 0.256074 0.256074 0.256074 0.256074 0.256074 0.256074 0.256074 0.256074 0.269680 0.269680 0.269680 0.269680 0.269680 0.269680 0.269680 0.269680 0.269680 0.269680 0.269680 0.269680 0.264906 0.264906 0.264906 0.264906 0.264906 0.264906 0.264906 0.264906 0.264906 0.264906 0.264906 0.264906 0.269680 0.269680 0.269680 0.269680 0.269680 0.269680 0.269680 0.269680 0.269680 0.269680 0.269680 0.264906 0.264906 0.264906 0.264906 0.264906 0.264906 0.264906 0.264906 0.264906 0.264906 0.264906 0.269680 0.269680 0.269680 0.269680 0.269680 0.269680 0.269680 0.269680 0.269680 0.269680 0.264906 0.264906 0.264906 0.264906 0.264906 0.264906 0.264906 0.264906 0.264906 0.264906 0.260378 0.260378 0.260378 0.260378 0.260378 0.260378 0.260378 0.260378 0.260378 0.260378 0.256074 0.256074 0.256074 0.256074 0.256074 0.256074 0.256074 0.256074 0.256074 0.256074 0.260378 0.260378 0.260378 0.260378 0.260378 0.260378 0.260378 0.260378 0.260378 0.256074 0.256074 0.256074 0.256074 0.256074 0.256074 0.256074 0.256074 0.256074 0.251976 0.251976 0.251976 0.251976 0.251976 0.251976 0.251976 0.251976 0.251976 0.251976 0.251976 0.251976 0.251976 0.251976 0.251976 0.251976 0.251976
