# Output from CTFFind version 4.1.9, run on 2019-11-03 19:34:16
# Input file: stack1_bm3d_averaged_1_4.25_0_1250_half.mrc ; Number of micrographs: 1
# Pixel size: 3.000 Angstroms ; acceleration voltage: 300.0 keV ; spherical aberration: 0.00 mm ; amplitude contrast: 0.07
# Box size: 512 pixels ; min. res.: 30.0 Angstroms ; max. res.: 5.0 Angstroms ; min. def.: 5000.0 um; max. def. 50000.0 um; num. frames averaged: 1
# 6 lines per micrograph: #1 - spatial frequency (1/Angstroms); #2 - 1D rotational average of spectrum (assuming no astigmatism); #3 - 1D rotational average of spectrum; #4 - CTF fit; #5 - cross-correlation between spectrum and CTF fit; #6 - 2sigma of expected cross correlation of noise
0.000000 0.000651 0.001302 0.001953 0.002604 0.003255 0.003906 0.004557 0.005208 0.005859 0.006510 0.007161 0.007812 0.008464 0.009115 0.009766 0.010417 0.011068 0.011719 0.012370 0.013021 0.013672 0.014323 0.014974 0.015625 0.016276 0.016927 0.017578 0.018229 0.018880 0.019531 0.020182 0.020833 0.021484 0.022135 0.022786 0.023438 0.024089 0.024740 0.025391 0.026042 0.026693 0.027344 0.027995 0.028646 0.029297 0.029948 0.030599 0.031250 0.031901 0.032552 0.033203 0.033854 0.034505 0.035156 0.035807 0.036458 0.037109 0.037760 0.038411 0.039062 0.039714 0.040365 0.041016 0.041667 0.042318 0.042969 0.043620 0.044271 0.044922 0.045573 0.046224 0.046875 0.047526 0.048177 0.048828 0.049479 0.050130 0.050781 0.051432 0.052083 0.052734 0.053385 0.054036 0.054688 0.055339 0.055990 0.056641 0.057292 0.057943 0.058594 0.059245 0.059896 0.060547 0.061198 0.061849 0.062500 0.063151 0.063802 0.064453 0.065104 0.065755 0.066406 0.067057 0.067708 0.068359 0.069010 0.069661 0.070312 0.070964 0.071615 0.072266 0.072917 0.073568 0.074219 0.074870 0.075521 0.076172 0.076823 0.077474 0.078125 0.078776 0.079427 0.080078 0.080729 0.081380 0.082031 0.082682 0.083333 0.083984 0.084635 0.085286 0.085938 0.086589 0.087240 0.087891 0.088542 0.089193 0.089844 0.090495 0.091146 0.091797 0.092448 0.093099 0.093750 0.094401 0.095052 0.095703 0.096354 0.097005 0.097656 0.098307 0.098958 0.099609 0.100260 0.100911 0.101562 0.102214 0.102865 0.103516 0.104167 0.104818 0.105469 0.106120 0.106771 0.107422 0.108073 0.108724 0.109375 0.110026 0.110677 0.111328 0.111979 0.112630 0.113281 0.113932 0.114583 0.115234 0.115885 0.116536 0.117188 0.117839 0.118490 0.119141 0.119792 0.120443 0.121094 0.121745 0.122396 0.123047 0.123698 0.124349 0.125000 0.125651 0.126302 0.126953 0.127604 0.128255 0.128906 0.129557 0.130208 0.130859 0.131510 0.132161 0.132812 0.133464 0.134115 0.134766 0.135417 0.136068 0.136719 0.137370 0.138021 0.138672 0.139323 0.139974 0.140625 0.141276 0.141927 0.142578 0.143229 0.143880 0.144531 0.145182 0.145833 0.146484 0.147135 0.147786 0.148438 0.149089 0.149740 0.150391 0.151042 0.151693 0.152344 0.152995 0.153646 0.154297 0.154948 0.155599 0.156250 0.156901 0.157552 0.158203 0.158854 0.159505 0.160156 0.160807 0.161458 0.162109 0.162760 0.163411 0.164062 0.164714 0.165365 0.166016 0.166667 0.167318 0.167969 0.168620 0.169271 0.169922 0.170573 0.171224 0.171875 0.172526 0.173177 0.173828 0.174479 0.175130 0.175781 0.176432 0.177083 0.177734 0.178385 0.179036 0.179688 0.180339 0.180990 0.181641 0.182292 0.182943 0.183594 0.184245 0.184896 0.185547 0.186198 0.186849 0.187500 0.188151 0.188802 0.189453 0.190104 0.190755 0.191406 0.192057 0.192708 0.193359 0.194010 0.194661 0.195312 0.195964 0.196615 0.197266 0.197917 0.198568 0.199219 0.199870 0.200521 0.201172 0.201823 0.202474 0.203125 0.203776 0.204427 0.205078 0.205729 0.206380 0.207031 0.207682 0.208333 0.208984 0.209635 0.210286 0.210938 0.211589 0.212240 0.212891 0.213542 0.214193 0.214844 0.215495 0.216146 0.216797 0.217448 0.218099 0.218750 0.219401 0.220052 0.220703 0.221354 0.222005 0.222656 0.223307 0.223958 0.224609 0.225260 0.225911 0.226562 0.227214 0.227865 0.228516 0.229167 0.229818 0.230469 0.231120 0.231771 0.232422 0.233073 0.233724 0.234375 0.235026 0.235677
       0.34410        0.34410        0.34410        0.34410        0.34410        0.34410        0.34410        0.34410        0.34410        0.34410        0.34410        0.34410        0.34410        0.34410        0.34410        0.34410        0.34410        0.34409        0.34410        0.34410        0.34410        0.34410        0.34410        0.34410        0.34409        0.34410        0.34410        0.34410        0.34409        0.34410        0.34409        0.34410        0.34410        0.34410        0.34410        0.34409        0.34410        0.34410        0.34410        0.34409        0.34409        0.34410        0.34410        0.34410        0.34410        0.34410        0.34410        0.34410        0.34410        0.34410        0.34410        0.44981        0.65762        0.33649        0.16667       -0.03572       -0.25796       -0.06924       -0.15768       -0.15197        0.00610       -0.11740       -0.12415       -0.05220       -0.03951       -0.13571       -0.16386       -0.31128       -0.46290       -0.54728       -0.50874       -0.41944       -0.31705       -0.47661       -0.37045       -0.49147       -0.39976       -0.44041       -0.28788       -0.27169       -0.28128       -0.16303       -0.10380       -0.07539        0.05958        0.02195        0.18761        0.17342        0.31246        0.37707        0.49803        0.51804        0.55483        0.59571        0.72062        0.61825        0.59040        0.52299        0.51838        0.60073        0.49454        0.46784        0.40240        0.30930        0.27564        0.28745        0.25951        0.15673        0.15524        0.02592        0.09275        0.08749        0.06974        0.09468        0.13026        0.21098        0.28893        0.28604        0.32308        0.46918        0.48199        0.50166        0.63828        0.63186        0.58271        0.60116        0.59750        0.46751        0.47949        0.37963        0.34262        0.28399        0.22028        0.20463        0.17854        0.13780        0.18777        0.21918        0.23199        0.25301        0.32462        0.36637        0.38501        0.47363        0.50840        0.50530        0.48355        0.57848        0.49436        0.49169        0.47483        0.38342        0.32743        0.27439        0.28929        0.21287        0.22722        0.23485        0.21618        0.22380        0.30475        0.36995        0.41149        0.44874        0.44336        0.48562        0.45391        0.46560        0.40369        0.38869        0.35277        0.37281        0.37212        0.36422        0.26364        0.31264        0.26730        0.26925        0.28573        0.34538        0.37805        0.41361        0.43665        0.46561        0.43581        0.41949        0.45581        0.37835        0.35089        0.35778        0.31174        0.33639        0.28163        0.31987        0.31243        0.32553        0.36254        0.38897        0.41364        0.43344        0.39134        0.39658        0.37533        0.39396        0.29782        0.31419        0.30704        0.24862        0.32842        0.31353        0.33225        0.35173        0.36073        0.37349        0.37503        0.44702        0.38350        0.36055        0.35262        0.30369        0.29357        0.31542        0.31455        0.34807        0.33145        0.34827        0.33113        0.39253        0.36386        0.37732        0.39842        0.38383        0.34239        0.31687        0.34011        0.31769        0.34462        0.30789        0.35156        0.35268        0.34580        0.32285        0.34664        0.32586        0.28448        0.28738        0.28737        0.31530        0.32906        0.35344        0.33160        0.31988        0.33694        0.33176        0.31150        0.28976        0.32480        0.33667        0.31921        0.29805        0.32677        0.32744        0.34009        0.31544        0.33458        0.35070        0.33205        0.33271        0.30227        0.26425        0.30102        0.33842        0.32687        0.31540        0.35827        0.32469        0.29402        0.33379        0.32601        0.30686        0.29983        0.27245        0.32512        0.34829        0.35574        0.29398        0.28621        0.29294        0.26875        0.26299        0.32214        0.31509        0.31338        0.31638        0.30252        0.27822        0.34670        0.33551        0.33802        0.31467        0.29855        0.32789        0.36241        0.39810        0.30520        0.32743        0.32925        0.34642        0.29602        0.32253        0.32184        0.25082        0.32679        0.36493        0.32445        0.33841        0.30157        0.27666        0.25415        0.29904        0.30712        0.35123        0.32451        0.27732        0.22726        0.30077        0.31621        0.27932        0.26221        0.24191        0.28956        0.26052        0.31056        0.27195        0.30165        0.31544        0.24478        0.30401        0.27266        0.19334        0.20112        0.24666        0.19193        0.24170        0.22820        0.22707        0.36177        0.26205        0.28650        0.28250        0.18656        0.24880        0.33536        0.22156        0.13000        0.26049        0.20643        0.23332        0.32646        0.10742        0.04516       -0.39859       -0.54844
2.889185 2.857970 2.826925 2.796051 2.765348 2.734815 2.704453 2.674262 2.644241 2.614391 2.584711 2.555202 2.525864 2.496697 2.467700 2.438874 2.410218 2.381733 2.353419 2.325275 2.297302 2.269500 2.241868 2.214407 2.187117 2.159997 2.133048 2.106270 2.079662 2.053225 2.026959 2.000863 1.974938 1.949183 1.923599 1.898186 1.872944 1.847872 1.822971 1.798240 1.773680 1.749291 1.725072 1.701024 1.677147 1.653441 1.629904 1.606539 1.583344 1.560320 1.537467 1.543907 1.909315 1.706368 1.037915 1.111205 0.479792 0.936976 0.580092 0.745444 0.885077 0.690764 0.602757 0.782017 0.737882 0.608184 0.570359 0.351643 0.056956 0.002842 -0.016933 -0.037143 0.352270 -0.051436 0.070370 -0.052928 0.011154 -0.042145 0.121582 0.130386 0.101371 0.213965 0.312158 0.291317 0.464259 0.388489 0.643979 0.523859 0.773403 0.744342 0.926643 1.023912 0.945534 1.055827 1.137596 1.121863 1.027071 0.874817 0.877986 0.964953 0.820837 0.799873 0.663605 0.553638 0.485028 0.466413 0.455747 0.258828 0.301577 0.111569 0.090914 0.165915 0.079448 0.079549 0.151976 0.188258 0.326280 0.325485 0.377491 0.404083 0.599940 0.432643 0.686694 0.815000 0.608725 0.671432 0.677350 0.492826 0.412680 0.391034 0.251774 0.240075 0.062272 0.096373 -0.007985 -0.009590 -0.051400 0.025154 0.067468 0.045045 0.087373 0.207751 0.231609 0.247893 0.383238 0.346321 0.359647 0.402685 0.378612 0.326334 0.304275 0.260283 0.094997 0.064099 0.003054 -0.031349 -0.086228 -0.044847 -0.053076 -0.090420 -0.064139 0.065097 0.179284 0.186929 0.195650 0.242079 0.296795 0.210263 0.208401 0.204192 0.095326 0.074059 0.176271 0.074465 0.024580 -0.007207 0.043219 -0.061540 0.006484 -0.000105 0.120598 0.102257 0.131752 0.199975 0.238825 0.095422 0.170776 0.165001 0.091016 0.047377 0.035233 0.044085 -0.017864 -0.010006 -0.009898 -0.010071 0.051229 0.060665 0.096775 0.164707 0.122943 0.065336 0.066698 0.110024 0.042592 -0.075736 0.001274 -0.052817 -0.076447 0.002754 -0.024228 0.049735 0.007160 0.038041 0.087887 0.137449 0.167666 0.042121 0.071480 0.063588 -0.067164 -0.000020 0.015507 0.012668 0.059248 0.050283 0.027021 0.061185 0.085026 0.082855 0.111847 0.136388 0.053046 0.049014 0.031968 0.029158 0.013977 0.068821 0.005629 0.077007 0.062646 0.005946 -0.001925 0.052838 0.001780 -0.065025 -0.028544 -0.039860 -0.015557 0.032037 0.060916 0.022067 -0.008027 0.036566 0.019467 0.024631 -0.012627 0.025235 0.035546 0.023538 -0.008762 0.029095 0.023673 0.042914 0.023242 0.079155 0.059309 0.053202 0.038861 -0.006689 -0.075736 0.020510 0.050507 0.052834 0.008269 0.097882 0.018052 -0.033643 0.029504 0.010127 0.014173 -0.061506 -0.055006 0.060999 0.031333 0.022325 -0.050824 -0.036852 -0.031001 -0.106847 -0.033970 -0.024526 0.016475 0.000521 -0.016000 -0.044283 -0.056936 0.026337 -0.024659 -0.080094 -0.005158 -0.093220 -0.009082 0.024398 0.047515 -0.079944 -0.067147 -0.001211 -0.055888 -0.131354 -0.056207 -0.052197 -0.146625 -0.037071 0.043815 -0.057404 -0.065512 -0.052668 -0.087101 -0.094225 -0.007411 -0.076858 0.076631 -0.046011 -0.041853 -0.108916 0.011353 -0.013036 -0.057217 0.000682 -0.121588 0.080703 -0.052092 0.076414 -0.027551 0.018588 0.131116 -0.063307 0.120597 -0.003812 -0.102456 -0.047459 -0.015700 -0.059138 -0.087458 0.039540 -0.012279 0.202925 -0.016693 0.120580 0.038074 -0.061107 0.028073 0.158947 0.262985 0.058610 0.339308 0.305559 0.240831 0.448374 0.003351 0.067372 -0.720292
0.072396 0.072908 0.074445 0.077005 0.080589 0.085195 0.090822 0.097468 0.105132 0.113809 0.123498 0.134192 0.145887 0.158576 0.172250 0.186901 0.202516 0.219082 0.236583 0.255000 0.274314 0.294499 0.315529 0.337371 0.359992 0.383352 0.407408 0.432110 0.457406 0.483237 0.509537 0.536237 0.563260 0.590523 0.617935 0.645401 0.672817 0.700072 0.727049 0.753623 0.779662 0.805028 0.829575 0.853152 0.875600 0.896755 0.916449 0.934507 0.950754 0.965008 0.977087 0.986807 0.993987 0.998444 1.000000 0.998481 0.993720 0.985558 0.973845 0.958443 0.939231 0.916101 0.888964 0.857755 0.822428 0.782966 0.739378 0.691703 0.640014 0.584417 0.525055 0.462107 0.395795 0.326379 0.254160 0.179484 0.102735 0.024343 0.055226 0.135462 0.215822 0.295724 0.374558 0.451687 0.526447 0.598161 0.666140 0.729686 0.788110 0.840730 0.886883 0.925935 0.957291 0.980401 0.994774 0.999986 0.995691 0.981628 0.957634 0.923652 0.879737 0.826064 0.762934 0.690777 0.610158 0.521774 0.426457 0.325167 0.218987 0.109120 0.003128 0.116356 0.229088 0.339784 0.446868 0.548745 0.643828 0.730563 0.807456 0.873106 0.926225 0.965677 0.990497 0.999926 0.993430 0.970725 0.931797 0.876915 0.806645 0.721851 0.623699 0.513647 0.393439 0.265074 0.130790 0.006977 0.145627 0.282447 0.414659 0.539479 0.654179 0.756145 0.842945 0.912393 0.962611 0.992085 0.999723 0.984899 0.947491 0.887906 0.807101 0.706577 0.588374 0.455039 0.309587 0.155441 0.003638 0.163636 0.320391 0.469685 0.607377 0.729507 0.832428 0.912917 0.968293 0.996513 0.996266 0.967041 0.909178 0.823891 0.713269 0.580249 0.428551 0.262601 0.087406 0.091579 0.268621 0.437883 0.593619 0.730383 0.843220 0.927860 0.980902 0.999965 0.983814 0.932450 0.847156 0.730504 0.586298 0.419484 0.235998 0.042572 0.153491 0.344602 0.523161 0.681875 0.814066 0.913961 0.976975 0.999938 0.981285 0.921177 0.821557 0.686128 0.520249 0.330755 0.125705 0.085949 0.294732 0.491074 0.665748 0.810319 0.917570 0.981888 0.999589 0.969165 0.891427 0.769541 0.608946 0.417155 0.203438 0.021602 0.246534 0.459675 0.649695 0.806236 0.920504 0.985788 0.997897 0.955468 0.860130 0.716506 0.532042 0.316667 0.082297 0.157798 0.389731 0.599794 0.775292 0.905321 0.981496 0.998524 0.954630 0.851767 0.695599 0.495258 0.262859 0.012808 0.239058 0.476461 0.683744 0.846921 0.954649 0.999077 0.976465 0.887557 0.737660 0.536388 0.297120 0.036168 0.228321 0.477589 0.693611 0.860424 0.965338 0.999971 0.960975 0.850421 0.675792 0.449558 0.188337 0.088241 0.359013 0.602868 0.800421 0.935591 0.996967 0.978839 0.881814 0.712920 0.485192 0.216751 0.070579 0.353011 0.606752 0.810012 0.944938 0.999234 0.967371 0.851233 0.660129 0.410151 0.122916 0.176270 0.460576 0.704075 0.884128 0.983549 0.992332 0.908757 0.739742 0.500389 0.212744 0.096161 0.396803 0.659968 0.859632 0.975582 0.995549 0.916626 0.745759 0.499278 0.201442 0.117860 0.426053 0.691196 0.885322 0.987459 0.985994 0.880117 0.680142 0.406641 0.088451 0.240292 0.543774 0.788408 0.946604 0.999975 0.941599 0.777042 0.523990 0.210492 0.128050 0.452802 0.725967 0.915198 0.997536 0.962316 0.812691 0.565540 0.249719 0.097176 0.433235 0.717256 0.913846 0.997933 0.958087 0.798237 0.537486 0.207983 0.148895 0.487692 0.764628 0.943324 0.999693 0.925330 0.728943 0.435529 0.083342 0.280938 0.608369 0.854333 0.984685
1.000000 1.000000 1.000000 1.000000 1.000000 1.000000 1.000000 1.000000 1.000000 1.000000 1.000000 1.000000 1.000000 1.000000 1.000000 1.000000 1.000000 1.000000 1.000000 1.000000 1.000000 1.000000 1.000000 1.000000 1.000000 1.000000 1.000000 1.000000 1.000000 1.000000 1.000000 1.000000 1.000000 1.000000 1.000000 1.000000 1.000000 1.000000 1.000000 1.000000 1.000000 1.000000 1.000000 1.000000 1.000000 1.000000 1.000000 1.000000 1.000000 1.000000 1.000000 1.000000 0.874457 0.874457 0.874457 0.880437 0.880437 0.880437 0.880437 0.880437 0.880437 0.880437 0.880437 0.880437 0.880437 0.880437 0.880437 0.880437 0.880437 0.880437 0.880437 0.880437 0.880437 0.880437 0.880437 0.880437 0.880437 0.880437 0.880437 0.880437 0.880437 0.880437 0.880437 0.880437 0.880437 0.880437 0.880437 0.880437 0.880437 0.880437 0.880437 0.880437 0.880437 0.880437 0.880437 0.880437 0.886198 0.889003 0.890667 0.892504 0.893920 0.891249 0.890335 0.889752 0.889977 0.891275 0.901875 0.916832 0.931707 0.948331 0.955574 0.957252 0.960508 0.960455 0.966891 0.974830 0.973545 0.974179 0.974496 0.975820 0.960763 0.958966 0.953780 0.948996 0.978431 0.960997 0.958403 0.950960 0.944447 0.943183 0.942952 0.942741 0.943107 0.943809 0.944792 0.944643 0.945387 0.945415 0.942775 0.931626 0.927531 0.927379 0.927722 0.920088 0.903391 0.897176 0.895229 0.894953 0.890727 0.890967 0.891285 0.892337 0.890024 0.890522 0.868212 0.865151 0.863223 0.859186 0.857143 0.859418 0.859713 0.864005 0.861513 0.849269 0.825162 0.810706 0.796586 0.770282 0.754659 0.764392 0.765885 0.762241 0.761067 0.758077 0.755321 0.755437 0.749438 0.752470 0.750823 0.745806 0.733902 0.730133 0.714927 0.709680 0.704668 0.682271 0.709778 0.722233 0.721914 0.719931 0.719946 0.713197 0.721391 0.711070 0.702029 0.693917 0.686036 0.677969 0.663954 0.657191 0.672242 0.673342 0.656150 0.664995 0.690847 0.687744 0.693388 0.698441 0.705730 0.703762 0.695379 0.654855 0.644761 0.662778 0.661222 0.658015 0.659188 0.656351 0.654410 0.651823 0.647078 0.611738 0.588481 0.594387 0.602328 0.622715 0.634736 0.643184 0.605830 0.588093 0.543999 0.503931 0.519944 0.508697 0.499425 0.503406 0.482763 0.477878 0.481420 0.490360 0.490972 0.518500 0.516990 0.506490 0.501207 0.486329 0.489356 0.483826 0.450020 0.457931 0.433941 0.416798 0.436328 0.461829 0.427830 0.455364 0.485109 0.439126 0.436681 0.439748 0.395312 0.368699 0.344652 0.294110 0.293417 0.195724 0.178003 0.172326 0.192255 0.186403 0.140320 0.142249 0.156587 0.136213 0.103912 0.074500 0.052321 -0.002832 -0.013201 -0.007043 -0.014988 -0.031090 -0.056190 -0.058479 -0.018820 -0.011270 -0.025278 -0.007398 -0.033834 -0.034716 -0.034727 -0.075643 -0.096498 -0.122709 -0.125460 -0.182664 -0.170809 -0.173026 -0.159937 -0.199421 -0.207235 -0.193449 -0.173571 -0.208595 -0.219102 -0.232141 -0.217884 -0.223087 -0.194483 -0.177859 -0.174720 -0.179435 -0.198926 -0.170486 -0.172937 -0.199894 -0.183724 -0.199343 -0.194410 -0.174471 -0.161821 -0.131739 -0.086884 -0.062255 -0.067017 -0.074667 -0.099822 -0.071026 -0.067789 -0.076184 -0.094067 -0.127870 -0.138682 -0.138682 -0.138682 -0.138682 -0.138682 -0.131945 -0.131945 -0.131945 -0.131945 -0.131945 -0.131945 -0.131945 -0.131945 -0.131945 -0.062097 -0.062097 -0.062097 -0.062097 -0.062097 -0.062097 -0.062097 -0.062097 -0.062097 -0.062097 -0.062097 -0.062097 -0.062097 -0.062097 -0.062097 -0.062097 -0.062097
0.000000 0.000000 0.000000 0.000000 0.000000 0.000000 0.000000 0.000000 0.000000 0.000000 0.000000 0.000000 0.000000 0.000000 0.000000 0.000000 0.000000 0.000000 0.000000 0.000000 0.000000 0.000000 0.000000 0.000000 0.000000 0.000000 0.000000 0.000000 0.000000 0.000000 0.000000 0.000000 0.000000 0.000000 0.000000 0.000000 0.000000 0.000000 0.000000 0.000000 0.000000 0.000000 0.000000 0.000000 0.000000 0.000000 0.000000 0.000000 0.000000 0.000000 0.000000 0.000000 0.180334 0.180334 0.180334 0.199007 0.199007 0.199007 0.199007 0.199007 0.199007 0.199007 0.199007 0.199007 0.199007 0.199007 0.199007 0.199007 0.199007 0.199007 0.199007 0.199007 0.199007 0.199007 0.199007 0.199007 0.199007 0.199007 0.199007 0.199007 0.199007 0.199007 0.199007 0.199007 0.199007 0.199007 0.199007 0.199007 0.199007 0.199007 0.199007 0.199007 0.199007 0.199007 0.199007 0.199007 0.230940 0.230940 0.230940 0.230940 0.230940 0.230940 0.230940 0.230940 0.230940 0.230940 0.230940 0.230940 0.230940 0.230940 0.230940 0.230940 0.230940 0.230940 0.230940 0.230940 0.230940 0.230940 0.230940 0.230940 0.230940 0.230940 0.230940 0.230940 0.248069 0.248069 0.248069 0.248069 0.248069 0.248069 0.248069 0.248069 0.248069 0.248069 0.248069 0.248069 0.248069 0.248069 0.248069 0.248069 0.248069 0.248069 0.248069 0.248069 0.248069 0.248069 0.251976 0.251976 0.251976 0.251976 0.251976 0.251976 0.251976 0.251976 0.251976 0.251976 0.251976 0.251976 0.251976 0.251976 0.251976 0.251976 0.251976 0.251976 0.251976 0.251976 0.256074 0.256074 0.256074 0.256074 0.256074 0.256074 0.256074 0.256074 0.256074 0.256074 0.256074 0.256074 0.256074 0.256074 0.256074 0.256074 0.256074 0.256074 0.264906 0.264906 0.264906 0.264906 0.264906 0.264906 0.264906 0.264906 0.264906 0.264906 0.264906 0.264906 0.264906 0.264906 0.264906 0.264906 0.269680 0.269680 0.269680 0.269680 0.269680 0.269680 0.269680 0.269680 0.269680 0.269680 0.269680 0.269680 0.269680 0.269680 0.264906 0.264906 0.264906 0.264906 0.264906 0.264906 0.264906 0.264906 0.264906 0.264906 0.264906 0.264906 0.264906 0.264906 0.264906 0.264906 0.264906 0.264906 0.264906 0.264906 0.264906 0.264906 0.264906 0.264906 0.264906 0.264906 0.264906 0.260378 0.260378 0.260378 0.260378 0.260378 0.260378 0.260378 0.260378 0.260378 0.260378 0.260378 0.260378 0.260378 0.274721 0.274721 0.274721 0.274721 0.274721 0.274721 0.274721 0.274721 0.274721 0.274721 0.274721 0.260378 0.260378 0.260378 0.260378 0.260378 0.260378 0.260378 0.260378 0.260378 0.260378 0.260378 0.260378 0.264906 0.264906 0.264906 0.264906 0.264906 0.264906 0.264906 0.264906 0.264906 0.264906 0.264906 0.269680 0.269680 0.269680 0.269680 0.269680 0.269680 0.269680 0.269680 0.269680 0.269680 0.264906 0.264906 0.264906 0.264906 0.264906 0.264906 0.264906 0.264906 0.264906 0.264906 0.260378 0.260378 0.260378 0.260378 0.260378 0.260378 0.260378 0.260378 0.260378 0.260378 0.264906 0.264906 0.264906 0.264906 0.264906 0.264906 0.264906 0.264906 0.264906 0.251976 0.251976 0.251976 0.251976 0.251976 0.251976 0.251976 0.251976 0.251976 0.251976 0.256074 0.256074 0.256074 0.256074 0.256074 0.256074 0.256074 0.256074 0.256074 0.269680 0.269680 0.269680 0.269680 0.269680 0.269680 0.269680 0.269680 0.269680 0.269680 0.269680 0.269680 0.269680 0.269680 0.269680 0.269680 0.269680
