# Output from CTFFind version 4.1.9, run on 2019-11-03 20:07:44
# Input file: stack6_bm3d_averaged_1_6.0_0_1500_half.mrc ; Number of micrographs: 1
# Pixel size: 3.000 Angstroms ; acceleration voltage: 300.0 keV ; spherical aberration: 0.00 mm ; amplitude contrast: 0.07
# Box size: 512 pixels ; min. res.: 30.0 Angstroms ; max. res.: 5.0 Angstroms ; min. def.: 5000.0 um; max. def. 50000.0 um; num. frames averaged: 1
# 6 lines per micrograph: #1 - spatial frequency (1/Angstroms); #2 - 1D rotational average of spectrum (assuming no astigmatism); #3 - 1D rotational average of spectrum; #4 - CTF fit; #5 - cross-correlation between spectrum and CTF fit; #6 - 2sigma of expected cross correlation of noise
0.000000 0.000651 0.001302 0.001953 0.002604 0.003255 0.003906 0.004557 0.005208 0.005859 0.006510 0.007161 0.007812 0.008464 0.009115 0.009766 0.010417 0.011068 0.011719 0.012370 0.013021 0.013672 0.014323 0.014974 0.015625 0.016276 0.016927 0.017578 0.018229 0.018880 0.019531 0.020182 0.020833 0.021484 0.022135 0.022786 0.023438 0.024089 0.024740 0.025391 0.026042 0.026693 0.027344 0.027995 0.028646 0.029297 0.029948 0.030599 0.031250 0.031901 0.032552 0.033203 0.033854 0.034505 0.035156 0.035807 0.036458 0.037109 0.037760 0.038411 0.039062 0.039714 0.040365 0.041016 0.041667 0.042318 0.042969 0.043620 0.044271 0.044922 0.045573 0.046224 0.046875 0.047526 0.048177 0.048828 0.049479 0.050130 0.050781 0.051432 0.052083 0.052734 0.053385 0.054036 0.054688 0.055339 0.055990 0.056641 0.057292 0.057943 0.058594 0.059245 0.059896 0.060547 0.061198 0.061849 0.062500 0.063151 0.063802 0.064453 0.065104 0.065755 0.066406 0.067057 0.067708 0.068359 0.069010 0.069661 0.070312 0.070964 0.071615 0.072266 0.072917 0.073568 0.074219 0.074870 0.075521 0.076172 0.076823 0.077474 0.078125 0.078776 0.079427 0.080078 0.080729 0.081380 0.082031 0.082682 0.083333 0.083984 0.084635 0.085286 0.085938 0.086589 0.087240 0.087891 0.088542 0.089193 0.089844 0.090495 0.091146 0.091797 0.092448 0.093099 0.093750 0.094401 0.095052 0.095703 0.096354 0.097005 0.097656 0.098307 0.098958 0.099609 0.100260 0.100911 0.101562 0.102214 0.102865 0.103516 0.104167 0.104818 0.105469 0.106120 0.106771 0.107422 0.108073 0.108724 0.109375 0.110026 0.110677 0.111328 0.111979 0.112630 0.113281 0.113932 0.114583 0.115234 0.115885 0.116536 0.117188 0.117839 0.118490 0.119141 0.119792 0.120443 0.121094 0.121745 0.122396 0.123047 0.123698 0.124349 0.125000 0.125651 0.126302 0.126953 0.127604 0.128255 0.128906 0.129557 0.130208 0.130859 0.131510 0.132161 0.132812 0.133464 0.134115 0.134766 0.135417 0.136068 0.136719 0.137370 0.138021 0.138672 0.139323 0.139974 0.140625 0.141276 0.141927 0.142578 0.143229 0.143880 0.144531 0.145182 0.145833 0.146484 0.147135 0.147786 0.148438 0.149089 0.149740 0.150391 0.151042 0.151693 0.152344 0.152995 0.153646 0.154297 0.154948 0.155599 0.156250 0.156901 0.157552 0.158203 0.158854 0.159505 0.160156 0.160807 0.161458 0.162109 0.162760 0.163411 0.164062 0.164714 0.165365 0.166016 0.166667 0.167318 0.167969 0.168620 0.169271 0.169922 0.170573 0.171224 0.171875 0.172526 0.173177 0.173828 0.174479 0.175130 0.175781 0.176432 0.177083 0.177734 0.178385 0.179036 0.179688 0.180339 0.180990 0.181641 0.182292 0.182943 0.183594 0.184245 0.184896 0.185547 0.186198 0.186849 0.187500 0.188151 0.188802 0.189453 0.190104 0.190755 0.191406 0.192057 0.192708 0.193359 0.194010 0.194661 0.195312 0.195964 0.196615 0.197266 0.197917 0.198568 0.199219 0.199870 0.200521 0.201172 0.201823 0.202474 0.203125 0.203776 0.204427 0.205078 0.205729 0.206380 0.207031 0.207682 0.208333 0.208984 0.209635 0.210286 0.210938 0.211589 0.212240 0.212891 0.213542 0.214193 0.214844 0.215495 0.216146 0.216797 0.217448 0.218099 0.218750 0.219401 0.220052 0.220703 0.221354 0.222005 0.222656 0.223307 0.223958 0.224609 0.225260 0.225911 0.226562 0.227214 0.227865 0.228516 0.229167 0.229818 0.230469 0.231120 0.231771 0.232422 0.233073 0.233724 0.234375 0.235026 0.235677
       0.31781        0.31781        0.31781        0.31781        0.31781        0.31781        0.31781        0.31781        0.31781        0.31781        0.31781        0.31781        0.31781        0.31781        0.31781        0.31781        0.31781        0.31781        0.31781        0.31781        0.31781        0.31781        0.31781        0.31781        0.31781        0.31781        0.31781        0.31781        0.31781        0.31781        0.31781        0.31781        0.31781        0.31781        0.31781        0.31781        0.31781        0.31781        0.31781        0.31781        0.31781        0.31781        0.31781        0.31781        0.31781        0.31781        0.31781        0.31781        0.31781        0.31781        0.31781        0.59790        0.71818        0.35861        0.17921        0.13022       -0.14249        0.10882        0.03295        0.03574        0.09042        0.30704        0.31874        0.24520        0.14438       -0.03903       -0.01299        0.04382       -0.11637       -0.12349       -0.07949       -0.09380       -0.20647       -0.13445       -0.24867       -0.26551       -0.26219       -0.32481       -0.40089       -0.33685       -0.24425       -0.21346       -0.31577       -0.23296       -0.28448       -0.22543       -0.15328       -0.09857       -0.06453        0.00048        0.03948        0.13338        0.17597        0.21722        0.33870        0.40588        0.35650        0.46824        0.54574        0.55441        0.63568        0.56702        0.59889        0.59980        0.60850        0.60838        0.55420        0.58014        0.54625        0.39134        0.33501        0.36821        0.34411        0.19845        0.17451        0.14739        0.09422        0.09881        0.01762        0.07644        0.05644        0.01466        0.10770        0.16922        0.26377        0.35219        0.34927        0.37697        0.45192        0.48729        0.41779        0.64597        0.53969        0.48183        0.57206        0.49892        0.54090        0.50349        0.37254        0.31015        0.28670        0.23719        0.22709        0.20081        0.18031        0.14601        0.22651        0.20718        0.24293        0.21180        0.26786        0.32089        0.33498        0.44421        0.43713        0.41538        0.42298        0.47159        0.43815        0.42692        0.39424        0.40051        0.33619        0.28507        0.25101        0.25458        0.25099        0.19748        0.17338        0.22998        0.23893        0.27491        0.34564        0.36526        0.41668        0.39871        0.43037        0.46730        0.45842        0.42693        0.38830        0.41361        0.37132        0.32617        0.33343        0.31623        0.25890        0.27719        0.27482        0.23985        0.30618        0.28217        0.29710        0.32265        0.38154        0.41265        0.40506        0.43035        0.37659        0.41687        0.39196        0.31068        0.28813        0.25071        0.26603        0.22979        0.20462        0.29587        0.35420        0.32170        0.29389        0.34859        0.27256        0.33114        0.38388        0.37372        0.36069        0.38263        0.33080        0.34857        0.33062        0.29096        0.28194        0.24638        0.29842        0.31115        0.32526        0.34162        0.38006        0.37360        0.37253        0.32654        0.35020        0.34413        0.32776        0.32212        0.29094        0.28627        0.25711        0.32559        0.33090        0.32709        0.29777        0.33473        0.34042        0.33200        0.34751        0.32674        0.29370        0.29217        0.29556        0.26857        0.25143        0.24265        0.24684        0.26448        0.25168        0.29213        0.28222        0.32151        0.33269        0.26500        0.29912        0.27615        0.21987        0.27107        0.25266        0.24886        0.28392        0.30965        0.30764        0.30209        0.30263        0.29960        0.31854        0.33757        0.28590        0.31661        0.31255        0.36130        0.28350        0.26973        0.26742        0.31076        0.32102        0.33307        0.34881        0.30942        0.23000        0.28967        0.25426        0.24840        0.24874        0.25264        0.28937        0.22811        0.29832        0.31828        0.35399        0.31365        0.29288        0.25706        0.27781        0.28292        0.23966        0.26316        0.27726        0.30818        0.33656        0.31916        0.29334        0.28391        0.31743        0.26462        0.23303        0.19079        0.30163        0.33757        0.33209        0.31451        0.29719        0.23661        0.21228        0.24883        0.24905        0.24761        0.27154        0.28234        0.24973        0.25313        0.23652        0.28938        0.25447        0.25307        0.26339        0.25660        0.18677        0.23993        0.24487        0.23185        0.29143        0.24990        0.25181        0.21138        0.21559        0.26642        0.22666        0.23420        0.15531        0.15211        0.31865        0.20393        0.21004        0.28725        0.17095        0.16262        0.14368        0.25104        0.18604        0.15798       -0.05310       -0.59357       -0.92467
2.323600 2.303841 2.284170 2.264587 2.245093 2.225686 2.206368 2.187138 2.167996 2.148942 2.129976 2.111099 2.092310 2.073609 2.054996 2.036471 2.018035 1.999686 1.981426 1.963254 1.945170 1.927174 1.909267 1.891448 1.873717 1.856074 1.838519 1.821052 1.803674 1.786383 1.769181 1.752067 1.735042 1.718104 1.701255 1.684493 1.667820 1.651236 1.634739 1.618330 1.602010 1.585778 1.569634 1.553578 1.537610 1.521731 1.505940 1.490236 1.474621 1.459095 1.443656 1.803155 2.134912 1.477344 1.324258 1.077964 0.522013 0.910751 0.817768 0.829800 0.699992 1.375370 1.197847 1.212343 0.973074 0.624306 0.483357 0.745018 0.573772 0.254040 0.294597 0.478500 0.229675 0.254690 0.109049 0.002281 -0.016061 -0.010517 -0.302669 -0.167759 -0.003382 -0.032042 -0.095864 -0.017824 -0.129080 -0.110435 0.062784 0.168473 0.236366 0.272991 0.358551 0.601184 0.547759 0.626530 0.818682 1.017943 0.796441 1.206650 1.160850 1.227695 1.333053 1.233091 1.176071 1.323204 1.207311 1.336394 1.165220 1.127161 1.188714 0.950256 0.666138 0.726237 0.777084 0.480195 0.408153 0.356470 0.206918 0.193177 0.042077 0.190443 0.154231 0.022428 0.113042 0.227898 0.343422 0.603063 0.594976 0.572655 0.701687 0.873867 0.582151 1.016560 1.012130 0.756939 0.912058 0.754596 0.838664 0.874476 0.604709 0.392561 0.397794 0.337933 0.213236 0.190741 0.170656 -0.011066 0.202864 0.169643 0.236906 0.125168 0.261234 0.321145 0.282969 0.487577 0.590850 0.515728 0.362060 0.671239 0.552037 0.465423 0.507241 0.440489 0.301206 0.329816 0.123924 0.192405 0.041626 0.195729 -0.065180 0.052247 0.039755 0.240995 0.084489 0.376804 0.323679 0.379907 0.397471 0.398913 0.564237 0.400587 0.375208 0.425615 0.223025 0.329588 0.149651 0.264620 0.077964 0.118002 0.095794 0.082746 0.045517 0.158384 0.064977 0.147506 0.236808 0.277799 0.343465 0.269820 0.337374 0.256931 0.295862 0.180364 0.098475 0.036213 -0.009558 0.019986 -0.084117 -0.059732 0.109585 0.205465 0.068241 0.108990 0.108306 0.022735 0.175838 0.232923 0.183274 0.219678 0.139271 0.137741 0.111821 0.104914 0.053355 -0.074844 -0.022859 0.140734 0.011031 0.136091 0.105609 0.228781 0.211891 0.184127 0.131326 0.187157 0.101464 0.119278 0.113622 0.046846 -0.008251 0.015831 0.125118 0.133581 0.111292 0.052663 0.146273 0.117489 0.065901 0.131213 0.032817 -0.014000 0.024187 -0.002987 -0.044251 -0.074870 -0.100715 -0.035690 -0.059082 -0.079600 0.015637 0.004034 0.082007 0.076909 -0.060542 0.057811 -0.047068 -0.111547 0.026335 -0.065504 -0.078850 0.039861 0.071148 0.025866 0.057811 -0.031154 0.048186 0.132861 -0.013299 -0.014307 0.088960 0.039789 0.127454 -0.055268 -0.031941 -0.043527 0.099554 0.034605 0.070721 0.143834 0.013405 -0.095433 0.006470 -0.049423 -0.059772 -0.055230 -0.054926 0.022034 -0.139465 0.106780 0.077301 0.175606 0.041870 -0.002873 -0.008675 0.015258 0.057874 -0.070165 0.029621 0.018627 0.111874 0.110936 0.137805 0.079605 0.080038 0.170282 -0.026810 0.007141 -0.128600 0.168588 0.171917 0.159881 0.137355 0.063901 -0.032884 -0.073337 -0.025037 -0.000236 -0.009209 0.034811 0.083247 -0.019061 0.004089 0.031666 0.078685 0.057742 0.049367 0.074039 0.007896 -0.039303 0.030021 0.055108 0.013777 0.155107 0.052509 0.015372 0.050335 0.035178 0.107474 0.134173 0.073602 -0.059808 -0.168274 0.412704 0.444383 0.352949 0.552502 0.255221 0.297016 0.212094 0.539367 0.348686 0.302959 0.195788 -0.859535
0.072396 0.072838 0.074163 0.076371 0.079462 0.083435 0.088289 0.094022 0.100634 0.108122 0.116484 0.125716 0.135815 0.146776 0.158594 0.171262 0.184772 0.199116 0.214282 0.230259 0.247032 0.264586 0.282903 0.301961 0.321739 0.342209 0.363344 0.385111 0.407474 0.430396 0.453833 0.477738 0.502061 0.526747 0.551735 0.576960 0.602354 0.627843 0.653346 0.678779 0.704051 0.729069 0.753731 0.777931 0.801559 0.824499 0.846629 0.867825 0.887956 0.906890 0.924488 0.940610 0.955112 0.967851 0.978680 0.987451 0.994019 0.998237 0.999964 0.999060 0.995388 0.988821 0.979236 0.966518 0.950564 0.931282 0.908590 0.882425 0.852736 0.819493 0.782682 0.742313 0.698416 0.651047 0.600285 0.546238 0.489041 0.428857 0.365881 0.300336 0.232478 0.162594 0.091002 0.018050 0.055883 0.130388 0.205031 0.279348 0.352856 0.425047 0.495396 0.563366 0.628407 0.689964 0.747479 0.800402 0.848190 0.890315 0.926273 0.955588 0.977820 0.992569 0.999485 0.998277 0.988713 0.970632 0.943948 0.908657 0.864842 0.812675 0.752424 0.684454 0.609231 0.527317 0.439375 0.346165 0.248540 0.147440 0.043885 0.061028 0.166143 0.270251 0.372106 0.470437 0.563965 0.651424 0.731572 0.803218 0.865233 0.916578 0.956321 0.983654 0.997916 0.998607 0.985407 0.958192 0.917039 0.862242 0.794319 0.714007 0.622269 0.520285 0.409446 0.291336 0.167716 0.040506 0.088250 0.216406 0.341757 0.462066 0.575119 0.678750 0.770902 0.849658 0.913296 0.960323 0.989521 0.999980 0.991137 0.962795 0.915150 0.848800 0.764752 0.664419 0.549605 0.422480 0.285552 0.141622 0.006269 0.154897 0.300927 0.440980 0.571721 0.689935 0.792613 0.877034 0.940842 0.982127 0.999484 0.992074 0.959665 0.902665 0.822136 0.719788 0.597962 0.459586 0.308120 0.147478 0.018066 0.183983 0.345614 0.498297 0.637510 0.759000 0.858929 0.934004 0.981593 0.999836 0.987727 0.945176 0.873050 0.773168 0.648289 0.502048 0.338864 0.163824 0.017463 0.199040 0.374797 0.538674 0.684877 0.808085 0.903659 0.967832 0.997874 0.992225 0.950588 0.873990 0.764777 0.626575 0.464192 0.283467 0.091080 0.105682 0.299199 0.481803 0.646095 0.785242 0.893285 0.965408 0.998170 0.989698 0.939809 0.850073 0.723801 0.565943 0.382939 0.182460 0.026882 0.235900 0.435226 0.615737 0.768976 0.887568 0.965597 0.998919 0.985421 0.925170 0.820481 0.675864 0.497862 0.294798 0.076395 0.146661 0.363236 0.562304 0.733521 0.867767 0.957665 0.998014 0.986118 0.922006 0.808499 0.651135 0.457938 0.239048 0.006209 0.227834 0.450029 0.647754 0.809529 0.925727 0.989163 0.995583 0.943987 0.836772 0.679681 0.481538 0.253798 0.009912 0.235431 0.467203 0.670938 0.833664 0.944749 0.996643 0.985427 0.911160 0.777971 0.593885 0.370404 0.121820 0.135662 0.384967 0.609279 0.793179 0.923751 0.991510 0.991152 0.922021 0.788260 0.598637 0.366026 0.106581 0.161341 0.418481 0.646035 0.827068 0.947796 0.998685 0.975268 0.878586 0.715243 0.497021 0.240102 0.036101 0.310362 0.561273 0.768927 0.916516 0.991754 0.987952 0.904681 0.747947 0.529842 0.267673 0.017345 0.301778 0.561874 0.775578 0.924413 0.995148 0.981031 0.882517 0.707374 0.470168 0.191118 0.105567 0.393759 0.647693 0.844311 0.965377 0.999256 0.942097 0.798357 0.580554 0.308267 0.006448 0.296823 0.572914 0.795383 0.942524 0.999570 0.960250 0.827572 0.613716 0.339009 0.030078 0.282680 0.568056 0.797160 0.946401 0.999962
1.000000 1.000000 1.000000 1.000000 1.000000 1.000000 1.000000 1.000000 1.000000 1.000000 1.000000 1.000000 1.000000 1.000000 1.000000 1.000000 1.000000 1.000000 1.000000 1.000000 1.000000 1.000000 1.000000 1.000000 1.000000 1.000000 1.000000 1.000000 1.000000 1.000000 1.000000 1.000000 1.000000 1.000000 1.000000 1.000000 1.000000 1.000000 1.000000 1.000000 1.000000 1.000000 1.000000 1.000000 1.000000 1.000000 1.000000 1.000000 1.000000 1.000000 1.000000 1.000000 0.780944 0.780944 0.780944 0.780944 0.780944 0.780944 0.780944 0.766068 0.766068 0.766068 0.766068 0.766068 0.766068 0.766068 0.766068 0.766068 0.766068 0.766068 0.766068 0.766068 0.766068 0.766068 0.766068 0.766068 0.766068 0.766068 0.766068 0.766068 0.766068 0.766068 0.766068 0.766068 0.766068 0.766068 0.766068 0.766068 0.766068 0.766068 0.766068 0.766068 0.766068 0.766068 0.766068 0.766068 0.766068 0.766068 0.766068 0.766068 0.766068 0.766068 0.766068 0.910777 0.912091 0.914831 0.909756 0.911581 0.909517 0.903069 0.906031 0.905844 0.905680 0.906649 0.908159 0.910008 0.915043 0.921487 0.923284 0.931010 0.934346 0.935624 0.935678 0.932770 0.940302 0.937928 0.936185 0.924301 0.927577 0.927205 0.927357 0.926171 0.926290 0.927567 0.927486 0.925370 0.923538 0.921335 0.919538 0.921280 0.920877 0.921064 0.921228 0.921409 0.921315 0.921898 0.918041 0.920300 0.919180 0.915606 0.912253 0.911800 0.912915 0.906046 0.902675 0.893359 0.894569 0.893502 0.898736 0.893687 0.893427 0.894656 0.895419 0.896080 0.893979 0.894032 0.891580 0.893370 0.889947 0.885679 0.881906 0.882293 0.884017 0.891362 0.894028 0.893108 0.889545 0.882743 0.873259 0.870824 0.857384 0.828458 0.829472 0.832700 0.834526 0.835461 0.834800 0.832944 0.828569 0.819794 0.811036 0.815697 0.815382 0.807384 0.797803 0.798270 0.795597 0.803200 0.806425 0.797968 0.800644 0.798499 0.796477 0.797206 0.797053 0.796354 0.791046 0.793139 0.801844 0.802469 0.792062 0.786484 0.782395 0.762666 0.765889 0.772419 0.780009 0.781227 0.776540 0.762725 0.771298 0.765994 0.781799 0.794860 0.793249 0.789391 0.769022 0.727037 0.714709 0.703829 0.706522 0.708136 0.692977 0.686245 0.687150 0.691783 0.641466 0.627689 0.616278 0.615095 0.623316 0.628068 0.621558 0.586267 0.604475 0.602022 0.585190 0.581729 0.548400 0.531000 0.487521 0.489979 0.486942 0.463940 0.447652 0.437824 0.452633 0.463305 0.461424 0.460065 0.431033 0.413939 0.415849 0.414604 0.419080 0.418901 0.425560 0.379792 0.358060 0.344188 0.366188 0.368083 0.367879 0.378236 0.379607 0.378063 0.359007 0.342231 0.332341 0.346501 0.365002 0.373796 0.375698 0.341903 0.324989 0.303524 0.309900 0.351916 0.342018 0.345757 0.339847 0.344921 0.366761 0.350811 0.329160 0.308113 0.347467 0.343694 0.334352 0.308928 0.310538 0.329702 0.331846 0.327149 0.317205 0.353574 0.383515 0.375290 0.381337 0.365273 0.398128 0.446353 0.433272 0.430326 0.452860 0.445629 0.439286 0.411936 0.398810 0.396766 0.371912 0.364290 0.343374 0.327855 0.316057 0.322497 0.347534 0.353521 0.388076 0.364534 0.332274 0.233604 0.309786 0.223249 0.227720 0.227720 0.227720 0.227720 0.227720 0.227720 0.227720 0.227720 0.246412 0.246412 0.246412 0.246412 0.246412 0.246412 0.246412 0.246412 0.246412 0.246412 0.246412 0.246412 0.246412 0.246412 0.246412 0.246412 0.246412 0.246412 0.246412 0.246412 0.246412
0.000000 0.000000 0.000000 0.000000 0.000000 0.000000 0.000000 0.000000 0.000000 0.000000 0.000000 0.000000 0.000000 0.000000 0.000000 0.000000 0.000000 0.000000 0.000000 0.000000 0.000000 0.000000 0.000000 0.000000 0.000000 0.000000 0.000000 0.000000 0.000000 0.000000 0.000000 0.000000 0.000000 0.000000 0.000000 0.000000 0.000000 0.000000 0.000000 0.000000 0.000000 0.000000 0.000000 0.000000 0.000000 0.000000 0.000000 0.000000 0.000000 0.000000 0.000000 0.000000 0.173422 0.173422 0.173422 0.173422 0.173422 0.173422 0.173422 0.191565 0.191565 0.191565 0.191565 0.191565 0.191565 0.191565 0.191565 0.191565 0.191565 0.191565 0.191565 0.191565 0.191565 0.191565 0.191565 0.191565 0.191565 0.191565 0.191565 0.191565 0.191565 0.191565 0.191565 0.191565 0.191565 0.191565 0.191565 0.191565 0.191565 0.191565 0.191565 0.191565 0.191565 0.191565 0.191565 0.191565 0.191565 0.191565 0.191565 0.191565 0.191565 0.191565 0.191565 0.222222 0.222222 0.222222 0.222222 0.222222 0.222222 0.222222 0.222222 0.222222 0.222222 0.222222 0.222222 0.222222 0.222222 0.222222 0.222222 0.222222 0.222222 0.222222 0.222222 0.222222 0.222222 0.222222 0.222222 0.222222 0.222222 0.222222 0.222222 0.222222 0.222222 0.234082 0.234082 0.234082 0.234082 0.234082 0.234082 0.234082 0.234082 0.234082 0.234082 0.234082 0.234082 0.234082 0.234082 0.234082 0.234082 0.234082 0.234082 0.234082 0.234082 0.234082 0.234082 0.234082 0.234082 0.234082 0.244339 0.244339 0.244339 0.244339 0.244339 0.244339 0.244339 0.244339 0.244339 0.244339 0.244339 0.244339 0.244339 0.244339 0.244339 0.244339 0.244339 0.244339 0.244339 0.244339 0.244339 0.248069 0.248069 0.248069 0.248069 0.248069 0.248069 0.248069 0.248069 0.248069 0.248069 0.248069 0.248069 0.248069 0.248069 0.248069 0.248069 0.248069 0.248069 0.248069 0.256074 0.256074 0.256074 0.256074 0.256074 0.256074 0.256074 0.256074 0.256074 0.256074 0.256074 0.256074 0.256074 0.256074 0.256074 0.256074 0.256074 0.256074 0.256074 0.256074 0.256074 0.256074 0.256074 0.256074 0.256074 0.256074 0.256074 0.256074 0.256074 0.256074 0.256074 0.256074 0.256074 0.256074 0.256074 0.256074 0.256074 0.256074 0.256074 0.256074 0.256074 0.256074 0.256074 0.256074 0.256074 0.256074 0.256074 0.256074 0.256074 0.256074 0.256074 0.256074 0.256074 0.256074 0.256074 0.256074 0.256074 0.256074 0.256074 0.256074 0.256074 0.256074 0.260378 0.260378 0.260378 0.260378 0.260378 0.260378 0.260378 0.260378 0.260378 0.260378 0.260378 0.260378 0.260378 0.256074 0.256074 0.256074 0.256074 0.256074 0.256074 0.256074 0.256074 0.256074 0.256074 0.256074 0.256074 0.256074 0.260378 0.260378 0.260378 0.260378 0.260378 0.260378 0.260378 0.260378 0.260378 0.260378 0.260378 0.260378 0.251976 0.251976 0.251976 0.251976 0.251976 0.251976 0.251976 0.251976 0.251976 0.251976 0.251976 0.251976 0.256074 0.256074 0.256074 0.256074 0.256074 0.256074 0.256074 0.256074 0.256074 0.256074 0.256074 0.251976 0.251976 0.251976 0.251976 0.251976 0.251976 0.251976 0.251976 0.251976 0.251976 0.251976 0.260378 0.260378 0.260378 0.260378 0.260378 0.260378 0.260378 0.260378 0.260378 0.260378 0.244339 0.244339 0.244339 0.244339 0.244339 0.244339 0.244339 0.244339 0.244339 0.244339 0.244339 0.244339 0.244339 0.244339 0.244339 0.244339 0.244339 0.244339 0.244339 0.244339 0.244339
