# Output from CTFFind version 4.1.9, run on 2019-11-03 19:23:39
# Input file: stack1_bm3d_averaged_1_3.75_0_50_half.mrc ; Number of micrographs: 1
# Pixel size: 3.000 Angstroms ; acceleration voltage: 300.0 keV ; spherical aberration: 0.00 mm ; amplitude contrast: 0.07
# Box size: 512 pixels ; min. res.: 30.0 Angstroms ; max. res.: 5.0 Angstroms ; min. def.: 5000.0 um; max. def. 50000.0 um; num. frames averaged: 1
# 6 lines per micrograph: #1 - spatial frequency (1/Angstroms); #2 - 1D rotational average of spectrum (assuming no astigmatism); #3 - 1D rotational average of spectrum; #4 - CTF fit; #5 - cross-correlation between spectrum and CTF fit; #6 - 2sigma of expected cross correlation of noise
0.000000 0.000651 0.001302 0.001953 0.002604 0.003255 0.003906 0.004557 0.005208 0.005859 0.006510 0.007161 0.007812 0.008464 0.009115 0.009766 0.010417 0.011068 0.011719 0.012370 0.013021 0.013672 0.014323 0.014974 0.015625 0.016276 0.016927 0.017578 0.018229 0.018880 0.019531 0.020182 0.020833 0.021484 0.022135 0.022786 0.023438 0.024089 0.024740 0.025391 0.026042 0.026693 0.027344 0.027995 0.028646 0.029297 0.029948 0.030599 0.031250 0.031901 0.032552 0.033203 0.033854 0.034505 0.035156 0.035807 0.036458 0.037109 0.037760 0.038411 0.039062 0.039714 0.040365 0.041016 0.041667 0.042318 0.042969 0.043620 0.044271 0.044922 0.045573 0.046224 0.046875 0.047526 0.048177 0.048828 0.049479 0.050130 0.050781 0.051432 0.052083 0.052734 0.053385 0.054036 0.054688 0.055339 0.055990 0.056641 0.057292 0.057943 0.058594 0.059245 0.059896 0.060547 0.061198 0.061849 0.062500 0.063151 0.063802 0.064453 0.065104 0.065755 0.066406 0.067057 0.067708 0.068359 0.069010 0.069661 0.070312 0.070964 0.071615 0.072266 0.072917 0.073568 0.074219 0.074870 0.075521 0.076172 0.076823 0.077474 0.078125 0.078776 0.079427 0.080078 0.080729 0.081380 0.082031 0.082682 0.083333 0.083984 0.084635 0.085286 0.085938 0.086589 0.087240 0.087891 0.088542 0.089193 0.089844 0.090495 0.091146 0.091797 0.092448 0.093099 0.093750 0.094401 0.095052 0.095703 0.096354 0.097005 0.097656 0.098307 0.098958 0.099609 0.100260 0.100911 0.101562 0.102214 0.102865 0.103516 0.104167 0.104818 0.105469 0.106120 0.106771 0.107422 0.108073 0.108724 0.109375 0.110026 0.110677 0.111328 0.111979 0.112630 0.113281 0.113932 0.114583 0.115234 0.115885 0.116536 0.117188 0.117839 0.118490 0.119141 0.119792 0.120443 0.121094 0.121745 0.122396 0.123047 0.123698 0.124349 0.125000 0.125651 0.126302 0.126953 0.127604 0.128255 0.128906 0.129557 0.130208 0.130859 0.131510 0.132161 0.132812 0.133464 0.134115 0.134766 0.135417 0.136068 0.136719 0.137370 0.138021 0.138672 0.139323 0.139974 0.140625 0.141276 0.141927 0.142578 0.143229 0.143880 0.144531 0.145182 0.145833 0.146484 0.147135 0.147786 0.148438 0.149089 0.149740 0.150391 0.151042 0.151693 0.152344 0.152995 0.153646 0.154297 0.154948 0.155599 0.156250 0.156901 0.157552 0.158203 0.158854 0.159505 0.160156 0.160807 0.161458 0.162109 0.162760 0.163411 0.164062 0.164714 0.165365 0.166016 0.166667 0.167318 0.167969 0.168620 0.169271 0.169922 0.170573 0.171224 0.171875 0.172526 0.173177 0.173828 0.174479 0.175130 0.175781 0.176432 0.177083 0.177734 0.178385 0.179036 0.179688 0.180339 0.180990 0.181641 0.182292 0.182943 0.183594 0.184245 0.184896 0.185547 0.186198 0.186849 0.187500 0.188151 0.188802 0.189453 0.190104 0.190755 0.191406 0.192057 0.192708 0.193359 0.194010 0.194661 0.195312 0.195964 0.196615 0.197266 0.197917 0.198568 0.199219 0.199870 0.200521 0.201172 0.201823 0.202474 0.203125 0.203776 0.204427 0.205078 0.205729 0.206380 0.207031 0.207682 0.208333 0.208984 0.209635 0.210286 0.210938 0.211589 0.212240 0.212891 0.213542 0.214193 0.214844 0.215495 0.216146 0.216797 0.217448 0.218099 0.218750 0.219401 0.220052 0.220703 0.221354 0.222005 0.222656 0.223307 0.223958 0.224609 0.225260 0.225911 0.226562 0.227214 0.227865 0.228516 0.229167 0.229818 0.230469 0.231120 0.231771 0.232422 0.233073 0.233724 0.234375 0.235026 0.235677
       0.34532        0.34532        0.34532        0.34532        0.34532        0.34532        0.34532        0.34532        0.34532        0.34532        0.34532        0.34532        0.34532        0.34532        0.34532        0.34532        0.34532        0.34532        0.34532        0.34532        0.34532        0.34532        0.34532        0.34532        0.34532        0.34532        0.34532        0.34532        0.34532        0.34532        0.34532        0.34532        0.34532        0.34532        0.34532        0.34532        0.34532        0.34532        0.34532        0.34532        0.34532        0.34532        0.34532        0.34532        0.34532        0.34532        0.34532        0.34532        0.34532        0.34532        0.34532        0.47638        0.69265        0.37535        0.19284       -0.03835       -0.23272       -0.04307       -0.12796       -0.09952        0.01035       -0.11607       -0.10509       -0.05233       -0.04435       -0.12966       -0.16044       -0.30646       -0.46485       -0.54958       -0.51512       -0.42783       -0.33457       -0.52348       -0.39723       -0.51432       -0.43046       -0.45035       -0.33291       -0.31276       -0.28704       -0.19159       -0.11722       -0.10198        0.04378        0.01708        0.18202        0.16933        0.32454        0.40628        0.50582        0.54390        0.56547        0.58297        0.71645        0.63178        0.64120        0.56616        0.54449        0.60974        0.50417        0.47543        0.39950        0.31395        0.28236        0.28959        0.25228        0.11820        0.11078        0.00187        0.05616        0.05667        0.02148        0.08343        0.12920        0.22396        0.30030        0.28590        0.36638        0.51918        0.53395        0.54945        0.65690        0.63596        0.61308        0.64249        0.62382        0.50824        0.51149        0.41595        0.35772        0.28396        0.21099        0.16832        0.16603        0.12282        0.17569        0.17775        0.23634        0.23376        0.33278        0.37527        0.40546        0.49677        0.55549        0.56718        0.53083        0.59995        0.51170        0.48463        0.50596        0.38140        0.30319        0.28322        0.27239        0.19633        0.21797        0.19709        0.22039        0.23489        0.31809        0.37568        0.42425        0.43177        0.45034        0.48507        0.43464        0.49736        0.43110        0.37885        0.35483        0.38555        0.33626        0.31885        0.24716        0.27806        0.25017        0.26666        0.28071        0.37275        0.38218        0.40135        0.43204        0.45081        0.43149        0.42821        0.46915        0.37521        0.34369        0.33978        0.30089        0.34593        0.28461        0.31231        0.32655        0.32584        0.35264        0.40515        0.38175        0.42378        0.37960        0.41318        0.37880        0.39656        0.31178        0.30172        0.26844        0.25191        0.29878        0.34680        0.36603        0.36368        0.37709        0.38107        0.35223        0.43475        0.39353        0.37562        0.35390        0.32046        0.28889        0.30932        0.31762        0.35777        0.32129        0.34250        0.34973        0.38849        0.37785        0.35432        0.35751        0.37147        0.35744        0.31853        0.33414        0.32182        0.34477        0.32246        0.35694        0.35563        0.32230        0.33476        0.36715        0.33369        0.30319        0.29981        0.30656        0.32307        0.30891        0.34562        0.31444        0.32411        0.32947        0.32248        0.31049        0.30010        0.31248        0.32085        0.30710        0.31709        0.31815        0.31599        0.34036        0.32572        0.38618        0.37984        0.32944        0.36190        0.31979        0.25379        0.27512        0.32549        0.32421        0.27279        0.33493        0.30482        0.32635        0.35806        0.36566        0.33265        0.32191        0.28181        0.33024        0.35819        0.38484        0.31970        0.31173        0.29951        0.25846        0.26196        0.31081        0.29878        0.32280        0.29956        0.28202        0.29016        0.34757        0.36541        0.33677        0.28218        0.31555        0.35682        0.35203        0.37457        0.33758        0.31719        0.31223        0.34258        0.30928        0.33530        0.33651        0.25534        0.26209        0.31952        0.31484        0.31302        0.29168        0.25455        0.22786        0.25539        0.29919        0.33978        0.29367        0.26436        0.27834        0.35085        0.33800        0.27323        0.26596        0.26580        0.27025        0.29941        0.33555        0.29797        0.33614        0.31748        0.27030        0.31975        0.25638        0.24176        0.20500        0.28070        0.24560        0.25247        0.22355        0.24092        0.33572        0.33263        0.24282        0.23609        0.19292        0.31680        0.36423        0.28244        0.13430        0.15237        0.20379        0.19580        0.17674        0.00438       -0.02124       -0.66334       -1.27181
2.780741 2.750819 2.721061 2.691470 2.662043 2.632782 2.603687 2.574756 2.545991 2.517392 2.488958 2.460689 2.432585 2.404647 2.376875 2.349267 2.321825 2.294549 2.267438 2.240492 2.213711 2.187096 2.160646 2.134362 2.108243 2.082289 2.056501 2.030878 2.005421 1.980129 1.955002 1.930040 1.905244 1.880614 1.856148 1.831849 1.807714 1.783745 1.759941 1.736302 1.712829 1.689522 1.666379 1.643402 1.620591 1.597944 1.575464 1.553148 1.530998 1.509013 1.487194 1.514769 1.874103 1.687597 1.173988 1.035883 0.516859 0.937698 0.610281 0.795580 0.885990 0.647495 0.634412 0.766265 0.729867 0.597689 0.577152 0.365931 0.055092 0.021218 -0.004463 -0.011498 0.326306 -0.079383 0.042812 -0.057026 -0.005518 -0.030503 0.083872 0.078003 0.122348 0.190461 0.292754 0.267991 0.450035 0.370964 0.625384 0.521923 0.765337 0.775690 0.915138 1.017192 0.963325 0.990913 1.140929 1.092599 1.031119 0.898744 0.889678 0.961883 0.810418 0.810188 0.643601 0.542154 0.505251 0.466533 0.456887 0.238771 0.238706 0.099160 0.060541 0.164534 0.019952 0.075954 0.172383 0.225808 0.338673 0.321194 0.426167 0.484327 0.645750 0.519558 0.773077 0.718941 0.635259 0.720919 0.690922 0.566009 0.443539 0.455803 0.295269 0.246187 0.095900 0.062173 0.004034 0.003468 -0.055624 0.022648 0.077350 0.068570 0.091272 0.242571 0.249096 0.322011 0.432827 0.431224 0.448595 0.430725 0.425036 0.317491 0.342113 0.307180 0.073840 0.079641 0.029676 -0.035585 -0.026187 -0.080648 -0.048428 -0.040743 0.006781 0.102996 0.195342 0.213792 0.192439 0.224568 0.331035 0.249297 0.276030 0.216005 0.133801 0.134335 0.148973 0.055603 0.035056 -0.025590 0.033186 -0.006803 0.028349 0.060345 0.144590 0.133511 0.163054 0.207937 0.251177 0.163030 0.231641 0.200403 0.136511 0.087245 0.041844 0.090204 0.031547 0.033942 0.030913 0.091538 0.036371 0.122746 0.172865 0.112167 0.172145 0.128351 0.144042 0.134516 0.116382 -0.001049 0.014180 -0.036605 -0.047105 0.041129 0.090666 0.118525 0.038913 0.166291 0.079755 0.089614 0.173024 0.082376 0.097760 0.075601 -0.029152 0.003160 0.020244 0.027703 0.069626 0.038123 0.031838 0.077144 0.114905 0.074226 0.071824 0.047899 0.081232 0.046240 0.030255 0.021711 0.015360 0.065320 0.021474 0.069338 0.051839 -0.017830 0.033489 0.064418 0.004593 -0.041746 -0.002529 -0.012407 -0.014388 -0.014071 0.029349 0.005710 0.000049 0.040311 -0.024777 -0.005546 0.007697 -0.001840 -0.010603 0.023013 0.004731 0.010872 -0.012554 0.051367 0.030944 0.105033 0.073831 0.070222 0.050979 0.005304 -0.078163 -0.000075 0.030940 0.035755 -0.043165 0.053326 0.008894 0.044852 0.052900 0.061431 0.040944 -0.023704 -0.011786 0.041082 0.063190 0.091709 -0.002377 -0.004186 -0.026427 -0.075159 -0.073624 -0.011918 0.027343 -0.014933 0.007048 -0.047869 -0.030307 0.052003 0.069940 0.032993 -0.005971 -0.011671 0.105809 0.058183 0.080789 0.022159 0.007291 0.012082 0.061508 0.000652 0.009097 0.053225 -0.088875 -0.046665 0.019277 0.044135 0.015773 -0.047986 -0.068528 -0.045412 -0.033221 -0.035539 0.098458 -0.009854 -0.012905 0.001401 0.098722 0.093939 -0.022224 0.029209 -0.000921 0.046864 0.054163 0.129748 0.043029 0.125060 0.083910 0.040814 0.140590 0.027735 -0.002491 -0.031401 0.100037 0.052548 0.076852 -0.022151 0.094484 0.185524 0.168595 0.104609 0.016637 0.044416 0.137201 0.255381 0.147378 0.115056 0.189923 0.321561 0.285202 0.181162 -0.092162 -0.021660 -1.591986
0.072396 0.072907 0.074438 0.076991 0.080563 0.085155 0.090765 0.097390 0.105030 0.113681 0.123339 0.134001 0.145660 0.158310 0.171943 0.186548 0.202116 0.218632 0.236081 0.254444 0.273701 0.293827 0.314796 0.336577 0.359135 0.382432 0.406423 0.431062 0.456295 0.482063 0.508302 0.534944 0.561911 0.589121 0.616485 0.643908 0.671287 0.698512 0.725466 0.752027 0.778063 0.803436 0.828002 0.851611 0.874105 0.895322 0.915094 0.933248 0.949609 0.963997 0.976231 0.986128 0.993506 0.998184 0.999985 0.998735 0.994267 0.986421 0.975049 0.960012 0.941185 0.918463 0.891754 0.860990 0.826125 0.787138 0.744035 0.696853 0.645660 0.590558 0.531686 0.469218 0.403370 0.334396 0.262593 0.188297 0.111889 0.033789 0.045540 0.125599 0.205849 0.285717 0.364599 0.441863 0.516852 0.588893 0.657301 0.721384 0.780452 0.833827 0.880844 0.920870 0.953303 0.977592 0.993238 0.999808 0.996946 0.984379 0.961931 0.929527 0.887204 0.835119 0.773549 0.702905 0.623726 0.536685 0.442588 0.342370 0.237090 0.127925 0.016159 0.096829 0.209579 0.320572 0.428241 0.531001 0.627269 0.715490 0.794165 0.861879 0.917329 0.959353 0.986956 0.999342 0.995936 0.976406 0.940683 0.888981 0.821803 0.739951 0.644527 0.536923 0.418818 0.292153 0.159108 0.022072 0.116399 0.253625 0.386848 0.513296 0.630234 0.735030 0.825221 0.898569 0.953133 0.987320 0.999946 0.990277 0.958076 0.903627 0.827753 0.731824 0.617747 0.487942 0.345303 0.193148 0.035148 0.124759 0.282451 0.433737 0.574463 0.700632 0.808525 0.894819 0.956696 0.991955 0.999096 0.977401 0.926986 0.848830 0.744789 0.617566 0.470666 0.308318 0.135362 0.042878 0.220751 0.392457 0.552236 0.694561 0.814344 0.907129 0.969271 0.998098 0.992048 0.950763 0.875156 0.767416 0.630984 0.470464 0.291494 0.100566 0.095195 0.288288 0.471122 0.636314 0.776998 0.887125 0.961743 0.997244 0.991560 0.944311 0.856876 0.732400 0.575715 0.393184 0.192472 0.017752 0.228183 0.429279 0.611694 0.766728 0.886758 0.965631 0.999017 0.984675 0.922634 0.815262 0.667231 0.485349 0.278294 0.056219 0.169719 0.387907 0.586880 0.755925 0.885679 0.968682 0.999838 0.976770 0.900033 0.773179 0.602641 0.397465 0.168859 0.070373 0.306542 0.525846 0.715182 0.862953 0.959805 0.999269 0.978233 0.897238 0.760547 0.575988 0.354563 0.109834 0.142867 0.387387 0.607776 0.789345 0.919675 0.989504 0.993447 0.930461 0.804043 0.622109 0.396573 0.142614 0.122292 0.379562 0.610799 0.799129 0.930450 0.994562 0.986004 0.904592 0.755574 0.549371 0.300934 0.028705 0.246705 0.504057 0.723132 0.886343 0.980200 0.996493 0.933081 0.794225 0.590398 0.337586 0.056095 0.231019 0.499828 0.727519 0.894369 0.985512 0.992329 0.913361 0.754601 0.529154 0.256247 0.040340 0.334302 0.599120 0.810476 0.948526 0.999844 0.958816 0.828345 0.619785 0.352053 0.050013 0.257776 0.541731 0.774102 0.931720 0.998386 0.966636 0.838683 0.626410 0.350398 0.038022 0.279200 0.568744 0.800431 0.949639 0.999980 0.945236 0.790230 0.550551 0.251125 0.076291 0.396403 0.674176 0.878697 0.986685 0.985252 0.873569 0.663223 0.377151 0.047281 0.288968 0.592869 0.828885 0.968870 0.995550 0.904780 0.706308 0.422915 0.087909 0.258661 0.574769 0.821496 0.967907 0.995032 0.898480 0.689278 0.392791 0.045796 0.307975 0.623304 0.859293 0.984733 0.982379 0.851477 0.608187 0.283785 0.079251 0.432643 0.728776 0.927127
1.000000 1.000000 1.000000 1.000000 1.000000 1.000000 1.000000 1.000000 1.000000 1.000000 1.000000 1.000000 1.000000 1.000000 1.000000 1.000000 1.000000 1.000000 1.000000 1.000000 1.000000 1.000000 1.000000 1.000000 1.000000 1.000000 1.000000 1.000000 1.000000 1.000000 1.000000 1.000000 1.000000 1.000000 1.000000 1.000000 1.000000 1.000000 1.000000 1.000000 1.000000 1.000000 1.000000 1.000000 1.000000 1.000000 1.000000 1.000000 1.000000 1.000000 1.000000 1.000000 0.900169 0.900169 0.900169 0.885769 0.885769 0.885769 0.885769 0.885769 0.885769 0.885769 0.885769 0.885769 0.885769 0.885769 0.885769 0.885769 0.885769 0.885769 0.885769 0.885769 0.885769 0.885769 0.885769 0.885769 0.885769 0.885769 0.885769 0.885769 0.885769 0.885769 0.885769 0.885769 0.885769 0.885769 0.885769 0.885769 0.885769 0.885769 0.885769 0.885769 0.885769 0.885769 0.885769 0.885769 0.889247 0.891291 0.892966 0.896791 0.897772 0.895563 0.894619 0.894284 0.894728 0.895838 0.906376 0.921438 0.937484 0.943851 0.949186 0.957883 0.960525 0.960611 0.966982 0.972703 0.970700 0.970012 0.968129 0.968122 0.970214 0.970247 0.971171 0.970848 0.971786 0.971723 0.971078 0.970162 0.969239 0.968511 0.967717 0.968123 0.968029 0.968349 0.968465 0.968567 0.968627 0.962333 0.962362 0.959236 0.959945 0.961940 0.963444 0.954486 0.949442 0.951338 0.950136 0.952633 0.950768 0.950620 0.949678 0.949067 0.949264 0.947415 0.947571 0.935906 0.935117 0.934338 0.931901 0.929632 0.927680 0.926567 0.929690 0.927149 0.914458 0.905639 0.869435 0.855138 0.851376 0.850359 0.852566 0.852770 0.853907 0.852580 0.847723 0.847152 0.845520 0.848884 0.849268 0.846361 0.843977 0.843529 0.830623 0.835224 0.826027 0.826692 0.809130 0.800083 0.803997 0.803719 0.804988 0.803737 0.808419 0.807822 0.804223 0.800291 0.795231 0.784318 0.765890 0.763724 0.771484 0.778068 0.774762 0.761541 0.744449 0.765156 0.767976 0.776891 0.783346 0.783362 0.762047 0.756457 0.737504 0.699364 0.703622 0.703265 0.702479 0.694011 0.690163 0.679061 0.680998 0.668767 0.654069 0.653274 0.646580 0.679914 0.627899 0.603022 0.594914 0.581727 0.578756 0.538411 0.532060 0.535941 0.525952 0.522409 0.507842 0.505549 0.515879 0.526027 0.526603 0.532107 0.521246 0.534023 0.509316 0.490293 0.485149 0.478572 0.470520 0.424653 0.422192 0.425212 0.429878 0.430120 0.468304 0.460084 0.444470 0.419619 0.394285 0.393415 0.390321 0.358028 0.337703 0.318400 0.249227 0.215003 0.226384 0.208707 0.216103 0.234530 0.247536 0.240482 0.233688 0.211987 0.205393 0.153454 0.118235 0.096775 0.077521 0.061622 0.093797 0.104226 0.079873 0.112111 0.149707 0.171191 0.159047 0.144624 0.100953 0.069503 0.075572 0.073149 0.034621 0.050161 0.046397 0.033694 0.020214 0.031955 -0.009136 -0.012400 -0.048630 -0.046095 -0.042502 -0.038339 -0.047408 -0.061645 -0.070707 -0.065770 -0.056715 -0.081127 -0.121959 -0.090909 -0.084821 -0.080167 -0.019466 -0.039435 -0.035384 -0.009616 -0.041281 -0.037146 0.023695 0.049813 0.050462 0.091398 0.082662 0.070937 0.058366 0.063061 0.023030 0.038886 0.078497 0.093716 0.111807 0.038499 0.022444 0.022444 0.022444 0.000245 0.000245 0.000245 0.000245 0.000245 0.000245 0.000245 0.000245 0.000245 -0.009360 -0.009360 -0.009360 -0.009360 -0.009360 -0.009360 -0.009360 -0.009360 -0.009360 -0.009360 -0.009360 -0.009360 -0.009360 -0.009360 -0.009360 -0.009360 -0.009360
0.000000 0.000000 0.000000 0.000000 0.000000 0.000000 0.000000 0.000000 0.000000 0.000000 0.000000 0.000000 0.000000 0.000000 0.000000 0.000000 0.000000 0.000000 0.000000 0.000000 0.000000 0.000000 0.000000 0.000000 0.000000 0.000000 0.000000 0.000000 0.000000 0.000000 0.000000 0.000000 0.000000 0.000000 0.000000 0.000000 0.000000 0.000000 0.000000 0.000000 0.000000 0.000000 0.000000 0.000000 0.000000 0.000000 0.000000 0.000000 0.000000 0.000000 0.000000 0.000000 0.180334 0.180334 0.180334 0.199007 0.199007 0.199007 0.199007 0.199007 0.199007 0.199007 0.199007 0.199007 0.199007 0.199007 0.199007 0.199007 0.199007 0.199007 0.199007 0.199007 0.199007 0.199007 0.199007 0.199007 0.199007 0.199007 0.199007 0.199007 0.199007 0.199007 0.199007 0.199007 0.199007 0.199007 0.199007 0.199007 0.199007 0.199007 0.199007 0.199007 0.199007 0.199007 0.199007 0.199007 0.230940 0.230940 0.230940 0.230940 0.230940 0.230940 0.230940 0.230940 0.230940 0.230940 0.230940 0.230940 0.230940 0.230940 0.230940 0.230940 0.230940 0.230940 0.230940 0.230940 0.230940 0.230940 0.230940 0.230940 0.230940 0.230940 0.230940 0.230940 0.244339 0.244339 0.244339 0.244339 0.244339 0.244339 0.244339 0.244339 0.244339 0.244339 0.244339 0.244339 0.244339 0.244339 0.244339 0.244339 0.244339 0.244339 0.244339 0.244339 0.244339 0.244339 0.244339 0.256074 0.256074 0.256074 0.256074 0.256074 0.256074 0.256074 0.256074 0.256074 0.256074 0.256074 0.256074 0.256074 0.256074 0.256074 0.256074 0.256074 0.256074 0.256074 0.256074 0.256074 0.256074 0.256074 0.256074 0.256074 0.256074 0.256074 0.256074 0.256074 0.256074 0.256074 0.256074 0.256074 0.256074 0.256074 0.256074 0.256074 0.264906 0.264906 0.264906 0.264906 0.264906 0.264906 0.264906 0.264906 0.264906 0.264906 0.264906 0.264906 0.264906 0.264906 0.264906 0.264906 0.264906 0.264906 0.264906 0.264906 0.264906 0.264906 0.264906 0.264906 0.264906 0.264906 0.264906 0.264906 0.264906 0.264906 0.264906 0.264906 0.264906 0.264906 0.264906 0.264906 0.264906 0.264906 0.264906 0.264906 0.264906 0.264906 0.264906 0.264906 0.264906 0.264906 0.264906 0.264906 0.264906 0.264906 0.264906 0.264906 0.264906 0.264906 0.264906 0.264906 0.264906 0.264906 0.269680 0.269680 0.269680 0.269680 0.269680 0.269680 0.269680 0.269680 0.269680 0.269680 0.269680 0.269680 0.264906 0.264906 0.264906 0.264906 0.264906 0.264906 0.264906 0.264906 0.264906 0.264906 0.264906 0.264906 0.269680 0.269680 0.269680 0.269680 0.269680 0.269680 0.269680 0.269680 0.269680 0.269680 0.269680 0.264906 0.264906 0.264906 0.264906 0.264906 0.264906 0.264906 0.264906 0.264906 0.264906 0.264906 0.256074 0.256074 0.256074 0.256074 0.256074 0.256074 0.256074 0.256074 0.256074 0.256074 0.256074 0.264906 0.264906 0.264906 0.264906 0.264906 0.264906 0.264906 0.264906 0.264906 0.264906 0.269680 0.269680 0.269680 0.269680 0.269680 0.269680 0.269680 0.269680 0.269680 0.256074 0.256074 0.256074 0.256074 0.256074 0.256074 0.256074 0.256074 0.256074 0.256074 0.260378 0.260378 0.260378 0.260378 0.260378 0.260378 0.260378 0.260378 0.260378 0.256074 0.256074 0.256074 0.256074 0.256074 0.256074 0.256074 0.256074 0.256074 0.251976 0.251976 0.251976 0.251976 0.251976 0.251976 0.251976 0.251976 0.251976 0.251976 0.251976 0.251976 0.251976 0.251976 0.251976 0.251976 0.251976
