# Output from CTFFind version 4.1.9, run on 2019-11-03 20:02:46
# Input file: stack11_bm3d_averaged_1_6.0_0_50_half.mrc ; Number of micrographs: 1
# Pixel size: 3.000 Angstroms ; acceleration voltage: 300.0 keV ; spherical aberration: 0.00 mm ; amplitude contrast: 0.07
# Box size: 512 pixels ; min. res.: 30.0 Angstroms ; max. res.: 5.0 Angstroms ; min. def.: 5000.0 um; max. def. 50000.0 um; num. frames averaged: 1
# 6 lines per micrograph: #1 - spatial frequency (1/Angstroms); #2 - 1D rotational average of spectrum (assuming no astigmatism); #3 - 1D rotational average of spectrum; #4 - CTF fit; #5 - cross-correlation between spectrum and CTF fit; #6 - 2sigma of expected cross correlation of noise
0.000000 0.000651 0.001302 0.001953 0.002604 0.003255 0.003906 0.004557 0.005208 0.005859 0.006510 0.007161 0.007812 0.008464 0.009115 0.009766 0.010417 0.011068 0.011719 0.012370 0.013021 0.013672 0.014323 0.014974 0.015625 0.016276 0.016927 0.017578 0.018229 0.018880 0.019531 0.020182 0.020833 0.021484 0.022135 0.022786 0.023438 0.024089 0.024740 0.025391 0.026042 0.026693 0.027344 0.027995 0.028646 0.029297 0.029948 0.030599 0.031250 0.031901 0.032552 0.033203 0.033854 0.034505 0.035156 0.035807 0.036458 0.037109 0.037760 0.038411 0.039062 0.039714 0.040365 0.041016 0.041667 0.042318 0.042969 0.043620 0.044271 0.044922 0.045573 0.046224 0.046875 0.047526 0.048177 0.048828 0.049479 0.050130 0.050781 0.051432 0.052083 0.052734 0.053385 0.054036 0.054688 0.055339 0.055990 0.056641 0.057292 0.057943 0.058594 0.059245 0.059896 0.060547 0.061198 0.061849 0.062500 0.063151 0.063802 0.064453 0.065104 0.065755 0.066406 0.067057 0.067708 0.068359 0.069010 0.069661 0.070312 0.070964 0.071615 0.072266 0.072917 0.073568 0.074219 0.074870 0.075521 0.076172 0.076823 0.077474 0.078125 0.078776 0.079427 0.080078 0.080729 0.081380 0.082031 0.082682 0.083333 0.083984 0.084635 0.085286 0.085938 0.086589 0.087240 0.087891 0.088542 0.089193 0.089844 0.090495 0.091146 0.091797 0.092448 0.093099 0.093750 0.094401 0.095052 0.095703 0.096354 0.097005 0.097656 0.098307 0.098958 0.099609 0.100260 0.100911 0.101562 0.102214 0.102865 0.103516 0.104167 0.104818 0.105469 0.106120 0.106771 0.107422 0.108073 0.108724 0.109375 0.110026 0.110677 0.111328 0.111979 0.112630 0.113281 0.113932 0.114583 0.115234 0.115885 0.116536 0.117188 0.117839 0.118490 0.119141 0.119792 0.120443 0.121094 0.121745 0.122396 0.123047 0.123698 0.124349 0.125000 0.125651 0.126302 0.126953 0.127604 0.128255 0.128906 0.129557 0.130208 0.130859 0.131510 0.132161 0.132812 0.133464 0.134115 0.134766 0.135417 0.136068 0.136719 0.137370 0.138021 0.138672 0.139323 0.139974 0.140625 0.141276 0.141927 0.142578 0.143229 0.143880 0.144531 0.145182 0.145833 0.146484 0.147135 0.147786 0.148438 0.149089 0.149740 0.150391 0.151042 0.151693 0.152344 0.152995 0.153646 0.154297 0.154948 0.155599 0.156250 0.156901 0.157552 0.158203 0.158854 0.159505 0.160156 0.160807 0.161458 0.162109 0.162760 0.163411 0.164062 0.164714 0.165365 0.166016 0.166667 0.167318 0.167969 0.168620 0.169271 0.169922 0.170573 0.171224 0.171875 0.172526 0.173177 0.173828 0.174479 0.175130 0.175781 0.176432 0.177083 0.177734 0.178385 0.179036 0.179688 0.180339 0.180990 0.181641 0.182292 0.182943 0.183594 0.184245 0.184896 0.185547 0.186198 0.186849 0.187500 0.188151 0.188802 0.189453 0.190104 0.190755 0.191406 0.192057 0.192708 0.193359 0.194010 0.194661 0.195312 0.195964 0.196615 0.197266 0.197917 0.198568 0.199219 0.199870 0.200521 0.201172 0.201823 0.202474 0.203125 0.203776 0.204427 0.205078 0.205729 0.206380 0.207031 0.207682 0.208333 0.208984 0.209635 0.210286 0.210938 0.211589 0.212240 0.212891 0.213542 0.214193 0.214844 0.215495 0.216146 0.216797 0.217448 0.218099 0.218750 0.219401 0.220052 0.220703 0.221354 0.222005 0.222656 0.223307 0.223958 0.224609 0.225260 0.225911 0.226562 0.227214 0.227865 0.228516 0.229167 0.229818 0.230469 0.231120 0.231771 0.232422 0.233073 0.233724 0.234375 0.235026 0.235677
       0.34426        0.34426        0.34426        0.34426        0.34426        0.34426        0.34426        0.34426        0.34426        0.34426        0.34426        0.34426        0.34426        0.34426        0.34426        0.34426        0.34426        0.34426        0.34426        0.34426        0.34426        0.34426        0.34426        0.34426        0.34426        0.34426        0.34426        0.34426        0.34426        0.34426        0.34426        0.34426        0.34426        0.34426        0.34426        0.34426        0.34426        0.34426        0.34426        0.34426        0.34426        0.34426        0.34426        0.34426        0.34426        0.34426        0.34426        0.34426        0.34426        0.34426        0.34426        0.69859        0.85852        0.53788        0.10542       -0.02955       -0.38731       -0.18020       -0.28833       -0.11452       -0.05471       -0.11161       -0.05327       -0.16734       -0.20592       -0.21503       -0.30727       -0.31857       -0.44489       -0.36251       -0.42657       -0.42100       -0.39499       -0.40994       -0.45036       -0.50986       -0.55963       -0.55294       -0.52639       -0.35786       -0.32826       -0.29235       -0.27190       -0.18549       -0.17116        0.06006        0.14091        0.17328        0.26479        0.38148        0.45822        0.52351        0.60040        0.59761        0.58379        0.70006        0.80423        0.70466        0.74405        0.62121        0.56904        0.48423        0.43267        0.51268        0.39742        0.26979        0.11603        0.11045        0.09108       -0.01526        0.04229        0.05105        0.00898        0.02748        0.02936        0.23701        0.27104        0.29667        0.43601        0.45437        0.41517        0.59849        0.62044        0.63874        0.72578        0.67740        0.64808        0.65932        0.56098        0.46222        0.41920        0.30463        0.26842        0.18337        0.13558        0.05267        0.06358        0.07274        0.09859        0.15780        0.24409        0.29655        0.42149        0.46538        0.48184        0.56798        0.60485        0.63804        0.61620        0.55982        0.46144        0.47354        0.37948        0.27598        0.21190        0.15727        0.17138        0.15268        0.15868        0.18735        0.32133        0.33508        0.40483        0.44581        0.42737        0.48269        0.56341        0.55531        0.50270        0.45752        0.41323        0.37055        0.34067        0.30781        0.26248        0.24706        0.25300        0.25563        0.22568        0.30947        0.36509        0.38496        0.44009        0.45602        0.46856        0.42725        0.41082        0.40269        0.36388        0.33466        0.27464        0.27908        0.26857        0.24362        0.29455        0.29106        0.35080        0.38240        0.43289        0.47720        0.40937        0.42411        0.43334        0.41232        0.34982        0.32765        0.29370        0.32533        0.27502        0.32246        0.31435        0.33158        0.34026        0.36415        0.31600        0.39089        0.41400        0.38136        0.35096        0.37025        0.31776        0.29531        0.30671        0.32029        0.30861        0.32034        0.34427        0.35572        0.34089        0.36525        0.36392        0.42040        0.38913        0.33964        0.34775        0.29965        0.29360        0.32721        0.32060        0.33026        0.34302        0.34194        0.38695        0.33121        0.33128        0.33817        0.34749        0.30453        0.31313        0.28239        0.30383        0.33079        0.30589        0.33118        0.35752        0.36804        0.29764        0.34041        0.29880        0.29696        0.27934        0.24755        0.30607        0.30632        0.34311        0.33904        0.34327        0.32756        0.34948        0.31549        0.34635        0.30923        0.32423        0.29028        0.33597        0.32728        0.36944        0.32925        0.33547        0.33849        0.29287        0.27634        0.31142        0.25097        0.22976        0.34115        0.32360        0.36713        0.34811        0.36277        0.33353        0.33504        0.34971        0.26586        0.26485        0.31807        0.30010        0.31239        0.31793        0.34088        0.33211        0.29191        0.29089        0.34439        0.32195        0.31857        0.29596        0.32260        0.34028        0.39512        0.36120        0.32009        0.28394        0.30466        0.29003        0.30383        0.27582        0.26712        0.31246        0.32907        0.34473        0.35491        0.33133        0.29231        0.30155        0.27055        0.27771        0.25640        0.30961        0.26452        0.24467        0.29618        0.29096        0.26310        0.29619        0.21737        0.21550        0.24465        0.19386        0.27272        0.34823        0.25418        0.23980        0.31749        0.30422        0.31481        0.31515        0.26905        0.25178        0.18921        0.21043        0.20104        0.27159        0.23482        0.27902        0.35971        0.35753        0.25067        0.17408        0.10311       -0.01322       -0.12333       -0.63946
2.796024 2.766364 2.736866 2.707530 2.678355 2.649342 2.620491 2.591800 2.563272 2.534905 2.506699 2.478655 2.450772 2.423051 2.395492 2.368094 2.340858 2.313783 2.286870 2.260118 2.233528 2.207099 2.180832 2.154726 2.128782 2.102999 2.077378 2.051919 2.026621 2.001484 1.976509 1.951696 1.927044 1.902554 1.878225 1.854057 1.830052 1.806207 1.782525 1.759003 1.735644 1.712446 1.689409 1.666534 1.643821 1.621269 1.598878 1.576649 1.554582 1.532676 1.510932 1.728514 2.153846 1.710367 1.191310 1.054521 0.454545 0.851966 0.563617 0.849246 0.817002 0.821905 0.759940 0.756620 0.598707 0.561792 0.503105 0.430442 0.249513 0.367046 0.201662 0.332017 0.220719 0.209653 0.183633 0.040673 0.005085 0.018148 -0.069637 0.133849 0.232954 0.189835 0.179649 0.327878 0.185066 0.521938 0.626347 0.634234 0.650284 0.879850 0.838178 0.947067 0.941125 1.038212 1.005996 1.090550 1.173826 1.048892 1.168345 0.913644 0.932721 0.798880 0.656729 0.810270 0.698517 0.496133 0.334485 0.251649 0.268657 0.149199 0.135892 0.165738 0.108365 0.122270 0.081703 0.250844 0.352958 0.342329 0.479616 0.547581 0.419632 0.594828 0.732614 0.653345 0.724017 0.712845 0.721654 0.650409 0.598461 0.494928 0.370019 0.278083 0.221878 0.090754 0.116308 -0.112898 -0.049299 -0.063937 -0.082721 -0.020742 0.130294 0.069564 0.243352 0.308031 0.337019 0.378506 0.499556 0.469710 0.481229 0.493450 0.306171 0.294041 0.287900 0.087091 0.046470 -0.079039 -0.014622 -0.062914 -0.095862 -0.074239 0.039189 0.094173 0.124024 0.222859 0.226143 0.223559 0.317753 0.359623 0.434352 0.257334 0.233912 0.224172 0.144084 0.144851 0.117910 -0.003728 0.016535 0.075101 -0.010549 0.047527 0.134692 0.136054 0.215922 0.234894 0.256876 0.167662 0.211413 0.127256 0.132873 0.112092 0.029102 -0.026776 0.000227 -0.020326 -0.054275 0.054448 0.004610 0.106891 0.139066 0.191874 0.170817 0.117028 0.141685 0.162248 0.112285 0.037244 -0.024028 0.031959 0.025971 -0.040638 0.035405 0.022044 0.047594 0.039147 0.051891 0.034769 0.136136 0.123725 0.047100 0.039469 0.044454 0.006282 -0.030474 0.010336 0.006936 -0.001972 0.006100 0.054908 0.053860 0.040096 0.078501 0.059957 0.160283 0.063682 0.040117 0.042550 -0.034345 0.012321 0.047587 0.007402 0.034174 0.055612 0.079880 0.049048 0.042379 0.010085 0.077987 0.024649 0.020706 0.024105 -0.006402 0.034180 0.026150 0.021761 0.067875 0.072800 0.075097 0.039127 0.049817 0.025933 0.017513 -0.022917 -0.024158 0.035239 0.052354 0.081487 0.080476 0.061582 0.073215 0.100891 0.045154 0.092688 0.061608 0.042002 0.019046 0.102256 0.060002 0.121098 0.073196 0.056775 0.104222 0.035096 0.004248 0.085396 -0.036637 -0.024644 0.098060 0.046269 0.160198 0.095047 0.090273 0.065874 0.039310 0.091918 -0.024539 -0.026340 0.051758 0.036811 0.037940 0.026167 0.107233 0.038651 -0.009369 0.052875 0.044859 0.052173 0.059119 -0.010161 0.062498 0.056354 0.118291 0.056779 0.028766 -0.024982 -0.020125 -0.004098 0.004123 -0.053500 -0.026524 0.002656 0.015225 0.034018 0.052858 0.005455 -0.036783 -0.031168 -0.019828 -0.067361 -0.049519 -0.024129 -0.134399 -0.103126 -0.047949 -0.085072 -0.103558 -0.021883 -0.152674 -0.105918 -0.105829 -0.180422 -0.067279 0.060963 -0.064379 -0.142873 0.051495 0.039709 -0.018487 0.079510 -0.026118 0.001310 -0.096211 -0.033886 0.041542 0.117976 0.055297 0.133374 0.171425 0.419039 0.233870 0.316662 0.123472 -0.018929 -0.711403
0.072396 0.072899 0.074408 0.076922 0.080442 0.084965 0.090491 0.097018 0.104545 0.113067 0.122582 0.133086 0.144573 0.157037 0.170469 0.184862 0.200203 0.216480 0.233678 0.251779 0.270764 0.290610 0.311290 0.332774 0.355031 0.378022 0.401706 0.426037 0.450964 0.476431 0.502377 0.528735 0.555431 0.582387 0.609517 0.636730 0.663926 0.691000 0.717840 0.744328 0.770337 0.795734 0.820381 0.844132 0.866835 0.888334 0.908465 0.927062 0.943953 0.958965 0.971920 0.982640 0.990947 0.996664 0.999615 0.999629 0.996540 0.990189 0.980425 0.967107 0.950110 0.929319 0.904640 0.875994 0.843327 0.806606 0.765824 0.721002 0.672192 0.619475 0.562968 0.502825 0.439235 0.372425 0.302663 0.230257 0.155556 0.078947 0.000860 0.078238 0.157842 0.237411 0.316373 0.394126 0.470041 0.543472 0.613753 0.680213 0.742174 0.798965 0.849927 0.894418 0.931828 0.961584 0.983161 0.996090 0.999969 0.994471 0.979356 0.954477 0.919789 0.875357 0.821363 0.758111 0.686030 0.605676 0.517737 0.423028 0.322487 0.217174 0.108261 0.002981 0.115188 0.226922 0.336687 0.442949 0.544156 0.638763 0.725254 0.802174 0.868148 0.921917 0.962358 0.988517 0.999632 0.995157 0.974786 0.938468 0.886426 0.819166 0.737484 0.642465 0.535479 0.418170 0.292440 0.160419 0.024443 0.112992 0.249265 0.381684 0.507535 0.624144 0.728930 0.819472 0.893566 0.949292 0.985062 0.999680 0.992387 0.962897 0.911430 0.838730 0.746069 0.635242 0.508546 0.368748 0.219028 0.062925 0.095746 0.252983 0.404690 0.546790 0.675337 0.786625 0.877314 0.944529 0.985970 1.000000 0.985724 0.943044 0.872698 0.776271 0.656182 0.515644 0.358592 0.189598 0.013737 0.163549 0.336615 0.499795 0.647587 0.774846 0.876979 0.950118 0.991288 0.998543 0.971076 0.909295 0.814848 0.690615 0.540643 0.370044 0.184835 0.008259 0.202030 0.389060 0.561998 0.713861 0.838324 0.930001 0.984699 0.999633 0.973595 0.907054 0.802202 0.662918 0.494651 0.304248 0.099692 0.110218 0.316229 0.509041 0.679732 0.820184 0.923488 0.984311 0.999200 0.966809 0.888036 0.766046 0.606198 0.415840 0.204011 0.018966 0.241973 0.453633 0.642905 0.799668 0.915282 0.983098 0.998878 0.961095 0.871102 0.733144 0.554212 0.343735 0.113115 0.124858 0.356703 0.569006 0.749207 0.886369 0.971866 0.999977 0.968309 0.878042 0.733961 0.544258 0.320131 0.075152 0.175519 0.416049 0.630942 0.806050 0.929531 0.992693 0.990665 0.922818 0.792934 0.609062 0.383087 0.130018 0.132977 0.387703 0.616206 0.802039 0.931492 0.994649 0.986203 0.905971 0.759041 0.555533 0.309967 0.040295 0.233385 0.490295 0.710569 0.876814 0.975524 0.998248 0.942382 0.811527 0.615349 0.368960 0.091811 0.193783 0.464424 0.697540 0.873303 0.976362 0.997253 0.933356 0.789280 0.576637 0.313213 0.021526 0.273012 0.544324 0.767963 0.923355 0.995773 0.977798 0.870184 0.681976 0.429862 0.136781 0.170098 0.461847 0.710515 0.891839 0.987665 0.987864 0.891503 0.707145 0.452213 0.151445 0.165432 0.466588 0.721294 0.903094 0.992614 0.979737 0.864857 0.659071 0.383228 0.065936 0.259330 0.557729 0.796798 0.950024 0.999890 0.939983 0.775949 0.525110 0.214778 0.120632 0.443339 0.716470 0.908275 0.995932 0.968365 0.827788 0.589715 0.281394 0.061181 0.397414 0.686875 0.894214 0.993552 0.971838 0.830714 0.586607 0.268971 0.083120 0.425734 0.715494 0.915159 0.998471 0.953764 0.785762 0.515272 0.176774 0.185830
1.000000 1.000000 1.000000 1.000000 1.000000 1.000000 1.000000 1.000000 1.000000 1.000000 1.000000 1.000000 1.000000 1.000000 1.000000 1.000000 1.000000 1.000000 1.000000 1.000000 1.000000 1.000000 1.000000 1.000000 1.000000 1.000000 1.000000 1.000000 1.000000 1.000000 1.000000 1.000000 1.000000 1.000000 1.000000 1.000000 1.000000 1.000000 1.000000 1.000000 1.000000 1.000000 1.000000 1.000000 1.000000 1.000000 1.000000 1.000000 1.000000 1.000000 1.000000 1.000000 0.917069 0.917069 0.917069 0.913184 0.913184 0.913184 0.913184 0.913184 0.913184 0.913184 0.913184 0.913184 0.913184 0.913184 0.913184 0.913184 0.913184 0.913184 0.913184 0.913184 0.913184 0.913184 0.913184 0.913184 0.913184 0.913184 0.913184 0.913184 0.913184 0.913184 0.913184 0.913184 0.913184 0.913184 0.913184 0.913184 0.913184 0.913184 0.913184 0.913184 0.913184 0.913184 0.913184 0.913184 0.942242 0.943615 0.951897 0.951435 0.950860 0.948891 0.947674 0.947348 0.947262 0.947598 0.948301 0.949255 0.955451 0.956346 0.960743 0.963433 0.963617 0.965373 0.966109 0.965771 0.957404 0.957187 0.955789 0.955056 0.957168 0.955805 0.954569 0.955037 0.954644 0.957234 0.956772 0.955554 0.953911 0.952316 0.951021 0.950469 0.950235 0.951031 0.951100 0.952661 0.955681 0.955826 0.955548 0.952752 0.952389 0.953590 0.952936 0.952718 0.940949 0.940344 0.938908 0.938899 0.941439 0.941379 0.941270 0.942154 0.941846 0.941765 0.941911 0.936518 0.936294 0.928746 0.925902 0.924373 0.919397 0.915405 0.917873 0.920217 0.921457 0.921856 0.913121 0.910260 0.911279 0.910139 0.911544 0.909917 0.910593 0.911276 0.911086 0.905181 0.894720 0.893267 0.887478 0.890203 0.887785 0.884986 0.881425 0.871379 0.860529 0.875051 0.859658 0.828663 0.832357 0.837278 0.829980 0.826942 0.828094 0.829634 0.834348 0.827242 0.825548 0.820235 0.808280 0.803546 0.796658 0.783193 0.782724 0.773621 0.763414 0.757851 0.781858 0.775606 0.786747 0.790769 0.790203 0.786996 0.778926 0.768938 0.768002 0.763647 0.760146 0.738133 0.730093 0.730277 0.727801 0.716163 0.719905 0.707689 0.707924 0.696067 0.700670 0.705852 0.708957 0.705347 0.700239 0.691980 0.686995 0.699303 0.713389 0.706932 0.701838 0.702205 0.692259 0.681662 0.676422 0.680961 0.675556 0.662692 0.670372 0.696658 0.668604 0.657539 0.664797 0.667533 0.659171 0.660437 0.639962 0.633885 0.613276 0.630510 0.635421 0.651914 0.652362 0.653041 0.664333 0.669988 0.680722 0.685005 0.684593 0.645637 0.649310 0.669693 0.677029 0.664202 0.653963 0.655021 0.651550 0.686606 0.672283 0.629156 0.625057 0.624242 0.586749 0.567104 0.565950 0.568594 0.594439 0.590050 0.571501 0.545661 0.547974 0.550507 0.551804 0.551081 0.533199 0.542192 0.528008 0.504837 0.516607 0.523919 0.522103 0.506825 0.502047 0.514686 0.488272 0.522505 0.493930 0.471722 0.488770 0.486240 0.474874 0.401908 0.415078 0.402998 0.392645 0.347577 0.357243 0.366104 0.351492 0.277780 0.270550 0.271365 0.268708 0.251085 0.233678 0.220414 0.209196 0.188127 0.125954 0.081429 0.080663 0.083250 0.108331 0.068402 0.119888 0.184228 0.184393 0.184393 0.184393 0.184393 0.184393 0.184393 0.184393 0.184393 0.159505 0.159505 0.159505 0.159505 0.159505 0.159505 0.159505 0.159505 0.159505 0.184393 0.184393 0.184393 0.184393 0.184393 0.184393 0.184393 0.184393 0.184393 0.184393 0.184393 0.184393 0.184393 0.184393
0.000000 0.000000 0.000000 0.000000 0.000000 0.000000 0.000000 0.000000 0.000000 0.000000 0.000000 0.000000 0.000000 0.000000 0.000000 0.000000 0.000000 0.000000 0.000000 0.000000 0.000000 0.000000 0.000000 0.000000 0.000000 0.000000 0.000000 0.000000 0.000000 0.000000 0.000000 0.000000 0.000000 0.000000 0.000000 0.000000 0.000000 0.000000 0.000000 0.000000 0.000000 0.000000 0.000000 0.000000 0.000000 0.000000 0.000000 0.000000 0.000000 0.000000 0.000000 0.000000 0.180334 0.180334 0.180334 0.199007 0.199007 0.199007 0.199007 0.199007 0.199007 0.199007 0.199007 0.199007 0.199007 0.199007 0.199007 0.199007 0.199007 0.199007 0.199007 0.199007 0.199007 0.199007 0.199007 0.199007 0.199007 0.199007 0.199007 0.199007 0.199007 0.199007 0.199007 0.199007 0.199007 0.199007 0.199007 0.199007 0.199007 0.199007 0.199007 0.199007 0.199007 0.199007 0.199007 0.199007 0.225018 0.225018 0.225018 0.225018 0.225018 0.225018 0.225018 0.225018 0.225018 0.225018 0.225018 0.225018 0.225018 0.225018 0.225018 0.225018 0.225018 0.225018 0.225018 0.225018 0.225018 0.225018 0.225018 0.225018 0.225018 0.225018 0.225018 0.225018 0.225018 0.244339 0.244339 0.244339 0.244339 0.244339 0.244339 0.244339 0.244339 0.244339 0.244339 0.244339 0.244339 0.244339 0.244339 0.244339 0.244339 0.244339 0.244339 0.244339 0.244339 0.244339 0.244339 0.244339 0.256074 0.256074 0.256074 0.256074 0.256074 0.256074 0.256074 0.256074 0.256074 0.256074 0.256074 0.256074 0.256074 0.256074 0.256074 0.256074 0.256074 0.256074 0.256074 0.256074 0.256074 0.256074 0.256074 0.256074 0.256074 0.256074 0.256074 0.256074 0.256074 0.256074 0.256074 0.256074 0.256074 0.256074 0.256074 0.256074 0.256074 0.264906 0.264906 0.264906 0.264906 0.264906 0.264906 0.264906 0.264906 0.264906 0.264906 0.264906 0.264906 0.264906 0.264906 0.264906 0.264906 0.264906 0.264906 0.264906 0.264906 0.264906 0.264906 0.264906 0.264906 0.264906 0.264906 0.264906 0.264906 0.264906 0.264906 0.264906 0.264906 0.264906 0.264906 0.264906 0.264906 0.264906 0.264906 0.264906 0.264906 0.264906 0.264906 0.264906 0.264906 0.264906 0.264906 0.264906 0.264906 0.264906 0.264906 0.264906 0.264906 0.264906 0.264906 0.264906 0.264906 0.264906 0.264906 0.260378 0.260378 0.260378 0.260378 0.260378 0.260378 0.260378 0.260378 0.260378 0.260378 0.260378 0.260378 0.260378 0.264906 0.264906 0.264906 0.264906 0.264906 0.264906 0.264906 0.264906 0.264906 0.264906 0.264906 0.264906 0.269680 0.269680 0.269680 0.269680 0.269680 0.269680 0.269680 0.269680 0.269680 0.269680 0.269680 0.264906 0.264906 0.264906 0.264906 0.264906 0.264906 0.264906 0.264906 0.264906 0.264906 0.264906 0.256074 0.256074 0.256074 0.256074 0.256074 0.256074 0.256074 0.256074 0.256074 0.256074 0.256074 0.264906 0.264906 0.264906 0.264906 0.264906 0.264906 0.264906 0.264906 0.264906 0.264906 0.260378 0.260378 0.260378 0.260378 0.260378 0.260378 0.260378 0.260378 0.260378 0.260378 0.264906 0.264906 0.264906 0.264906 0.264906 0.264906 0.264906 0.264906 0.264906 0.251976 0.251976 0.251976 0.251976 0.251976 0.251976 0.251976 0.251976 0.251976 0.251976 0.256074 0.256074 0.256074 0.256074 0.256074 0.256074 0.256074 0.256074 0.256074 0.251976 0.251976 0.251976 0.251976 0.251976 0.251976 0.251976 0.251976 0.251976 0.251976 0.251976 0.251976 0.251976 0.251976
