# Output from CTFFind version 4.1.9, run on 2019-11-03 20:07:36
# Input file: stack1_bm3d_averaged_1_7.5_0_1500_half.mrc ; Number of micrographs: 1
# Pixel size: 3.000 Angstroms ; acceleration voltage: 300.0 keV ; spherical aberration: 0.00 mm ; amplitude contrast: 0.07
# Box size: 512 pixels ; min. res.: 30.0 Angstroms ; max. res.: 5.0 Angstroms ; min. def.: 5000.0 um; max. def. 50000.0 um; num. frames averaged: 1
# 6 lines per micrograph: #1 - spatial frequency (1/Angstroms); #2 - 1D rotational average of spectrum (assuming no astigmatism); #3 - 1D rotational average of spectrum; #4 - CTF fit; #5 - cross-correlation between spectrum and CTF fit; #6 - 2sigma of expected cross correlation of noise
0.000000 0.000651 0.001302 0.001953 0.002604 0.003255 0.003906 0.004557 0.005208 0.005859 0.006510 0.007161 0.007812 0.008464 0.009115 0.009766 0.010417 0.011068 0.011719 0.012370 0.013021 0.013672 0.014323 0.014974 0.015625 0.016276 0.016927 0.017578 0.018229 0.018880 0.019531 0.020182 0.020833 0.021484 0.022135 0.022786 0.023438 0.024089 0.024740 0.025391 0.026042 0.026693 0.027344 0.027995 0.028646 0.029297 0.029948 0.030599 0.031250 0.031901 0.032552 0.033203 0.033854 0.034505 0.035156 0.035807 0.036458 0.037109 0.037760 0.038411 0.039062 0.039714 0.040365 0.041016 0.041667 0.042318 0.042969 0.043620 0.044271 0.044922 0.045573 0.046224 0.046875 0.047526 0.048177 0.048828 0.049479 0.050130 0.050781 0.051432 0.052083 0.052734 0.053385 0.054036 0.054688 0.055339 0.055990 0.056641 0.057292 0.057943 0.058594 0.059245 0.059896 0.060547 0.061198 0.061849 0.062500 0.063151 0.063802 0.064453 0.065104 0.065755 0.066406 0.067057 0.067708 0.068359 0.069010 0.069661 0.070312 0.070964 0.071615 0.072266 0.072917 0.073568 0.074219 0.074870 0.075521 0.076172 0.076823 0.077474 0.078125 0.078776 0.079427 0.080078 0.080729 0.081380 0.082031 0.082682 0.083333 0.083984 0.084635 0.085286 0.085938 0.086589 0.087240 0.087891 0.088542 0.089193 0.089844 0.090495 0.091146 0.091797 0.092448 0.093099 0.093750 0.094401 0.095052 0.095703 0.096354 0.097005 0.097656 0.098307 0.098958 0.099609 0.100260 0.100911 0.101562 0.102214 0.102865 0.103516 0.104167 0.104818 0.105469 0.106120 0.106771 0.107422 0.108073 0.108724 0.109375 0.110026 0.110677 0.111328 0.111979 0.112630 0.113281 0.113932 0.114583 0.115234 0.115885 0.116536 0.117188 0.117839 0.118490 0.119141 0.119792 0.120443 0.121094 0.121745 0.122396 0.123047 0.123698 0.124349 0.125000 0.125651 0.126302 0.126953 0.127604 0.128255 0.128906 0.129557 0.130208 0.130859 0.131510 0.132161 0.132812 0.133464 0.134115 0.134766 0.135417 0.136068 0.136719 0.137370 0.138021 0.138672 0.139323 0.139974 0.140625 0.141276 0.141927 0.142578 0.143229 0.143880 0.144531 0.145182 0.145833 0.146484 0.147135 0.147786 0.148438 0.149089 0.149740 0.150391 0.151042 0.151693 0.152344 0.152995 0.153646 0.154297 0.154948 0.155599 0.156250 0.156901 0.157552 0.158203 0.158854 0.159505 0.160156 0.160807 0.161458 0.162109 0.162760 0.163411 0.164062 0.164714 0.165365 0.166016 0.166667 0.167318 0.167969 0.168620 0.169271 0.169922 0.170573 0.171224 0.171875 0.172526 0.173177 0.173828 0.174479 0.175130 0.175781 0.176432 0.177083 0.177734 0.178385 0.179036 0.179688 0.180339 0.180990 0.181641 0.182292 0.182943 0.183594 0.184245 0.184896 0.185547 0.186198 0.186849 0.187500 0.188151 0.188802 0.189453 0.190104 0.190755 0.191406 0.192057 0.192708 0.193359 0.194010 0.194661 0.195312 0.195964 0.196615 0.197266 0.197917 0.198568 0.199219 0.199870 0.200521 0.201172 0.201823 0.202474 0.203125 0.203776 0.204427 0.205078 0.205729 0.206380 0.207031 0.207682 0.208333 0.208984 0.209635 0.210286 0.210938 0.211589 0.212240 0.212891 0.213542 0.214193 0.214844 0.215495 0.216146 0.216797 0.217448 0.218099 0.218750 0.219401 0.220052 0.220703 0.221354 0.222005 0.222656 0.223307 0.223958 0.224609 0.225260 0.225911 0.226562 0.227214 0.227865 0.228516 0.229167 0.229818 0.230469 0.231120 0.231771 0.232422 0.233073 0.233724 0.234375 0.235026 0.235677
       0.33897        0.33897        0.33897        0.33897        0.33897        0.33897        0.33897        0.33897        0.33897        0.33897        0.33897        0.33897        0.33897        0.33897        0.33897        0.33897        0.33897        0.33897        0.33897        0.33897        0.33897        0.33897        0.33897        0.33897        0.33897        0.33897        0.33897        0.33897        0.33897        0.33897        0.33897        0.33897        0.33897        0.33897        0.33897        0.33897        0.33897        0.33897        0.33897        0.33897        0.33897        0.33897        0.33897        0.33897        0.33897        0.33897        0.33897        0.33897        0.33897        0.33897        0.33897        0.32717        0.46128        0.21434        0.06709       -0.00058       -0.27214       -0.12000       -0.15371       -0.22409        0.00235       -0.14839       -0.06189       -0.06444       -0.04858       -0.12295       -0.16708       -0.24683       -0.29116       -0.40270       -0.33548       -0.23759       -0.21748       -0.31327       -0.23205       -0.28535       -0.25642       -0.27848       -0.12473       -0.14041       -0.19757       -0.03300        0.03502       -0.02157        0.06368        0.03785        0.23626        0.24501        0.33046        0.34542        0.36803        0.40425        0.48052        0.53840        0.54392        0.49586        0.48262        0.50728        0.46468        0.50522        0.42875        0.40526        0.41064        0.35335        0.29243        0.30501        0.32614        0.21560        0.19640        0.12909        0.15413        0.16089        0.17173        0.16070        0.23745        0.29807        0.31056        0.28325        0.39137        0.46814        0.39381        0.48265        0.58328        0.53281        0.51006        0.56408        0.59226        0.41485        0.47413        0.39972        0.32873        0.30521        0.28085        0.25004        0.19408        0.18380        0.15338        0.19754        0.25046        0.28046        0.33447        0.30055        0.40182        0.40768        0.44944        0.49110        0.47056        0.49586        0.43969        0.42769        0.40214        0.33473        0.30652        0.31128        0.31333        0.24639        0.24501        0.24935        0.24401        0.26932        0.31697        0.42170        0.46697        0.41334        0.42402        0.45919        0.43780        0.46216        0.45204        0.38298        0.35682        0.38932        0.35563        0.30825        0.29860        0.30669        0.27195        0.29424        0.30071        0.31765        0.36797        0.37080        0.40708        0.41423        0.35508        0.44386        0.40908        0.34419        0.30595        0.33806        0.32646        0.29411        0.31015        0.28916        0.29577        0.32163        0.32830        0.42769        0.39722        0.37358        0.39455        0.43270        0.36671        0.34661        0.33830        0.34708        0.27306        0.26957        0.30258        0.37888        0.37984        0.33664        0.34614        0.39218        0.38352        0.44934        0.37818        0.36490        0.33053        0.31286        0.31230        0.31294        0.33994        0.37569        0.36497        0.37171        0.32426        0.43047        0.34647        0.34996        0.33841        0.37634        0.36347        0.29004        0.30615        0.26429        0.31153        0.32294        0.31416        0.33584        0.31880        0.34609        0.33557        0.33680        0.31482        0.29584        0.27373        0.31712        0.33927        0.31829        0.29222        0.33412        0.32388        0.32963        0.33282        0.29747        0.28325        0.29643        0.32115        0.31226        0.31024        0.28516        0.30194        0.34732        0.32542        0.31678        0.38526        0.32461        0.26830        0.31134        0.32551        0.31280        0.34085        0.29962        0.32268        0.26877        0.31572        0.33446        0.35768        0.30026        0.31364        0.30658        0.28837        0.35909        0.35282        0.30963        0.30596        0.29341        0.28740        0.33945        0.33730        0.27861        0.32440        0.28428        0.26654        0.25658        0.30080        0.33137        0.32178        0.23709        0.27327        0.33840        0.30677        0.32464        0.33525        0.30580        0.31633        0.32319        0.30321        0.27710        0.27252        0.28405        0.32895        0.32722        0.30792        0.32454        0.35089        0.33599        0.29105        0.30413        0.29357        0.30319        0.29245        0.24102        0.25682        0.31364        0.35197        0.24601        0.21288        0.18340        0.28957        0.29691        0.28527        0.30357        0.27950        0.27441        0.24232        0.28443        0.26746        0.30575        0.23439        0.25369        0.25532        0.21506        0.25235        0.32358        0.32688        0.26582        0.22422        0.21645        0.15771        0.24131        0.24752        0.37991        0.28180        0.21991        0.30523        0.36232        0.14448       -0.07831       -0.13378       -0.61633       -0.78871
3.486244 3.447233 3.408444 3.369877 3.331531 3.293407 3.255505 3.217825 3.180366 3.143130 3.106114 3.069321 3.032749 2.996399 2.960271 2.924364 2.888679 2.853216 2.817975 2.782955 2.748157 2.713581 2.679227 2.645094 2.611183 2.577493 2.544026 2.510780 2.477756 2.444953 2.412372 2.380013 2.347876 2.315960 2.284267 2.252794 2.221544 2.190515 2.159708 2.129123 2.098760 2.068618 2.038698 2.008999 1.979523 1.950268 1.921235 1.892423 1.863833 1.835465 1.807319 1.689703 1.994921 1.734040 1.094478 1.168756 0.353690 0.906354 0.539930 0.646578 0.932691 0.667146 0.691407 0.763467 0.698617 0.658449 0.447155 0.346105 0.199385 0.001561 0.005265 0.137533 0.407597 -0.033098 0.164649 0.043319 0.172830 -0.059950 0.267584 0.178327 0.102268 0.307847 0.518890 0.306149 0.446106 0.366185 0.814793 0.663982 0.871381 0.909223 0.810507 1.040536 0.942431 1.266070 1.076138 1.120813 1.023461 1.041526 0.991789 0.909555 0.945735 0.776277 0.752039 0.677400 0.642782 0.465126 0.574792 0.444220 0.273852 0.211534 0.139736 0.180407 0.207892 0.146611 0.197103 0.400036 0.356386 0.367912 0.473169 0.567106 0.554478 0.434324 0.826805 0.797180 0.639738 0.711256 0.786565 0.567656 0.415277 0.527953 0.211278 0.270711 0.108195 0.153282 -0.009421 -0.041250 -0.109979 -0.103756 0.090479 -0.017891 0.124167 0.200171 0.157794 0.304485 0.303728 0.418623 0.322724 0.455215 0.331346 0.260428 0.246455 0.156852 0.069207 0.048567 0.027273 -0.003387 -0.051726 -0.116689 -0.117439 -0.047964 -0.074739 0.140039 0.328643 0.228922 0.200709 0.284927 0.334834 0.233743 0.356403 0.290125 0.154911 0.142544 0.263432 0.012828 0.047989 0.016399 0.052758 -0.025108 0.089498 0.005122 0.157120 0.008908 0.218804 0.246333 0.173462 0.276926 0.193925 0.154644 0.044694 0.077068 0.075595 0.034297 -0.013602 0.033501 -0.037724 0.008237 0.032530 0.109912 0.279993 0.150603 0.149331 0.272263 0.148672 0.178679 0.041076 0.101788 0.076011 -0.098767 0.003083 0.048304 0.186008 0.130492 0.049273 0.112954 0.190053 0.185291 0.282658 0.125901 0.127915 0.046173 0.008708 0.065265 0.050095 0.103950 0.172272 0.140472 0.096014 0.153054 0.198190 0.021299 0.112249 0.075634 0.161441 0.063030 -0.004496 0.000197 -0.060175 0.041965 0.057960 0.046630 0.017257 -0.006018 0.048317 0.011208 0.027456 -0.015239 -0.074701 -0.037133 -0.047905 0.077893 -0.053552 -0.015501 0.028746 0.019780 0.021811 0.052943 -0.040874 -0.036231 -0.025069 0.034364 0.002056 0.021269 -0.054905 -0.024187 0.096756 0.012384 -0.016874 0.167782 -0.072467 -0.082025 0.014199 0.007903 -0.016793 0.018705 -0.035218 0.000930 -0.103981 0.012595 0.073053 0.073697 -0.063353 0.001286 -0.044848 -0.029680 0.073366 0.070024 -0.064414 -0.016604 -0.061936 -0.061591 0.040805 -0.004709 -0.079824 0.045688 -0.103862 -0.088749 -0.094858 -0.054102 0.049084 -0.070190 -0.229251 -0.029495 0.058915 -0.051293 -0.035498 0.049131 -0.051781 -0.017691 0.001871 -0.067431 -0.100575 -0.115497 -0.112525 0.052402 0.001246 -0.063967 0.015149 0.088003 -0.123646 0.004661 0.020532 -0.088720 0.028718 -0.015416 -0.119346 -0.071565 0.029318 0.155537 -0.062878 -0.222429 -0.123595 0.128390 0.001830 -0.005306 0.138309 0.073807 0.018910 0.003344 0.011089 0.077358 0.107310 -0.011412 0.047998 0.112740 -0.090825 0.102535 0.282141 0.154830 0.126032 0.093302 -0.039357 0.060001 0.001825 0.058464 0.432020 0.426023 0.399924 0.591517 0.856817 0.281326 -0.335796 -0.230751 -1.424700
0.072396 0.072907 0.074440 0.076995 0.080572 0.085168 0.090783 0.097416 0.105063 0.113723 0.123391 0.134063 0.145734 0.158396 0.172042 0.186663 0.202246 0.218778 0.236243 0.254624 0.273899 0.294045 0.315034 0.336835 0.359413 0.382730 0.406742 0.431402 0.456655 0.482443 0.508703 0.535363 0.562348 0.589575 0.616955 0.644392 0.671783 0.699018 0.725980 0.752545 0.778582 0.803953 0.828513 0.852111 0.874590 0.895787 0.915534 0.933658 0.949982 0.964326 0.976510 0.986350 0.993664 0.998270 0.999992 0.998655 0.994092 0.986144 0.974662 0.959507 0.940555 0.917701 0.890853 0.859945 0.824931 0.785789 0.742529 0.695188 0.643834 0.588571 0.529540 0.466917 0.400918 0.331800 0.259862 0.185442 0.108923 0.030728 0.048680 0.128798 0.209084 0.288965 0.367832 0.445053 0.519969 0.591906 0.660176 0.724086 0.782948 0.836079 0.882818 0.922529 0.954615 0.978523 0.993757 0.999888 0.996562 0.983511 0.960563 0.927647 0.884809 0.832208 0.770132 0.698996 0.619348 0.531870 0.437375 0.336806 0.231231 0.121834 0.009908 0.103163 0.215912 0.326814 0.434299 0.536779 0.632668 0.720413 0.798517 0.865567 0.920266 0.961460 0.988165 0.999595 0.995189 0.974630 0.937868 0.885134 0.816951 0.734141 0.637826 0.529422 0.410627 0.283401 0.149942 0.012657 0.125886 0.262994 0.395903 0.521838 0.638064 0.741956 0.831060 0.903156 0.956319 0.988986 1.000000 0.988662 0.954773 0.898654 0.821174 0.723745 0.608316 0.477349 0.333778 0.180955 0.022579 0.137385 0.294801 0.445469 0.585238 0.710125 0.816430 0.900862 0.960649 0.993637 0.998390 0.974254 0.921417 0.840937 0.734742 0.605613 0.457126 0.293571 0.119847 0.058681 0.236332 0.407294 0.565809 0.706375 0.823945 0.914122 0.973338 0.999015 0.989694 0.945135 0.866367 0.755707 0.616713 0.454099 0.273602 0.081797 0.114136 0.306663 0.488184 0.651346 0.789339 0.896200 0.967095 0.998553 0.988670 0.937237 0.845818 0.717739 0.558002 0.373128 0.170912 0.039881 0.249888 0.449551 0.629559 0.781291 0.897252 0.971458 0.999786 0.980230 0.913069 0.800933 0.648742 0.463537 0.254191 0.031010 0.194755 0.411459 0.607671 0.772787 0.897621 0.974949 0.999961 0.970606 0.887787 0.755402 0.580219 0.371571 0.140910 0.098803 0.333804 0.550307 0.735328 0.877487 0.967731 0.999966 0.971507 0.883351 0.740217 0.550364 0.325158 0.078455 0.174242 0.416716 0.633097 0.808908 0.932062 0.993742 0.989085 0.917629 0.783452 0.595034 0.364772 0.108233 0.156872 0.411881 0.638493 0.820097 0.943039 0.997685 0.979251 0.888280 0.730750 0.517757 0.264812 0.009235 0.283558 0.536931 0.749373 0.903752 0.987232 0.992393 0.917981 0.769152 0.557231 0.298913 0.015036 0.271072 0.535477 0.755662 0.912470 0.991836 0.986122 0.894945 0.725385 0.491536 0.213431 0.084607 0.376044 0.634503 0.836154 0.961970 0.999601 0.944679 0.801408 0.582381 0.307573 0.002598 0.303599 0.581488 0.803811 0.948293 0.999969 0.952829 0.810619 0.586691 0.302871 0.012590 0.327732 0.610145 0.830279 0.964620 0.998282 0.926777 0.756715 0.505349 0.198937 0.129899 0.445590 0.713458 0.903572 0.994161 0.974224 0.845000 0.620084 0.324149 0.009651 0.343312 0.638276 0.859911 0.981655 0.988311 0.878079 0.663056 0.368070 0.027941 0.316530 0.623420 0.854803 0.981522 0.986975 0.869449 0.642628 0.334179 0.017477 0.367868 0.672054 0.890419 0.993932 0.968136 0.815337 0.554635 0.219708 0.145406 0.492000 0.773198 0.950358
1.000000 1.000000 1.000000 1.000000 1.000000 1.000000 1.000000 1.000000 1.000000 1.000000 1.000000 1.000000 1.000000 1.000000 1.000000 1.000000 1.000000 1.000000 1.000000 1.000000 1.000000 1.000000 1.000000 1.000000 1.000000 1.000000 1.000000 1.000000 1.000000 1.000000 1.000000 1.000000 1.000000 1.000000 1.000000 1.000000 1.000000 1.000000 1.000000 1.000000 1.000000 1.000000 1.000000 1.000000 1.000000 1.000000 1.000000 1.000000 1.000000 1.000000 1.000000 1.000000 0.821656 0.821656 0.821656 0.797988 0.797988 0.797988 0.797988 0.797988 0.797988 0.797988 0.797988 0.797988 0.797988 0.797988 0.797988 0.797988 0.797988 0.797988 0.797988 0.797988 0.797988 0.797988 0.797988 0.797988 0.797988 0.797988 0.797988 0.797988 0.797988 0.797988 0.797988 0.797988 0.797988 0.797988 0.797988 0.797988 0.797988 0.797988 0.797988 0.797988 0.797988 0.797988 0.797988 0.797988 0.853539 0.860170 0.865424 0.869166 0.869448 0.866372 0.865214 0.864749 0.864140 0.865380 0.874140 0.899950 0.913411 0.913900 0.927314 0.929122 0.934028 0.934717 0.954353 0.955722 0.957024 0.956077 0.956989 0.959085 0.965695 0.965849 0.963317 0.963404 0.966198 0.966837 0.966540 0.962842 0.961462 0.960652 0.958081 0.957776 0.957398 0.957860 0.958302 0.953020 0.953418 0.953735 0.955596 0.954025 0.944434 0.938764 0.934944 0.932978 0.915149 0.912796 0.913153 0.911164 0.903024 0.903422 0.893114 0.894630 0.892544 0.882559 0.881980 0.877654 0.873361 0.860872 0.859160 0.859324 0.862719 0.868266 0.871181 0.858618 0.842983 0.823509 0.807284 0.789353 0.790883 0.790504 0.785495 0.789802 0.791511 0.790045 0.788021 0.780490 0.767646 0.776097 0.773634 0.769291 0.762748 0.760946 0.747132 0.741819 0.735039 0.711794 0.698513 0.691804 0.702476 0.695556 0.696232 0.699879 0.707666 0.707452 0.707703 0.700360 0.696287 0.688243 0.669175 0.676408 0.686931 0.683226 0.677713 0.676994 0.650184 0.678860 0.681528 0.701140 0.709439 0.710724 0.711415 0.698118 0.670341 0.655589 0.655706 0.645661 0.652673 0.652002 0.645841 0.628159 0.632159 0.638505 0.658921 0.622205 0.618702 0.601797 0.602429 0.588166 0.584083 0.547186 0.539496 0.529496 0.501490 0.480490 0.494831 0.483077 0.472367 0.492350 0.449212 0.446289 0.444079 0.443738 0.442683 0.430637 0.405704 0.411061 0.410625 0.397325 0.370462 0.314135 0.307687 0.324064 0.328367 0.330294 0.319019 0.324026 0.284590 0.260525 0.256960 0.252781 0.237696 0.238539 0.244975 0.221926 0.225424 0.131813 0.130844 0.150140 0.156975 0.143346 0.131395 0.159538 0.161518 0.145082 0.120795 0.066732 0.025062 0.008068 0.032919 0.045216 0.063528 0.044758 0.034707 0.038002 0.051486 0.005264 -0.005109 -0.016939 -0.017817 -0.009172 0.018559 0.004025 -0.015820 -0.005740 0.014977 -0.019837 -0.007192 -0.001041 0.027805 0.008485 -0.002967 -0.014306 -0.019840 -0.032005 -0.039672 -0.026225 -0.014290 -0.002764 0.026500 -0.024823 -0.041555 -0.045648 -0.035075 -0.067918 -0.043200 -0.052433 -0.036197 -0.045843 -0.038728 -0.017647 0.044772 0.048052 0.046174 0.010839 0.049193 0.013121 0.004264 0.021379 -0.009985 -0.010716 0.033642 0.047300 0.058075 0.006805 -0.007699 -0.007699 -0.007699 -0.033278 -0.033278 -0.033278 -0.033278 -0.033278 -0.033278 -0.033278 -0.033278 -0.033278 -0.039492 -0.039492 -0.039492 -0.039492 -0.039492 -0.039492 -0.039492 -0.039492 -0.039492 -0.039492 -0.039492 -0.039492 -0.039492 -0.039492 -0.039492 -0.039492 -0.039492
0.000000 0.000000 0.000000 0.000000 0.000000 0.000000 0.000000 0.000000 0.000000 0.000000 0.000000 0.000000 0.000000 0.000000 0.000000 0.000000 0.000000 0.000000 0.000000 0.000000 0.000000 0.000000 0.000000 0.000000 0.000000 0.000000 0.000000 0.000000 0.000000 0.000000 0.000000 0.000000 0.000000 0.000000 0.000000 0.000000 0.000000 0.000000 0.000000 0.000000 0.000000 0.000000 0.000000 0.000000 0.000000 0.000000 0.000000 0.000000 0.000000 0.000000 0.000000 0.000000 0.180334 0.180334 0.180334 0.199007 0.199007 0.199007 0.199007 0.199007 0.199007 0.199007 0.199007 0.199007 0.199007 0.199007 0.199007 0.199007 0.199007 0.199007 0.199007 0.199007 0.199007 0.199007 0.199007 0.199007 0.199007 0.199007 0.199007 0.199007 0.199007 0.199007 0.199007 0.199007 0.199007 0.199007 0.199007 0.199007 0.199007 0.199007 0.199007 0.199007 0.199007 0.199007 0.199007 0.199007 0.230940 0.230940 0.230940 0.230940 0.230940 0.230940 0.230940 0.230940 0.230940 0.230940 0.230940 0.230940 0.230940 0.230940 0.230940 0.230940 0.230940 0.230940 0.230940 0.230940 0.230940 0.230940 0.230940 0.230940 0.230940 0.230940 0.230940 0.230940 0.248069 0.248069 0.248069 0.248069 0.248069 0.248069 0.248069 0.248069 0.248069 0.248069 0.248069 0.248069 0.248069 0.248069 0.248069 0.248069 0.248069 0.248069 0.248069 0.248069 0.248069 0.248069 0.251976 0.251976 0.251976 0.251976 0.251976 0.251976 0.251976 0.251976 0.251976 0.251976 0.251976 0.251976 0.251976 0.251976 0.251976 0.251976 0.251976 0.251976 0.251976 0.251976 0.256074 0.256074 0.256074 0.256074 0.256074 0.256074 0.256074 0.256074 0.256074 0.256074 0.256074 0.256074 0.256074 0.256074 0.256074 0.256074 0.256074 0.256074 0.264906 0.264906 0.264906 0.264906 0.264906 0.264906 0.264906 0.264906 0.264906 0.264906 0.264906 0.264906 0.264906 0.264906 0.264906 0.264906 0.264906 0.264906 0.264906 0.264906 0.264906 0.264906 0.264906 0.264906 0.264906 0.264906 0.264906 0.264906 0.264906 0.264906 0.264906 0.274721 0.274721 0.274721 0.274721 0.274721 0.274721 0.274721 0.274721 0.274721 0.274721 0.274721 0.274721 0.274721 0.256074 0.256074 0.256074 0.256074 0.256074 0.256074 0.256074 0.256074 0.256074 0.256074 0.256074 0.256074 0.256074 0.256074 0.269680 0.269680 0.269680 0.269680 0.269680 0.269680 0.269680 0.269680 0.269680 0.269680 0.269680 0.269680 0.264906 0.264906 0.264906 0.264906 0.264906 0.264906 0.264906 0.264906 0.264906 0.264906 0.264906 0.264906 0.269680 0.269680 0.269680 0.269680 0.269680 0.269680 0.269680 0.269680 0.269680 0.269680 0.269680 0.264906 0.264906 0.264906 0.264906 0.264906 0.264906 0.264906 0.264906 0.264906 0.264906 0.264906 0.269680 0.269680 0.269680 0.269680 0.269680 0.269680 0.269680 0.269680 0.269680 0.269680 0.251976 0.251976 0.251976 0.251976 0.251976 0.251976 0.251976 0.251976 0.251976 0.251976 0.251976 0.269680 0.269680 0.269680 0.269680 0.269680 0.269680 0.269680 0.269680 0.269680 0.256074 0.256074 0.256074 0.256074 0.256074 0.256074 0.256074 0.256074 0.256074 0.256074 0.260378 0.260378 0.260378 0.260378 0.260378 0.260378 0.260378 0.260378 0.260378 0.256074 0.256074 0.256074 0.256074 0.256074 0.256074 0.256074 0.256074 0.256074 0.251976 0.251976 0.251976 0.251976 0.251976 0.251976 0.251976 0.251976 0.251976 0.251976 0.251976 0.251976 0.251976 0.251976 0.251976 0.251976 0.251976
