# Output from CTFFind version 4.1.9, run on 2019-11-03 19:42:54
# Input file: stack6_bm3d_averaged_1_4.75_0_2500_half.mrc ; Number of micrographs: 1
# Pixel size: 3.000 Angstroms ; acceleration voltage: 300.0 keV ; spherical aberration: 0.00 mm ; amplitude contrast: 0.07
# Box size: 512 pixels ; min. res.: 30.0 Angstroms ; max. res.: 5.0 Angstroms ; min. def.: 5000.0 um; max. def. 50000.0 um; num. frames averaged: 1
# 6 lines per micrograph: #1 - spatial frequency (1/Angstroms); #2 - 1D rotational average of spectrum (assuming no astigmatism); #3 - 1D rotational average of spectrum; #4 - CTF fit; #5 - cross-correlation between spectrum and CTF fit; #6 - 2sigma of expected cross correlation of noise
0.000000 0.000651 0.001302 0.001953 0.002604 0.003255 0.003906 0.004557 0.005208 0.005859 0.006510 0.007161 0.007812 0.008464 0.009115 0.009766 0.010417 0.011068 0.011719 0.012370 0.013021 0.013672 0.014323 0.014974 0.015625 0.016276 0.016927 0.017578 0.018229 0.018880 0.019531 0.020182 0.020833 0.021484 0.022135 0.022786 0.023438 0.024089 0.024740 0.025391 0.026042 0.026693 0.027344 0.027995 0.028646 0.029297 0.029948 0.030599 0.031250 0.031901 0.032552 0.033203 0.033854 0.034505 0.035156 0.035807 0.036458 0.037109 0.037760 0.038411 0.039062 0.039714 0.040365 0.041016 0.041667 0.042318 0.042969 0.043620 0.044271 0.044922 0.045573 0.046224 0.046875 0.047526 0.048177 0.048828 0.049479 0.050130 0.050781 0.051432 0.052083 0.052734 0.053385 0.054036 0.054688 0.055339 0.055990 0.056641 0.057292 0.057943 0.058594 0.059245 0.059896 0.060547 0.061198 0.061849 0.062500 0.063151 0.063802 0.064453 0.065104 0.065755 0.066406 0.067057 0.067708 0.068359 0.069010 0.069661 0.070312 0.070964 0.071615 0.072266 0.072917 0.073568 0.074219 0.074870 0.075521 0.076172 0.076823 0.077474 0.078125 0.078776 0.079427 0.080078 0.080729 0.081380 0.082031 0.082682 0.083333 0.083984 0.084635 0.085286 0.085938 0.086589 0.087240 0.087891 0.088542 0.089193 0.089844 0.090495 0.091146 0.091797 0.092448 0.093099 0.093750 0.094401 0.095052 0.095703 0.096354 0.097005 0.097656 0.098307 0.098958 0.099609 0.100260 0.100911 0.101562 0.102214 0.102865 0.103516 0.104167 0.104818 0.105469 0.106120 0.106771 0.107422 0.108073 0.108724 0.109375 0.110026 0.110677 0.111328 0.111979 0.112630 0.113281 0.113932 0.114583 0.115234 0.115885 0.116536 0.117188 0.117839 0.118490 0.119141 0.119792 0.120443 0.121094 0.121745 0.122396 0.123047 0.123698 0.124349 0.125000 0.125651 0.126302 0.126953 0.127604 0.128255 0.128906 0.129557 0.130208 0.130859 0.131510 0.132161 0.132812 0.133464 0.134115 0.134766 0.135417 0.136068 0.136719 0.137370 0.138021 0.138672 0.139323 0.139974 0.140625 0.141276 0.141927 0.142578 0.143229 0.143880 0.144531 0.145182 0.145833 0.146484 0.147135 0.147786 0.148438 0.149089 0.149740 0.150391 0.151042 0.151693 0.152344 0.152995 0.153646 0.154297 0.154948 0.155599 0.156250 0.156901 0.157552 0.158203 0.158854 0.159505 0.160156 0.160807 0.161458 0.162109 0.162760 0.163411 0.164062 0.164714 0.165365 0.166016 0.166667 0.167318 0.167969 0.168620 0.169271 0.169922 0.170573 0.171224 0.171875 0.172526 0.173177 0.173828 0.174479 0.175130 0.175781 0.176432 0.177083 0.177734 0.178385 0.179036 0.179688 0.180339 0.180990 0.181641 0.182292 0.182943 0.183594 0.184245 0.184896 0.185547 0.186198 0.186849 0.187500 0.188151 0.188802 0.189453 0.190104 0.190755 0.191406 0.192057 0.192708 0.193359 0.194010 0.194661 0.195312 0.195964 0.196615 0.197266 0.197917 0.198568 0.199219 0.199870 0.200521 0.201172 0.201823 0.202474 0.203125 0.203776 0.204427 0.205078 0.205729 0.206380 0.207031 0.207682 0.208333 0.208984 0.209635 0.210286 0.210938 0.211589 0.212240 0.212891 0.213542 0.214193 0.214844 0.215495 0.216146 0.216797 0.217448 0.218099 0.218750 0.219401 0.220052 0.220703 0.221354 0.222005 0.222656 0.223307 0.223958 0.224609 0.225260 0.225911 0.226562 0.227214 0.227865 0.228516 0.229167 0.229818 0.230469 0.231120 0.231771 0.232422 0.233073 0.233724 0.234375 0.235026 0.235677
       0.30202        0.30202        0.30202        0.30202        0.30202        0.30202        0.30202        0.30202        0.30202        0.30202        0.30202        0.30202        0.30202        0.30202        0.30202        0.30202        0.30202        0.30202        0.30202        0.30202        0.30202        0.30202        0.30202        0.30202        0.30202        0.30202        0.30202        0.30202        0.30202        0.30202        0.30202        0.30202        0.30202        0.30202        0.30202        0.30202        0.30202        0.30202        0.30202        0.30202        0.30202        0.30202        0.30202        0.30202        0.30202        0.30202        0.30202        0.30202        0.30202        0.30202        0.30202        0.60252        0.73592        0.35522        0.19446        0.12570       -0.15437        0.10756        0.02162        0.02934        0.08760        0.31069        0.34163        0.27035        0.15935       -0.03780       -0.00776        0.04002       -0.15072       -0.16132       -0.09253       -0.11658       -0.25050       -0.16019       -0.28805       -0.29480       -0.29693       -0.36390       -0.44255       -0.39441       -0.30496       -0.27346       -0.37070       -0.27810       -0.34103       -0.27645       -0.20104       -0.15180       -0.11316       -0.03413       -0.00629        0.10482        0.14764        0.21145        0.33033        0.39308        0.35744        0.46216        0.55571        0.56537        0.64893        0.59827        0.63661        0.59839        0.62241        0.62357        0.55665        0.56840        0.56225        0.39459        0.32576        0.35536        0.34411        0.18408        0.13891        0.10374        0.07064        0.07736       -0.02006        0.03876        0.00822       -0.03790        0.08093        0.15764        0.25427        0.34446        0.33227        0.36301        0.47117        0.50325        0.43328        0.64834        0.52616        0.48360        0.56218        0.50039        0.51774        0.47357        0.36150        0.31244        0.25165        0.20630        0.18492        0.17358        0.14894        0.09545        0.15882        0.15918        0.20420        0.18406        0.25469        0.28873        0.32362        0.44611        0.42339        0.41289        0.45305        0.49264        0.47407        0.45165        0.37900        0.40207        0.34350        0.27886        0.22534        0.23608        0.21633        0.17049        0.14912        0.19339        0.18778        0.24164        0.31217        0.33976        0.40035        0.38579        0.44885        0.45961        0.44780        0.42409        0.39155        0.40359        0.37876        0.33922        0.31441        0.29649        0.24618        0.26179        0.25848        0.20928        0.26261        0.24863        0.25893        0.31158        0.35797        0.39442        0.39253        0.40630        0.38672        0.40199        0.38914        0.29012        0.28082        0.24350        0.25660        0.21502        0.18914        0.26870        0.31424        0.29573        0.26767        0.32687        0.26206        0.33970        0.35258        0.35560        0.36098        0.38025        0.31227        0.31746        0.30206        0.27188        0.26733        0.24411        0.27154        0.29444        0.29178        0.31153        0.35553        0.37119        0.35140        0.33273        0.34822        0.31757        0.30482        0.30026        0.27105        0.27888        0.25471        0.29650        0.31049        0.29540        0.29081        0.31030        0.31704        0.32734        0.32929        0.28651        0.25612        0.28282        0.27537        0.26200        0.24612        0.22534        0.24212        0.25447        0.24214        0.26476        0.27824        0.32068        0.30695        0.28312        0.29737        0.24031        0.21167        0.26579        0.24032        0.20570        0.26302        0.30724        0.26910        0.29521        0.29511        0.29088        0.29635        0.29727        0.26865        0.29643        0.27833        0.31309        0.25882        0.26394        0.24927        0.29255        0.29585        0.31184        0.31961        0.30564        0.20729        0.27093        0.26591        0.22750        0.24887        0.24592        0.28762        0.26724        0.30496        0.29783        0.34906        0.29830        0.26879        0.23310        0.22728        0.24630        0.24659        0.27202        0.28603        0.29747        0.31512        0.27878        0.27647        0.25306        0.26153        0.27762        0.23955        0.21534        0.22773        0.31210        0.29502        0.28465        0.28305        0.22393        0.26832        0.24777        0.20434        0.21981        0.26730        0.28019        0.28406        0.21116        0.19308        0.25204        0.24760        0.25880        0.24323        0.24206        0.19019        0.21883        0.25269        0.22262        0.27488        0.23603        0.23748        0.17169        0.27510        0.29960        0.17063        0.16078        0.12218        0.13849        0.27474        0.15302        0.11272        0.31967        0.20960        0.12584        0.09741        0.15726        0.12584        0.16427       -0.09108       -0.71340       -1.04201
3.060988 3.029844 2.998862 2.968043 2.937387 2.906894 2.876564 2.846397 2.816393 2.786551 2.756873 2.727357 2.698004 2.668815 2.639788 2.610924 2.582223 2.553684 2.525309 2.497097 2.469047 2.441161 2.413437 2.385876 2.358478 2.331243 2.304171 2.277262 2.250516 2.223933 2.197512 2.171255 2.145160 2.119228 2.093459 2.067853 2.042411 2.017130 1.992013 1.967059 1.942267 1.917639 1.893173 1.868871 1.844731 1.820754 1.796940 1.773289 1.749801 1.726475 1.703313 2.042434 2.355096 1.723809 1.624574 1.350564 0.811979 1.212989 1.080974 1.098905 0.960840 1.565269 1.450742 1.449864 1.204628 0.882007 0.726367 0.962849 0.743691 0.421440 0.520567 0.648038 0.390671 0.430049 0.271931 0.188089 0.139239 0.137332 -0.129671 -0.044668 0.089314 0.050892 0.005672 0.093440 -0.047648 -0.019385 0.141489 0.212852 0.266532 0.325355 0.370517 0.616648 0.561455 0.642264 0.860426 0.963672 0.838983 1.149255 1.139524 1.222285 1.287436 1.159121 1.322867 1.169269 1.131097 1.299247 1.080899 1.040423 1.127293 0.895794 0.611824 0.656751 0.714055 0.426072 0.334354 0.263251 0.136098 0.137274 -0.006328 0.097855 0.047388 -0.090270 0.044560 0.164712 0.268474 0.493052 0.490986 0.448282 0.630202 0.766495 0.504334 0.906944 0.748368 0.709159 0.774933 0.614303 0.689000 0.686745 0.415522 0.338194 0.233645 0.166239 0.111276 0.010429 0.044331 -0.121405 -0.002742 -0.026882 0.077524 -0.036042 0.167982 0.170229 0.141122 0.360815 0.445514 0.350752 0.296565 0.508392 0.502909 0.388848 0.334841 0.312041 0.251402 0.171889 0.020042 0.034366 -0.027245 0.005582 -0.153599 -0.071685 -0.117069 0.066256 0.002434 0.185852 0.207520 0.233760 0.315308 0.317916 0.369381 0.330439 0.370641 0.363234 0.232160 0.273075 0.141369 0.194374 0.056595 0.110102 0.044828 0.052682 -0.034018 0.089613 0.002305 0.106360 0.201248 0.213624 0.287575 0.274349 0.286953 0.273115 0.281837 0.174800 0.080220 0.079015 0.018537 0.011890 -0.067583 -0.044060 0.076128 0.151387 0.065968 0.086227 0.087674 0.100831 0.187700 0.158414 0.195529 0.244751 0.148014 0.104318 0.101684 0.080371 0.055334 -0.031881 0.016045 0.129362 0.004662 0.116084 0.110023 0.214223 0.218015 0.190875 0.179875 0.194300 0.102923 0.120245 0.126075 0.056120 0.024853 0.081895 0.098972 0.123919 0.103367 0.097469 0.113689 0.148432 0.138041 0.114880 0.029591 -0.011283 0.065242 0.006385 0.035998 -0.040357 -0.053808 0.005886 -0.019713 -0.026710 0.036432 0.031284 0.107599 0.098096 0.015753 0.066305 -0.065651 -0.038261 0.039232 -0.062412 -0.066326 0.052364 0.072272 0.003755 0.056699 0.059635 0.055982 0.121075 0.000344 0.032569 0.117602 -0.003740 0.099756 -0.007439 0.036834 -0.030634 0.122466 0.035691 0.089583 0.122718 0.073689 -0.082602 0.043794 0.027693 -0.038656 -0.002528 0.006255 0.039164 0.037848 0.146847 0.053873 0.153808 0.098301 -0.020868 -0.000514 -0.044045 0.009992 0.034199 0.035680 0.064223 0.086794 0.131146 0.057414 0.067539 0.046831 0.070953 0.075420 0.039962 -0.054944 0.033182 0.131425 0.098549 0.105489 0.110060 0.001462 0.083584 0.023839 -0.051183 0.013208 0.065391 0.121626 0.080738 -0.028562 -0.040057 0.060768 0.056906 0.036345 0.046789 0.003170 -0.001600 0.001885 0.069270 0.004890 0.132529 -0.031145 0.103073 -0.062991 0.146896 0.160990 -0.104934 -0.040354 -0.159070 -0.225090 0.187926 -0.090440 0.071402 0.522558 0.304449 0.199784 0.104484 0.394214 0.174278 0.263949 -0.138582 -1.705691
0.072396 0.072835 0.074151 0.076345 0.079415 0.083361 0.088183 0.093878 0.100446 0.107884 0.116190 0.125361 0.135394 0.146282 0.158022 0.170607 0.184029 0.198279 0.213347 0.229221 0.245888 0.263330 0.281532 0.300472 0.320128 0.340475 0.361483 0.383123 0.405359 0.428153 0.451464 0.475244 0.499444 0.524011 0.548885 0.574002 0.599295 0.624691 0.650112 0.675474 0.700689 0.725663 0.750298 0.774489 0.798128 0.821101 0.843288 0.864566 0.884807 0.903880 0.921649 0.937975 0.952717 0.965732 0.976875 0.986001 0.992965 0.997622 0.999831 0.999453 0.996352 0.990400 0.981474 0.969459 0.954250 0.935754 0.913887 0.888583 0.859788 0.827467 0.791605 0.752203 0.709288 0.662908 0.613137 0.560074 0.503845 0.444605 0.382539 0.317861 0.250815 0.181677 0.110754 0.038382 0.035071 0.109210 0.183610 0.257822 0.331371 0.403762 0.474481 0.542998 0.608773 0.671256 0.729896 0.784146 0.833464 0.877323 0.915216 0.946661 0.971210 0.988454 0.998029 0.999625 0.992993 0.977947 0.954378 0.922250 0.881616 0.832612 0.775471 0.710518 0.638177 0.558969 0.473513 0.382527 0.286817 0.187285 0.084909 0.019253 0.124079 0.228391 0.330969 0.430562 0.525906 0.615740 0.698822 0.773949 0.839976 0.895834 0.940551 0.973272 0.993277 1.000000 0.993043 0.972194 0.937440 0.888973 0.827205 0.752765 0.666504 0.569491 0.463006 0.348529 0.227723 0.102415 0.025424 0.153717 0.280304 0.402982 0.519542 0.627810 0.725691 0.811211 0.882561 0.938141 0.976601 0.996877 0.998229 0.980267 0.942978 0.886741 0.812335 0.720945 0.614147 0.493896 0.362496 0.222565 0.076989 0.071134 0.218555 0.361945 0.497966 0.623359 0.735016 0.830067 0.905962 0.960542 0.992114 0.999507 0.982132 0.940008 0.873797 0.784803 0.674967 0.546838 0.403524 0.248632 0.086184 0.079483 0.243820 0.402201 0.550044 0.682950 0.796841 0.888096 0.953668 0.991209 0.999156 0.976820 0.924425 0.843148 0.735101 0.603306 0.451623 0.284657 0.107625 0.073793 0.253634 0.425840 0.584469 0.723900 0.839049 0.925559 0.979980 0.999932 0.984215 0.932902 0.847372 0.730301 0.585608 0.418340 0.234519 0.040938 0.155076 0.345936 0.524092 0.682327 0.814063 0.913647 0.976612 0.999904 0.982041 0.923236 0.825432 0.692275 0.529003 0.342272 0.139903 0.069433 0.276566 0.472239 0.647517 0.794201 0.905239 0.975078 0.999970 0.978202 0.910235 0.798742 0.648545 0.466440 0.260916 0.041791 0.180255 0.394181 0.589132 0.755012 0.883013 0.966105 0.999463 0.980769 0.910411 0.791530 0.629928 0.433824 0.213469 0.019362 0.251984 0.471488 0.665456 0.822681 0.933839 0.992069 0.993439 0.937249 0.826153 0.666094 0.466028 0.237457 0.006179 0.250296 0.480014 0.681079 0.840759 0.948671 0.997510 0.983574 0.907095 0.772319 0.587335 0.363627 0.115415 0.141220 0.389360 0.612375 0.795034 0.924587 0.991680 0.991094 0.922193 0.789079 0.600420 0.368935 0.110593 0.156460 0.413148 0.640837 0.822705 0.945000 0.998147 0.977544 0.884018 0.723894 0.508624 0.254048 0.020734 0.294775 0.546834 0.757073 0.908609 0.988942 0.991032 0.913988 0.763274 0.550404 0.292125 0.009166 0.275390 0.537977 0.756507 0.912254 0.991515 0.986875 0.897981 0.731720 0.501768 0.227552 0.067345 0.357170 0.616235 0.821223 0.953316 0.999985 0.956268 0.825363 0.618513 0.354117 0.056181 0.247817 0.529443 0.761963 0.922927 0.996388 0.974567 0.858770 0.659434 0.395297 0.091706 0.221744 0.514068 0.755958 0.922763
1.000000 1.000000 1.000000 1.000000 1.000000 1.000000 1.000000 1.000000 1.000000 1.000000 1.000000 1.000000 1.000000 1.000000 1.000000 1.000000 1.000000 1.000000 1.000000 1.000000 1.000000 1.000000 1.000000 1.000000 1.000000 1.000000 1.000000 1.000000 1.000000 1.000000 1.000000 1.000000 1.000000 1.000000 1.000000 1.000000 1.000000 1.000000 1.000000 1.000000 1.000000 1.000000 1.000000 1.000000 1.000000 1.000000 1.000000 1.000000 1.000000 1.000000 1.000000 1.000000 0.810792 0.810792 0.810792 0.810792 0.810792 0.810792 0.810792 0.785523 0.785523 0.785523 0.785523 0.785523 0.785523 0.785523 0.785523 0.785523 0.785523 0.785523 0.785523 0.785523 0.785523 0.785523 0.785523 0.785523 0.785523 0.785523 0.785523 0.785523 0.785523 0.785523 0.785523 0.785523 0.785523 0.785523 0.785523 0.785523 0.785523 0.785523 0.785523 0.785523 0.785523 0.785523 0.785523 0.785523 0.785523 0.785523 0.785523 0.785523 0.785523 0.785523 0.785523 0.933663 0.932828 0.934248 0.932666 0.934850 0.933610 0.932658 0.934018 0.932941 0.930726 0.930885 0.931371 0.932617 0.932756 0.937813 0.939144 0.947915 0.952018 0.952968 0.952713 0.951335 0.964006 0.962010 0.960263 0.957813 0.958756 0.959678 0.960398 0.959313 0.958666 0.960247 0.961017 0.959542 0.957716 0.956990 0.956273 0.955607 0.955379 0.955670 0.955727 0.955510 0.956297 0.957031 0.956138 0.958204 0.957013 0.956874 0.953193 0.951544 0.952935 0.951085 0.951481 0.948316 0.944466 0.943875 0.943720 0.943276 0.944349 0.945349 0.946023 0.946578 0.947112 0.947236 0.947098 0.947550 0.944771 0.937759 0.934546 0.932237 0.933316 0.935997 0.938573 0.936612 0.932732 0.932840 0.928261 0.926174 0.913318 0.902006 0.899077 0.895222 0.897150 0.899654 0.898532 0.895964 0.894686 0.894761 0.893403 0.897190 0.897861 0.889807 0.880004 0.878456 0.873867 0.876227 0.880923 0.882500 0.886348 0.881105 0.868685 0.863927 0.864914 0.867091 0.874241 0.868801 0.865234 0.860728 0.857657 0.849189 0.841257 0.839375 0.840729 0.842579 0.842537 0.846463 0.835827 0.804839 0.804255 0.799948 0.798742 0.809099 0.817982 0.819775 0.811961 0.789104 0.778432 0.762370 0.763085 0.766307 0.757843 0.761474 0.743113 0.743014 0.717809 0.718821 0.715402 0.709591 0.714572 0.708556 0.712612 0.714365 0.716720 0.716888 0.700558 0.694235 0.659025 0.664128 0.601608 0.609791 0.609549 0.588332 0.572296 0.549652 0.564688 0.573198 0.575665 0.553508 0.545947 0.522601 0.507284 0.507551 0.510738 0.511089 0.513871 0.506976 0.497321 0.492154 0.510397 0.521389 0.505107 0.506043 0.521914 0.518536 0.510551 0.494593 0.484352 0.501335 0.519621 0.526761 0.526116 0.532362 0.502335 0.471179 0.496380 0.511691 0.512473 0.501897 0.488405 0.482818 0.501918 0.476662 0.496471 0.487719 0.497337 0.470812 0.415129 0.371512 0.315526 0.324116 0.322613 0.320050 0.312876 0.316186 0.331679 0.334031 0.340376 0.338386 0.365842 0.405509 0.348924 0.358746 0.359423 0.358214 0.359594 0.358296 0.339366 0.348748 0.371049 0.375272 0.322594 0.309826 0.277176 0.267523 0.277985 0.292039 0.309177 0.296413 0.278430 0.153824 0.178600 0.197550 0.197550 0.197550 0.197550 0.197550 0.197550 0.197550 0.197550 0.197550 0.197550 0.197550 0.143251 0.143251 0.143251 0.143251 0.143251 0.143251 0.143251 0.143251 0.143251 0.143251 0.143251 0.143251 0.143251 0.143251 0.143251 0.143251 0.143251 0.143251 0.143251
0.000000 0.000000 0.000000 0.000000 0.000000 0.000000 0.000000 0.000000 0.000000 0.000000 0.000000 0.000000 0.000000 0.000000 0.000000 0.000000 0.000000 0.000000 0.000000 0.000000 0.000000 0.000000 0.000000 0.000000 0.000000 0.000000 0.000000 0.000000 0.000000 0.000000 0.000000 0.000000 0.000000 0.000000 0.000000 0.000000 0.000000 0.000000 0.000000 0.000000 0.000000 0.000000 0.000000 0.000000 0.000000 0.000000 0.000000 0.000000 0.000000 0.000000 0.000000 0.000000 0.173422 0.173422 0.173422 0.173422 0.173422 0.173422 0.173422 0.191565 0.191565 0.191565 0.191565 0.191565 0.191565 0.191565 0.191565 0.191565 0.191565 0.191565 0.191565 0.191565 0.191565 0.191565 0.191565 0.191565 0.191565 0.191565 0.191565 0.191565 0.191565 0.191565 0.191565 0.191565 0.191565 0.191565 0.191565 0.191565 0.191565 0.191565 0.191565 0.191565 0.191565 0.191565 0.191565 0.191565 0.191565 0.191565 0.191565 0.191565 0.191565 0.191565 0.191565 0.222222 0.222222 0.222222 0.222222 0.222222 0.222222 0.222222 0.222222 0.222222 0.222222 0.222222 0.222222 0.222222 0.222222 0.222222 0.222222 0.222222 0.222222 0.222222 0.222222 0.222222 0.222222 0.222222 0.222222 0.222222 0.222222 0.222222 0.222222 0.222222 0.222222 0.234082 0.234082 0.234082 0.234082 0.234082 0.234082 0.234082 0.234082 0.234082 0.234082 0.234082 0.234082 0.234082 0.234082 0.234082 0.234082 0.234082 0.234082 0.234082 0.234082 0.234082 0.234082 0.234082 0.234082 0.234082 0.244339 0.244339 0.244339 0.244339 0.244339 0.244339 0.244339 0.244339 0.244339 0.244339 0.244339 0.244339 0.244339 0.244339 0.244339 0.244339 0.244339 0.244339 0.244339 0.244339 0.244339 0.248069 0.248069 0.248069 0.248069 0.248069 0.248069 0.248069 0.248069 0.248069 0.248069 0.248069 0.248069 0.248069 0.248069 0.248069 0.248069 0.248069 0.248069 0.248069 0.248069 0.248069 0.248069 0.248069 0.248069 0.248069 0.248069 0.248069 0.248069 0.248069 0.248069 0.248069 0.248069 0.248069 0.248069 0.248069 0.248069 0.248069 0.256074 0.256074 0.256074 0.256074 0.256074 0.256074 0.256074 0.256074 0.256074 0.256074 0.256074 0.256074 0.256074 0.256074 0.256074 0.256074 0.256074 0.256074 0.256074 0.256074 0.256074 0.256074 0.256074 0.256074 0.256074 0.256074 0.256074 0.256074 0.256074 0.256074 0.256074 0.256074 0.256074 0.256074 0.256074 0.256074 0.256074 0.256074 0.256074 0.256074 0.256074 0.256074 0.256074 0.256074 0.256074 0.260378 0.260378 0.260378 0.260378 0.260378 0.260378 0.260378 0.260378 0.260378 0.260378 0.260378 0.260378 0.260378 0.256074 0.256074 0.256074 0.256074 0.256074 0.256074 0.256074 0.256074 0.256074 0.256074 0.256074 0.256074 0.256074 0.260378 0.260378 0.260378 0.260378 0.260378 0.260378 0.260378 0.260378 0.260378 0.260378 0.260378 0.260378 0.251976 0.251976 0.251976 0.251976 0.251976 0.251976 0.251976 0.251976 0.251976 0.251976 0.251976 0.251976 0.256074 0.256074 0.256074 0.256074 0.256074 0.256074 0.256074 0.256074 0.256074 0.256074 0.256074 0.251976 0.251976 0.251976 0.251976 0.251976 0.251976 0.251976 0.251976 0.251976 0.251976 0.251976 0.248069 0.248069 0.248069 0.248069 0.248069 0.248069 0.248069 0.248069 0.248069 0.248069 0.248069 0.256074 0.256074 0.256074 0.256074 0.256074 0.256074 0.256074 0.256074 0.256074 0.256074 0.256074 0.256074 0.256074 0.256074 0.256074 0.256074 0.256074 0.256074 0.256074
