# Output from CTFFind version 4.1.9, run on 2019-11-03 19:00:11
# Input file: stack1_bm3d_averaged_1_2.25_0_250_half.mrc ; Number of micrographs: 1
# Pixel size: 3.000 Angstroms ; acceleration voltage: 300.0 keV ; spherical aberration: 0.00 mm ; amplitude contrast: 0.07
# Box size: 512 pixels ; min. res.: 30.0 Angstroms ; max. res.: 5.0 Angstroms ; min. def.: 5000.0 um; max. def. 50000.0 um; num. frames averaged: 1
# 6 lines per micrograph: #1 - spatial frequency (1/Angstroms); #2 - 1D rotational average of spectrum (assuming no astigmatism); #3 - 1D rotational average of spectrum; #4 - CTF fit; #5 - cross-correlation between spectrum and CTF fit; #6 - 2sigma of expected cross correlation of noise
0.000000 0.000651 0.001302 0.001953 0.002604 0.003255 0.003906 0.004557 0.005208 0.005859 0.006510 0.007161 0.007812 0.008464 0.009115 0.009766 0.010417 0.011068 0.011719 0.012370 0.013021 0.013672 0.014323 0.014974 0.015625 0.016276 0.016927 0.017578 0.018229 0.018880 0.019531 0.020182 0.020833 0.021484 0.022135 0.022786 0.023438 0.024089 0.024740 0.025391 0.026042 0.026693 0.027344 0.027995 0.028646 0.029297 0.029948 0.030599 0.031250 0.031901 0.032552 0.033203 0.033854 0.034505 0.035156 0.035807 0.036458 0.037109 0.037760 0.038411 0.039062 0.039714 0.040365 0.041016 0.041667 0.042318 0.042969 0.043620 0.044271 0.044922 0.045573 0.046224 0.046875 0.047526 0.048177 0.048828 0.049479 0.050130 0.050781 0.051432 0.052083 0.052734 0.053385 0.054036 0.054688 0.055339 0.055990 0.056641 0.057292 0.057943 0.058594 0.059245 0.059896 0.060547 0.061198 0.061849 0.062500 0.063151 0.063802 0.064453 0.065104 0.065755 0.066406 0.067057 0.067708 0.068359 0.069010 0.069661 0.070312 0.070964 0.071615 0.072266 0.072917 0.073568 0.074219 0.074870 0.075521 0.076172 0.076823 0.077474 0.078125 0.078776 0.079427 0.080078 0.080729 0.081380 0.082031 0.082682 0.083333 0.083984 0.084635 0.085286 0.085938 0.086589 0.087240 0.087891 0.088542 0.089193 0.089844 0.090495 0.091146 0.091797 0.092448 0.093099 0.093750 0.094401 0.095052 0.095703 0.096354 0.097005 0.097656 0.098307 0.098958 0.099609 0.100260 0.100911 0.101562 0.102214 0.102865 0.103516 0.104167 0.104818 0.105469 0.106120 0.106771 0.107422 0.108073 0.108724 0.109375 0.110026 0.110677 0.111328 0.111979 0.112630 0.113281 0.113932 0.114583 0.115234 0.115885 0.116536 0.117188 0.117839 0.118490 0.119141 0.119792 0.120443 0.121094 0.121745 0.122396 0.123047 0.123698 0.124349 0.125000 0.125651 0.126302 0.126953 0.127604 0.128255 0.128906 0.129557 0.130208 0.130859 0.131510 0.132161 0.132812 0.133464 0.134115 0.134766 0.135417 0.136068 0.136719 0.137370 0.138021 0.138672 0.139323 0.139974 0.140625 0.141276 0.141927 0.142578 0.143229 0.143880 0.144531 0.145182 0.145833 0.146484 0.147135 0.147786 0.148438 0.149089 0.149740 0.150391 0.151042 0.151693 0.152344 0.152995 0.153646 0.154297 0.154948 0.155599 0.156250 0.156901 0.157552 0.158203 0.158854 0.159505 0.160156 0.160807 0.161458 0.162109 0.162760 0.163411 0.164062 0.164714 0.165365 0.166016 0.166667 0.167318 0.167969 0.168620 0.169271 0.169922 0.170573 0.171224 0.171875 0.172526 0.173177 0.173828 0.174479 0.175130 0.175781 0.176432 0.177083 0.177734 0.178385 0.179036 0.179688 0.180339 0.180990 0.181641 0.182292 0.182943 0.183594 0.184245 0.184896 0.185547 0.186198 0.186849 0.187500 0.188151 0.188802 0.189453 0.190104 0.190755 0.191406 0.192057 0.192708 0.193359 0.194010 0.194661 0.195312 0.195964 0.196615 0.197266 0.197917 0.198568 0.199219 0.199870 0.200521 0.201172 0.201823 0.202474 0.203125 0.203776 0.204427 0.205078 0.205729 0.206380 0.207031 0.207682 0.208333 0.208984 0.209635 0.210286 0.210938 0.211589 0.212240 0.212891 0.213542 0.214193 0.214844 0.215495 0.216146 0.216797 0.217448 0.218099 0.218750 0.219401 0.220052 0.220703 0.221354 0.222005 0.222656 0.223307 0.223958 0.224609 0.225260 0.225911 0.226562 0.227214 0.227865 0.228516 0.229167 0.229818 0.230469 0.231120 0.231771 0.232422 0.233073 0.233724 0.234375 0.235026 0.235677
       0.33785        0.33785        0.33786        0.33785        0.33785        0.33786        0.33786        0.33786        0.33785        0.33785        0.33786        0.33786        0.33785        0.33785        0.33786        0.33785        0.33785        0.33785        0.33786        0.33786        0.33785        0.33785        0.33785        0.33786        0.33786        0.33786        0.33785        0.33786        0.33786        0.33786        0.33785        0.33785        0.33786        0.33786        0.33785        0.33785        0.33786        0.33786        0.33786        0.33785        0.33786        0.33786        0.33786        0.33785        0.33785        0.33786        0.33786        0.33786        0.33786        0.33786        0.33785        0.49838        0.71413        0.43282        0.20696       -0.05506       -0.24265       -0.06145       -0.10567       -0.05993        0.00552       -0.13757       -0.08981       -0.04910       -0.02238       -0.13634       -0.17522       -0.30483       -0.46488       -0.57053       -0.50179       -0.44907       -0.37416       -0.57098       -0.43871       -0.58818       -0.48923       -0.48085       -0.38526       -0.35565       -0.31460       -0.24065       -0.15353       -0.13143        0.01139       -0.01043        0.13256        0.19180        0.32708        0.43159        0.49342        0.55426        0.56451        0.58331        0.68294        0.64123        0.67808        0.59919        0.55301        0.63833        0.49786        0.43189        0.40028        0.31282        0.26150        0.28543        0.26579        0.09835        0.07370       -0.00864        0.00568        0.04672       -0.00916        0.08269        0.12604        0.21391        0.29294        0.29383        0.41972        0.58149        0.55773        0.57311        0.65749        0.67392        0.62357        0.67710        0.64261        0.56024        0.57333        0.41333        0.34256        0.26259        0.16842        0.09614        0.14550        0.11175        0.11701        0.12408        0.21009        0.21551        0.31426        0.35219        0.42251        0.50382        0.53238        0.55053        0.55988        0.60292        0.53569        0.47128        0.47662        0.33847        0.26152        0.26358        0.24137        0.15239        0.14949        0.17374        0.22162        0.25555        0.35834        0.40087        0.41603        0.45254        0.46048        0.49467        0.45103        0.48450        0.44274        0.38503        0.35869        0.35183        0.33214        0.29847        0.19774        0.19762        0.21847        0.28731        0.28178        0.36577        0.39858        0.36254        0.40498        0.45720        0.45121        0.44452        0.45102        0.37755        0.35017        0.29053        0.25856        0.28888        0.26901        0.30950        0.32081        0.35209        0.34376        0.39835        0.40827        0.44523        0.39273        0.45158        0.39217        0.35369        0.30687        0.28667        0.29436        0.27202        0.27285        0.33275        0.34794        0.34442        0.35807        0.35850        0.35608        0.43537        0.40184        0.36812        0.35132        0.30162        0.29429        0.32595        0.33484        0.32449        0.28931        0.32599        0.34857        0.38393        0.34186        0.33401        0.33845        0.35722        0.33081        0.29684        0.32443        0.31784        0.34645        0.33938        0.33787        0.37413        0.31862        0.32466        0.33684        0.31201        0.28986        0.27036        0.26517        0.31457        0.34030        0.35566        0.28987        0.31172        0.34850        0.30467        0.32204        0.28255        0.28769        0.28991        0.28371        0.29268        0.34401        0.32984        0.34633        0.33261        0.33908        0.33871        0.31993        0.33073        0.31723        0.25961        0.26434        0.32964        0.29088        0.30821        0.34705        0.32739        0.33965        0.34514        0.31701        0.28370        0.26966        0.27854        0.35342        0.36094        0.34249        0.30684        0.30935        0.31025        0.30932        0.27712        0.31269        0.31508        0.34107        0.32310        0.28190        0.27841        0.34437        0.32285        0.33056        0.29429        0.28858        0.32917        0.38828        0.32944        0.31417        0.33317        0.30263        0.30752        0.30067        0.29831        0.31453        0.23921        0.29039        0.32339        0.32368        0.32053        0.27778        0.27397        0.22818        0.22588        0.28854        0.30842        0.28494        0.27320        0.28544        0.36034        0.28442        0.21702        0.27934        0.25891        0.25048        0.27722        0.38902        0.27643        0.28373        0.28446        0.23925        0.29354        0.28340        0.24454        0.18492        0.26049        0.24359        0.22994        0.28931        0.27167        0.38203        0.36269        0.27863        0.24871        0.20022        0.27764        0.31283        0.22649        0.13746        0.19286        0.27589        0.22799        0.23645        0.14279        0.03715       -0.51153       -0.80550
2.656088 2.628264 2.600589 2.573063 2.545686 2.518458 2.491380 2.464451 2.437671 2.411040 2.384559 2.358226 2.332043 2.306009 2.280125 2.254389 2.228803 2.203366 2.178078 2.152939 2.127950 2.103110 2.078419 2.053877 2.029484 2.005241 1.981147 1.957201 1.933406 1.909759 1.886262 1.862914 1.839715 1.816665 1.793764 1.771013 1.748411 1.725958 1.703654 1.681499 1.659494 1.637638 1.615931 1.594373 1.572965 1.551705 1.530595 1.509634 1.488823 1.468160 1.447647 1.500730 1.814943 1.512600 1.190433 0.953822 0.559273 0.906259 0.668607 0.859193 0.910529 0.611741 0.700986 0.782973 0.786627 0.632345 0.585569 0.407909 0.113347 0.056988 0.064748 0.085131 0.306209 -0.047620 0.067598 -0.080243 0.007681 -0.020640 0.094321 0.086533 0.149669 0.183557 0.294923 0.270161 0.466280 0.375102 0.567809 0.564982 0.782997 0.814997 0.902222 0.997245 0.957676 0.985342 1.099387 0.949116 1.131160 0.943255 0.875828 0.983518 0.820573 0.744877 0.655015 0.562612 0.504287 0.465998 0.516625 0.270296 0.196295 0.157429 0.026646 0.232481 0.002304 0.130157 0.219120 0.261557 0.325973 0.361126 0.465329 0.576966 0.703232 0.543438 0.713562 0.853301 0.619967 0.745694 0.687178 0.625106 0.531725 0.497569 0.300665 0.228919 0.102024 -0.005004 0.009605 0.037541 -0.049262 -0.036176 0.091408 0.048074 0.120844 0.223994 0.247703 0.369886 0.400682 0.425354 0.464144 0.455246 0.461383 0.321155 0.345944 0.237529 0.086183 0.063994 0.042120 -0.042595 -0.080534 -0.074980 0.009590 -0.043471 0.100280 0.181815 0.176815 0.242866 0.249109 0.258995 0.323598 0.241856 0.268462 0.208243 0.150472 0.110539 0.128162 0.061024 0.018253 -0.116403 -0.031111 0.020456 0.052970 0.023078 0.153152 0.117426 0.140007 0.179758 0.279821 0.181784 0.229997 0.121932 0.159642 0.048339 -0.010914 0.011716 0.003395 0.007482 0.025711 0.076879 0.068981 0.080006 0.154687 0.164113 0.136492 0.092080 0.188903 0.067771 0.036818 -0.019179 -0.027657 -0.024815 -0.048207 -0.031716 0.052977 0.059116 0.024554 0.059836 0.074323 0.077176 0.182431 0.074659 0.083128 0.056249 -0.036151 0.027712 0.032231 0.036508 0.029442 0.007526 0.030054 0.060548 0.080880 0.042994 0.051232 0.021374 0.084247 0.019705 -0.006057 0.041475 0.009119 0.087215 0.053828 0.051318 0.088894 0.020353 0.031852 0.044702 0.021695 -0.014131 -0.021969 -0.023882 0.028526 0.063830 0.088288 -0.012258 0.060102 0.096289 0.008166 0.065798 0.018235 0.029908 0.024296 0.035179 0.050962 0.104589 0.053061 0.114011 0.076132 0.111994 0.076106 0.095306 0.097322 0.027130 -0.005289 0.022891 0.075506 0.048682 0.060521 0.107485 0.002197 0.088585 0.063495 0.016801 0.024223 -0.057665 0.020579 0.111619 0.079040 0.051326 0.041585 -0.004272 0.037096 0.030943 -0.033778 0.061771 0.032155 0.084931 0.048670 -0.036152 -0.004821 0.076765 0.021836 0.001272 -0.003740 -0.024906 0.070602 0.098344 0.015841 -0.018240 0.058623 -0.007723 -0.015212 -0.018563 -0.015602 0.006918 -0.103625 0.007019 0.005014 0.040323 -0.005148 0.002815 -0.025145 -0.071974 -0.029708 -0.021020 0.054081 -0.018563 0.016575 0.005632 0.139940 -0.024740 -0.065689 0.006636 -0.017513 0.013181 0.002346 0.183484 -0.028732 0.015528 0.083575 -0.045547 0.043154 0.059247 -0.036363 -0.126264 0.015277 0.026672 -0.027566 0.032286 0.003908 0.209569 0.114040 0.044738 0.024194 -0.034223 0.005847 0.102014 0.262723 0.158236 0.242640 0.301224 0.259957 0.281083 0.104280 0.050040 -0.935038
0.072396 0.072910 0.074451 0.077018 0.080612 0.085231 0.090875 0.097540 0.105226 0.113928 0.123644 0.134369 0.146098 0.158822 0.172536 0.187227 0.202886 0.219498 0.237048 0.255516 0.274882 0.295122 0.316207 0.338107 0.360786 0.384205 0.408320 0.433081 0.458436 0.484324 0.510681 0.537435 0.564510 0.591820 0.619277 0.646782 0.674232 0.701515 0.728512 0.755098 0.781140 0.806499 0.831028 0.854574 0.876978 0.898075 0.917695 0.935664 0.951804 0.965932 0.977866 0.987422 0.994416 0.998667 0.999994 0.998225 0.993191 0.984733 0.972703 0.956963 0.937392 0.913882 0.886349 0.854726 0.818971 0.779068 0.735029 0.686898 0.634750 0.578694 0.518879 0.455489 0.388749 0.318926 0.246327 0.171301 0.094242 0.015584 0.064199 0.144593 0.225045 0.304971 0.383752 0.460745 0.535283 0.606682 0.674250 0.737288 0.795102 0.847009 0.892349 0.930487 0.960832 0.982839 0.996023 0.999967 0.994336 0.978880 0.953451 0.918006 0.872616 0.817476 0.752906 0.679358 0.597419 0.507809 0.411383 0.309124 0.202140 0.091654 0.021005 0.134417 0.247089 0.357467 0.463963 0.564975 0.658913 0.744224 0.819422 0.883115 0.934036 0.971070 0.993282 0.999948 0.990574 0.964921 0.923026 0.865213 0.792102 0.704618 0.603987 0.491729 0.369642 0.239785 0.104443 0.033900 0.172607 0.308938 0.440097 0.563294 0.675806 0.775040 0.858598 0.924343 0.970457 0.995506 0.998486 0.978870 0.936647 0.872341 0.787030 0.682340 0.560433 0.423972 0.276083 0.120284 0.039586 0.199450 0.355106 0.502327 0.636984 0.755162 0.853285 0.928233 0.977454 0.999062 0.991926 0.955731 0.891027 0.799247 0.682699 0.544529 0.388659 0.219688 0.042770 0.136531 0.312412 0.479014 0.630630 0.761889 0.867979 0.944819 0.989243 0.999152 0.973623 0.912994 0.818901 0.694260 0.543213 0.371010 0.183852 0.011318 0.207062 0.395721 0.569720 0.721874 0.845703 0.935716 0.987688 0.998878 0.968197 0.896320 0.785713 0.640588 0.466785 0.271554 0.063294 0.148813 0.355175 0.546235 0.712922 0.847087 0.941930 0.992374 0.995364 0.950089 0.858094 0.723282 0.551791 0.351756 0.132959 0.093632 0.316391 0.523630 0.704218 0.848193 0.947344 0.995711 0.989980 0.929758 0.817674 0.659337 0.463093 0.239643 0.001484 0.237760 0.464114 0.664062 0.825378 0.937903 0.994220 0.990194 0.925322 0.802873 0.629791 0.416362 0.175650 0.077262 0.326192 0.554894 0.748125 0.892680 0.978345 0.998669 0.951502 0.839270 0.668926 0.451599 0.201926 0.062900 0.324267 0.563456 0.762983 0.907923 0.987055 0.993805 0.926858 0.790392 0.593913 0.351664 0.081662 0.195604 0.458697 0.686899 0.861862 0.969129 0.999400 0.949406 0.822335 0.627733 0.380874 0.101641 0.187030 0.461005 0.696955 0.874395 0.977500 0.996593 0.929142 0.780160 0.561938 0.293129 0.002757 0.299383 0.569880 0.789323 0.937050 0.998684 0.967630 0.845874 0.643991 0.380354 0.079536 0.229890 0.518061 0.756685 0.921880 0.996625 0.972619 0.851310 0.643972 0.370786 0.058962 0.259874 0.552874 0.789352 0.944060 0.999949 0.950181 0.799071 0.561875 0.263382 0.064586 0.386486 0.666897 0.874442 0.985375 0.986406 0.876424 0.666883 0.380763 0.050173 0.287163 0.592175 0.828975 0.969165 0.995338 0.903381 0.703245 0.418034 0.081493 0.265906 0.581768 0.826967 0.970551 0.993784 0.892725 0.679037 0.378812 0.029538 0.324473 0.637682 0.869180 0.988140 0.978041 0.839136 0.588751 0.259312 0.105732 0.457517 0.748304 0.938006 0.999831
1.000000 1.000000 1.000000 1.000000 1.000000 1.000000 1.000000 1.000000 1.000000 1.000000 1.000000 1.000000 1.000000 1.000000 1.000000 1.000000 1.000000 1.000000 1.000000 1.000000 1.000000 1.000000 1.000000 1.000000 1.000000 1.000000 1.000000 1.000000 1.000000 1.000000 1.000000 1.000000 1.000000 1.000000 1.000000 1.000000 1.000000 1.000000 1.000000 1.000000 1.000000 1.000000 1.000000 1.000000 1.000000 1.000000 1.000000 1.000000 1.000000 1.000000 1.000000 1.000000 0.916610 0.916610 0.905827 0.905827 0.905827 0.905827 0.905827 0.905827 0.905827 0.905827 0.905827 0.905827 0.905827 0.905827 0.905827 0.905827 0.905827 0.905827 0.905827 0.905827 0.905827 0.905827 0.905827 0.905827 0.905827 0.905827 0.905827 0.905827 0.905827 0.905827 0.905827 0.905827 0.905827 0.905827 0.905827 0.905827 0.905827 0.905827 0.905827 0.905827 0.905827 0.905827 0.905827 0.901847 0.906430 0.908595 0.906878 0.910469 0.910556 0.908266 0.907856 0.907465 0.907754 0.908745 0.919308 0.933905 0.941452 0.942857 0.946309 0.953264 0.955485 0.955150 0.961417 0.966217 0.964771 0.964299 0.965038 0.966690 0.968963 0.967525 0.967342 0.969824 0.970594 0.968923 0.966850 0.966192 0.964614 0.964036 0.963774 0.963854 0.964163 0.964667 0.964375 0.964182 0.964328 0.964360 0.962685 0.962761 0.965168 0.966389 0.966197 0.964792 0.962328 0.963529 0.966563 0.963394 0.963372 0.962950 0.963333 0.946504 0.936243 0.936406 0.930983 0.929799 0.926723 0.924961 0.923688 0.924446 0.927023 0.928313 0.923888 0.914020 0.905201 0.887203 0.908121 0.902091 0.883261 0.862049 0.860838 0.862042 0.860121 0.852913 0.845046 0.840712 0.837996 0.839833 0.844676 0.849757 0.847974 0.839167 0.837240 0.830805 0.806950 0.787229 0.772173 0.771789 0.769053 0.770366 0.771953 0.767785 0.775460 0.766298 0.760485 0.753885 0.742101 0.719017 0.699036 0.706154 0.714146 0.720153 0.716653 0.699766 0.650988 0.655033 0.678499 0.674215 0.675739 0.657078 0.651736 0.655752 0.663427 0.644739 0.639346 0.639610 0.639575 0.648621 0.656986 0.659449 0.643340 0.621461 0.610996 0.579600 0.589643 0.608788 0.575498 0.568837 0.547979 0.542706 0.550476 0.553972 0.551284 0.533308 0.522193 0.516282 0.511360 0.515117 0.520028 0.521795 0.511480 0.531878 0.543729 0.570016 0.569023 0.557485 0.558654 0.562131 0.551812 0.530233 0.535045 0.535651 0.539733 0.560678 0.571784 0.563038 0.558116 0.546575 0.550518 0.518647 0.520436 0.547265 0.535933 0.478763 0.462566 0.465786 0.418487 0.414929 0.369406 0.361320 0.376382 0.360033 0.343784 0.330036 0.317003 0.240022 0.198721 0.182265 0.193094 0.197306 0.227317 0.220112 0.201405 0.223337 0.265024 0.252965 0.242450 0.265117 0.246462 0.200036 0.177238 0.177793 0.131387 0.140848 0.123062 0.111520 0.104029 0.072092 0.079395 0.000063 -0.047454 -0.039918 -0.021480 -0.002358 -0.005912 0.002337 -0.034232 -0.030221 -0.001720 0.001782 -0.012946 -0.052540 -0.022753 -0.009371 -0.006371 -0.037440 -0.058616 -0.056235 -0.062212 -0.064524 -0.052284 -0.027159 0.017812 0.020261 0.019807 0.062001 0.048249 0.037520 0.029915 0.034465 0.032418 0.000366 0.002528 -0.035884 -0.067968 -0.067968 -0.072040 -0.072040 -0.072040 -0.072040 -0.072040 -0.072040 -0.072040 -0.072040 -0.072040 -0.079769 -0.079769 -0.079769 -0.079769 -0.079769 -0.079769 -0.079769 -0.079769 -0.079769 -0.037614 -0.037614 -0.037614 -0.037614 -0.037614 -0.037614 -0.037614 -0.037614 -0.037614
0.000000 0.000000 0.000000 0.000000 0.000000 0.000000 0.000000 0.000000 0.000000 0.000000 0.000000 0.000000 0.000000 0.000000 0.000000 0.000000 0.000000 0.000000 0.000000 0.000000 0.000000 0.000000 0.000000 0.000000 0.000000 0.000000 0.000000 0.000000 0.000000 0.000000 0.000000 0.000000 0.000000 0.000000 0.000000 0.000000 0.000000 0.000000 0.000000 0.000000 0.000000 0.000000 0.000000 0.000000 0.000000 0.000000 0.000000 0.000000 0.000000 0.000000 0.000000 0.000000 0.181818 0.181818 0.199007 0.199007 0.199007 0.199007 0.199007 0.199007 0.199007 0.199007 0.199007 0.199007 0.199007 0.199007 0.199007 0.199007 0.199007 0.199007 0.199007 0.199007 0.199007 0.199007 0.199007 0.199007 0.199007 0.199007 0.199007 0.199007 0.199007 0.199007 0.199007 0.199007 0.199007 0.199007 0.199007 0.199007 0.199007 0.199007 0.199007 0.199007 0.199007 0.199007 0.199007 0.230940 0.230940 0.230940 0.230940 0.230940 0.230940 0.230940 0.230940 0.230940 0.230940 0.230940 0.230940 0.230940 0.230940 0.230940 0.230940 0.230940 0.230940 0.230940 0.230940 0.230940 0.230940 0.230940 0.230940 0.230940 0.230940 0.230940 0.230940 0.244339 0.244339 0.244339 0.244339 0.244339 0.244339 0.244339 0.244339 0.244339 0.244339 0.244339 0.244339 0.244339 0.244339 0.244339 0.244339 0.244339 0.244339 0.244339 0.244339 0.244339 0.244339 0.244339 0.251976 0.251976 0.251976 0.251976 0.251976 0.251976 0.251976 0.251976 0.251976 0.251976 0.251976 0.251976 0.251976 0.251976 0.251976 0.251976 0.251976 0.251976 0.251976 0.251976 0.264906 0.264906 0.264906 0.264906 0.264906 0.264906 0.264906 0.264906 0.264906 0.264906 0.264906 0.264906 0.264906 0.264906 0.264906 0.264906 0.264906 0.264906 0.264906 0.264906 0.264906 0.264906 0.264906 0.264906 0.264906 0.264906 0.264906 0.264906 0.264906 0.264906 0.264906 0.264906 0.264906 0.264906 0.264906 0.264906 0.264906 0.264906 0.264906 0.264906 0.264906 0.264906 0.264906 0.264906 0.264906 0.264906 0.264906 0.264906 0.264906 0.264906 0.264906 0.264906 0.264906 0.264906 0.264906 0.264906 0.264906 0.264906 0.264906 0.264906 0.264906 0.264906 0.264906 0.264906 0.264906 0.264906 0.264906 0.264906 0.264906 0.264906 0.264906 0.264906 0.264906 0.264906 0.264906 0.269680 0.269680 0.269680 0.269680 0.269680 0.269680 0.269680 0.269680 0.269680 0.269680 0.269680 0.269680 0.264906 0.264906 0.264906 0.264906 0.264906 0.264906 0.264906 0.264906 0.264906 0.264906 0.264906 0.264906 0.269680 0.269680 0.269680 0.269680 0.269680 0.269680 0.269680 0.269680 0.269680 0.269680 0.269680 0.264906 0.264906 0.264906 0.264906 0.264906 0.264906 0.264906 0.264906 0.264906 0.264906 0.264906 0.256074 0.256074 0.256074 0.256074 0.256074 0.256074 0.256074 0.256074 0.256074 0.256074 0.256074 0.264906 0.264906 0.264906 0.264906 0.264906 0.264906 0.264906 0.264906 0.264906 0.264906 0.260378 0.260378 0.260378 0.260378 0.260378 0.260378 0.260378 0.260378 0.260378 0.260378 0.264906 0.264906 0.264906 0.264906 0.264906 0.264906 0.264906 0.264906 0.264906 0.260378 0.260378 0.260378 0.260378 0.260378 0.260378 0.260378 0.260378 0.260378 0.256074 0.256074 0.256074 0.256074 0.256074 0.256074 0.256074 0.256074 0.256074 0.251976 0.251976 0.251976 0.251976 0.251976 0.251976 0.251976 0.251976 0.251976 0.264906 0.264906 0.264906 0.264906 0.264906 0.264906 0.264906 0.264906 0.264906
