# Output from CTFFind version 4.1.9, run on 2019-11-02 17:58:26
# Input file: stack1_bm3d_averaged_1_1.75_0_1500_half.mrc ; Number of micrographs: 1
# Pixel size: 3.000 Angstroms ; acceleration voltage: 300.0 keV ; spherical aberration: 0.00 mm ; amplitude contrast: 0.07
# Box size: 512 pixels ; min. res.: 30.0 Angstroms ; max. res.: 5.0 Angstroms ; min. def.: 5000.0 um; max. def. 50000.0 um; num. frames averaged: 1
# 6 lines per micrograph: #1 - spatial frequency (1/Angstroms); #2 - 1D rotational average of spectrum (assuming no astigmatism); #3 - 1D rotational average of spectrum; #4 - CTF fit; #5 - cross-correlation between spectrum and CTF fit; #6 - 2sigma of expected cross correlation of noise
0.000000 0.000651 0.001302 0.001953 0.002604 0.003255 0.003906 0.004557 0.005208 0.005859 0.006510 0.007161 0.007812 0.008464 0.009115 0.009766 0.010417 0.011068 0.011719 0.012370 0.013021 0.013672 0.014323 0.014974 0.015625 0.016276 0.016927 0.017578 0.018229 0.018880 0.019531 0.020182 0.020833 0.021484 0.022135 0.022786 0.023438 0.024089 0.024740 0.025391 0.026042 0.026693 0.027344 0.027995 0.028646 0.029297 0.029948 0.030599 0.031250 0.031901 0.032552 0.033203 0.033854 0.034505 0.035156 0.035807 0.036458 0.037109 0.037760 0.038411 0.039062 0.039714 0.040365 0.041016 0.041667 0.042318 0.042969 0.043620 0.044271 0.044922 0.045573 0.046224 0.046875 0.047526 0.048177 0.048828 0.049479 0.050130 0.050781 0.051432 0.052083 0.052734 0.053385 0.054036 0.054688 0.055339 0.055990 0.056641 0.057292 0.057943 0.058594 0.059245 0.059896 0.060547 0.061198 0.061849 0.062500 0.063151 0.063802 0.064453 0.065104 0.065755 0.066406 0.067057 0.067708 0.068359 0.069010 0.069661 0.070312 0.070964 0.071615 0.072266 0.072917 0.073568 0.074219 0.074870 0.075521 0.076172 0.076823 0.077474 0.078125 0.078776 0.079427 0.080078 0.080729 0.081380 0.082031 0.082682 0.083333 0.083984 0.084635 0.085286 0.085938 0.086589 0.087240 0.087891 0.088542 0.089193 0.089844 0.090495 0.091146 0.091797 0.092448 0.093099 0.093750 0.094401 0.095052 0.095703 0.096354 0.097005 0.097656 0.098307 0.098958 0.099609 0.100260 0.100911 0.101562 0.102214 0.102865 0.103516 0.104167 0.104818 0.105469 0.106120 0.106771 0.107422 0.108073 0.108724 0.109375 0.110026 0.110677 0.111328 0.111979 0.112630 0.113281 0.113932 0.114583 0.115234 0.115885 0.116536 0.117188 0.117839 0.118490 0.119141 0.119792 0.120443 0.121094 0.121745 0.122396 0.123047 0.123698 0.124349 0.125000 0.125651 0.126302 0.126953 0.127604 0.128255 0.128906 0.129557 0.130208 0.130859 0.131510 0.132161 0.132812 0.133464 0.134115 0.134766 0.135417 0.136068 0.136719 0.137370 0.138021 0.138672 0.139323 0.139974 0.140625 0.141276 0.141927 0.142578 0.143229 0.143880 0.144531 0.145182 0.145833 0.146484 0.147135 0.147786 0.148438 0.149089 0.149740 0.150391 0.151042 0.151693 0.152344 0.152995 0.153646 0.154297 0.154948 0.155599 0.156250 0.156901 0.157552 0.158203 0.158854 0.159505 0.160156 0.160807 0.161458 0.162109 0.162760 0.163411 0.164062 0.164714 0.165365 0.166016 0.166667 0.167318 0.167969 0.168620 0.169271 0.169922 0.170573 0.171224 0.171875 0.172526 0.173177 0.173828 0.174479 0.175130 0.175781 0.176432 0.177083 0.177734 0.178385 0.179036 0.179688 0.180339 0.180990 0.181641 0.182292 0.182943 0.183594 0.184245 0.184896 0.185547 0.186198 0.186849 0.187500 0.188151 0.188802 0.189453 0.190104 0.190755 0.191406 0.192057 0.192708 0.193359 0.194010 0.194661 0.195312 0.195964 0.196615 0.197266 0.197917 0.198568 0.199219 0.199870 0.200521 0.201172 0.201823 0.202474 0.203125 0.203776 0.204427 0.205078 0.205729 0.206380 0.207031 0.207682 0.208333 0.208984 0.209635 0.210286 0.210938 0.211589 0.212240 0.212891 0.213542 0.214193 0.214844 0.215495 0.216146 0.216797 0.217448 0.218099 0.218750 0.219401 0.220052 0.220703 0.221354 0.222005 0.222656 0.223307 0.223958 0.224609 0.225260 0.225911 0.226562 0.227214 0.227865 0.228516 0.229167 0.229818 0.230469 0.231120 0.231771 0.232422 0.233073 0.233724 0.234375 0.235026 0.235677
       0.33078        0.33078        0.33078        0.33078        0.33078        0.33078        0.33078        0.33078        0.33078        0.33078        0.33078        0.33078        0.33078        0.33078        0.33078        0.33078        0.33078        0.33078        0.33078        0.33078        0.33078        0.33078        0.33078        0.33078        0.33078        0.33078        0.33078        0.33078        0.33078        0.33078        0.33078        0.33078        0.33078        0.33078        0.33078        0.33078        0.33078        0.33078        0.33078        0.33078        0.33078        0.33078        0.33078        0.33078        0.33078        0.33078        0.33078        0.33078        0.33078        0.33078        0.33078        0.49866        0.71577        0.42236        0.19098       -0.07795       -0.26061       -0.06955       -0.13011       -0.06292       -0.00303       -0.15087       -0.10346       -0.04804       -0.00216       -0.15456       -0.22535       -0.34230       -0.46807       -0.57220       -0.52570       -0.45784       -0.37532       -0.55893       -0.45503       -0.62410       -0.50925       -0.47653       -0.39717       -0.38149       -0.33780       -0.24693       -0.16827       -0.14305        0.02736       -0.01769        0.11463        0.16840        0.30666        0.41434        0.46517        0.49782        0.54165        0.54993        0.69200        0.64370        0.67778        0.58732        0.55637        0.64971        0.52389        0.43153        0.39218        0.31147        0.23145        0.26084        0.25048        0.09781        0.08067       -0.00142       -0.01072        0.02914       -0.01366        0.06682        0.08717        0.22606        0.28207        0.29633        0.38903        0.56540        0.54031        0.57333        0.66714        0.69131        0.62771        0.63688        0.63599        0.54234        0.56804        0.39235        0.34988        0.26297        0.18342        0.07427        0.14156        0.11154        0.09962        0.11348        0.20321        0.19592        0.31223        0.35083        0.40963        0.48954        0.56610        0.54483        0.55451        0.60416        0.53438        0.46280        0.48030        0.32137        0.24770        0.25280        0.24290        0.13865        0.14183        0.14945        0.22076        0.25042        0.33286        0.37537        0.39744        0.45761        0.44447        0.47516        0.44314        0.47311        0.44362        0.39550        0.36914        0.36374        0.32259        0.28668        0.20691        0.20731        0.22468        0.26722        0.25746        0.34385        0.37534        0.35208        0.40900        0.45422        0.44363        0.42619        0.43823        0.35699        0.33076        0.28073        0.25581        0.28685        0.25860        0.28992        0.30026        0.34171        0.33044        0.39931        0.39090        0.42227        0.40626        0.44030        0.40498        0.36657        0.28015        0.28493        0.29284        0.27484        0.25885        0.33155        0.36452        0.33291        0.35912        0.36624        0.34650        0.40729        0.39657        0.36123        0.34086        0.30447        0.31032        0.31722        0.30777        0.30227        0.28686        0.33581        0.35551        0.36960        0.33665        0.33128        0.33204        0.35027        0.31011        0.28267        0.30848        0.31872        0.32652        0.32175        0.33285        0.35377        0.33026        0.31934        0.33529        0.30130        0.25750        0.24542        0.26425        0.30281        0.31946        0.35644        0.29439        0.30349        0.32655        0.29101        0.32020        0.29467        0.27708        0.28311        0.28915        0.30316        0.34322        0.31523        0.32400        0.32190        0.32883        0.33541        0.31411        0.31877        0.32055        0.27053        0.28979        0.30804        0.28313        0.31924        0.32337        0.33483        0.31770        0.35028        0.33169        0.28131        0.24033        0.27245        0.33218        0.35628        0.34963        0.31735        0.29279        0.30108        0.31419        0.25450        0.28771        0.29861        0.31661        0.29025        0.29145        0.26542        0.33003        0.33491        0.33500        0.31442        0.29732        0.30168        0.39037        0.33871        0.31798        0.30587        0.30674        0.28863        0.29513        0.29181        0.29597        0.22643        0.26764        0.30065        0.31355        0.29735        0.27251        0.27775        0.23048        0.22853        0.28074        0.31312        0.30271        0.30503        0.28785        0.33244        0.24826        0.22020        0.28238        0.24472        0.27056        0.27782        0.35418        0.26487        0.28986        0.27502        0.23003        0.26521        0.26273        0.23243        0.17298        0.22253        0.22675        0.24240        0.30286        0.27091        0.33979        0.31912        0.27724        0.26284        0.20538        0.25101        0.27061        0.21831        0.16131        0.21545        0.24022        0.20166        0.29299        0.24337        0.05159       -0.41747       -0.90336
2.630841 2.603250 2.575807 2.548511 2.521363 2.494362 2.467508 2.440801 2.414242 2.387830 2.361566 2.335449 2.309479 2.283656 2.257981 2.232453 2.207072 2.181839 2.156753 2.131815 2.107024 2.082380 2.057883 2.033534 2.009332 1.985277 1.961370 1.937610 1.913997 1.890532 1.867214 1.844043 1.821020 1.798144 1.775415 1.752834 1.730400 1.708113 1.685974 1.663982 1.642137 1.620440 1.598890 1.577487 1.556232 1.535124 1.514163 1.493350 1.472684 1.452165 1.431793 1.498479 1.802647 1.497454 1.142706 0.925665 0.532231 0.895704 0.627723 0.846771 0.907058 0.580023 0.681375 0.770285 0.811392 0.610368 0.522257 0.347971 0.093096 0.061039 0.033840 0.061214 0.292880 -0.045579 0.066890 -0.134397 -0.026334 -0.017061 0.066991 0.066142 0.103248 0.177328 0.274525 0.241307 0.471720 0.390876 0.538484 0.526199 0.765626 0.783214 0.873429 0.925431 0.925604 0.945940 1.080413 0.969278 1.133734 0.937807 0.848651 1.007500 0.840198 0.756914 0.631231 0.584261 0.458694 0.418001 0.505025 0.262009 0.200297 0.164300 0.012833 0.201500 -0.007718 0.119824 0.169153 0.255644 0.339537 0.344090 0.436134 0.546733 0.673815 0.536350 0.737227 0.855372 0.634836 0.702678 0.675466 0.584143 0.535333 0.461065 0.310923 0.215321 0.126611 -0.029156 -0.011543 0.053063 -0.075174 -0.049580 0.065091 0.046444 0.106333 0.220492 0.240739 0.316534 0.420686 0.435863 0.464490 0.464434 0.454553 0.327970 0.336731 0.246967 0.050716 0.066244 0.020968 -0.038196 -0.098056 -0.085772 -0.016810 -0.034247 0.085343 0.137037 0.145778 0.256729 0.221894 0.256152 0.280809 0.255302 0.246879 0.221798 0.154127 0.124777 0.124837 0.033237 0.022025 -0.104053 -0.035781 0.015946 -0.001545 0.019063 0.108400 0.079507 0.130130 0.201848 0.270634 0.166461 0.197238 0.109459 0.127996 0.028299 -0.036225 0.015600 -0.018175 0.001390 -0.004582 0.038013 0.068115 0.061567 0.146065 0.105346 0.158990 0.081290 0.157514 0.097856 -0.000365 -0.052400 -0.026814 -0.034621 -0.063435 -0.058776 0.064223 0.056112 -0.011301 0.070334 0.062800 0.065786 0.143117 0.066985 0.075020 0.049631 -0.022301 0.032289 -0.001188 0.008613 0.011486 0.000914 0.051702 0.055849 0.062856 0.036705 0.042193 0.012873 0.070048 -0.009912 -0.017429 0.021941 0.014067 0.048999 0.041205 0.039972 0.065820 0.035525 0.017757 0.039795 -0.008135 -0.057172 -0.043622 -0.025182 0.015238 0.031375 0.105606 -0.014273 0.050857 0.045198 0.006862 0.066316 0.031882 0.008167 0.035431 0.048594 0.046799 0.098228 0.046089 0.080846 0.070422 0.110242 0.066384 0.080149 0.091642 0.052967 -0.006077 0.062870 0.046562 0.039194 0.085471 0.094925 0.014746 0.065326 0.098622 0.038867 0.024161 -0.067871 0.004440 0.117672 0.089583 0.081788 0.052271 0.001726 0.050686 0.043820 -0.046041 0.048136 0.039330 0.063978 0.045659 -0.015187 -0.001065 0.061125 0.053311 0.025778 0.046781 -0.022201 0.062988 0.119660 0.037707 0.005750 0.012298 0.001604 -0.014491 -0.022589 -0.011260 -0.029602 -0.099911 -0.030842 -0.010566 0.023768 -0.031654 -0.036395 -0.015820 -0.065077 -0.027294 -0.042189 0.055143 0.019697 0.036759 -0.000109 0.085203 -0.085932 -0.043393 -0.002569 -0.047365 0.016340 -0.007668 0.132777 -0.070421 0.005983 0.044430 -0.058438 -0.001884 -0.002728 -0.040943 -0.147679 -0.032352 -0.031778 -0.025105 0.019950 -0.008912 0.132272 0.058871 0.047676 -0.042068 -0.054587 -0.022111 -0.003989 0.260366 0.192485 0.262234 0.250061 0.277262 0.309707 0.250894 0.062616 -1.049650
0.072396 0.072910 0.074450 0.077017 0.080611 0.085229 0.090871 0.097535 0.105219 0.113920 0.123634 0.134356 0.146082 0.158804 0.172515 0.187204 0.202859 0.219468 0.237014 0.255479 0.274841 0.295077 0.316158 0.338053 0.360728 0.384143 0.408253 0.433011 0.458361 0.484245 0.510598 0.537348 0.564419 0.591726 0.619180 0.646682 0.674129 0.701410 0.728406 0.754991 0.781033 0.806392 0.830923 0.854471 0.876878 0.897979 0.917605 0.935580 0.951728 0.965865 0.977810 0.987378 0.994386 0.998651 0.999995 0.998244 0.993230 0.984794 0.972787 0.957072 0.937526 0.914045 0.886540 0.854947 0.819223 0.779352 0.735346 0.687249 0.635134 0.579112 0.519329 0.455971 0.389263 0.319469 0.246897 0.171897 0.094860 0.016221 0.063547 0.143929 0.224375 0.304299 0.383084 0.460087 0.534642 0.606065 0.673663 0.736738 0.794597 0.846556 0.891955 0.930161 0.960580 0.982667 0.995937 0.999974 0.994440 0.979087 0.953762 0.918423 0.873141 0.818107 0.753641 0.680194 0.598351 0.508829 0.412483 0.310294 0.203367 0.092926 0.019704 0.133105 0.245782 0.356185 0.462725 0.563802 0.657824 0.743240 0.818563 0.882400 0.933482 0.970693 0.993096 0.999963 0.990799 0.965361 0.923682 0.866081 0.793175 0.705886 0.605434 0.493334 0.371382 0.241630 0.106363 0.031942 0.170649 0.307019 0.438258 0.561577 0.674252 0.773687 0.857485 0.923502 0.969917 0.995290 0.998609 0.979343 0.937469 0.873505 0.788520 0.684130 0.562488 0.426250 0.278532 0.122847 0.036972 0.196853 0.352596 0.499976 0.634861 0.753332 0.851810 0.927166 0.976839 0.998931 0.992297 0.956609 0.892400 0.801088 0.684965 0.547163 0.391588 0.222825 0.046021 0.133269 0.309246 0.476056 0.627982 0.759655 0.866244 0.943659 0.988717 0.999294 0.974447 0.914489 0.821029 0.696959 0.546399 0.374573 0.187664 0.007397 0.203184 0.392041 0.566391 0.719040 0.843492 0.934236 0.987020 0.999070 0.969264 0.898237 0.788418 0.643982 0.470736 0.275899 0.067844 0.144256 0.350823 0.542297 0.709591 0.844534 0.940297 0.991761 0.995825 0.951627 0.860658 0.726768 0.556044 0.356578 0.138114 0.088405 0.311362 0.519069 0.700378 0.845298 0.945572 0.995183 0.990754 0.931818 0.820934 0.663638 0.468214 0.245304 0.007370 0.231990 0.458802 0.659535 0.821925 0.935756 0.993537 0.991047 0.927691 0.806641 0.634750 0.422220 0.182051 0.070722 0.319936 0.549339 0.743650 0.889606 0.976910 0.999000 0.953612 0.843049 0.674146 0.457922 0.208926 0.055703 0.317385 0.557390 0.758193 0.904781 0.985825 0.994616 0.929687 0.795064 0.600107 0.358935 0.089472 0.187854 0.451615 0.681055 0.857740 0.967093 0.999650 0.951963 0.827034 0.634223 0.388652 0.110081 0.178630 0.453348 0.690711 0.870125 0.975608 0.997284 0.932401 0.785744 0.569390 0.301819 0.006406 0.290565 0.562220 0.783545 0.933719 0.998153 0.969996 0.850960 0.651361 0.389342 0.089305 0.220274 0.509539 0.750110 0.917934 0.995742 0.974938 0.856649 0.651841 0.380419 0.069405 0.249689 0.544009 0.782762 0.940467 0.999783 0.953513 0.805601 0.570948 0.274049 0.053463 0.376122 0.658446 0.868878 0.983365 0.988230 0.881933 0.675508 0.391558 0.061930 0.275797 0.582527 0.822208 0.966122 0.996435 0.908548 0.711922 0.429227 0.093870 0.253838 0.571499 0.819791 0.967409 0.995126 0.898450 0.688481 0.390826 0.042621 0.311993 0.627424 0.862518 0.985995 0.980758 0.846429 0.599710 0.272514 0.092021 0.445154 0.738990 0.933059 0.999991
1.000000 1.000000 1.000000 1.000000 1.000000 1.000000 1.000000 1.000000 1.000000 1.000000 1.000000 1.000000 1.000000 1.000000 1.000000 1.000000 1.000000 1.000000 1.000000 1.000000 1.000000 1.000000 1.000000 1.000000 1.000000 1.000000 1.000000 1.000000 1.000000 1.000000 1.000000 1.000000 1.000000 1.000000 1.000000 1.000000 1.000000 1.000000 1.000000 1.000000 1.000000 1.000000 1.000000 1.000000 1.000000 1.000000 1.000000 1.000000 1.000000 1.000000 1.000000 1.000000 0.915446 0.915446 0.903654 0.903654 0.903654 0.903654 0.903654 0.903654 0.903654 0.903654 0.903654 0.903654 0.903654 0.903654 0.903654 0.903654 0.903654 0.903654 0.903654 0.903654 0.903654 0.903654 0.903654 0.903654 0.903654 0.903654 0.903654 0.903654 0.903654 0.903654 0.903654 0.903654 0.903654 0.903654 0.903654 0.903654 0.903654 0.903654 0.903654 0.903654 0.903654 0.903654 0.903654 0.901783 0.906301 0.908466 0.906701 0.910309 0.910401 0.908075 0.907683 0.907280 0.907556 0.908954 0.919560 0.930709 0.941278 0.942485 0.947596 0.952054 0.954286 0.955242 0.956611 0.966075 0.963593 0.963098 0.963860 0.965593 0.967919 0.966435 0.966323 0.968745 0.969555 0.967715 0.965705 0.965021 0.964333 0.964016 0.963566 0.963718 0.963639 0.964149 0.964404 0.964665 0.964807 0.964832 0.963089 0.963235 0.965581 0.966767 0.966549 0.965125 0.958961 0.962817 0.962868 0.962619 0.962536 0.962097 0.962496 0.947276 0.943086 0.943074 0.937242 0.936040 0.932113 0.930897 0.929435 0.929894 0.929475 0.930807 0.928227 0.916652 0.904242 0.890496 0.910871 0.900693 0.886256 0.864727 0.865271 0.862541 0.863327 0.858333 0.850943 0.845515 0.842312 0.843311 0.845341 0.849695 0.847824 0.835920 0.839307 0.835715 0.804452 0.793316 0.777520 0.776196 0.774071 0.775209 0.773580 0.770154 0.778210 0.766999 0.766070 0.757601 0.741329 0.711869 0.702027 0.710476 0.718578 0.725648 0.722376 0.706935 0.663307 0.675484 0.703812 0.696096 0.698493 0.693880 0.689188 0.692533 0.693552 0.687167 0.681382 0.681037 0.679900 0.684472 0.690103 0.681606 0.673534 0.660867 0.646889 0.630200 0.642600 0.641021 0.608310 0.602855 0.592970 0.584028 0.579848 0.563127 0.562765 0.536167 0.522381 0.519722 0.514087 0.517637 0.521691 0.523686 0.511452 0.527286 0.527322 0.554690 0.526296 0.524542 0.525324 0.533835 0.521064 0.508764 0.501962 0.502715 0.510301 0.535957 0.561610 0.540265 0.528513 0.520932 0.533185 0.514119 0.525829 0.556402 0.532285 0.466938 0.417150 0.413359 0.369030 0.362683 0.341076 0.330251 0.331062 0.321925 0.310458 0.297528 0.282869 0.239461 0.197937 0.181333 0.162304 0.171737 0.196960 0.187555 0.196713 0.240834 0.285063 0.288122 0.278577 0.258612 0.236854 0.193005 0.186801 0.202041 0.156553 0.154173 0.145432 0.134819 0.122896 0.079386 0.116739 0.019135 0.007115 0.003304 0.023760 0.021484 0.019521 0.022482 -0.007569 -0.003813 0.023518 0.026355 0.016932 -0.034497 -0.009614 0.004901 0.003222 -0.028108 -0.061220 -0.066273 -0.095461 -0.097019 -0.081784 -0.054622 0.006230 0.012363 0.003411 0.030455 0.032517 0.012579 0.010987 -0.005038 -0.019939 -0.041156 -0.056277 -0.093536 -0.123793 -0.123793 -0.111530 -0.111530 -0.111530 -0.111530 -0.111530 -0.111530 -0.111530 -0.111530 -0.111530 -0.115744 -0.115744 -0.115744 -0.115744 -0.115744 -0.115744 -0.115744 -0.115744 -0.115744 -0.093395 -0.093395 -0.093395 -0.093395 -0.093395 -0.093395 -0.093395 -0.093395 -0.093395
0.000000 0.000000 0.000000 0.000000 0.000000 0.000000 0.000000 0.000000 0.000000 0.000000 0.000000 0.000000 0.000000 0.000000 0.000000 0.000000 0.000000 0.000000 0.000000 0.000000 0.000000 0.000000 0.000000 0.000000 0.000000 0.000000 0.000000 0.000000 0.000000 0.000000 0.000000 0.000000 0.000000 0.000000 0.000000 0.000000 0.000000 0.000000 0.000000 0.000000 0.000000 0.000000 0.000000 0.000000 0.000000 0.000000 0.000000 0.000000 0.000000 0.000000 0.000000 0.000000 0.181818 0.181818 0.199007 0.199007 0.199007 0.199007 0.199007 0.199007 0.199007 0.199007 0.199007 0.199007 0.199007 0.199007 0.199007 0.199007 0.199007 0.199007 0.199007 0.199007 0.199007 0.199007 0.199007 0.199007 0.199007 0.199007 0.199007 0.199007 0.199007 0.199007 0.199007 0.199007 0.199007 0.199007 0.199007 0.199007 0.199007 0.199007 0.199007 0.199007 0.199007 0.199007 0.199007 0.230940 0.230940 0.230940 0.230940 0.230940 0.230940 0.230940 0.230940 0.230940 0.230940 0.230940 0.230940 0.230940 0.230940 0.230940 0.230940 0.230940 0.230940 0.230940 0.230940 0.230940 0.230940 0.230940 0.230940 0.230940 0.230940 0.230940 0.230940 0.244339 0.244339 0.244339 0.244339 0.244339 0.244339 0.244339 0.244339 0.244339 0.244339 0.244339 0.244339 0.244339 0.244339 0.244339 0.244339 0.244339 0.244339 0.244339 0.244339 0.244339 0.244339 0.244339 0.251976 0.251976 0.251976 0.251976 0.251976 0.251976 0.251976 0.251976 0.251976 0.251976 0.251976 0.251976 0.251976 0.251976 0.251976 0.251976 0.251976 0.251976 0.251976 0.251976 0.264906 0.264906 0.264906 0.264906 0.264906 0.264906 0.264906 0.264906 0.264906 0.264906 0.264906 0.264906 0.264906 0.264906 0.264906 0.264906 0.264906 0.264906 0.264906 0.264906 0.264906 0.264906 0.264906 0.264906 0.264906 0.264906 0.264906 0.264906 0.264906 0.264906 0.264906 0.264906 0.264906 0.264906 0.264906 0.264906 0.264906 0.264906 0.264906 0.264906 0.264906 0.264906 0.264906 0.264906 0.264906 0.264906 0.264906 0.264906 0.264906 0.264906 0.264906 0.264906 0.264906 0.264906 0.264906 0.264906 0.264906 0.264906 0.264906 0.264906 0.264906 0.264906 0.264906 0.264906 0.264906 0.264906 0.264906 0.264906 0.264906 0.264906 0.264906 0.264906 0.264906 0.264906 0.264906 0.269680 0.269680 0.269680 0.269680 0.269680 0.269680 0.269680 0.269680 0.269680 0.269680 0.269680 0.269680 0.264906 0.264906 0.264906 0.264906 0.264906 0.264906 0.264906 0.264906 0.264906 0.264906 0.264906 0.264906 0.269680 0.269680 0.269680 0.269680 0.269680 0.269680 0.269680 0.269680 0.269680 0.269680 0.269680 0.264906 0.264906 0.264906 0.264906 0.264906 0.264906 0.264906 0.264906 0.264906 0.264906 0.264906 0.256074 0.256074 0.256074 0.256074 0.256074 0.256074 0.256074 0.256074 0.256074 0.256074 0.256074 0.264906 0.264906 0.264906 0.264906 0.264906 0.264906 0.264906 0.264906 0.264906 0.264906 0.260378 0.260378 0.260378 0.260378 0.260378 0.260378 0.260378 0.260378 0.260378 0.260378 0.264906 0.264906 0.264906 0.264906 0.264906 0.264906 0.264906 0.264906 0.264906 0.260378 0.260378 0.260378 0.260378 0.260378 0.260378 0.260378 0.260378 0.260378 0.256074 0.256074 0.256074 0.256074 0.256074 0.256074 0.256074 0.256074 0.256074 0.251976 0.251976 0.251976 0.251976 0.251976 0.251976 0.251976 0.251976 0.251976 0.264906 0.264906 0.264906 0.264906 0.264906 0.264906 0.264906 0.264906 0.264906
