# Output from CTFFind version 4.1.9, run on 2019-11-03 19:39:23
# Input file: stack6_bm3d_averaged_1_4.75_0_750_half.mrc ; Number of micrographs: 1
# Pixel size: 3.000 Angstroms ; acceleration voltage: 300.0 keV ; spherical aberration: 0.00 mm ; amplitude contrast: 0.07
# Box size: 512 pixels ; min. res.: 30.0 Angstroms ; max. res.: 5.0 Angstroms ; min. def.: 5000.0 um; max. def. 50000.0 um; num. frames averaged: 1
# 6 lines per micrograph: #1 - spatial frequency (1/Angstroms); #2 - 1D rotational average of spectrum (assuming no astigmatism); #3 - 1D rotational average of spectrum; #4 - CTF fit; #5 - cross-correlation between spectrum and CTF fit; #6 - 2sigma of expected cross correlation of noise
0.000000 0.000651 0.001302 0.001953 0.002604 0.003255 0.003906 0.004557 0.005208 0.005859 0.006510 0.007161 0.007812 0.008464 0.009115 0.009766 0.010417 0.011068 0.011719 0.012370 0.013021 0.013672 0.014323 0.014974 0.015625 0.016276 0.016927 0.017578 0.018229 0.018880 0.019531 0.020182 0.020833 0.021484 0.022135 0.022786 0.023438 0.024089 0.024740 0.025391 0.026042 0.026693 0.027344 0.027995 0.028646 0.029297 0.029948 0.030599 0.031250 0.031901 0.032552 0.033203 0.033854 0.034505 0.035156 0.035807 0.036458 0.037109 0.037760 0.038411 0.039062 0.039714 0.040365 0.041016 0.041667 0.042318 0.042969 0.043620 0.044271 0.044922 0.045573 0.046224 0.046875 0.047526 0.048177 0.048828 0.049479 0.050130 0.050781 0.051432 0.052083 0.052734 0.053385 0.054036 0.054688 0.055339 0.055990 0.056641 0.057292 0.057943 0.058594 0.059245 0.059896 0.060547 0.061198 0.061849 0.062500 0.063151 0.063802 0.064453 0.065104 0.065755 0.066406 0.067057 0.067708 0.068359 0.069010 0.069661 0.070312 0.070964 0.071615 0.072266 0.072917 0.073568 0.074219 0.074870 0.075521 0.076172 0.076823 0.077474 0.078125 0.078776 0.079427 0.080078 0.080729 0.081380 0.082031 0.082682 0.083333 0.083984 0.084635 0.085286 0.085938 0.086589 0.087240 0.087891 0.088542 0.089193 0.089844 0.090495 0.091146 0.091797 0.092448 0.093099 0.093750 0.094401 0.095052 0.095703 0.096354 0.097005 0.097656 0.098307 0.098958 0.099609 0.100260 0.100911 0.101562 0.102214 0.102865 0.103516 0.104167 0.104818 0.105469 0.106120 0.106771 0.107422 0.108073 0.108724 0.109375 0.110026 0.110677 0.111328 0.111979 0.112630 0.113281 0.113932 0.114583 0.115234 0.115885 0.116536 0.117188 0.117839 0.118490 0.119141 0.119792 0.120443 0.121094 0.121745 0.122396 0.123047 0.123698 0.124349 0.125000 0.125651 0.126302 0.126953 0.127604 0.128255 0.128906 0.129557 0.130208 0.130859 0.131510 0.132161 0.132812 0.133464 0.134115 0.134766 0.135417 0.136068 0.136719 0.137370 0.138021 0.138672 0.139323 0.139974 0.140625 0.141276 0.141927 0.142578 0.143229 0.143880 0.144531 0.145182 0.145833 0.146484 0.147135 0.147786 0.148438 0.149089 0.149740 0.150391 0.151042 0.151693 0.152344 0.152995 0.153646 0.154297 0.154948 0.155599 0.156250 0.156901 0.157552 0.158203 0.158854 0.159505 0.160156 0.160807 0.161458 0.162109 0.162760 0.163411 0.164062 0.164714 0.165365 0.166016 0.166667 0.167318 0.167969 0.168620 0.169271 0.169922 0.170573 0.171224 0.171875 0.172526 0.173177 0.173828 0.174479 0.175130 0.175781 0.176432 0.177083 0.177734 0.178385 0.179036 0.179688 0.180339 0.180990 0.181641 0.182292 0.182943 0.183594 0.184245 0.184896 0.185547 0.186198 0.186849 0.187500 0.188151 0.188802 0.189453 0.190104 0.190755 0.191406 0.192057 0.192708 0.193359 0.194010 0.194661 0.195312 0.195964 0.196615 0.197266 0.197917 0.198568 0.199219 0.199870 0.200521 0.201172 0.201823 0.202474 0.203125 0.203776 0.204427 0.205078 0.205729 0.206380 0.207031 0.207682 0.208333 0.208984 0.209635 0.210286 0.210938 0.211589 0.212240 0.212891 0.213542 0.214193 0.214844 0.215495 0.216146 0.216797 0.217448 0.218099 0.218750 0.219401 0.220052 0.220703 0.221354 0.222005 0.222656 0.223307 0.223958 0.224609 0.225260 0.225911 0.226562 0.227214 0.227865 0.228516 0.229167 0.229818 0.230469 0.231120 0.231771 0.232422 0.233073 0.233724 0.234375 0.235026 0.235677
       0.30236        0.30236        0.30236        0.30236        0.30236        0.30236        0.30236        0.30236        0.30236        0.30236        0.30236        0.30236        0.30236        0.30236        0.30236        0.30236        0.30236        0.30236        0.30236        0.30236        0.30236        0.30236        0.30236        0.30236        0.30236        0.30236        0.30236        0.30236        0.30236        0.30236        0.30235        0.30236        0.30236        0.30236        0.30236        0.30236        0.30236        0.30236        0.30236        0.30235        0.30236        0.30236        0.30236        0.30236        0.30236        0.30236        0.30236        0.30236        0.30236        0.30236        0.30236        0.60048        0.73248        0.35457        0.19084        0.12468       -0.15412        0.10601        0.02191        0.02919        0.08680        0.30841        0.33783        0.26644        0.15609       -0.03966       -0.01006        0.03893       -0.14850       -0.15859       -0.09215       -0.11582       -0.24704       -0.15874       -0.28364       -0.29223       -0.29555       -0.36254       -0.44023       -0.39024       -0.29982       -0.26841       -0.36598       -0.27449       -0.33656       -0.27208       -0.19636       -0.14728       -0.10885       -0.03163       -0.00335        0.10688        0.14941        0.21011        0.32978        0.39292        0.35527        0.46107        0.55407        0.56340        0.64570        0.59326        0.63107        0.59854        0.61913        0.62035        0.55593        0.56744        0.55875        0.39422        0.32569        0.35511        0.34238        0.18526        0.14139        0.10711        0.07172        0.07745       -0.01860        0.04078        0.01136       -0.03335        0.08308        0.15627        0.25391        0.34467        0.33405        0.36408        0.46721        0.49967        0.43053        0.64835        0.52791        0.48128        0.56221        0.50051        0.51973        0.47703        0.36222        0.30983        0.25194        0.20771        0.18827        0.17662        0.15264        0.09737        0.16478        0.16313        0.20731        0.18473        0.25483        0.28880        0.32177        0.44558        0.42171        0.41058        0.44607        0.48661        0.46760        0.44833        0.38071        0.39987        0.34024        0.27793        0.22496        0.23634        0.21985        0.17357        0.14857        0.19495        0.19322        0.24643        0.31853        0.34252        0.40213        0.38618        0.44668        0.45537        0.44713        0.42223        0.39000        0.40282        0.37407        0.33613        0.31648        0.29863        0.24756        0.26355        0.25984        0.21104        0.26800        0.25268        0.26182        0.31290        0.35913        0.39597        0.39205        0.40676        0.38365        0.40212        0.38861        0.29179        0.27974        0.23925        0.25496        0.21380        0.19034        0.27109        0.31556        0.29675        0.26777        0.32502        0.25843        0.33479        0.35605        0.35669        0.36048        0.37892        0.31304        0.31905        0.30319        0.27284        0.26971        0.24324        0.27197        0.29358        0.29399        0.31456        0.35891        0.37135        0.35500        0.33295        0.34939        0.31980        0.30626        0.30115        0.27213        0.27815        0.25251        0.29735        0.31286        0.29770        0.28925        0.31206        0.31792        0.32695        0.33011        0.29025        0.25888        0.28420        0.27516        0.26181        0.24339        0.22468        0.24231        0.25374        0.24170        0.26587        0.27611        0.32047        0.30593        0.28009        0.29770        0.24176        0.20774        0.26418        0.23937        0.20827        0.26250        0.30416        0.27336        0.29485        0.29422        0.29129        0.29940        0.30069        0.26506        0.29803        0.28178        0.31951        0.26294        0.26310        0.25000        0.29496        0.29939        0.31515        0.32311        0.30533        0.20689        0.26992        0.26185        0.22989        0.24235        0.24329        0.28531        0.26151        0.30280        0.29805        0.34732        0.30002        0.27327        0.23246        0.23212        0.24331        0.24324        0.27020        0.28447        0.30194        0.31893        0.28117        0.27971        0.25411        0.26696        0.27374        0.23423        0.20955        0.23514        0.31369        0.29599        0.28965        0.28120        0.22207        0.25986        0.24988        0.20537        0.21818        0.26678        0.27954        0.27668        0.21314        0.19420        0.24979        0.24424        0.25867        0.25261        0.24634        0.18857        0.21599        0.25399        0.23032        0.27244        0.23691        0.22993        0.16873        0.27620        0.30120        0.17563        0.17037        0.11953        0.13644        0.27730        0.15186        0.12655        0.31876        0.20543        0.13913        0.10065        0.15886        0.12657        0.15753       -0.07960       -0.69149       -1.04846
2.993525 2.963351 2.933335 2.903475 2.873773 2.844227 2.814839 2.785608 2.756534 2.727617 2.698857 2.670254 2.641808 2.613519 2.585387 2.557412 2.529594 2.501934 2.474430 2.447083 2.419894 2.392861 2.365986 2.339267 2.312706 2.286302 2.260054 2.233964 2.208031 2.182255 2.156636 2.131174 2.105869 2.080721 2.055731 2.030897 2.006220 1.981701 1.957338 1.933132 1.909084 1.885192 1.861458 1.837881 1.814460 1.791197 1.768091 1.745142 1.722350 1.699715 1.677237 2.016309 2.329292 1.699240 1.593025 1.323911 0.783702 1.188656 1.057042 1.074283 0.936414 1.543707 1.424912 1.424820 1.182330 0.855720 0.703450 0.941877 0.726488 0.407615 0.500669 0.631668 0.377209 0.413598 0.260905 0.174734 0.125726 0.121261 -0.142119 -0.055645 0.082150 0.045299 -0.002515 0.086443 -0.054498 -0.026296 0.138278 0.209189 0.264614 0.321038 0.369124 0.614217 0.560189 0.637765 0.852551 0.967648 0.829463 1.150878 1.137707 1.224760 1.283939 1.157321 1.314257 1.180969 1.128832 1.297623 1.086235 1.045115 1.127891 0.898876 0.615580 0.661261 0.716718 0.430695 0.340818 0.272164 0.142316 0.141556 -0.003968 0.104783 0.057045 -0.078321 0.052612 0.168922 0.272589 0.503676 0.500571 0.460670 0.634176 0.772181 0.509666 0.916368 0.771340 0.714682 0.773210 0.628280 0.703130 0.703974 0.433248 0.341133 0.247877 0.176717 0.123182 0.030385 0.059693 -0.112153 0.016529 -0.006281 0.093059 -0.019145 0.174440 0.183748 0.150885 0.374640 0.457148 0.361651 0.303161 0.529406 0.524240 0.405122 0.366621 0.337179 0.264927 0.200953 0.039210 0.060531 -0.007369 0.042218 -0.131021 -0.050674 -0.088882 0.102821 0.025049 0.225583 0.229073 0.262530 0.336864 0.342172 0.449563 0.353500 0.392933 0.390271 0.251821 0.290893 0.165697 0.223466 0.080313 0.136555 0.073290 0.075576 -0.001781 0.119968 0.028816 0.131826 0.225769 0.237682 0.310036 0.289969 0.314218 0.289409 0.296202 0.192135 0.102464 0.085596 0.026964 0.026719 -0.053962 -0.027455 0.090966 0.172016 0.079086 0.100084 0.095006 0.103068 0.195328 0.179314 0.187017 0.239612 0.139839 0.099572 0.098295 0.076455 0.047141 -0.035817 0.004404 0.120613 -0.001502 0.111335 0.105708 0.212622 0.205059 0.215493 0.178664 0.202532 0.102891 0.127956 0.125880 0.060866 0.024001 0.078049 0.105531 0.126993 0.110129 0.096133 0.117715 0.150398 0.147402 0.110069 0.036494 -0.003451 0.069590 0.008978 0.035148 -0.043115 -0.052829 0.009797 -0.018028 -0.027786 0.028605 0.046788 0.086308 0.100155 0.012672 0.067402 -0.066225 -0.052721 0.037325 -0.063356 -0.066850 0.049604 0.067469 0.008395 0.054015 0.059766 0.046545 0.132811 -0.010426 0.020660 0.116414 0.001249 0.103331 -0.009600 0.029607 -0.034211 0.126266 0.028467 0.095452 0.124219 0.066085 -0.086695 0.032632 0.015452 -0.032289 -0.021005 0.000253 0.030694 0.022436 0.145609 0.035084 0.164512 0.093580 -0.015491 -0.001624 -0.040328 0.002015 0.030345 0.030319 0.058792 0.096682 0.143585 0.090083 0.063694 0.060439 0.091747 0.071928 0.038155 -0.053326 0.057261 0.138075 0.110367 0.122725 0.115701 -0.000089 0.072128 0.031429 -0.043323 0.008098 0.067300 0.121687 0.071657 -0.023187 -0.035345 0.044770 0.063574 0.034710 0.075593 0.007981 -0.007523 -0.010625 0.074323 0.015497 0.120441 -0.001057 0.015282 -0.086101 0.144133 0.161724 -0.107344 -0.010919 -0.175515 -0.239912 0.191210 -0.100764 0.111211 0.522921 0.287374 0.223520 0.106294 0.393636 0.179647 0.252490 -0.121358 -1.727591
0.072396 0.072835 0.074152 0.076346 0.079417 0.083365 0.088188 0.093885 0.100455 0.107896 0.116204 0.125378 0.135414 0.146306 0.158050 0.170638 0.184064 0.198319 0.213392 0.229271 0.245942 0.263390 0.281597 0.300543 0.320204 0.340557 0.361572 0.383218 0.405460 0.428260 0.451576 0.475362 0.499569 0.524141 0.549020 0.574143 0.599441 0.624841 0.650266 0.675631 0.700849 0.725825 0.750461 0.774653 0.798292 0.821263 0.843447 0.864721 0.884957 0.904024 0.921784 0.938101 0.952832 0.965834 0.976963 0.986072 0.993017 0.997654 0.999840 0.999436 0.996309 0.990327 0.981370 0.969322 0.954078 0.935544 0.913639 0.888294 0.859457 0.827092 0.791185 0.751737 0.708776 0.662349 0.612530 0.559420 0.503145 0.443860 0.381750 0.317031 0.249946 0.180772 0.109817 0.037417 0.036060 0.110217 0.184629 0.258847 0.332396 0.404778 0.475481 0.543973 0.609714 0.672154 0.730743 0.784931 0.834177 0.877956 0.915758 0.947103 0.971543 0.988669 0.998119 0.999583 0.992812 0.977623 0.953906 0.921628 0.880842 0.831688 0.774399 0.709301 0.636821 0.557483 0.471907 0.380812 0.285009 0.185399 0.082964 0.021238 0.126082 0.230389 0.332938 0.432476 0.527739 0.617465 0.700413 0.775380 0.841221 0.896868 0.941353 0.973822 0.993557 0.999995 0.992743 0.971593 0.936534 0.887765 0.825702 0.750978 0.664452 0.567197 0.460498 0.345839 0.224890 0.099483 0.028412 0.156711 0.283252 0.405830 0.522235 0.630296 0.727916 0.813126 0.884120 0.939303 0.977329 0.997144 0.998014 0.979560 0.941777 0.885054 0.810184 0.718358 0.611166 0.490573 0.358892 0.218751 0.073042 0.075129 0.222508 0.365763 0.501560 0.626635 0.737888 0.832455 0.907793 0.961755 0.992661 0.999356 0.981266 0.938431 0.871528 0.781884 0.671457 0.542813 0.399081 0.243879 0.081245 0.084475 0.248727 0.406880 0.554354 0.686757 0.800020 0.890535 0.955276 0.991914 0.998915 0.975616 0.922272 0.840087 0.731209 0.598687 0.446408 0.279004 0.101707 0.079785 0.259498 0.431375 0.589475 0.728194 0.842462 0.927948 0.981238 0.999986 0.983036 0.930504 0.843814 0.725690 0.580092 0.412109 0.227794 0.033970 0.162023 0.352588 0.530178 0.687591 0.818275 0.916611 0.978181 0.999979 0.980589 0.920284 0.821073 0.686666 0.522359 0.334860 0.132032 0.077421 0.284319 0.479404 0.653752 0.799206 0.908755 0.976911 1.000000 0.976390 0.906629 0.793480 0.641849 0.458607 0.252309 0.032820 0.189148 0.402545 0.596534 0.761053 0.887355 0.968491 0.999729 0.978860 0.906386 0.785565 0.622307 0.424931 0.203766 0.029355 0.261719 0.480412 0.673053 0.828493 0.937500 0.993328 0.992180 0.933499 0.820088 0.658032 0.456412 0.226842 0.017172 0.260998 0.489765 0.689259 0.846828 0.952212 0.998253 0.981424 0.902138 0.764827 0.577748 0.352539 0.103528 0.153128 0.400498 0.621977 0.802427 0.929228 0.993206 0.989347 0.917238 0.781212 0.590143 0.356939 0.097701 0.169329 0.425070 0.650928 0.830194 0.949295 0.998877 0.974596 0.877556 0.714346 0.496673 0.240569 0.034732 0.308210 0.558653 0.766319 0.914513 0.990981 0.988984 0.907955 0.753681 0.537977 0.277839 0.005829 0.289862 0.550709 0.766405 0.918441 0.993406 0.984245 0.890988 0.720901 0.488011 0.212016 0.083321 0.372176 0.628922 0.830419 0.958140 0.999938 0.951282 0.815826 0.605234 0.338278 0.039218 0.264326 0.543937 0.773038 0.929477 0.997720 0.970478 0.849581 0.645970 0.378818 0.073793 0.239331 0.529571 0.767793 0.929690
1.000000 1.000000 1.000000 1.000000 1.000000 1.000000 1.000000 1.000000 1.000000 1.000000 1.000000 1.000000 1.000000 1.000000 1.000000 1.000000 1.000000 1.000000 1.000000 1.000000 1.000000 1.000000 1.000000 1.000000 1.000000 1.000000 1.000000 1.000000 1.000000 1.000000 1.000000 1.000000 1.000000 1.000000 1.000000 1.000000 1.000000 1.000000 1.000000 1.000000 1.000000 1.000000 1.000000 1.000000 1.000000 1.000000 1.000000 1.000000 1.000000 1.000000 1.000000 1.000000 0.801067 0.801067 0.801067 0.801067 0.801067 0.801067 0.801067 0.784636 0.784636 0.784636 0.784636 0.784636 0.784636 0.784636 0.784636 0.784636 0.784636 0.784636 0.784636 0.784636 0.784636 0.784636 0.784636 0.784636 0.784636 0.784636 0.784636 0.784636 0.784636 0.784636 0.784636 0.784636 0.784636 0.784636 0.784636 0.784636 0.784636 0.784636 0.784636 0.784636 0.784636 0.784636 0.784636 0.784636 0.784636 0.784636 0.784636 0.784636 0.784636 0.784636 0.784636 0.934013 0.933144 0.934598 0.933082 0.935244 0.934054 0.933055 0.934457 0.933421 0.931161 0.930749 0.931274 0.932298 0.932423 0.937414 0.938772 0.947461 0.951450 0.952282 0.951815 0.950118 0.956995 0.955539 0.951766 0.947936 0.949357 0.946217 0.947149 0.943925 0.944654 0.946586 0.947566 0.943728 0.943069 0.941627 0.940405 0.939427 0.939089 0.939399 0.939473 0.938986 0.939898 0.940661 0.938801 0.940981 0.937838 0.938433 0.935738 0.936174 0.938208 0.926948 0.927246 0.920722 0.914584 0.912747 0.912243 0.910804 0.911386 0.912349 0.913024 0.913679 0.913985 0.914166 0.913723 0.914245 0.910623 0.903839 0.899442 0.896740 0.898405 0.902733 0.906532 0.905226 0.901357 0.900400 0.895030 0.889821 0.874188 0.859944 0.855712 0.856226 0.858218 0.861213 0.860709 0.857904 0.856168 0.855909 0.854667 0.859797 0.861126 0.853012 0.843055 0.841460 0.837358 0.845510 0.849235 0.852313 0.855668 0.849621 0.841304 0.835330 0.841175 0.843953 0.853581 0.852442 0.849535 0.846178 0.842699 0.831765 0.822419 0.822169 0.823657 0.825339 0.825241 0.827516 0.814256 0.784962 0.802272 0.797884 0.802836 0.813851 0.823615 0.826031 0.818593 0.795101 0.781661 0.770437 0.771337 0.773455 0.769465 0.773328 0.762942 0.749006 0.718249 0.725910 0.709963 0.725551 0.735286 0.728771 0.731275 0.723757 0.722659 0.711960 0.678880 0.680637 0.619497 0.620562 0.613508 0.592706 0.597985 0.584155 0.591583 0.598298 0.581304 0.548711 0.557221 0.554470 0.561305 0.525075 0.513154 0.509844 0.518128 0.518525 0.520385 0.512442 0.503492 0.487217 0.505888 0.513856 0.499606 0.501965 0.522144 0.522292 0.512509 0.496209 0.487979 0.503870 0.525845 0.531635 0.532766 0.536962 0.508050 0.479340 0.502759 0.518192 0.514146 0.499864 0.488831 0.483674 0.501952 0.474670 0.489985 0.481846 0.496614 0.474352 0.418832 0.376929 0.323096 0.325144 0.325461 0.318213 0.311758 0.318121 0.344273 0.357248 0.362836 0.361237 0.386255 0.425287 0.410803 0.408761 0.408380 0.406558 0.409704 0.405862 0.376000 0.384578 0.404103 0.408241 0.358573 0.345306 0.318180 0.306297 0.316675 0.328649 0.344749 0.331710 0.320188 0.190753 0.214216 0.177020 0.190657 0.190657 0.190657 0.190657 0.190657 0.190657 0.190657 0.190657 0.190657 0.226726 0.226726 0.226726 0.226726 0.226726 0.226726 0.226726 0.226726 0.226726 0.226726 0.226726 0.226726 0.226726 0.226726 0.226726 0.226726 0.226726 0.226726 0.226726 0.226726
0.000000 0.000000 0.000000 0.000000 0.000000 0.000000 0.000000 0.000000 0.000000 0.000000 0.000000 0.000000 0.000000 0.000000 0.000000 0.000000 0.000000 0.000000 0.000000 0.000000 0.000000 0.000000 0.000000 0.000000 0.000000 0.000000 0.000000 0.000000 0.000000 0.000000 0.000000 0.000000 0.000000 0.000000 0.000000 0.000000 0.000000 0.000000 0.000000 0.000000 0.000000 0.000000 0.000000 0.000000 0.000000 0.000000 0.000000 0.000000 0.000000 0.000000 0.000000 0.000000 0.173422 0.173422 0.173422 0.173422 0.173422 0.173422 0.173422 0.191565 0.191565 0.191565 0.191565 0.191565 0.191565 0.191565 0.191565 0.191565 0.191565 0.191565 0.191565 0.191565 0.191565 0.191565 0.191565 0.191565 0.191565 0.191565 0.191565 0.191565 0.191565 0.191565 0.191565 0.191565 0.191565 0.191565 0.191565 0.191565 0.191565 0.191565 0.191565 0.191565 0.191565 0.191565 0.191565 0.191565 0.191565 0.191565 0.191565 0.191565 0.191565 0.191565 0.191565 0.222222 0.222222 0.222222 0.222222 0.222222 0.222222 0.222222 0.222222 0.222222 0.222222 0.222222 0.222222 0.222222 0.222222 0.222222 0.222222 0.222222 0.222222 0.222222 0.222222 0.222222 0.222222 0.222222 0.222222 0.222222 0.222222 0.222222 0.222222 0.222222 0.222222 0.234082 0.234082 0.234082 0.234082 0.234082 0.234082 0.234082 0.234082 0.234082 0.234082 0.234082 0.234082 0.234082 0.234082 0.234082 0.234082 0.234082 0.234082 0.234082 0.234082 0.234082 0.234082 0.234082 0.234082 0.234082 0.244339 0.244339 0.244339 0.244339 0.244339 0.244339 0.244339 0.244339 0.244339 0.244339 0.244339 0.244339 0.244339 0.244339 0.244339 0.244339 0.244339 0.244339 0.244339 0.244339 0.244339 0.248069 0.248069 0.248069 0.248069 0.248069 0.248069 0.248069 0.248069 0.248069 0.248069 0.248069 0.248069 0.248069 0.248069 0.248069 0.248069 0.248069 0.248069 0.248069 0.248069 0.248069 0.248069 0.248069 0.248069 0.248069 0.248069 0.248069 0.248069 0.248069 0.248069 0.248069 0.248069 0.248069 0.248069 0.248069 0.248069 0.248069 0.256074 0.256074 0.256074 0.256074 0.256074 0.256074 0.256074 0.256074 0.256074 0.256074 0.256074 0.256074 0.256074 0.256074 0.256074 0.256074 0.264906 0.264906 0.264906 0.264906 0.264906 0.264906 0.264906 0.264906 0.264906 0.264906 0.264906 0.264906 0.264906 0.264906 0.248069 0.248069 0.248069 0.248069 0.248069 0.248069 0.248069 0.248069 0.248069 0.248069 0.248069 0.248069 0.248069 0.248069 0.248069 0.260378 0.260378 0.260378 0.260378 0.260378 0.260378 0.260378 0.260378 0.260378 0.260378 0.260378 0.260378 0.260378 0.256074 0.256074 0.256074 0.256074 0.256074 0.256074 0.256074 0.256074 0.256074 0.256074 0.256074 0.256074 0.256074 0.260378 0.260378 0.260378 0.260378 0.260378 0.260378 0.260378 0.260378 0.260378 0.260378 0.260378 0.260378 0.251976 0.251976 0.251976 0.251976 0.251976 0.251976 0.251976 0.251976 0.251976 0.251976 0.251976 0.251976 0.256074 0.256074 0.256074 0.256074 0.256074 0.256074 0.256074 0.256074 0.256074 0.256074 0.256074 0.251976 0.251976 0.251976 0.251976 0.251976 0.251976 0.251976 0.251976 0.251976 0.251976 0.251976 0.260378 0.260378 0.260378 0.260378 0.260378 0.260378 0.260378 0.260378 0.260378 0.260378 0.244339 0.244339 0.244339 0.244339 0.244339 0.244339 0.244339 0.244339 0.244339 0.244339 0.244339 0.244339 0.244339 0.244339 0.244339 0.244339 0.244339 0.244339 0.244339 0.244339
