# Output from CTFFind version 4.1.9, run on 2019-11-02 17:44:04
# Input file: stack6_bm3d_averaged_1_0.5_0_250_half.mrc ; Number of micrographs: 1
# Pixel size: 3.000 Angstroms ; acceleration voltage: 300.0 keV ; spherical aberration: 0.00 mm ; amplitude contrast: 0.07
# Box size: 512 pixels ; min. res.: 30.0 Angstroms ; max. res.: 5.0 Angstroms ; min. def.: 5000.0 um; max. def. 50000.0 um; num. frames averaged: 1
# 6 lines per micrograph: #1 - spatial frequency (1/Angstroms); #2 - 1D rotational average of spectrum (assuming no astigmatism); #3 - 1D rotational average of spectrum; #4 - CTF fit; #5 - cross-correlation between spectrum and CTF fit; #6 - 2sigma of expected cross correlation of noise
0.000000 0.000651 0.001302 0.001953 0.002604 0.003255 0.003906 0.004557 0.005208 0.005859 0.006510 0.007161 0.007812 0.008464 0.009115 0.009766 0.010417 0.011068 0.011719 0.012370 0.013021 0.013672 0.014323 0.014974 0.015625 0.016276 0.016927 0.017578 0.018229 0.018880 0.019531 0.020182 0.020833 0.021484 0.022135 0.022786 0.023438 0.024089 0.024740 0.025391 0.026042 0.026693 0.027344 0.027995 0.028646 0.029297 0.029948 0.030599 0.031250 0.031901 0.032552 0.033203 0.033854 0.034505 0.035156 0.035807 0.036458 0.037109 0.037760 0.038411 0.039062 0.039714 0.040365 0.041016 0.041667 0.042318 0.042969 0.043620 0.044271 0.044922 0.045573 0.046224 0.046875 0.047526 0.048177 0.048828 0.049479 0.050130 0.050781 0.051432 0.052083 0.052734 0.053385 0.054036 0.054688 0.055339 0.055990 0.056641 0.057292 0.057943 0.058594 0.059245 0.059896 0.060547 0.061198 0.061849 0.062500 0.063151 0.063802 0.064453 0.065104 0.065755 0.066406 0.067057 0.067708 0.068359 0.069010 0.069661 0.070312 0.070964 0.071615 0.072266 0.072917 0.073568 0.074219 0.074870 0.075521 0.076172 0.076823 0.077474 0.078125 0.078776 0.079427 0.080078 0.080729 0.081380 0.082031 0.082682 0.083333 0.083984 0.084635 0.085286 0.085938 0.086589 0.087240 0.087891 0.088542 0.089193 0.089844 0.090495 0.091146 0.091797 0.092448 0.093099 0.093750 0.094401 0.095052 0.095703 0.096354 0.097005 0.097656 0.098307 0.098958 0.099609 0.100260 0.100911 0.101562 0.102214 0.102865 0.103516 0.104167 0.104818 0.105469 0.106120 0.106771 0.107422 0.108073 0.108724 0.109375 0.110026 0.110677 0.111328 0.111979 0.112630 0.113281 0.113932 0.114583 0.115234 0.115885 0.116536 0.117188 0.117839 0.118490 0.119141 0.119792 0.120443 0.121094 0.121745 0.122396 0.123047 0.123698 0.124349 0.125000 0.125651 0.126302 0.126953 0.127604 0.128255 0.128906 0.129557 0.130208 0.130859 0.131510 0.132161 0.132812 0.133464 0.134115 0.134766 0.135417 0.136068 0.136719 0.137370 0.138021 0.138672 0.139323 0.139974 0.140625 0.141276 0.141927 0.142578 0.143229 0.143880 0.144531 0.145182 0.145833 0.146484 0.147135 0.147786 0.148438 0.149089 0.149740 0.150391 0.151042 0.151693 0.152344 0.152995 0.153646 0.154297 0.154948 0.155599 0.156250 0.156901 0.157552 0.158203 0.158854 0.159505 0.160156 0.160807 0.161458 0.162109 0.162760 0.163411 0.164062 0.164714 0.165365 0.166016 0.166667 0.167318 0.167969 0.168620 0.169271 0.169922 0.170573 0.171224 0.171875 0.172526 0.173177 0.173828 0.174479 0.175130 0.175781 0.176432 0.177083 0.177734 0.178385 0.179036 0.179688 0.180339 0.180990 0.181641 0.182292 0.182943 0.183594 0.184245 0.184896 0.185547 0.186198 0.186849 0.187500 0.188151 0.188802 0.189453 0.190104 0.190755 0.191406 0.192057 0.192708 0.193359 0.194010 0.194661 0.195312 0.195964 0.196615 0.197266 0.197917 0.198568 0.199219 0.199870 0.200521 0.201172 0.201823 0.202474 0.203125 0.203776 0.204427 0.205078 0.205729 0.206380 0.207031 0.207682 0.208333 0.208984 0.209635 0.210286 0.210938 0.211589 0.212240 0.212891 0.213542 0.214193 0.214844 0.215495 0.216146 0.216797 0.217448 0.218099 0.218750 0.219401 0.220052 0.220703 0.221354 0.222005 0.222656 0.223307 0.223958 0.224609 0.225260 0.225911 0.226562 0.227214 0.227865 0.228516 0.229167 0.229818 0.230469 0.231120 0.231771 0.232422 0.233073 0.233724 0.234375 0.235026 0.235677
       0.31185        0.31185        0.31185        0.31185        0.31185        0.31185        0.31185        0.31185        0.31185        0.31185        0.31185        0.31185        0.31185        0.31185        0.31185        0.31185        0.31185        0.31185        0.31185        0.31185        0.31185        0.31185        0.31185        0.31185        0.31185        0.31185        0.31185        0.31185        0.31185        0.31185        0.31185        0.31185        0.31185        0.31186        0.31185        0.31185        0.31185        0.31185        0.31185        0.31185        0.31185        0.31185        0.31185        0.31185        0.31185        0.31185        0.31186        0.31185        0.31185        0.31185        0.31185        0.63178        0.82048        0.41818        0.31320        0.18462       -0.10500        0.10977       -0.00507        0.03200        0.11970        0.33659        0.42159        0.40732        0.22721       -0.01503        0.04818        0.06890       -0.17158       -0.18226       -0.08835       -0.10506       -0.29481       -0.19527       -0.29951       -0.25332       -0.28813       -0.40697       -0.47533       -0.48493       -0.43253       -0.34057       -0.44222       -0.36858       -0.40962       -0.35318       -0.28021       -0.20489       -0.19367       -0.14112       -0.09711        0.03787        0.07743        0.25147        0.27414        0.36094        0.40492        0.52922        0.59815        0.61418        0.74394        0.70381        0.74592        0.65572        0.66438        0.69302        0.63342        0.61519        0.60689        0.43010        0.40441        0.35570        0.31286        0.22233        0.12834        0.05910        0.05882        0.00124       -0.08133       -0.02929       -0.03130       -0.07200        0.06578        0.16244        0.25096        0.32280        0.33639        0.42961        0.55056        0.60262        0.55088        0.67113        0.57440        0.55042        0.59714        0.65446        0.53697        0.45198        0.41091        0.37538        0.24485        0.21463        0.12840        0.11655        0.05281        0.04735        0.10589        0.17339        0.14139        0.18035        0.22032        0.24169        0.32848        0.46431        0.49605        0.50047        0.51121        0.58039        0.56947        0.52312        0.43451        0.39001        0.36613        0.27430        0.24843        0.20524        0.20231        0.19549        0.17463        0.16474        0.13387        0.19709        0.25079        0.33968        0.38596        0.41125        0.46052        0.54016        0.47929        0.49402        0.42275        0.39738        0.38216        0.36323        0.29168        0.24911        0.18809        0.23211        0.21342        0.18508        0.22231        0.22611        0.23409        0.29954        0.40001        0.40112        0.37704        0.39586        0.46086        0.49111        0.42379        0.34910        0.32715        0.27370        0.26646        0.25291        0.21417        0.28311        0.29365        0.29816        0.31760        0.31553        0.35174        0.37154        0.37338        0.37629        0.35292        0.31499        0.33011        0.31978        0.29780        0.27885        0.27436        0.21913        0.27435        0.27658        0.29723        0.31737        0.34417        0.38343        0.34478        0.31360        0.36493        0.35995        0.26127        0.29278        0.30398        0.24386        0.20509        0.25308        0.27444        0.27840        0.29737        0.31177        0.34462        0.33572        0.36566        0.32361        0.32022        0.30915        0.30330        0.27499        0.25310        0.25625        0.25743        0.28026        0.30526        0.30823        0.30352        0.30528        0.32257        0.26380        0.29916        0.26904        0.25859        0.27855        0.26408        0.26342        0.26282        0.30615        0.29068        0.32309        0.28744        0.26699        0.30629        0.31630        0.33481        0.31755        0.28678        0.24988        0.26089        0.26376        0.26158        0.31841        0.31428        0.33410        0.31548        0.31391        0.24159        0.27523        0.20633        0.21782        0.24804        0.25210        0.26262        0.28505        0.30444        0.30076        0.35846        0.30837        0.25727        0.24340        0.23331        0.28512        0.32177        0.30843        0.27032        0.27619        0.27028        0.32912        0.28590        0.25729        0.26483        0.26510        0.28032        0.24715        0.27216        0.31785        0.29372        0.23689        0.24573        0.28730        0.31560        0.26885        0.26382        0.24619        0.26736        0.29418        0.36967        0.27687        0.27465        0.26327        0.24413        0.22441        0.18041        0.24100        0.23342        0.22417        0.17840        0.19567        0.23137        0.21161        0.22834        0.20529        0.24623        0.23568        0.21547        0.16369        0.18058        0.20481        0.25724        0.11728        0.04986        0.20053        0.16773        0.13271        0.25244        0.16402        0.22496        0.22189        0.00851       -0.46655       -0.97765
2.793290 2.765961 2.738772 2.711723 2.684814 2.658046 2.631417 2.604929 2.578582 2.552374 2.526307 2.500380 2.474593 2.448947 2.423441 2.398075 2.372849 2.347763 2.322818 2.298013 2.273348 2.248824 2.224440 2.200196 2.176092 2.152128 2.128305 2.104622 2.081079 2.057677 2.034415 2.011293 1.988311 1.965469 1.942768 1.920207 1.897786 1.875506 1.853365 1.831365 1.809506 1.787786 1.766207 1.744768 1.723469 1.702310 1.681292 1.660414 1.639676 1.619079 1.598621 1.884363 2.241876 1.673112 1.718498 1.358222 0.924157 1.179055 1.003996 1.055883 1.016393 1.470580 1.495482 1.514611 1.270760 0.924102 0.811033 0.996975 0.695688 0.484228 0.577728 0.671539 0.417000 0.474838 0.325553 0.376221 0.241436 0.148079 -0.030116 0.000433 0.007308 0.084301 0.036247 0.074918 -0.040845 0.032695 0.110953 0.217699 0.277511 0.207181 0.312643 0.549990 0.439905 0.722207 0.780350 0.853598 0.906940 1.112580 1.153339 1.168108 1.314149 1.232783 1.364091 1.195199 1.103273 1.295999 1.120334 1.040718 1.119975 0.870244 0.740264 0.676817 0.658075 0.455414 0.388763 0.261224 0.232564 0.098842 0.003360 0.091944 0.036315 -0.057926 0.121219 0.252784 0.315119 0.458156 0.490482 0.553045 0.720006 0.834435 0.671307 0.965408 0.781523 0.685402 0.767339 0.816408 0.726019 0.628858 0.438635 0.514360 0.287916 0.185576 0.149394 0.014462 -0.014324 -0.107099 -0.019965 0.057294 0.077285 -0.034151 0.253021 0.097530 0.227554 0.383001 0.442318 0.544813 0.423896 0.565855 0.636793 0.504132 0.404846 0.352666 0.329842 0.154926 0.154576 0.006998 0.095985 0.025731 -0.001514 -0.019904 -0.099150 0.006065 0.038420 0.108114 0.292301 0.219257 0.360179 0.367329 0.465131 0.378893 0.398352 0.329709 0.229769 0.307412 0.179278 0.153356 0.000205 0.037499 0.076119 -0.030633 0.000333 0.027453 0.063004 0.069701 0.219909 0.317055 0.241896 0.225296 0.377223 0.404551 0.350711 0.240394 0.177688 0.151001 0.088632 0.078616 0.037762 0.022460 0.137723 0.067069 0.183705 0.104236 0.149254 0.237139 0.211198 0.235744 0.205048 0.199273 0.109169 0.164500 0.135349 0.095492 0.109158 0.004354 0.044166 0.097853 0.052703 0.139793 0.126869 0.208773 0.223100 0.153347 0.126223 0.229330 0.097968 0.073244 0.081258 0.060425 0.001575 -0.035807 0.044065 0.072308 0.040546 0.117232 0.115220 0.141154 0.135833 0.177472 0.105331 0.090332 0.104665 0.094763 0.029316 0.018611 0.045246 -0.003581 0.080836 0.113750 0.085379 0.085434 0.087254 0.111337 0.017254 0.111516 0.036309 0.024422 0.083102 0.018526 0.027133 0.050134 0.091709 0.045922 0.118658 0.070450 -0.000423 0.118130 0.081592 0.103927 0.088147 0.016232 -0.010063 -0.005300 0.043816 -0.001600 0.090312 0.074996 0.115085 0.060854 0.123534 -0.037306 0.024935 -0.088863 0.001535 -0.046823 0.014573 0.018644 0.035221 0.085631 0.067335 0.123258 0.011906 -0.016711 -0.047223 -0.067464 0.060993 0.076739 0.051125 -0.002695 -0.003902 -0.002595 0.073429 -0.013947 -0.050431 -0.016124 -0.048350 0.006571 -0.049690 -0.006146 0.045112 0.002610 -0.063552 -0.010013 0.041356 0.009505 0.000120 -0.014200 -0.052211 0.049510 0.066636 0.152095 0.016856 0.018158 0.032286 0.024801 -0.041707 -0.049279 0.044300 0.028950 0.012724 -0.044312 -0.030905 0.087397 -0.041264 0.133299 0.006726 0.142501 0.038706 0.105301 -0.076351 0.049639 0.005001 0.204029 -0.012730 -0.006103 0.276121 0.226003 0.183663 0.452339 0.181100 0.296737 0.348387 0.013998 -1.346321
0.072396 0.072835 0.074150 0.076343 0.079411 0.083356 0.088175 0.093867 0.100432 0.107867 0.116169 0.125335 0.135362 0.146246 0.157980 0.170559 0.183974 0.198217 0.213278 0.229144 0.245803 0.263237 0.281430 0.300361 0.320008 0.340346 0.361345 0.382976 0.405202 0.427987 0.451287 0.475058 0.499250 0.523808 0.548673 0.573782 0.599068 0.624457 0.649871 0.675228 0.700438 0.725409 0.750042 0.774233 0.797872 0.820847 0.843038 0.864322 0.884571 0.903654 0.921436 0.937777 0.952537 0.965572 0.976738 0.985890 0.992883 0.997573 0.999817 0.999477 0.996419 0.990512 0.981635 0.969672 0.954518 0.936080 0.914274 0.889034 0.860305 0.828053 0.792261 0.752931 0.710089 0.663783 0.614085 0.561095 0.504938 0.445769 0.383771 0.319158 0.252173 0.183091 0.112219 0.039891 0.033525 0.107635 0.182016 0.256218 0.329769 0.402173 0.472918 0.541473 0.607300 0.669849 0.728571 0.782916 0.832346 0.876331 0.914366 0.945967 0.970686 0.988112 0.997883 0.999686 0.993270 0.978449 0.955110 0.923218 0.882819 0.834052 0.777143 0.712416 0.640292 0.561288 0.476021 0.385204 0.289642 0.190232 0.087950 0.016149 0.120946 0.225265 0.327888 0.427566 0.523036 0.613037 0.696328 0.771706 0.838021 0.894206 0.939286 0.972401 0.992828 0.999995 0.993499 0.973122 0.938844 0.890850 0.829544 0.755547 0.669701 0.573068 0.466919 0.352727 0.232147 0.107000 0.020752 0.149034 0.275692 0.398523 0.515321 0.623911 0.722196 0.808199 0.880104 0.936304 0.975440 0.996436 0.998539 0.981347 0.944831 0.889353 0.815677 0.724969 0.618790 0.499078 0.368120 0.228523 0.083157 0.064887 0.212368 0.355960 0.492331 0.618214 0.730499 0.826305 0.903066 0.958609 0.991219 0.999703 0.983444 0.942434 0.877305 0.789332 0.680425 0.553105 0.410452 0.256051 0.093901 0.071674 0.236137 0.394867 0.543277 0.676961 0.791829 0.884233 0.951101 0.990047 0.999472 0.978641 0.927734 0.847877 0.741136 0.610485 0.459746 0.293478 0.116870 0.064422 0.244448 0.417155 0.576597 0.717132 0.833648 0.921747 0.977932 0.999762 0.985974 0.936571 0.852858 0.737444 0.594176 0.428041 0.245007 0.051829 0.144198 0.335502 0.514522 0.674025 0.807390 0.908912 0.974053 0.999673 0.984199 0.927744 0.832149 0.700961 0.539324 0.353816 0.152188 0.056935 0.264410 0.460977 0.637679 0.786268 0.899616 0.972074 0.999780 0.980892 0.915736 0.806846 0.658914 0.478612 0.274332 0.055807 0.166326 0.381040 0.577461 0.745438 0.876069 0.962205 0.998867 0.983575 0.916533 0.800706 0.641721 0.447644 0.228598 0.003734 0.236716 0.457438 0.653441 0.813421 0.927915 0.989882 0.995186 0.942900 0.835447 0.678547 0.480949 0.254001 0.011010 0.233495 0.464645 0.668118 0.831053 0.942889 0.996085 0.986673 0.914599 0.783821 0.602155 0.380855 0.133961 0.122563 0.371835 0.597180 0.783238 0.917047 0.988987 0.993513 0.929643 0.801124 0.616287 0.387566 0.130704 0.136283 0.394366 0.624841 0.810705 0.937947 0.996644 0.981792 0.893793 0.738543 0.527116 0.275028 0.001157 0.273650 0.528142 0.742311 0.899005 0.985339 0.993813 0.923029 0.777940 0.569587 0.314324 0.032602 0.252641 0.517823 0.740679 0.902152 0.988084 0.990509 0.908473 0.748265 0.523020 0.251725 0.042340 0.333525 0.596082 0.806414 0.945260 0.999513 0.963534 0.839815 0.638920 0.378678 0.082667 0.221862 0.506469 0.744197 0.912132 0.993697 0.980355 0.872597 0.680066 0.420803 0.119643 0.194107 0.489490 0.736948 0.911313
1.000000 1.000000 1.000000 1.000000 1.000000 1.000000 1.000000 1.000000 1.000000 1.000000 1.000000 1.000000 1.000000 1.000000 1.000000 1.000000 1.000000 1.000000 1.000000 1.000000 1.000000 1.000000 1.000000 1.000000 1.000000 1.000000 1.000000 1.000000 1.000000 1.000000 1.000000 1.000000 1.000000 1.000000 1.000000 1.000000 1.000000 1.000000 1.000000 1.000000 1.000000 1.000000 1.000000 1.000000 1.000000 1.000000 1.000000 1.000000 1.000000 1.000000 1.000000 1.000000 0.832142 0.832142 0.832142 0.832142 0.832142 0.832142 0.832142 0.815059 0.815059 0.815059 0.815059 0.815059 0.815059 0.815059 0.815059 0.815059 0.815059 0.815059 0.815059 0.815059 0.815059 0.815059 0.815059 0.815059 0.815059 0.815059 0.815059 0.815059 0.815059 0.815059 0.815059 0.815059 0.815059 0.815059 0.815059 0.815059 0.815059 0.815059 0.815059 0.815059 0.815059 0.815059 0.815059 0.815059 0.815059 0.815059 0.815059 0.815059 0.815059 0.815059 0.815059 0.952256 0.953036 0.950363 0.949397 0.947845 0.944271 0.940190 0.939672 0.940960 0.941195 0.941658 0.943774 0.944364 0.945977 0.947173 0.947986 0.949471 0.957540 0.961209 0.960788 0.961102 0.952247 0.959020 0.957946 0.955475 0.956126 0.956347 0.956997 0.956910 0.956774 0.956390 0.954894 0.955525 0.955325 0.954596 0.953590 0.951493 0.951395 0.950992 0.951146 0.952100 0.952635 0.953411 0.953936 0.953202 0.953365 0.953367 0.953276 0.948909 0.948893 0.941520 0.941798 0.942677 0.942195 0.941188 0.939674 0.939753 0.939687 0.939684 0.939607 0.940003 0.923813 0.923298 0.923542 0.922996 0.915684 0.905748 0.899370 0.894247 0.895619 0.900019 0.904588 0.905133 0.902063 0.900924 0.885502 0.882173 0.868730 0.865468 0.853962 0.863895 0.865051 0.866064 0.857075 0.856835 0.855212 0.853690 0.845574 0.850204 0.850304 0.846488 0.841793 0.840654 0.838851 0.843185 0.851455 0.852169 0.848669 0.850685 0.837785 0.829973 0.828920 0.830408 0.837160 0.848818 0.848646 0.847654 0.841545 0.838097 0.832333 0.829442 0.828807 0.830100 0.829601 0.832376 0.829410 0.840414 0.830487 0.822699 0.827109 0.834430 0.836653 0.836491 0.838497 0.836318 0.839467 0.828433 0.824533 0.826312 0.774001 0.774882 0.768840 0.767779 0.738377 0.738565 0.731438 0.731905 0.725001 0.716663 0.728202 0.730651 0.677352 0.685844 0.679814 0.663574 0.641679 0.653961 0.670859 0.680507 0.679640 0.673393 0.660818 0.657700 0.669026 0.670379 0.674725 0.663921 0.658967 0.647559 0.653194 0.635516 0.642318 0.639200 0.638897 0.639945 0.637407 0.619089 0.626953 0.617730 0.608838 0.602756 0.576177 0.535998 0.522079 0.512939 0.490534 0.475920 0.492812 0.485273 0.470574 0.459713 0.444579 0.428506 0.433878 0.432452 0.431864 0.427036 0.423345 0.376284 0.393734 0.388100 0.382997 0.370640 0.389531 0.378786 0.345898 0.323288 0.295308 0.313573 0.328118 0.323437 0.302789 0.291094 0.306958 0.273332 0.279354 0.277752 0.297260 0.248878 0.191225 0.215313 0.215268 0.217557 0.208116 0.166665 0.194163 0.170019 0.181299 0.188877 0.133755 0.100341 0.087512 0.064877 0.072388 0.099192 0.110381 0.096684 0.076971 -0.024196 0.009823 0.038176 0.038176 0.038176 0.038176 0.038176 0.038176 0.038176 0.038176 0.038176 0.038176 0.038176 -0.025180 -0.025180 -0.025180 -0.025180 -0.025180 -0.025180 -0.025180 -0.025180 -0.025180 -0.025180 -0.025180 -0.025180 -0.025180 -0.025180 -0.025180 -0.025180 -0.025180 -0.025180 -0.025180
0.000000 0.000000 0.000000 0.000000 0.000000 0.000000 0.000000 0.000000 0.000000 0.000000 0.000000 0.000000 0.000000 0.000000 0.000000 0.000000 0.000000 0.000000 0.000000 0.000000 0.000000 0.000000 0.000000 0.000000 0.000000 0.000000 0.000000 0.000000 0.000000 0.000000 0.000000 0.000000 0.000000 0.000000 0.000000 0.000000 0.000000 0.000000 0.000000 0.000000 0.000000 0.000000 0.000000 0.000000 0.000000 0.000000 0.000000 0.000000 0.000000 0.000000 0.000000 0.000000 0.173422 0.173422 0.173422 0.173422 0.173422 0.173422 0.173422 0.191565 0.191565 0.191565 0.191565 0.191565 0.191565 0.191565 0.191565 0.191565 0.191565 0.191565 0.191565 0.191565 0.191565 0.191565 0.191565 0.191565 0.191565 0.191565 0.191565 0.191565 0.191565 0.191565 0.191565 0.191565 0.191565 0.191565 0.191565 0.191565 0.191565 0.191565 0.191565 0.191565 0.191565 0.191565 0.191565 0.191565 0.191565 0.191565 0.191565 0.191565 0.191565 0.191565 0.191565 0.219529 0.219529 0.219529 0.219529 0.219529 0.219529 0.219529 0.219529 0.219529 0.219529 0.219529 0.219529 0.219529 0.219529 0.219529 0.219529 0.219529 0.219529 0.219529 0.219529 0.219529 0.219529 0.219529 0.219529 0.219529 0.219529 0.219529 0.219529 0.219529 0.219529 0.219529 0.237356 0.237356 0.237356 0.237356 0.237356 0.237356 0.237356 0.237356 0.237356 0.237356 0.237356 0.237356 0.237356 0.237356 0.237356 0.237356 0.237356 0.237356 0.237356 0.237356 0.237356 0.237356 0.237356 0.237356 0.244339 0.244339 0.244339 0.244339 0.244339 0.244339 0.244339 0.244339 0.244339 0.244339 0.244339 0.244339 0.244339 0.244339 0.244339 0.244339 0.244339 0.244339 0.244339 0.244339 0.244339 0.248069 0.248069 0.248069 0.248069 0.248069 0.248069 0.248069 0.248069 0.248069 0.248069 0.248069 0.248069 0.248069 0.248069 0.248069 0.248069 0.248069 0.248069 0.248069 0.248069 0.248069 0.248069 0.248069 0.248069 0.248069 0.248069 0.248069 0.248069 0.248069 0.248069 0.248069 0.248069 0.248069 0.248069 0.248069 0.248069 0.248069 0.256074 0.256074 0.256074 0.256074 0.256074 0.256074 0.256074 0.256074 0.256074 0.256074 0.256074 0.256074 0.256074 0.256074 0.256074 0.256074 0.256074 0.256074 0.256074 0.256074 0.256074 0.256074 0.256074 0.256074 0.256074 0.256074 0.256074 0.256074 0.256074 0.256074 0.256074 0.256074 0.256074 0.256074 0.256074 0.256074 0.256074 0.256074 0.256074 0.256074 0.256074 0.256074 0.256074 0.256074 0.256074 0.260378 0.260378 0.260378 0.260378 0.260378 0.260378 0.260378 0.260378 0.260378 0.260378 0.260378 0.260378 0.260378 0.256074 0.256074 0.256074 0.256074 0.256074 0.256074 0.256074 0.256074 0.256074 0.256074 0.256074 0.256074 0.256074 0.260378 0.260378 0.260378 0.260378 0.260378 0.260378 0.260378 0.260378 0.260378 0.260378 0.260378 0.260378 0.251976 0.251976 0.251976 0.251976 0.251976 0.251976 0.251976 0.251976 0.251976 0.251976 0.251976 0.251976 0.256074 0.256074 0.256074 0.256074 0.256074 0.256074 0.256074 0.256074 0.256074 0.256074 0.256074 0.251976 0.251976 0.251976 0.251976 0.251976 0.251976 0.251976 0.251976 0.251976 0.251976 0.251976 0.248069 0.248069 0.248069 0.248069 0.248069 0.248069 0.248069 0.248069 0.248069 0.248069 0.248069 0.256074 0.256074 0.256074 0.256074 0.256074 0.256074 0.256074 0.256074 0.256074 0.256074 0.256074 0.256074 0.256074 0.256074 0.256074 0.256074 0.256074 0.256074 0.256074
