# Output from CTFFind version 4.1.9, run on 2019-11-02 17:48:48
# Input file: stack16_bm3d_averaged_1_0.5_0_2000_half.mrc ; Number of micrographs: 1
# Pixel size: 3.000 Angstroms ; acceleration voltage: 300.0 keV ; spherical aberration: 0.00 mm ; amplitude contrast: 0.07
# Box size: 512 pixels ; min. res.: 30.0 Angstroms ; max. res.: 5.0 Angstroms ; min. def.: 5000.0 um; max. def. 50000.0 um; num. frames averaged: 1
# 6 lines per micrograph: #1 - spatial frequency (1/Angstroms); #2 - 1D rotational average of spectrum (assuming no astigmatism); #3 - 1D rotational average of spectrum; #4 - CTF fit; #5 - cross-correlation between spectrum and CTF fit; #6 - 2sigma of expected cross correlation of noise
0.000000 0.000651 0.001302 0.001953 0.002604 0.003255 0.003906 0.004557 0.005208 0.005859 0.006510 0.007161 0.007812 0.008464 0.009115 0.009766 0.010417 0.011068 0.011719 0.012370 0.013021 0.013672 0.014323 0.014974 0.015625 0.016276 0.016927 0.017578 0.018229 0.018880 0.019531 0.020182 0.020833 0.021484 0.022135 0.022786 0.023438 0.024089 0.024740 0.025391 0.026042 0.026693 0.027344 0.027995 0.028646 0.029297 0.029948 0.030599 0.031250 0.031901 0.032552 0.033203 0.033854 0.034505 0.035156 0.035807 0.036458 0.037109 0.037760 0.038411 0.039062 0.039714 0.040365 0.041016 0.041667 0.042318 0.042969 0.043620 0.044271 0.044922 0.045573 0.046224 0.046875 0.047526 0.048177 0.048828 0.049479 0.050130 0.050781 0.051432 0.052083 0.052734 0.053385 0.054036 0.054688 0.055339 0.055990 0.056641 0.057292 0.057943 0.058594 0.059245 0.059896 0.060547 0.061198 0.061849 0.062500 0.063151 0.063802 0.064453 0.065104 0.065755 0.066406 0.067057 0.067708 0.068359 0.069010 0.069661 0.070312 0.070964 0.071615 0.072266 0.072917 0.073568 0.074219 0.074870 0.075521 0.076172 0.076823 0.077474 0.078125 0.078776 0.079427 0.080078 0.080729 0.081380 0.082031 0.082682 0.083333 0.083984 0.084635 0.085286 0.085938 0.086589 0.087240 0.087891 0.088542 0.089193 0.089844 0.090495 0.091146 0.091797 0.092448 0.093099 0.093750 0.094401 0.095052 0.095703 0.096354 0.097005 0.097656 0.098307 0.098958 0.099609 0.100260 0.100911 0.101562 0.102214 0.102865 0.103516 0.104167 0.104818 0.105469 0.106120 0.106771 0.107422 0.108073 0.108724 0.109375 0.110026 0.110677 0.111328 0.111979 0.112630 0.113281 0.113932 0.114583 0.115234 0.115885 0.116536 0.117188 0.117839 0.118490 0.119141 0.119792 0.120443 0.121094 0.121745 0.122396 0.123047 0.123698 0.124349 0.125000 0.125651 0.126302 0.126953 0.127604 0.128255 0.128906 0.129557 0.130208 0.130859 0.131510 0.132161 0.132812 0.133464 0.134115 0.134766 0.135417 0.136068 0.136719 0.137370 0.138021 0.138672 0.139323 0.139974 0.140625 0.141276 0.141927 0.142578 0.143229 0.143880 0.144531 0.145182 0.145833 0.146484 0.147135 0.147786 0.148438 0.149089 0.149740 0.150391 0.151042 0.151693 0.152344 0.152995 0.153646 0.154297 0.154948 0.155599 0.156250 0.156901 0.157552 0.158203 0.158854 0.159505 0.160156 0.160807 0.161458 0.162109 0.162760 0.163411 0.164062 0.164714 0.165365 0.166016 0.166667 0.167318 0.167969 0.168620 0.169271 0.169922 0.170573 0.171224 0.171875 0.172526 0.173177 0.173828 0.174479 0.175130 0.175781 0.176432 0.177083 0.177734 0.178385 0.179036 0.179688 0.180339 0.180990 0.181641 0.182292 0.182943 0.183594 0.184245 0.184896 0.185547 0.186198 0.186849 0.187500 0.188151 0.188802 0.189453 0.190104 0.190755 0.191406 0.192057 0.192708 0.193359 0.194010 0.194661 0.195312 0.195964 0.196615 0.197266 0.197917 0.198568 0.199219 0.199870 0.200521 0.201172 0.201823 0.202474 0.203125 0.203776 0.204427 0.205078 0.205729 0.206380 0.207031 0.207682 0.208333 0.208984 0.209635 0.210286 0.210938 0.211589 0.212240 0.212891 0.213542 0.214193 0.214844 0.215495 0.216146 0.216797 0.217448 0.218099 0.218750 0.219401 0.220052 0.220703 0.221354 0.222005 0.222656 0.223307 0.223958 0.224609 0.225260 0.225911 0.226562 0.227214 0.227865 0.228516 0.229167 0.229818 0.230469 0.231120 0.231771 0.232422 0.233073 0.233724 0.234375 0.235026 0.235677
       0.34363        0.34363        0.34363        0.34363        0.34363        0.34363        0.34363        0.34363        0.34363        0.34363        0.34363        0.34363        0.34363        0.34363        0.34363        0.34363        0.34363        0.34363        0.34363        0.34363        0.34363        0.34363        0.34363        0.34363        0.34363        0.34363        0.34362        0.34363        0.34363        0.34363        0.34363        0.34363        0.34363        0.34363        0.34362        0.34362        0.34363        0.34363        0.34363        0.34363        0.34363        0.34363        0.34363        0.34363        0.34363        0.34363        0.34363        0.34363        0.34363        0.34363        0.34363        0.48972        0.70471        0.45604       -0.10970       -0.41385       -0.57117       -0.66046       -0.74582       -0.76219       -0.86909       -0.91366       -0.76081       -0.92473       -0.87143       -1.02439       -1.09538       -0.98914       -0.96113       -0.88330       -0.86334       -0.75160       -0.64148       -0.50011       -0.42278       -0.21795       -0.11884       -0.02350        0.20405        0.24420        0.30893        0.38685        0.44070        0.51738        0.58203        0.59656        0.59391        0.50312        0.54660        0.48630        0.39064        0.32492        0.20803        0.17472        0.10346       -0.06286       -0.11226       -0.09226        0.00942       -0.01684        0.00951        0.03026        0.21189        0.22042        0.39105        0.45852        0.56372        0.70242        0.76197        0.72840        0.70863        0.70629        0.58645        0.54476        0.40066        0.27343        0.19363        0.14365        0.06623        0.02157        0.02409        0.06163        0.07911        0.27247        0.41797        0.50451        0.58699        0.63978        0.70675        0.66208        0.65188        0.67266        0.61092        0.48017        0.28434        0.23286        0.20537        0.13161        0.04902        0.09387        0.12339        0.24980        0.33934        0.41545        0.50161        0.54085        0.66470        0.61098        0.55600        0.50770        0.36719        0.21096        0.21200        0.15322        0.11237        0.11936        0.21435        0.25531        0.36274        0.44474        0.44084        0.56939        0.51294        0.44593        0.45258        0.38577        0.32427        0.27789        0.22094        0.23879        0.21027        0.21402        0.32653        0.44878        0.48858        0.48028        0.55128        0.49610        0.45648        0.39572        0.29230        0.22423        0.23297        0.24761        0.26843        0.27102        0.32504        0.44283        0.49816        0.48697        0.45927        0.41934        0.38622        0.36288        0.24918        0.23041        0.24804        0.29526        0.35392        0.36440        0.39512        0.40813        0.44541        0.37139        0.34874        0.31338        0.30318        0.26596        0.26044        0.31323        0.34633        0.41698        0.41799        0.39959        0.39531        0.40883        0.35105        0.28830        0.29033        0.27481        0.31094        0.36116        0.36506        0.41531        0.36190        0.36714        0.39039        0.34579        0.31520        0.27993        0.29782        0.34071        0.33413        0.32776        0.37733        0.39715        0.33704        0.35377        0.29477        0.30881        0.29065        0.28232        0.30093        0.33089        0.38321        0.36739        0.34854        0.32996        0.28737        0.27800        0.29709        0.28219        0.31424        0.36995        0.39460        0.33875        0.31836        0.31319        0.29773        0.28183        0.27870        0.29953        0.34239        0.33681        0.34639        0.31874        0.34559        0.32534        0.28872        0.31544        0.32201        0.33028        0.33348        0.31883        0.31678        0.30834        0.32909        0.31520        0.33538        0.39183        0.33956        0.36090        0.32372        0.31639        0.28927        0.31101        0.28974        0.31120        0.31789        0.35322        0.36488        0.31919        0.32181        0.31313        0.29454        0.29469        0.29002        0.33663        0.34129        0.35932        0.33769        0.32715        0.25813        0.26956        0.31286        0.35227        0.31448        0.30085        0.28938        0.28912        0.32417        0.30616        0.30516        0.33327        0.34557        0.31640        0.24524        0.28761        0.28187        0.28848        0.32004        0.32161        0.34767        0.34272        0.27918        0.26459        0.29191        0.26466        0.28736        0.27508        0.24699        0.26757        0.24611        0.27822        0.27685        0.27666        0.26912        0.31521        0.32853        0.31830        0.29644        0.31496        0.24813        0.27196        0.25460        0.33700        0.34086        0.23495        0.26215        0.27634        0.24916        0.25033        0.29856        0.22881        0.14524        0.16977        0.25428        0.27984        0.23060        0.15127        0.03103       -0.39688       -0.73623
3.056276 3.018317 2.980602 2.943130 2.905902 2.868918 2.832178 2.795681 2.759428 2.723419 2.687653 2.652132 2.616854 2.581820 2.547029 2.512482 2.478179 2.444120 2.410304 2.376733 2.343404 2.310320 2.277479 2.244883 2.212529 2.180420 2.148554 2.116932 2.085554 2.054420 2.023529 1.992882 1.962478 1.932319 1.902403 1.872731 1.843302 1.814118 1.785177 1.756480 1.728026 1.699817 1.671850 1.644128 1.616650 1.589415 1.562424 1.535677 1.509173 1.482913 1.456897 1.512973 1.704901 1.614468 0.968616 0.682438 0.476887 0.433119 0.320461 0.264929 0.200247 0.021685 0.196414 0.081070 -0.005735 -0.059488 -0.197219 -0.151316 -0.091152 -0.091155 -0.099314 0.009973 0.030904 0.234536 0.150265 0.365972 0.446184 0.476998 0.717364 0.701512 0.709889 0.840578 0.824842 0.856543 0.924630 0.894178 0.942963 0.754724 0.837777 0.842347 0.621049 0.609662 0.459161 0.438661 0.389626 0.208458 0.119838 0.101204 0.205602 0.147652 0.192401 0.111917 0.316113 0.290210 0.457556 0.418529 0.582616 0.646735 0.768725 0.692418 0.664020 0.672676 0.535780 0.507256 0.371977 0.293605 0.118325 0.146349 0.001767 -0.014214 -0.037551 -0.027985 -0.000924 0.035203 0.274229 0.333336 0.382532 0.400733 0.470561 0.533447 0.458451 0.507168 0.402229 0.389461 0.156051 0.065547 0.071921 0.000544 -0.121692 -0.041403 -0.108514 0.017917 0.134789 0.156997 0.253745 0.257931 0.385662 0.462957 0.356823 0.388054 0.284318 0.128449 0.049729 0.052681 0.011264 0.001806 0.005232 0.108089 0.132223 0.264859 0.237955 0.307452 0.374459 0.234564 0.242194 0.219257 0.133573 0.081107 0.055626 0.027519 0.039204 -0.012982 0.030230 0.186290 0.222843 0.249950 0.278894 0.233167 0.238506 0.148878 0.104767 -0.024681 -0.015791 -0.005498 0.018350 0.007658 0.027896 0.105626 0.186113 0.202146 0.219362 0.139078 0.145480 0.079456 0.055498 -0.057162 -0.012475 -0.007799 0.054369 0.065867 0.080163 0.152397 0.088372 0.166572 0.069489 0.054144 0.044079 0.027571 0.001179 0.011710 0.056787 0.083372 0.136004 0.143657 0.067288 0.133601 0.102021 0.020566 0.007321 0.004927 -0.005167 0.059695 0.062149 0.098370 0.099466 0.077776 0.064449 0.083234 0.034178 0.013018 -0.011227 0.014570 0.061040 0.028966 0.042038 0.083640 0.085704 0.057039 0.033754 0.006249 0.015458 -0.005063 -0.012895 0.014976 0.052341 0.104108 0.060147 0.059018 0.041165 -0.013991 -0.000071 0.013837 0.009703 0.027322 0.107139 0.053994 0.024000 0.043760 0.003275 0.025642 -0.012772 -0.005019 0.023145 0.066114 0.032624 0.046726 0.031449 0.053877 0.028402 -0.004162 0.028402 0.043408 0.037690 0.028732 0.028340 0.006677 -0.005181 0.027920 0.011012 0.044138 0.080951 0.048901 0.024648 0.017094 0.003128 -0.002197 0.006932 0.002391 0.013262 -0.002393 0.087237 0.054875 0.034833 0.038829 0.004108 0.010883 0.012393 -0.005356 0.056706 0.062665 0.088339 0.050189 0.051224 -0.025546 0.017878 0.036669 0.079183 0.025503 0.038162 0.011765 0.006936 0.048770 0.044122 0.035575 0.060043 0.078121 0.062053 -0.020067 0.019103 0.041493 0.026700 0.044488 0.075544 0.076944 0.073185 0.015901 0.002658 0.015807 -0.002045 0.016708 -0.014784 -0.031125 -0.006126 -0.048000 0.000185 -0.007785 0.007329 -0.069659 0.001943 0.017006 0.004257 -0.028659 0.036077 -0.090338 -0.019637 -0.039601 0.037163 0.066034 -0.099899 -0.012318 0.040185 0.019776 -0.041152 0.045736 0.031033 0.003953 -0.047799 0.080987 0.241529 0.203526 0.116421 0.030099 -0.646870
0.072396 0.073046 0.074995 0.078242 0.082787 0.088627 0.095762 0.104187 0.113899 0.124893 0.137163 0.150699 0.165492 0.181529 0.198795 0.217271 0.236935 0.257762 0.279721 0.302776 0.326886 0.352006 0.378081 0.405050 0.432846 0.461393 0.490606 0.520390 0.550642 0.581247 0.612083 0.643012 0.673890 0.704558 0.734848 0.764578 0.793558 0.821584 0.848443 0.873911 0.897757 0.919737 0.939605 0.957105 0.971979 0.983966 0.992804 0.998233 0.999997 0.997849 0.991551 0.980878 0.965624 0.945601 0.920650 0.890636 0.855461 0.815062 0.769417 0.718552 0.662540 0.601510 0.535645 0.465191 0.390456 0.311812 0.229701 0.144630 0.057172 0.032028 0.122267 0.212778 0.302737 0.391270 0.477461 0.560357 0.638981 0.712344 0.779455 0.839336 0.891038 0.933659 0.966358 0.988372 0.999038 0.997809 0.984272 0.958164 0.919390 0.868036 0.804384 0.728918 0.642334 0.545543 0.439670 0.326050 0.206221 0.081905 0.045005 0.172473 0.298349 0.420401 0.536357 0.643947 0.740947 0.825234 0.894832 0.947969 0.983128 0.999092 0.995000 0.970381 0.925195 0.859857 0.775262 0.672784 0.554282 0.422073 0.278911 0.127933 0.027389 0.183329 0.335989 0.481390 0.615585 0.734764 0.835374 0.914232 0.968643 0.996500 0.996388 0.967657 0.910487 0.825929 0.715915 0.583242 0.431535 0.265160 0.089125 0.091060 0.269542 0.440317 0.597428 0.735179 0.848356 0.932444 0.983820 0.999943 0.979491 0.922483 0.830333 0.705865 0.553265 0.377978 0.186542 0.013631 0.214527 0.407840 0.585314 0.739112 0.862170 0.948551 0.993759 0.995012 0.951440 0.864211 0.736565 0.573746 0.382834 0.172484 0.047445 0.266326 0.473269 0.657669 0.809761 0.921169 0.985399 0.998269 0.958222 0.866516 0.727272 0.547351 0.336078 0.104805 0.133652 0.365722 0.577828 0.757208 0.892695 0.975472 0.999689 0.962939 0.866538 0.715573 0.518731 0.287851 0.037289 0.216951 0.458211 0.670271 0.838471 0.950757 0.998616 0.977784 0.888704 0.736648 0.531515 0.287267 0.021054 0.247953 0.499905 0.715763 0.878754 0.975740 0.998352 0.943800 0.815275 0.621897 0.378168 0.102984 0.181766 0.452919 0.687900 0.866652 0.973396 0.998123 0.937629 0.796010 0.584532 0.320850 0.027647 0.269267 0.543175 0.768888 0.925098 0.996473 0.975287 0.862362 0.667256 0.407591 0.107602 0.204055 0.496977 0.741984 0.914083 0.995100 0.975725 0.856726 0.649143 0.373452 0.057664 0.265420 0.561569 0.798754 0.950693 0.999869 0.939693 0.775545 0.524498 0.213706 0.122387 0.445791 0.719250 0.910582 0.996571 0.965941 0.821011 0.577776 0.264338 0.082175 0.419920 0.707354 0.908399 0.997086 0.961072 0.803563 0.543290 0.212511 0.146830 0.488330 0.767089 0.945690 0.999365 0.919630 0.715832 0.414308 0.055225 0.312649 0.638478 0.876411 0.992161 0.968128 0.806316 0.528512 0.173611 0.207642 0.559780 0.830710 0.979496 0.982749 0.838546 0.567228 0.208812 0.182686 0.547270 0.828140 0.980653 0.979615 0.823721 0.536301 0.162132 0.239304 0.603156 0.869681 0.994192 0.954779 0.756475 0.430984 0.031965 0.373662 0.716787 0.937963 0.997905 0.884735 0.616653 0.239400 0.181286 0.570926 0.859497 0.994113 0.949019 0.730839 0.378057 0.045447 0.461714 0.792986 0.976324 0.975825 0.789988 0.452717 0.027523 0.404154 0.758455 0.965439 0.983153 0.806486 0.468939 0.036680 0.404114 0.764337 0.970021 0.977794 0.784411 0.428230 0.017984 0.461609 0.809281 0.986673 0.954659 0.718386 0.327013 0.136070 0.570762
1.000000 1.000000 1.000000 1.000000 1.000000 1.000000 1.000000 1.000000 1.000000 1.000000 1.000000 1.000000 1.000000 1.000000 1.000000 1.000000 1.000000 1.000000 1.000000 1.000000 1.000000 1.000000 1.000000 1.000000 1.000000 1.000000 1.000000 1.000000 1.000000 1.000000 1.000000 1.000000 1.000000 1.000000 1.000000 1.000000 1.000000 1.000000 1.000000 1.000000 1.000000 1.000000 1.000000 1.000000 1.000000 1.000000 1.000000 1.000000 1.000000 1.000000 1.000000 1.000000 0.932801 0.932801 0.932801 0.932801 0.932801 0.932801 0.932801 0.932801 0.932801 0.932801 0.932801 0.932801 0.932801 0.932801 0.932801 0.932801 0.932801 0.932801 0.932801 0.932801 0.932801 0.932801 0.932801 0.932801 0.932801 0.932801 0.932801 0.932801 0.932801 0.932801 0.932801 0.932801 0.932801 0.922219 0.923708 0.926698 0.927777 0.927737 0.927276 0.926954 0.927169 0.928885 0.931209 0.947841 0.950019 0.950592 0.951892 0.952135 0.954658 0.952901 0.952654 0.963226 0.962018 0.962716 0.955709 0.957317 0.956378 0.955433 0.955954 0.956221 0.954264 0.952091 0.950381 0.949729 0.949348 0.951120 0.951600 0.951552 0.953037 0.952991 0.952705 0.949305 0.947908 0.949385 0.951456 0.950612 0.956326 0.956145 0.964174 0.964946 0.963514 0.963425 0.963623 0.963822 0.952605 0.945550 0.939719 0.927853 0.918182 0.916223 0.919206 0.921287 0.920461 0.916130 0.915008 0.912304 0.906810 0.905935 0.906050 0.907722 0.904351 0.900820 0.884393 0.883989 0.886358 0.885454 0.883376 0.875316 0.870825 0.871507 0.874691 0.872053 0.868550 0.884559 0.879732 0.884760 0.887795 0.891085 0.894974 0.891244 0.890507 0.886764 0.883115 0.878245 0.879631 0.868736 0.871627 0.866726 0.857736 0.850329 0.853388 0.862894 0.870862 0.878994 0.877995 0.877820 0.876988 0.868111 0.869286 0.862385 0.863419 0.869091 0.875360 0.871244 0.868501 0.872540 0.870607 0.873928 0.875476 0.871415 0.869712 0.860528 0.860590 0.863093 0.880354 0.879688 0.867835 0.861777 0.853016 0.859624 0.862738 0.862124 0.863823 0.854309 0.855628 0.845286 0.834296 0.835787 0.840391 0.835033 0.836680 0.834163 0.837432 0.839846 0.837909 0.832816 0.831619 0.833718 0.810877 0.817606 0.820646 0.816286 0.820575 0.812708 0.806691 0.801818 0.801698 0.797317 0.810209 0.808543 0.776557 0.763208 0.771322 0.754460 0.745591 0.740877 0.741312 0.702811 0.681090 0.654846 0.649571 0.641478 0.643077 0.642913 0.635151 0.620097 0.606286 0.606149 0.623195 0.624553 0.591828 0.591714 0.584780 0.579529 0.574452 0.575481 0.573775 0.579979 0.584947 0.550762 0.546451 0.552546 0.526742 0.526772 0.524694 0.515714 0.486448 0.492527 0.492191 0.509073 0.527350 0.496150 0.494731 0.501819 0.514729 0.526832 0.526996 0.512977 0.495386 0.502179 0.477403 0.461991 0.479357 0.495207 0.487698 0.503805 0.491599 0.521224 0.514877 0.506532 0.531502 0.549538 0.547796 0.526511 0.539310 0.517467 0.520668 0.503772 0.464050 0.474234 0.461635 0.411984 0.401998 0.419202 0.404631 0.404200 0.378150 0.380254 0.356530 0.321293 0.334060 0.328354 0.294357 0.255435 0.256524 0.258602 0.227139 0.199923 0.219958 0.170049 0.162867 0.181320 0.191073 0.194965 0.183000 0.204813 0.204813 0.204813 0.204813 0.204813 0.204813 0.204813 0.204813 0.204813 0.204813 0.204813 0.204813 0.204813 0.204813 0.230470 0.230470 0.230470 0.230470 0.230470 0.230470 0.230470 0.230470 0.230470 0.230470 0.230470 0.230470
0.000000 0.000000 0.000000 0.000000 0.000000 0.000000 0.000000 0.000000 0.000000 0.000000 0.000000 0.000000 0.000000 0.000000 0.000000 0.000000 0.000000 0.000000 0.000000 0.000000 0.000000 0.000000 0.000000 0.000000 0.000000 0.000000 0.000000 0.000000 0.000000 0.000000 0.000000 0.000000 0.000000 0.000000 0.000000 0.000000 0.000000 0.000000 0.000000 0.000000 0.000000 0.000000 0.000000 0.000000 0.000000 0.000000 0.000000 0.000000 0.000000 0.000000 0.000000 0.000000 0.209657 0.209657 0.209657 0.209657 0.209657 0.209657 0.209657 0.209657 0.209657 0.209657 0.209657 0.209657 0.209657 0.209657 0.209657 0.209657 0.209657 0.209657 0.209657 0.209657 0.209657 0.209657 0.209657 0.209657 0.209657 0.209657 0.209657 0.209657 0.209657 0.209657 0.209657 0.209657 0.209657 0.244339 0.244339 0.244339 0.244339 0.244339 0.244339 0.244339 0.244339 0.244339 0.244339 0.244339 0.244339 0.244339 0.244339 0.244339 0.244339 0.244339 0.244339 0.244339 0.244339 0.244339 0.244339 0.244339 0.244339 0.244339 0.260378 0.260378 0.260378 0.260378 0.260378 0.260378 0.260378 0.260378 0.260378 0.260378 0.260378 0.260378 0.260378 0.260378 0.260378 0.260378 0.260378 0.260378 0.260378 0.260378 0.269680 0.269680 0.269680 0.269680 0.269680 0.269680 0.269680 0.269680 0.269680 0.269680 0.269680 0.269680 0.269680 0.269680 0.269680 0.269680 0.269680 0.269680 0.269680 0.269680 0.269680 0.269680 0.269680 0.269680 0.269680 0.269680 0.269680 0.269680 0.269680 0.269680 0.269680 0.269680 0.269680 0.280056 0.280056 0.280056 0.280056 0.280056 0.280056 0.280056 0.280056 0.280056 0.280056 0.280056 0.280056 0.280056 0.280056 0.280056 0.280056 0.280056 0.280056 0.280056 0.280056 0.280056 0.280056 0.280056 0.280056 0.280056 0.280056 0.280056 0.274721 0.274721 0.274721 0.274721 0.274721 0.274721 0.274721 0.274721 0.274721 0.274721 0.274721 0.274721 0.274721 0.285714 0.285714 0.285714 0.285714 0.285714 0.285714 0.285714 0.285714 0.285714 0.285714 0.285714 0.280056 0.280056 0.280056 0.280056 0.280056 0.280056 0.280056 0.280056 0.280056 0.280056 0.280056 0.274721 0.274721 0.274721 0.274721 0.274721 0.274721 0.274721 0.274721 0.274721 0.274721 0.274721 0.280056 0.280056 0.280056 0.280056 0.280056 0.280056 0.280056 0.280056 0.280056 0.280056 0.285714 0.285714 0.285714 0.285714 0.285714 0.285714 0.285714 0.285714 0.285714 0.269680 0.269680 0.269680 0.269680 0.269680 0.269680 0.269680 0.269680 0.269680 0.269680 0.274721 0.274721 0.274721 0.274721 0.274721 0.274721 0.274721 0.274721 0.274721 0.285714 0.285714 0.285714 0.285714 0.285714 0.285714 0.285714 0.285714 0.264906 0.264906 0.264906 0.264906 0.264906 0.264906 0.264906 0.264906 0.264906 0.274721 0.274721 0.274721 0.274721 0.274721 0.274721 0.274721 0.274721 0.269680 0.269680 0.269680 0.269680 0.269680 0.269680 0.269680 0.269680 0.269680 0.269680 0.269680 0.269680 0.269680 0.269680 0.269680 0.269680 0.280056 0.280056 0.280056 0.280056 0.280056 0.280056 0.280056 0.260378 0.260378 0.260378 0.260378 0.260378 0.260378 0.260378 0.260378 0.269680 0.269680 0.269680 0.269680 0.269680 0.269680 0.269680 0.264906 0.264906 0.264906 0.264906 0.264906 0.264906 0.264906 0.264906 0.264906 0.264906 0.264906 0.264906 0.264906 0.264906 0.260378 0.260378 0.260378 0.260378 0.260378 0.260378 0.260378 0.260378 0.260378 0.260378 0.260378 0.260378
