# Output from CTFFind version 4.1.9, run on 2019-11-03 20:06:19
# Input file: stack11_bm3d_averaged_1_5.5_0_1000_half.mrc ; Number of micrographs: 1
# Pixel size: 3.000 Angstroms ; acceleration voltage: 300.0 keV ; spherical aberration: 0.00 mm ; amplitude contrast: 0.07
# Box size: 512 pixels ; min. res.: 30.0 Angstroms ; max. res.: 5.0 Angstroms ; min. def.: 5000.0 um; max. def. 50000.0 um; num. frames averaged: 1
# 6 lines per micrograph: #1 - spatial frequency (1/Angstroms); #2 - 1D rotational average of spectrum (assuming no astigmatism); #3 - 1D rotational average of spectrum; #4 - CTF fit; #5 - cross-correlation between spectrum and CTF fit; #6 - 2sigma of expected cross correlation of noise
0.000000 0.000651 0.001302 0.001953 0.002604 0.003255 0.003906 0.004557 0.005208 0.005859 0.006510 0.007161 0.007812 0.008464 0.009115 0.009766 0.010417 0.011068 0.011719 0.012370 0.013021 0.013672 0.014323 0.014974 0.015625 0.016276 0.016927 0.017578 0.018229 0.018880 0.019531 0.020182 0.020833 0.021484 0.022135 0.022786 0.023438 0.024089 0.024740 0.025391 0.026042 0.026693 0.027344 0.027995 0.028646 0.029297 0.029948 0.030599 0.031250 0.031901 0.032552 0.033203 0.033854 0.034505 0.035156 0.035807 0.036458 0.037109 0.037760 0.038411 0.039062 0.039714 0.040365 0.041016 0.041667 0.042318 0.042969 0.043620 0.044271 0.044922 0.045573 0.046224 0.046875 0.047526 0.048177 0.048828 0.049479 0.050130 0.050781 0.051432 0.052083 0.052734 0.053385 0.054036 0.054688 0.055339 0.055990 0.056641 0.057292 0.057943 0.058594 0.059245 0.059896 0.060547 0.061198 0.061849 0.062500 0.063151 0.063802 0.064453 0.065104 0.065755 0.066406 0.067057 0.067708 0.068359 0.069010 0.069661 0.070312 0.070964 0.071615 0.072266 0.072917 0.073568 0.074219 0.074870 0.075521 0.076172 0.076823 0.077474 0.078125 0.078776 0.079427 0.080078 0.080729 0.081380 0.082031 0.082682 0.083333 0.083984 0.084635 0.085286 0.085938 0.086589 0.087240 0.087891 0.088542 0.089193 0.089844 0.090495 0.091146 0.091797 0.092448 0.093099 0.093750 0.094401 0.095052 0.095703 0.096354 0.097005 0.097656 0.098307 0.098958 0.099609 0.100260 0.100911 0.101562 0.102214 0.102865 0.103516 0.104167 0.104818 0.105469 0.106120 0.106771 0.107422 0.108073 0.108724 0.109375 0.110026 0.110677 0.111328 0.111979 0.112630 0.113281 0.113932 0.114583 0.115234 0.115885 0.116536 0.117188 0.117839 0.118490 0.119141 0.119792 0.120443 0.121094 0.121745 0.122396 0.123047 0.123698 0.124349 0.125000 0.125651 0.126302 0.126953 0.127604 0.128255 0.128906 0.129557 0.130208 0.130859 0.131510 0.132161 0.132812 0.133464 0.134115 0.134766 0.135417 0.136068 0.136719 0.137370 0.138021 0.138672 0.139323 0.139974 0.140625 0.141276 0.141927 0.142578 0.143229 0.143880 0.144531 0.145182 0.145833 0.146484 0.147135 0.147786 0.148438 0.149089 0.149740 0.150391 0.151042 0.151693 0.152344 0.152995 0.153646 0.154297 0.154948 0.155599 0.156250 0.156901 0.157552 0.158203 0.158854 0.159505 0.160156 0.160807 0.161458 0.162109 0.162760 0.163411 0.164062 0.164714 0.165365 0.166016 0.166667 0.167318 0.167969 0.168620 0.169271 0.169922 0.170573 0.171224 0.171875 0.172526 0.173177 0.173828 0.174479 0.175130 0.175781 0.176432 0.177083 0.177734 0.178385 0.179036 0.179688 0.180339 0.180990 0.181641 0.182292 0.182943 0.183594 0.184245 0.184896 0.185547 0.186198 0.186849 0.187500 0.188151 0.188802 0.189453 0.190104 0.190755 0.191406 0.192057 0.192708 0.193359 0.194010 0.194661 0.195312 0.195964 0.196615 0.197266 0.197917 0.198568 0.199219 0.199870 0.200521 0.201172 0.201823 0.202474 0.203125 0.203776 0.204427 0.205078 0.205729 0.206380 0.207031 0.207682 0.208333 0.208984 0.209635 0.210286 0.210938 0.211589 0.212240 0.212891 0.213542 0.214193 0.214844 0.215495 0.216146 0.216797 0.217448 0.218099 0.218750 0.219401 0.220052 0.220703 0.221354 0.222005 0.222656 0.223307 0.223958 0.224609 0.225260 0.225911 0.226562 0.227214 0.227865 0.228516 0.229167 0.229818 0.230469 0.231120 0.231771 0.232422 0.233073 0.233724 0.234375 0.235026 0.235677
       0.34206        0.34206        0.34206        0.34206        0.34206        0.34206        0.34206        0.34206        0.34206        0.34206        0.34206        0.34206        0.34206        0.34206        0.34206        0.34206        0.34206        0.34206        0.34206        0.34206        0.34206        0.34206        0.34206        0.34206        0.34206        0.34206        0.34206        0.34206        0.34206        0.34206        0.34206        0.34206        0.34206        0.34206        0.34206        0.34206        0.34206        0.34206        0.34206        0.34206        0.34206        0.34206        0.34206        0.34206        0.34206        0.34206        0.34206        0.34206        0.34206        0.34206        0.34206        0.69763        0.85892        0.53680        0.10518       -0.02987       -0.39015       -0.18111       -0.28745       -0.11363       -0.05530       -0.11108       -0.05335       -0.16984       -0.20657       -0.21705       -0.30845       -0.32006       -0.44716       -0.36283       -0.42908       -0.42308       -0.39691       -0.41461       -0.45552       -0.51240       -0.56055       -0.55705       -0.53109       -0.36112       -0.33211       -0.29532       -0.27545       -0.18698       -0.17352        0.05773        0.13731        0.16913        0.26195        0.38146        0.45759        0.52252        0.59661        0.59411        0.58103        0.69845        0.80575        0.70616        0.74252        0.62354        0.56858        0.48322        0.43011        0.51184        0.39598        0.26392        0.11338        0.10616        0.08519       -0.01966        0.03557        0.04618        0.00359        0.02456        0.02416        0.23741        0.27010        0.29543        0.43384        0.45342        0.41365        0.59325        0.62290        0.64357        0.72802        0.67805        0.64804        0.66188        0.56239        0.46472        0.41949        0.30274        0.26193        0.18002        0.13383        0.05263        0.05939        0.06639        0.09687        0.15481        0.24107        0.29308        0.41560        0.46342        0.48248        0.57147        0.60594        0.63807        0.61864        0.56148        0.45999        0.47314        0.37901        0.27178        0.20915        0.15744        0.16821        0.15057        0.15197        0.18019        0.31551        0.32877        0.40019        0.44102        0.42787        0.48545        0.56173        0.55434        0.50017        0.45686        0.41101        0.36630        0.33679        0.30359        0.25571        0.24385        0.24539        0.25185        0.22292        0.30726        0.36330        0.38620        0.43962        0.45608        0.47028        0.42594        0.40810        0.40162        0.36115        0.32789        0.27344        0.27394        0.26559        0.23853        0.28884        0.28676        0.34820        0.37963        0.42785        0.47696        0.41017        0.42426        0.43321        0.40995        0.34841        0.32562        0.29376        0.32058        0.27175        0.31795        0.31048        0.32790        0.33656        0.36076        0.31753        0.39312        0.41545        0.38036        0.34904        0.37114        0.31572        0.29295        0.30320        0.32024        0.30672        0.31902        0.33964        0.35125        0.33995        0.36698        0.36672        0.41509        0.38629        0.33658        0.34442        0.29812        0.28911        0.32399        0.31863        0.32875        0.33959        0.33731        0.38268        0.33008        0.33010        0.33618        0.34272        0.30307        0.31206        0.27933        0.30236        0.32722        0.30512        0.32750        0.35304        0.36164        0.29480        0.33430        0.29601        0.29924        0.27982        0.24534        0.30255        0.30310        0.34277        0.33741        0.34019        0.32515        0.34868        0.31260        0.34550        0.31247        0.31849        0.28553        0.33176        0.32126        0.36359        0.32568        0.33546        0.34121        0.29390        0.27465        0.30992        0.24927        0.22780        0.34008        0.32120        0.36112        0.34358        0.35886        0.32914        0.33620        0.34659        0.26337        0.25820        0.31483        0.30188        0.31040        0.32023        0.34055        0.33244        0.29481        0.29180        0.34379        0.32073        0.31280        0.28860        0.32158        0.34166        0.39613        0.35403        0.31349        0.27907        0.30308        0.28640        0.29827        0.27199        0.26247        0.31273        0.33165        0.34452        0.35329        0.32692        0.28877        0.29999        0.26766        0.27360        0.25318        0.31297        0.26942        0.23882        0.30205        0.29721        0.26538        0.29477        0.21387        0.21478        0.24808        0.19069        0.26530        0.33961        0.24935        0.23303        0.31573        0.31180        0.31916        0.31608        0.26244        0.24322        0.19012        0.21199        0.19408        0.25102        0.23146        0.27664        0.34734        0.33906        0.24373        0.14725        0.07905       -0.01256       -0.10498       -0.62164
2.774203 2.744708 2.715376 2.686205 2.657196 2.628348 2.599661 2.571137 2.542774 2.514572 2.486532 2.458654 2.430937 2.403382 2.375989 2.348757 2.321686 2.294777 2.268030 2.241444 2.215020 2.188758 2.162657 2.136717 2.110939 2.085323 2.059869 2.034576 2.009444 1.984474 1.959666 1.935019 1.910534 1.886210 1.862048 1.838048 1.814209 1.790532 1.767016 1.743662 1.720470 1.697438 1.674569 1.651861 1.629315 1.606931 1.584707 1.562646 1.540746 1.519008 1.497431 1.714486 2.135509 1.695154 1.183127 1.048094 0.450180 0.847502 0.563331 0.846256 0.811146 0.817846 0.757745 0.749878 0.595593 0.557748 0.500410 0.429750 0.246398 0.368386 0.201086 0.329543 0.221757 0.206044 0.180180 0.040422 0.009119 0.017526 -0.069210 0.131831 0.230738 0.188506 0.175964 0.327704 0.184584 0.517170 0.621447 0.625459 0.642533 0.875442 0.832784 0.941721 0.930002 1.028311 0.994210 1.081469 1.166655 1.044009 1.157970 0.909829 0.927730 0.793010 0.650987 0.802971 0.697267 0.488202 0.331311 0.250107 0.264123 0.147250 0.130494 0.162202 0.106421 0.123545 0.077805 0.251611 0.355291 0.341834 0.475309 0.546258 0.418869 0.590790 0.727369 0.660503 0.723407 0.711312 0.718311 0.652060 0.597855 0.499983 0.373837 0.277434 0.221326 0.087552 0.118391 -0.103878 -0.046759 -0.062368 -0.077300 -0.019145 0.133520 0.071002 0.242275 0.307606 0.338472 0.384885 0.502603 0.463687 0.479202 0.490093 0.303580 0.290872 0.284320 0.085231 0.043353 -0.076505 -0.014011 -0.062470 -0.094759 -0.080036 0.037926 0.090329 0.123148 0.219269 0.227937 0.230818 0.280298 0.446769 0.398696 0.264288 0.239701 0.227638 0.149826 0.150194 0.120854 0.003016 0.022610 0.077624 -0.000735 0.057574 0.143946 0.146158 0.228332 0.246884 0.265365 0.200381 0.222866 0.145881 0.157542 0.126217 0.050043 -0.006486 0.018171 -0.000754 -0.037645 0.069113 0.023665 0.123254 0.154982 0.203704 0.189585 0.139173 0.157571 0.178713 0.128802 0.055295 -0.004356 0.050289 0.035605 -0.023025 0.044949 0.037601 0.060326 0.051938 0.064386 0.055227 0.146074 0.138368 0.055502 0.050255 0.054421 0.013939 -0.023416 0.017212 0.016816 0.005805 0.014564 0.053733 0.058992 0.055870 0.070889 0.056732 0.152088 0.059555 0.033695 0.037751 -0.037245 0.005124 0.040998 0.002508 0.030924 0.050770 0.025471 0.126976 0.023956 -0.004554 0.058724 0.003432 0.004715 0.004205 -0.026409 0.017963 0.005380 0.000065 0.051495 0.051892 0.060690 0.032570 0.038997 0.024194 0.015506 -0.024306 -0.028603 0.029437 0.048282 0.078606 0.080907 0.056399 0.073246 0.108910 0.052281 0.104476 0.075717 0.044340 0.029797 0.106054 0.068493 0.119170 0.087515 0.062035 0.116274 0.043569 0.008612 0.088308 -0.033668 -0.017289 0.104640 0.048968 0.157326 0.095890 0.090579 0.052675 0.066133 0.091635 -0.022232 -0.028877 0.054595 0.046235 0.039336 0.033379 0.105808 0.047197 -0.003473 0.055103 0.048797 0.051791 0.055324 -0.016177 0.064777 0.062640 0.125840 0.050113 0.021701 -0.028294 -0.013025 -0.011034 -0.001022 -0.052862 -0.030853 0.007476 0.024208 0.026717 0.043346 0.001338 -0.040958 -0.035636 -0.024821 -0.072162 -0.057360 -0.019273 -0.093185 -0.074717 -0.008939 -0.048807 -0.075145 -0.000618 -0.140016 -0.088871 -0.098456 -0.184330 -0.058877 0.058267 -0.061260 -0.156660 0.033849 0.030933 -0.050530 0.040398 -0.080315 0.266654 0.163819 0.217586 0.261748 0.305013 0.252367 0.314219 0.336569 0.390534 0.224036 0.267205 0.097617 -0.018282 -0.684124
0.072396 0.072899 0.074407 0.076921 0.080440 0.084962 0.090486 0.097012 0.104536 0.113056 0.122569 0.133070 0.144554 0.157015 0.170444 0.184833 0.200170 0.216443 0.233637 0.251734 0.270714 0.290554 0.311229 0.332709 0.354960 0.377946 0.401625 0.425951 0.450873 0.476335 0.502276 0.528628 0.555320 0.582271 0.609397 0.636606 0.663799 0.690870 0.717709 0.744195 0.770203 0.795601 0.820249 0.844002 0.866709 0.888212 0.908350 0.926954 0.943854 0.958876 0.971843 0.982577 0.990900 0.996634 0.999605 0.999640 0.996574 0.990248 0.980511 0.967223 0.950256 0.929499 0.904854 0.876245 0.843615 0.806933 0.766191 0.721409 0.672639 0.619963 0.563498 0.503395 0.439844 0.373072 0.303346 0.230973 0.156302 0.079720 0.001656 0.077424 0.157015 0.236577 0.315538 0.393297 0.469226 0.542678 0.612989 0.679487 0.741495 0.798342 0.849368 0.893933 0.931426 0.961273 0.982949 0.995985 0.999978 0.994600 0.979609 0.954859 0.920301 0.876002 0.822139 0.759016 0.687058 0.606823 0.518994 0.424385 0.323931 0.218691 0.109834 0.001369 0.113558 0.225295 0.335085 0.441397 0.542678 0.637384 0.723999 0.801066 0.867212 0.921173 0.961827 0.988216 0.999576 0.995356 0.975247 0.939194 0.887416 0.820413 0.738976 0.644184 0.537403 0.420271 0.294686 0.162772 0.026862 0.110551 0.246851 0.379346 0.505324 0.622110 0.727121 0.817935 0.892345 0.948424 0.984578 0.999605 0.992735 0.963676 0.912637 0.840351 0.748078 0.637604 0.511216 0.371668 0.222134 0.066143 0.092495 0.249782 0.401625 0.543948 0.672801 0.784474 0.875620 0.943353 0.985361 0.999994 0.986339 0.944281 0.874538 0.778677 0.659098 0.518994 0.362288 0.193531 0.017788 0.159504 0.332709 0.496159 0.644350 0.772130 0.874888 0.948743 0.990695 0.998774 0.972147 0.911189 0.817519 0.693987 0.544611 0.374474 0.189571 0.003386 0.197206 0.384472 0.557834 0.710296 0.835517 0.928085 0.983774 0.999763 0.974799 0.909310 0.805441 0.667023 0.499469 0.309584 0.105321 0.104537 0.310750 0.504019 0.675408 0.816774 0.921173 0.983227 0.999426 0.968365 0.890876 0.770064 0.611222 0.421643 0.210320 0.012461 0.235598 0.447721 0.637773 0.795601 0.912521 0.981819 0.999182 0.963000 0.874538 0.737956 0.560161 0.350510 0.120351 0.117565 0.349771 0.562845 0.744195 0.882826 0.970033 1.000000 0.970224 0.881773 0.739315 0.550937 0.327744 0.083236 0.167463 0.408540 0.624475 0.801066 0.926385 0.991631 0.991797 0.926113 0.798210 0.615998 0.391240 0.138849 0.124072 0.379347 0.608997 0.796516 0.928084 0.993642 0.987714 0.909938 0.765218 0.563498 0.319158 0.050035 0.223823 0.481647 0.703520 0.871942 0.973251 0.998799 0.945764 0.817520 0.623516 0.378676 0.102313 0.183349 0.454918 0.689778 0.867964 0.973941 0.998008 0.937275 0.796079 0.585779 0.323930 0.032908 0.261966 0.534608 0.760469 0.918802 0.994623 0.980213 0.876002 0.690713 0.440748 0.148825 0.158011 0.450873 0.701728 0.886118 0.985618 0.989750 0.897199 0.716150 0.463681 0.164263 0.152533 0.454921 0.712068 0.897297 0.990900 0.982348 0.871587 0.669274 0.395876 0.079720 0.245876 0.546064 0.788213 0.945508 1.000000 0.944778 0.784964 0.537401 0.229009 0.106044 0.430055 0.706026 0.901920 0.994465 0.972028 0.836227 0.602002 0.296130 0.045724 0.383077 0.675408 0.887052 0.991631 0.975469 0.839529 0.599583 0.284550 0.066866 0.410842 0.703880 0.908351 0.997410 0.958670 0.796079 0.529726 0.193530 0.168959
1.000000 1.000000 1.000000 1.000000 1.000000 1.000000 1.000000 1.000000 1.000000 1.000000 1.000000 1.000000 1.000000 1.000000 1.000000 1.000000 1.000000 1.000000 1.000000 1.000000 1.000000 1.000000 1.000000 1.000000 1.000000 1.000000 1.000000 1.000000 1.000000 1.000000 1.000000 1.000000 1.000000 1.000000 1.000000 1.000000 1.000000 1.000000 1.000000 1.000000 1.000000 1.000000 1.000000 1.000000 1.000000 1.000000 1.000000 1.000000 1.000000 1.000000 1.000000 1.000000 0.918950 0.918950 0.918950 0.912450 0.912450 0.912450 0.912450 0.912450 0.912450 0.912450 0.912450 0.912450 0.912450 0.912450 0.912450 0.912450 0.912450 0.912450 0.912450 0.912450 0.912450 0.912450 0.912450 0.912450 0.912450 0.912450 0.912450 0.912450 0.912450 0.912450 0.912450 0.912450 0.912450 0.912450 0.912450 0.912450 0.912450 0.912450 0.912450 0.912450 0.912450 0.912450 0.912450 0.912450 0.941439 0.942856 0.951100 0.950685 0.950095 0.948070 0.946867 0.946522 0.946427 0.946762 0.947472 0.948437 0.954666 0.955901 0.960311 0.961989 0.962166 0.963893 0.964589 0.964206 0.955698 0.955478 0.954083 0.953537 0.956064 0.955150 0.954392 0.955364 0.955261 0.955655 0.955636 0.954970 0.953916 0.952848 0.951929 0.951527 0.951328 0.952051 0.952464 0.953916 0.957182 0.957773 0.957908 0.956282 0.955106 0.956384 0.955548 0.954933 0.943028 0.942614 0.941338 0.941375 0.944461 0.944503 0.945088 0.945705 0.947469 0.947836 0.944741 0.944216 0.936882 0.934445 0.932120 0.926799 0.922172 0.923965 0.925621 0.926168 0.926402 0.921289 0.921264 0.919418 0.915435 0.917921 0.918223 0.919536 0.920884 0.916381 0.915336 0.914329 0.912588 0.904501 0.892246 0.891180 0.888513 0.893440 0.893924 0.892755 0.895510 0.884074 0.868176 0.841280 0.843724 0.847207 0.837986 0.833913 0.834085 0.834814 0.838920 0.831761 0.829686 0.824654 0.813619 0.807481 0.800701 0.791195 0.791605 0.783499 0.773716 0.769609 0.793988 0.787938 0.798403 0.802915 0.802535 0.799882 0.793108 0.784342 0.759905 0.760020 0.741714 0.714495 0.715259 0.713907 0.713689 0.711732 0.717557 0.708355 0.706874 0.688926 0.686408 0.691819 0.696005 0.693766 0.693805 0.698958 0.704505 0.685426 0.674339 0.665112 0.671238 0.671352 0.670755 0.677676 0.655175 0.637376 0.624530 0.632535 0.641835 0.619597 0.630611 0.644196 0.620260 0.616707 0.607175 0.609286 0.598469 0.600937 0.598912 0.597739 0.603935 0.618885 0.609755 0.610588 0.620867 0.626274 0.638214 0.640337 0.642901 0.605479 0.608943 0.630209 0.634852 0.616144 0.631930 0.620519 0.636999 0.676705 0.666966 0.632822 0.626365 0.614151 0.576508 0.559533 0.554902 0.562840 0.596237 0.601560 0.579656 0.552469 0.555410 0.562437 0.566575 0.566401 0.550482 0.558994 0.546841 0.523679 0.533414 0.540359 0.539018 0.524555 0.512125 0.526811 0.500472 0.541717 0.509652 0.483437 0.502332 0.498517 0.486615 0.414504 0.428316 0.416126 0.406078 0.357979 0.368422 0.376655 0.362400 0.286563 0.275025 0.275952 0.274723 0.256360 0.236842 0.224893 0.210422 0.191151 0.136233 0.113307 0.115454 0.116485 0.136102 0.095635 0.141665 0.202712 0.205515 0.205515 0.205515 0.205515 0.205515 0.205515 0.205515 0.205515 0.179406 0.179406 0.179406 0.179406 0.179406 0.179406 0.179406 0.179406 0.179406 0.205515 0.205515 0.205515 0.205515 0.205515 0.205515 0.205515 0.205515 0.205515 0.205515 0.205515 0.205515 0.205515 0.205515
0.000000 0.000000 0.000000 0.000000 0.000000 0.000000 0.000000 0.000000 0.000000 0.000000 0.000000 0.000000 0.000000 0.000000 0.000000 0.000000 0.000000 0.000000 0.000000 0.000000 0.000000 0.000000 0.000000 0.000000 0.000000 0.000000 0.000000 0.000000 0.000000 0.000000 0.000000 0.000000 0.000000 0.000000 0.000000 0.000000 0.000000 0.000000 0.000000 0.000000 0.000000 0.000000 0.000000 0.000000 0.000000 0.000000 0.000000 0.000000 0.000000 0.000000 0.000000 0.000000 0.180334 0.180334 0.180334 0.199007 0.199007 0.199007 0.199007 0.199007 0.199007 0.199007 0.199007 0.199007 0.199007 0.199007 0.199007 0.199007 0.199007 0.199007 0.199007 0.199007 0.199007 0.199007 0.199007 0.199007 0.199007 0.199007 0.199007 0.199007 0.199007 0.199007 0.199007 0.199007 0.199007 0.199007 0.199007 0.199007 0.199007 0.199007 0.199007 0.199007 0.199007 0.199007 0.199007 0.199007 0.225018 0.225018 0.225018 0.225018 0.225018 0.225018 0.225018 0.225018 0.225018 0.225018 0.225018 0.225018 0.225018 0.225018 0.225018 0.225018 0.225018 0.225018 0.225018 0.225018 0.225018 0.225018 0.225018 0.225018 0.225018 0.225018 0.225018 0.225018 0.225018 0.244339 0.244339 0.244339 0.244339 0.244339 0.244339 0.244339 0.244339 0.244339 0.244339 0.244339 0.244339 0.244339 0.244339 0.244339 0.244339 0.244339 0.244339 0.244339 0.244339 0.244339 0.244339 0.244339 0.251976 0.251976 0.251976 0.251976 0.251976 0.251976 0.251976 0.251976 0.251976 0.251976 0.251976 0.251976 0.251976 0.251976 0.251976 0.251976 0.251976 0.251976 0.251976 0.251976 0.264906 0.264906 0.264906 0.264906 0.264906 0.264906 0.264906 0.264906 0.264906 0.264906 0.264906 0.264906 0.264906 0.264906 0.264906 0.264906 0.264906 0.264906 0.264906 0.264906 0.264906 0.264906 0.264906 0.264906 0.264906 0.264906 0.264906 0.264906 0.264906 0.264906 0.264906 0.264906 0.264906 0.264906 0.264906 0.264906 0.264906 0.264906 0.264906 0.264906 0.264906 0.264906 0.264906 0.264906 0.264906 0.264906 0.264906 0.264906 0.264906 0.264906 0.264906 0.264906 0.264906 0.264906 0.264906 0.264906 0.264906 0.264906 0.264906 0.264906 0.264906 0.264906 0.256074 0.256074 0.256074 0.256074 0.256074 0.256074 0.256074 0.256074 0.256074 0.256074 0.256074 0.256074 0.256074 0.256074 0.269680 0.269680 0.269680 0.269680 0.269680 0.269680 0.269680 0.269680 0.269680 0.269680 0.269680 0.269680 0.264906 0.264906 0.264906 0.264906 0.264906 0.264906 0.264906 0.264906 0.264906 0.264906 0.264906 0.264906 0.269680 0.269680 0.269680 0.269680 0.269680 0.269680 0.269680 0.269680 0.269680 0.269680 0.269680 0.264906 0.264906 0.264906 0.264906 0.264906 0.264906 0.264906 0.264906 0.264906 0.264906 0.264906 0.256074 0.256074 0.256074 0.256074 0.256074 0.256074 0.256074 0.256074 0.256074 0.256074 0.256074 0.264906 0.264906 0.264906 0.264906 0.264906 0.264906 0.264906 0.264906 0.264906 0.264906 0.260378 0.260378 0.260378 0.260378 0.260378 0.260378 0.260378 0.260378 0.260378 0.260378 0.264906 0.264906 0.264906 0.264906 0.264906 0.264906 0.264906 0.264906 0.264906 0.251976 0.251976 0.251976 0.251976 0.251976 0.251976 0.251976 0.251976 0.251976 0.251976 0.256074 0.256074 0.256074 0.256074 0.256074 0.256074 0.256074 0.256074 0.256074 0.251976 0.251976 0.251976 0.251976 0.251976 0.251976 0.251976 0.251976 0.251976 0.251976 0.251976 0.251976 0.251976 0.251976
