# Output from CTFFind version 4.1.9, run on 2019-11-03 20:10:33
# Input file: stack6_bm3d_averaged_1_6.5_0_3000_half.mrc ; Number of micrographs: 1
# Pixel size: 3.000 Angstroms ; acceleration voltage: 300.0 keV ; spherical aberration: 0.00 mm ; amplitude contrast: 0.07
# Box size: 512 pixels ; min. res.: 30.0 Angstroms ; max. res.: 5.0 Angstroms ; min. def.: 5000.0 um; max. def. 50000.0 um; num. frames averaged: 1
# 6 lines per micrograph: #1 - spatial frequency (1/Angstroms); #2 - 1D rotational average of spectrum (assuming no astigmatism); #3 - 1D rotational average of spectrum; #4 - CTF fit; #5 - cross-correlation between spectrum and CTF fit; #6 - 2sigma of expected cross correlation of noise
0.000000 0.000651 0.001302 0.001953 0.002604 0.003255 0.003906 0.004557 0.005208 0.005859 0.006510 0.007161 0.007812 0.008464 0.009115 0.009766 0.010417 0.011068 0.011719 0.012370 0.013021 0.013672 0.014323 0.014974 0.015625 0.016276 0.016927 0.017578 0.018229 0.018880 0.019531 0.020182 0.020833 0.021484 0.022135 0.022786 0.023438 0.024089 0.024740 0.025391 0.026042 0.026693 0.027344 0.027995 0.028646 0.029297 0.029948 0.030599 0.031250 0.031901 0.032552 0.033203 0.033854 0.034505 0.035156 0.035807 0.036458 0.037109 0.037760 0.038411 0.039062 0.039714 0.040365 0.041016 0.041667 0.042318 0.042969 0.043620 0.044271 0.044922 0.045573 0.046224 0.046875 0.047526 0.048177 0.048828 0.049479 0.050130 0.050781 0.051432 0.052083 0.052734 0.053385 0.054036 0.054688 0.055339 0.055990 0.056641 0.057292 0.057943 0.058594 0.059245 0.059896 0.060547 0.061198 0.061849 0.062500 0.063151 0.063802 0.064453 0.065104 0.065755 0.066406 0.067057 0.067708 0.068359 0.069010 0.069661 0.070312 0.070964 0.071615 0.072266 0.072917 0.073568 0.074219 0.074870 0.075521 0.076172 0.076823 0.077474 0.078125 0.078776 0.079427 0.080078 0.080729 0.081380 0.082031 0.082682 0.083333 0.083984 0.084635 0.085286 0.085938 0.086589 0.087240 0.087891 0.088542 0.089193 0.089844 0.090495 0.091146 0.091797 0.092448 0.093099 0.093750 0.094401 0.095052 0.095703 0.096354 0.097005 0.097656 0.098307 0.098958 0.099609 0.100260 0.100911 0.101562 0.102214 0.102865 0.103516 0.104167 0.104818 0.105469 0.106120 0.106771 0.107422 0.108073 0.108724 0.109375 0.110026 0.110677 0.111328 0.111979 0.112630 0.113281 0.113932 0.114583 0.115234 0.115885 0.116536 0.117188 0.117839 0.118490 0.119141 0.119792 0.120443 0.121094 0.121745 0.122396 0.123047 0.123698 0.124349 0.125000 0.125651 0.126302 0.126953 0.127604 0.128255 0.128906 0.129557 0.130208 0.130859 0.131510 0.132161 0.132812 0.133464 0.134115 0.134766 0.135417 0.136068 0.136719 0.137370 0.138021 0.138672 0.139323 0.139974 0.140625 0.141276 0.141927 0.142578 0.143229 0.143880 0.144531 0.145182 0.145833 0.146484 0.147135 0.147786 0.148438 0.149089 0.149740 0.150391 0.151042 0.151693 0.152344 0.152995 0.153646 0.154297 0.154948 0.155599 0.156250 0.156901 0.157552 0.158203 0.158854 0.159505 0.160156 0.160807 0.161458 0.162109 0.162760 0.163411 0.164062 0.164714 0.165365 0.166016 0.166667 0.167318 0.167969 0.168620 0.169271 0.169922 0.170573 0.171224 0.171875 0.172526 0.173177 0.173828 0.174479 0.175130 0.175781 0.176432 0.177083 0.177734 0.178385 0.179036 0.179688 0.180339 0.180990 0.181641 0.182292 0.182943 0.183594 0.184245 0.184896 0.185547 0.186198 0.186849 0.187500 0.188151 0.188802 0.189453 0.190104 0.190755 0.191406 0.192057 0.192708 0.193359 0.194010 0.194661 0.195312 0.195964 0.196615 0.197266 0.197917 0.198568 0.199219 0.199870 0.200521 0.201172 0.201823 0.202474 0.203125 0.203776 0.204427 0.205078 0.205729 0.206380 0.207031 0.207682 0.208333 0.208984 0.209635 0.210286 0.210938 0.211589 0.212240 0.212891 0.213542 0.214193 0.214844 0.215495 0.216146 0.216797 0.217448 0.218099 0.218750 0.219401 0.220052 0.220703 0.221354 0.222005 0.222656 0.223307 0.223958 0.224609 0.225260 0.225911 0.226562 0.227214 0.227865 0.228516 0.229167 0.229818 0.230469 0.231120 0.231771 0.232422 0.233073 0.233724 0.234375 0.235026 0.235677
       0.32331        0.32331        0.32331        0.32331        0.32331        0.32331        0.32331        0.32331        0.32331        0.32331        0.32331        0.32331        0.32331        0.32331        0.32331        0.32331        0.32331        0.32331        0.32331        0.32331        0.32331        0.32331        0.32331        0.32331        0.32331        0.32331        0.32331        0.32331        0.32331        0.32331        0.32331        0.32331        0.32331        0.32331        0.32331        0.32331        0.32331        0.32331        0.32331        0.32331        0.32331        0.32331        0.32331        0.32331        0.32331        0.32331        0.32331        0.32331        0.32331        0.32331        0.32331        0.59744        0.71456        0.36080        0.17653        0.13400       -0.13745        0.11084        0.03603        0.03878        0.09207        0.30796        0.31418        0.24070        0.14345       -0.03872       -0.01212        0.04693       -0.10611       -0.11293       -0.07524       -0.08667       -0.19400       -0.12574       -0.23787       -0.25600       -0.25197       -0.31334       -0.38793       -0.32063       -0.22795       -0.19639       -0.30030       -0.22054       -0.26761       -0.20937       -0.14127       -0.08508       -0.05321        0.00826        0.05073        0.14045        0.18225        0.22318        0.34251        0.40874        0.35796        0.47322        0.54530        0.55405        0.63392        0.56196        0.59213        0.60049        0.60630        0.60433        0.55626        0.58637        0.54450        0.39266        0.34206        0.37209        0.34416        0.20372        0.18540        0.15761        0.10245        0.10507        0.02788        0.08795        0.06921        0.02995        0.11687        0.17587        0.26735        0.35217        0.35585        0.38294        0.44858        0.48487        0.41869        0.64387        0.54426        0.48157        0.57142        0.49993        0.54783        0.51034        0.37955        0.31723        0.29764        0.24913        0.23922        0.20672        0.18679        0.15828        0.24264        0.22151        0.25233        0.22081        0.27151        0.32875        0.33756        0.44757        0.44115        0.42180        0.41947        0.47457        0.43495        0.42242        0.39920        0.40049        0.33714        0.28526        0.26190        0.26053        0.25910        0.20526        0.18482        0.23939        0.25128        0.28114        0.34904        0.37463        0.42223        0.40494        0.42991        0.47562        0.46397        0.42864        0.38735        0.41597        0.37388        0.32713        0.33502        0.32159        0.26415        0.27971        0.27665        0.24684        0.31397        0.28931        0.30716        0.32914        0.38867        0.41528        0.40917        0.43674        0.38228        0.42341        0.39532        0.31786        0.29287        0.25820        0.27355        0.23940        0.21200        0.30386        0.36304        0.32826        0.30104        0.35585        0.27839        0.33683        0.39184        0.38066        0.36309        0.38201        0.33750        0.35658        0.33532        0.29685        0.28425        0.25387        0.30733        0.32056        0.33459        0.35245        0.38408        0.37230        0.37268        0.32481        0.35185        0.35259        0.33516        0.32577        0.29343        0.28763        0.26137        0.33318        0.33415        0.33516        0.30524        0.34074        0.35172        0.33505        0.35260        0.33691        0.30331        0.29865        0.30203        0.27297        0.25970        0.25059        0.24899        0.26799        0.25779        0.29857        0.28154        0.32022        0.34321        0.26319        0.29737        0.28019        0.22973        0.28253        0.26462        0.26385        0.29294        0.31782        0.31693        0.30920        0.30797        0.30463        0.33216        0.34706        0.29376        0.32240        0.31693        0.36653        0.28404        0.27396        0.27903        0.30854        0.32580        0.34631        0.35415        0.30241        0.23207        0.29472        0.25719        0.25130        0.25416        0.25919        0.29462        0.22792        0.30042        0.32263        0.35963        0.31537        0.30079        0.26551        0.28726        0.28873        0.24805        0.27110        0.27504        0.30080        0.34442        0.33285        0.29016        0.30167        0.32741        0.26340        0.23233        0.18664        0.31500        0.33573        0.34599        0.32550        0.29790        0.23331        0.21407        0.25702        0.25766        0.26072        0.27987        0.28855        0.24325        0.26188        0.25220        0.30146        0.26760        0.26215        0.26519        0.25376        0.19887        0.25670        0.24471        0.22333        0.28243        0.24962        0.25826        0.21801        0.20404        0.26950        0.25818        0.25136        0.17472        0.15028        0.31643        0.21997        0.22406        0.27921        0.17204        0.16206        0.17209        0.25278        0.23027        0.13349       -0.06855       -0.59206       -0.93776
2.365111 2.345004 2.324987 2.305060 2.285222 2.265474 2.245816 2.226247 2.206768 2.187379 2.168079 2.148869 2.129748 2.110717 2.091776 2.072925 2.054163 2.035490 2.016908 1.998415 1.980012 1.961698 1.943474 1.925340 1.907295 1.889340 1.871474 1.853698 1.836012 1.818416 1.800909 1.783492 1.766164 1.748926 1.731778 1.714720 1.697751 1.680871 1.664082 1.647382 1.630772 1.614251 1.597820 1.581478 1.565227 1.549065 1.532992 1.517009 1.501116 1.485313 1.469599 1.829704 2.164841 1.498973 1.328045 1.090564 0.521877 0.921468 0.814849 0.837331 0.702254 1.395574 1.198332 1.212592 0.978997 0.615153 0.478696 0.747124 0.585902 0.265514 0.286638 0.483774 0.236083 0.258184 0.109516 -0.000845 -0.014974 -0.008766 -0.310036 -0.158988 0.005221 -0.017338 -0.089889 -0.016675 -0.118587 -0.102324 0.065128 0.179605 0.246517 0.277646 0.370035 0.614141 0.553945 0.642613 0.823912 1.038587 0.798812 1.230887 1.173862 1.245848 1.349475 1.246265 1.170069 1.342413 1.218501 1.344599 1.182577 1.156961 1.202877 0.955328 0.683082 0.736652 0.784937 0.483291 0.421559 0.364151 0.218446 0.195297 0.040064 0.205336 0.163176 0.037378 0.120373 0.229270 0.347675 0.606213 0.602514 0.591345 0.697075 0.877196 0.585017 1.021935 1.031672 0.764699 0.920355 0.760743 0.856384 0.894801 0.626838 0.395644 0.414350 0.357831 0.217303 0.210145 0.168335 -0.011691 0.224145 0.192564 0.248898 0.136694 0.257959 0.328452 0.283719 0.496840 0.597680 0.531960 0.362132 0.663561 0.553219 0.449541 0.521020 0.440567 0.291070 0.328187 0.128009 0.203226 0.034247 0.208988 -0.063052 0.057194 0.052491 0.251217 0.070935 0.390698 0.337767 0.392048 0.391295 0.407285 0.575050 0.405470 0.368524 0.421060 0.212957 0.341974 0.133182 0.268439 0.073292 0.108563 0.092245 0.076951 0.049495 0.161098 0.067295 0.155811 0.242393 0.281683 0.338517 0.270954 0.345739 0.262738 0.296024 0.179045 0.101885 0.028432 -0.009986 0.021195 -0.079471 -0.062968 0.119243 0.211424 0.067704 0.112062 0.115090 0.017067 0.180221 0.246312 0.189238 0.207588 0.137612 0.153686 0.115720 0.107168 0.053000 -0.080276 -0.016943 0.142096 0.028625 0.142724 0.119513 0.227437 0.202197 0.178314 0.118317 0.190581 0.105519 0.130469 0.110247 0.040398 -0.009017 0.005550 0.133201 0.133157 0.118660 0.057566 0.151277 0.131317 0.059763 0.138546 0.043877 -0.010035 0.024147 0.002897 -0.052753 -0.068170 -0.107609 -0.041358 -0.057833 -0.086025 0.018956 -0.010188 0.069658 0.087845 -0.081329 0.048707 -0.044876 -0.108582 0.036674 -0.051777 -0.071119 0.038372 0.085842 0.029410 0.062353 -0.035620 0.042056 0.156616 -0.002583 -0.022534 0.089948 0.043000 0.126483 -0.070948 -0.039332 -0.025785 0.076935 0.046953 0.081064 0.144446 -0.012059 -0.096463 0.010153 -0.059636 -0.064765 -0.049746 -0.058182 0.028573 -0.165498 0.111664 0.088870 0.181703 0.041123 0.010827 0.000743 0.022484 0.071514 -0.059890 0.028265 0.010770 0.090527 0.119238 0.161964 0.060886 0.114904 0.176972 -0.037159 0.001084 -0.150886 0.194633 0.157786 0.187988 0.144331 0.054343 -0.047380 -0.082815 -0.018757 -0.000459 -0.003902 0.035718 0.072283 -0.051659 -0.002580 0.051886 0.083682 0.054703 0.035094 0.061457 -0.033999 -0.043494 0.035375 0.017610 -0.044108 0.113276 0.019426 -0.002230 0.013247 -0.035225 0.094425 0.131723 0.036654 -0.073765 -0.247152 0.337792 0.493517 0.385534 0.556529 0.269714 0.306147 0.298590 0.537812 0.435040 0.206490 0.145471 -0.870034
0.072396 0.072838 0.074163 0.076371 0.079462 0.083435 0.088289 0.094022 0.100634 0.108122 0.116484 0.125716 0.135815 0.146776 0.158594 0.171262 0.184772 0.199116 0.214282 0.230259 0.247032 0.264586 0.282903 0.301961 0.321739 0.342209 0.363344 0.385111 0.407474 0.430396 0.453833 0.477738 0.502061 0.526747 0.551735 0.576960 0.602354 0.627843 0.653346 0.678779 0.704051 0.729069 0.753731 0.777931 0.801559 0.824499 0.846629 0.867825 0.887956 0.906890 0.924488 0.940610 0.955112 0.967851 0.978680 0.987451 0.994019 0.998237 0.999964 0.999060 0.995388 0.988821 0.979236 0.966518 0.950564 0.931282 0.908590 0.882425 0.852736 0.819493 0.782682 0.742313 0.698416 0.651047 0.600285 0.546238 0.489041 0.428857 0.365881 0.300336 0.232478 0.162594 0.091002 0.018050 0.055883 0.130388 0.205031 0.279348 0.352856 0.425047 0.495396 0.563366 0.628407 0.689964 0.747479 0.800402 0.848190 0.890315 0.926273 0.955588 0.977820 0.992569 0.999485 0.998277 0.988713 0.970632 0.943948 0.908657 0.864842 0.812675 0.752424 0.684454 0.609231 0.527317 0.439375 0.346165 0.248540 0.147440 0.043885 0.061028 0.166143 0.270251 0.372106 0.470437 0.563965 0.651424 0.731572 0.803218 0.865233 0.916578 0.956321 0.983654 0.997916 0.998607 0.985407 0.958192 0.917039 0.862242 0.794319 0.714007 0.622269 0.520285 0.409446 0.291336 0.167716 0.040506 0.088250 0.216406 0.341757 0.462066 0.575119 0.678750 0.770902 0.849658 0.913296 0.960323 0.989521 0.999980 0.991137 0.962795 0.915150 0.848800 0.764752 0.664419 0.549605 0.422480 0.285552 0.141622 0.006269 0.154897 0.300927 0.440980 0.571721 0.689935 0.792613 0.877034 0.940842 0.982127 0.999484 0.992074 0.959665 0.902665 0.822136 0.719788 0.597962 0.459586 0.308120 0.147478 0.018066 0.183983 0.345614 0.498297 0.637510 0.759000 0.858929 0.934004 0.981593 0.999836 0.987727 0.945176 0.873050 0.773168 0.648289 0.502048 0.338864 0.163824 0.017463 0.199040 0.374797 0.538674 0.684877 0.808085 0.903659 0.967832 0.997874 0.992225 0.950588 0.873990 0.764777 0.626575 0.464192 0.283467 0.091080 0.105682 0.299199 0.481803 0.646095 0.785242 0.893285 0.965408 0.998170 0.989698 0.939809 0.850073 0.723801 0.565943 0.382939 0.182460 0.026882 0.235900 0.435226 0.615737 0.768976 0.887568 0.965597 0.998919 0.985421 0.925170 0.820481 0.675864 0.497862 0.294798 0.076395 0.146661 0.363236 0.562304 0.733521 0.867767 0.957665 0.998014 0.986118 0.922006 0.808499 0.651135 0.457938 0.239048 0.006209 0.227834 0.450029 0.647754 0.809529 0.925727 0.989163 0.995583 0.943987 0.836772 0.679681 0.481538 0.253798 0.009912 0.235431 0.467203 0.670938 0.833664 0.944749 0.996643 0.985427 0.911160 0.777971 0.593885 0.370404 0.121820 0.135662 0.384967 0.609279 0.793179 0.923751 0.991510 0.991152 0.922021 0.788260 0.598637 0.366026 0.106581 0.161341 0.418481 0.646035 0.827068 0.947796 0.998685 0.975268 0.878586 0.715243 0.497021 0.240102 0.036101 0.310362 0.561273 0.768927 0.916516 0.991754 0.987952 0.904681 0.747947 0.529842 0.267673 0.017345 0.301778 0.561874 0.775578 0.924413 0.995148 0.981031 0.882517 0.707374 0.470168 0.191118 0.105567 0.393759 0.647693 0.844311 0.965377 0.999256 0.942097 0.798357 0.580554 0.308267 0.006448 0.296823 0.572914 0.795383 0.942524 0.999570 0.960250 0.827572 0.613716 0.339009 0.030078 0.282680 0.568056 0.797160 0.946401 0.999962
1.000000 1.000000 1.000000 1.000000 1.000000 1.000000 1.000000 1.000000 1.000000 1.000000 1.000000 1.000000 1.000000 1.000000 1.000000 1.000000 1.000000 1.000000 1.000000 1.000000 1.000000 1.000000 1.000000 1.000000 1.000000 1.000000 1.000000 1.000000 1.000000 1.000000 1.000000 1.000000 1.000000 1.000000 1.000000 1.000000 1.000000 1.000000 1.000000 1.000000 1.000000 1.000000 1.000000 1.000000 1.000000 1.000000 1.000000 1.000000 1.000000 1.000000 1.000000 1.000000 0.777823 0.777823 0.777823 0.777823 0.777823 0.777823 0.777823 0.760274 0.760274 0.760274 0.760274 0.760274 0.760274 0.760274 0.760274 0.760274 0.760274 0.760274 0.760274 0.760274 0.760274 0.760274 0.760274 0.760274 0.760274 0.760274 0.760274 0.760274 0.760274 0.760274 0.760274 0.760274 0.760274 0.760274 0.760274 0.760274 0.760274 0.760274 0.760274 0.760274 0.760274 0.760274 0.760274 0.760274 0.760274 0.760274 0.760274 0.760274 0.760274 0.760274 0.760274 0.902213 0.903652 0.906651 0.902036 0.903941 0.901801 0.895325 0.898259 0.898074 0.897897 0.898951 0.900582 0.902563 0.909892 0.918794 0.920668 0.927671 0.931127 0.932262 0.932137 0.930782 0.938276 0.935820 0.934059 0.922161 0.925526 0.927403 0.928338 0.927151 0.927268 0.928521 0.929154 0.927050 0.925239 0.923063 0.921295 0.923043 0.922648 0.922833 0.922995 0.923170 0.923071 0.923650 0.919795 0.922052 0.920929 0.917352 0.913944 0.913465 0.914536 0.912886 0.909685 0.904011 0.910285 0.910706 0.910858 0.909748 0.910655 0.911036 0.911757 0.912360 0.909781 0.909825 0.907445 0.909292 0.905690 0.901369 0.896683 0.896772 0.898353 0.904889 0.906974 0.905803 0.903539 0.897179 0.887830 0.886883 0.873962 0.842575 0.844344 0.847702 0.849981 0.850899 0.850416 0.847838 0.843014 0.833337 0.823720 0.828030 0.828878 0.820727 0.814256 0.815001 0.814217 0.821502 0.825938 0.818278 0.815676 0.815131 0.811150 0.810992 0.811771 0.809397 0.803768 0.806295 0.814470 0.814972 0.801603 0.795825 0.792985 0.776944 0.781221 0.787589 0.792128 0.793688 0.790087 0.777543 0.775458 0.769395 0.779787 0.788592 0.787083 0.782563 0.763260 0.720457 0.708869 0.690897 0.693543 0.694908 0.671016 0.667996 0.669264 0.674127 0.621284 0.604868 0.592575 0.592430 0.599751 0.604632 0.598217 0.566208 0.584031 0.581684 0.566290 0.562333 0.535559 0.520091 0.488582 0.491271 0.489117 0.474625 0.451200 0.445380 0.462315 0.471983 0.468955 0.466662 0.437870 0.417969 0.420541 0.416467 0.418400 0.420262 0.428682 0.379228 0.355471 0.339129 0.365344 0.366968 0.366036 0.378372 0.376253 0.372059 0.350542 0.331668 0.315749 0.328835 0.348821 0.355694 0.358835 0.323389 0.309688 0.288625 0.294301 0.338207 0.325675 0.335278 0.333623 0.338274 0.364328 0.343352 0.320624 0.298063 0.340306 0.332899 0.315410 0.293592 0.301473 0.320831 0.322327 0.317641 0.310821 0.359236 0.388201 0.376005 0.379056 0.346183 0.375030 0.415426 0.405208 0.406220 0.420690 0.419410 0.402851 0.359623 0.341774 0.342517 0.317867 0.314651 0.297796 0.283292 0.274583 0.284197 0.306397 0.311798 0.345183 0.319265 0.284774 0.190382 0.261084 0.179397 0.185028 0.185028 0.185028 0.185028 0.185028 0.185028 0.185028 0.185028 0.208814 0.208814 0.208814 0.208814 0.208814 0.208814 0.208814 0.208814 0.208814 0.208814 0.208814 0.208814 0.208814 0.208814 0.208814 0.208814 0.208814 0.208814 0.208814 0.208814 0.208814
0.000000 0.000000 0.000000 0.000000 0.000000 0.000000 0.000000 0.000000 0.000000 0.000000 0.000000 0.000000 0.000000 0.000000 0.000000 0.000000 0.000000 0.000000 0.000000 0.000000 0.000000 0.000000 0.000000 0.000000 0.000000 0.000000 0.000000 0.000000 0.000000 0.000000 0.000000 0.000000 0.000000 0.000000 0.000000 0.000000 0.000000 0.000000 0.000000 0.000000 0.000000 0.000000 0.000000 0.000000 0.000000 0.000000 0.000000 0.000000 0.000000 0.000000 0.000000 0.000000 0.173422 0.173422 0.173422 0.173422 0.173422 0.173422 0.173422 0.191565 0.191565 0.191565 0.191565 0.191565 0.191565 0.191565 0.191565 0.191565 0.191565 0.191565 0.191565 0.191565 0.191565 0.191565 0.191565 0.191565 0.191565 0.191565 0.191565 0.191565 0.191565 0.191565 0.191565 0.191565 0.191565 0.191565 0.191565 0.191565 0.191565 0.191565 0.191565 0.191565 0.191565 0.191565 0.191565 0.191565 0.191565 0.191565 0.191565 0.191565 0.191565 0.191565 0.191565 0.222222 0.222222 0.222222 0.222222 0.222222 0.222222 0.222222 0.222222 0.222222 0.222222 0.222222 0.222222 0.222222 0.222222 0.222222 0.222222 0.222222 0.222222 0.222222 0.222222 0.222222 0.222222 0.222222 0.222222 0.222222 0.222222 0.222222 0.222222 0.222222 0.222222 0.234082 0.234082 0.234082 0.234082 0.234082 0.234082 0.234082 0.234082 0.234082 0.234082 0.234082 0.234082 0.234082 0.234082 0.234082 0.234082 0.234082 0.234082 0.234082 0.234082 0.234082 0.234082 0.234082 0.234082 0.234082 0.244339 0.244339 0.244339 0.244339 0.244339 0.244339 0.244339 0.244339 0.244339 0.244339 0.244339 0.244339 0.244339 0.244339 0.244339 0.244339 0.244339 0.244339 0.244339 0.244339 0.244339 0.248069 0.248069 0.248069 0.248069 0.248069 0.248069 0.248069 0.248069 0.248069 0.248069 0.248069 0.248069 0.248069 0.248069 0.248069 0.248069 0.248069 0.248069 0.248069 0.256074 0.256074 0.256074 0.256074 0.256074 0.256074 0.256074 0.256074 0.256074 0.256074 0.256074 0.256074 0.256074 0.256074 0.256074 0.256074 0.256074 0.256074 0.256074 0.256074 0.256074 0.256074 0.256074 0.256074 0.256074 0.256074 0.256074 0.256074 0.256074 0.256074 0.256074 0.256074 0.256074 0.256074 0.256074 0.256074 0.256074 0.256074 0.256074 0.256074 0.256074 0.256074 0.256074 0.256074 0.256074 0.256074 0.256074 0.256074 0.256074 0.256074 0.256074 0.256074 0.256074 0.256074 0.256074 0.256074 0.256074 0.256074 0.256074 0.256074 0.256074 0.256074 0.260378 0.260378 0.260378 0.260378 0.260378 0.260378 0.260378 0.260378 0.260378 0.260378 0.260378 0.260378 0.260378 0.256074 0.256074 0.256074 0.256074 0.256074 0.256074 0.256074 0.256074 0.256074 0.256074 0.256074 0.256074 0.256074 0.260378 0.260378 0.260378 0.260378 0.260378 0.260378 0.260378 0.260378 0.260378 0.260378 0.260378 0.260378 0.251976 0.251976 0.251976 0.251976 0.251976 0.251976 0.251976 0.251976 0.251976 0.251976 0.251976 0.251976 0.256074 0.256074 0.256074 0.256074 0.256074 0.256074 0.256074 0.256074 0.256074 0.256074 0.256074 0.251976 0.251976 0.251976 0.251976 0.251976 0.251976 0.251976 0.251976 0.251976 0.251976 0.251976 0.260378 0.260378 0.260378 0.260378 0.260378 0.260378 0.260378 0.260378 0.260378 0.260378 0.244339 0.244339 0.244339 0.244339 0.244339 0.244339 0.244339 0.244339 0.244339 0.244339 0.244339 0.244339 0.244339 0.244339 0.244339 0.244339 0.244339 0.244339 0.244339 0.244339 0.244339
