# Output from CTFFind version 4.1.9, run on 2019-11-02 17:45:22
# Input file: stack16_bm3d_averaged_1_1.5_0_750_half.mrc ; Number of micrographs: 1
# Pixel size: 3.000 Angstroms ; acceleration voltage: 300.0 keV ; spherical aberration: 0.00 mm ; amplitude contrast: 0.07
# Box size: 512 pixels ; min. res.: 30.0 Angstroms ; max. res.: 5.0 Angstroms ; min. def.: 5000.0 um; max. def. 50000.0 um; num. frames averaged: 1
# 6 lines per micrograph: #1 - spatial frequency (1/Angstroms); #2 - 1D rotational average of spectrum (assuming no astigmatism); #3 - 1D rotational average of spectrum; #4 - CTF fit; #5 - cross-correlation between spectrum and CTF fit; #6 - 2sigma of expected cross correlation of noise
0.000000 0.000651 0.001302 0.001953 0.002604 0.003255 0.003906 0.004557 0.005208 0.005859 0.006510 0.007161 0.007812 0.008464 0.009115 0.009766 0.010417 0.011068 0.011719 0.012370 0.013021 0.013672 0.014323 0.014974 0.015625 0.016276 0.016927 0.017578 0.018229 0.018880 0.019531 0.020182 0.020833 0.021484 0.022135 0.022786 0.023438 0.024089 0.024740 0.025391 0.026042 0.026693 0.027344 0.027995 0.028646 0.029297 0.029948 0.030599 0.031250 0.031901 0.032552 0.033203 0.033854 0.034505 0.035156 0.035807 0.036458 0.037109 0.037760 0.038411 0.039062 0.039714 0.040365 0.041016 0.041667 0.042318 0.042969 0.043620 0.044271 0.044922 0.045573 0.046224 0.046875 0.047526 0.048177 0.048828 0.049479 0.050130 0.050781 0.051432 0.052083 0.052734 0.053385 0.054036 0.054688 0.055339 0.055990 0.056641 0.057292 0.057943 0.058594 0.059245 0.059896 0.060547 0.061198 0.061849 0.062500 0.063151 0.063802 0.064453 0.065104 0.065755 0.066406 0.067057 0.067708 0.068359 0.069010 0.069661 0.070312 0.070964 0.071615 0.072266 0.072917 0.073568 0.074219 0.074870 0.075521 0.076172 0.076823 0.077474 0.078125 0.078776 0.079427 0.080078 0.080729 0.081380 0.082031 0.082682 0.083333 0.083984 0.084635 0.085286 0.085938 0.086589 0.087240 0.087891 0.088542 0.089193 0.089844 0.090495 0.091146 0.091797 0.092448 0.093099 0.093750 0.094401 0.095052 0.095703 0.096354 0.097005 0.097656 0.098307 0.098958 0.099609 0.100260 0.100911 0.101562 0.102214 0.102865 0.103516 0.104167 0.104818 0.105469 0.106120 0.106771 0.107422 0.108073 0.108724 0.109375 0.110026 0.110677 0.111328 0.111979 0.112630 0.113281 0.113932 0.114583 0.115234 0.115885 0.116536 0.117188 0.117839 0.118490 0.119141 0.119792 0.120443 0.121094 0.121745 0.122396 0.123047 0.123698 0.124349 0.125000 0.125651 0.126302 0.126953 0.127604 0.128255 0.128906 0.129557 0.130208 0.130859 0.131510 0.132161 0.132812 0.133464 0.134115 0.134766 0.135417 0.136068 0.136719 0.137370 0.138021 0.138672 0.139323 0.139974 0.140625 0.141276 0.141927 0.142578 0.143229 0.143880 0.144531 0.145182 0.145833 0.146484 0.147135 0.147786 0.148438 0.149089 0.149740 0.150391 0.151042 0.151693 0.152344 0.152995 0.153646 0.154297 0.154948 0.155599 0.156250 0.156901 0.157552 0.158203 0.158854 0.159505 0.160156 0.160807 0.161458 0.162109 0.162760 0.163411 0.164062 0.164714 0.165365 0.166016 0.166667 0.167318 0.167969 0.168620 0.169271 0.169922 0.170573 0.171224 0.171875 0.172526 0.173177 0.173828 0.174479 0.175130 0.175781 0.176432 0.177083 0.177734 0.178385 0.179036 0.179688 0.180339 0.180990 0.181641 0.182292 0.182943 0.183594 0.184245 0.184896 0.185547 0.186198 0.186849 0.187500 0.188151 0.188802 0.189453 0.190104 0.190755 0.191406 0.192057 0.192708 0.193359 0.194010 0.194661 0.195312 0.195964 0.196615 0.197266 0.197917 0.198568 0.199219 0.199870 0.200521 0.201172 0.201823 0.202474 0.203125 0.203776 0.204427 0.205078 0.205729 0.206380 0.207031 0.207682 0.208333 0.208984 0.209635 0.210286 0.210938 0.211589 0.212240 0.212891 0.213542 0.214193 0.214844 0.215495 0.216146 0.216797 0.217448 0.218099 0.218750 0.219401 0.220052 0.220703 0.221354 0.222005 0.222656 0.223307 0.223958 0.224609 0.225260 0.225911 0.226562 0.227214 0.227865 0.228516 0.229167 0.229818 0.230469 0.231120 0.231771 0.232422 0.233073 0.233724 0.234375 0.235026 0.235677
       0.34261        0.34261        0.34261        0.34261        0.34261        0.34261        0.34261        0.34261        0.34261        0.34261        0.34261        0.34261        0.34261        0.34261        0.34261        0.34261        0.34261        0.34261        0.34261        0.34261        0.34261        0.34261        0.34261        0.34261        0.34261        0.34261        0.34261        0.34261        0.34261        0.34261        0.34261        0.34261        0.34261        0.34261        0.34261        0.34261        0.34261        0.34261        0.34261        0.34261        0.34261        0.34261        0.34261        0.34261        0.34261        0.34261        0.34261        0.34261        0.34261        0.34261        0.34261        0.48775        0.69873        0.45647       -0.11361       -0.41175       -0.57197       -0.66185       -0.74374       -0.76081       -0.86966       -0.91572       -0.75857       -0.92569       -0.87248       -1.02574       -1.09986       -0.98894       -0.96170       -0.88432       -0.85417       -0.74856       -0.64031       -0.49947       -0.42335       -0.22001       -0.11575       -0.02330        0.20062        0.24234        0.30736        0.38121        0.43542        0.51237        0.57856        0.59874        0.58950        0.50042        0.54576        0.48468        0.39381        0.32568        0.20341        0.17005        0.09739       -0.05643       -0.11177       -0.09007        0.01352       -0.01623        0.01839        0.02604        0.20382        0.21760        0.39193        0.45618        0.56187        0.69861        0.76131        0.73339        0.70161        0.69538        0.58105        0.53748        0.39771        0.27568        0.19573        0.15110        0.06896        0.02982        0.02314        0.06423        0.08126        0.27553        0.41610        0.50527        0.59006        0.63766        0.70050        0.65868        0.65343        0.66912        0.60553        0.48328        0.28691        0.23874        0.20624        0.12812        0.04190        0.09181        0.11400        0.25087        0.34707        0.41577        0.50230        0.54075        0.65557        0.60357        0.55200        0.51205        0.36238        0.20577        0.21241        0.15564        0.12178        0.12386        0.21549        0.25371        0.35653        0.44090        0.43608        0.55363        0.50870        0.45560        0.45772        0.37950        0.32461        0.27292        0.21181        0.23150        0.21349        0.20621        0.31499        0.45179        0.48508        0.48417        0.55352        0.49743        0.45252        0.39695        0.29766        0.22805        0.23387        0.23997        0.26422        0.27599        0.32935        0.44156        0.50325        0.49127        0.46078        0.41284        0.38797        0.35958        0.24957        0.22292        0.24954        0.29462        0.35761        0.36155        0.39119        0.41470        0.44162        0.37444        0.34825        0.31526        0.31093        0.27015        0.25807        0.30435        0.34739        0.41313        0.41671        0.39242        0.39095        0.40294        0.34638        0.28686        0.29785        0.28712        0.30797        0.35690        0.37281        0.41568        0.35691        0.36296        0.38681        0.34403        0.31286        0.28366        0.29162        0.33814        0.32497        0.32297        0.36936        0.39395        0.33401        0.35287        0.30172        0.30821        0.28442        0.28163        0.30124        0.32968        0.38383        0.36396        0.34548        0.32387        0.28325        0.27453        0.29597        0.28331        0.31611        0.36673        0.39516        0.33490        0.31930        0.30837        0.30149        0.29367        0.28034        0.30537        0.33855        0.33303        0.34280        0.32126        0.35137        0.32384        0.28793        0.31273        0.32250        0.34344        0.34533        0.31942        0.31262        0.30007        0.32657        0.31227        0.33752        0.39019        0.33068        0.36134        0.31551        0.30628        0.29083        0.30787        0.29265        0.30947        0.31751        0.34765        0.35774        0.30517        0.32098        0.31855        0.29720        0.29019        0.29592        0.32228        0.34656        0.35327        0.33183        0.31401        0.26658        0.25564        0.31431        0.34863        0.32048        0.29390        0.27790        0.29136        0.32841        0.31537        0.30700        0.33674        0.33308        0.30550        0.24058        0.28392        0.28806        0.28650        0.33141        0.32946        0.34564        0.34448        0.28721        0.27476        0.29880        0.27539        0.30074        0.27229        0.25348        0.25992        0.26623        0.28603        0.29246        0.28589        0.26214        0.32103        0.32488        0.31304        0.27404        0.27795        0.23385        0.25763        0.24647        0.31351        0.35612        0.23128        0.24366        0.28099        0.24186        0.23246        0.30958        0.23998        0.13025        0.17823        0.21895        0.27420        0.24458        0.13107        0.06767       -0.40138       -0.77293
3.170665 3.130760 3.091114 3.051726 3.012596 2.973725 2.935111 2.896757 2.858660 2.820821 2.783241 2.745919 2.708855 2.672050 2.635503 2.599214 2.563183 2.527411 2.491896 2.456641 2.421643 2.386904 2.352423 2.318200 2.284235 2.250529 2.217081 2.183891 2.150959 2.118286 2.085871 2.053714 2.021816 1.990176 1.958794 1.927670 1.896805 1.866197 1.835848 1.805758 1.775925 1.746351 1.717035 1.687978 1.659178 1.630637 1.602354 1.574330 1.546564 1.519056 1.491806 1.550368 1.732116 1.649603 0.991602 0.709360 0.499118 0.450549 0.343240 0.282909 0.217387 0.033118 0.213158 0.093894 0.001930 -0.049193 -0.193385 -0.146095 -0.081852 -0.086474 -0.086334 0.017405 0.038794 0.239015 0.156182 0.369761 0.452472 0.484364 0.719921 0.705294 0.713837 0.841436 0.824978 0.852867 0.925880 0.900882 0.941398 0.752940 0.837987 0.840186 0.625132 0.606293 0.453129 0.432185 0.373067 0.207177 0.113450 0.091705 0.202049 0.135145 0.194450 0.103336 0.295069 0.277037 0.450244 0.404828 0.575447 0.634839 0.753950 0.693610 0.653175 0.653375 0.516786 0.493410 0.349182 0.283582 0.106625 0.136785 -0.010898 -0.022104 -0.053962 -0.043678 -0.016448 0.019641 0.264195 0.314315 0.373301 0.386092 0.451791 0.479145 0.440145 0.481677 0.372727 0.368162 0.130348 0.046748 0.050877 -0.031408 -0.154213 -0.070021 -0.142049 -0.010390 0.115978 0.136105 0.232509 0.237299 0.357711 0.436493 0.324092 0.368025 0.258852 0.097358 0.022369 0.026424 -0.003935 -0.019871 -0.015344 0.085377 0.100780 0.244356 0.214558 0.279337 0.341791 0.229150 0.236344 0.203046 0.114052 0.070853 0.030244 0.010347 0.027016 -0.029708 0.011024 0.171633 0.214322 0.238388 0.274896 0.242025 0.249002 0.152595 0.120366 -0.011034 -0.005647 0.002077 0.024274 0.020313 0.041011 0.116283 0.204887 0.220971 0.220152 0.135031 0.144612 0.079004 0.060038 -0.063131 -0.017768 0.000875 0.056276 0.067273 0.074234 0.149711 0.092187 0.171101 0.065901 0.051605 0.047410 0.031125 0.003955 0.003927 0.046322 0.088209 0.127130 0.139957 0.058615 0.125148 0.094874 0.009533 0.010475 0.009788 -0.000908 0.048836 0.059420 0.101933 0.097214 0.064466 0.065025 0.076984 0.032531 0.012924 -0.012297 0.005150 0.056585 0.022112 0.033741 0.079176 0.083317 0.058159 0.033002 0.014612 0.012642 -0.008464 -0.010813 0.011910 0.052960 0.106942 0.059705 0.058026 0.033835 -0.013240 -0.004246 0.018667 0.013373 0.029876 0.105843 0.061937 0.016911 0.046414 0.002317 0.030571 -0.004615 -0.000845 0.029176 0.057224 0.038987 0.042570 0.032259 0.057150 0.024825 -0.006199 0.027270 0.040442 0.048215 0.042196 0.027895 -0.004538 -0.011922 0.026787 0.007809 0.049532 0.074413 0.040514 0.029325 0.003061 -0.000279 -0.007152 0.008341 0.003672 0.010794 -0.001823 0.077066 0.042427 0.023663 0.038300 0.003849 0.010063 0.000959 -0.002771 0.043563 0.064883 0.075413 0.044627 0.038056 -0.023800 -0.002424 0.029288 0.074944 0.029364 0.031754 -0.008150 0.009278 0.049460 0.051731 0.027153 0.067721 0.053779 0.040119 -0.031603 0.010147 0.042916 0.012220 0.043893 0.077804 0.071147 0.061876 0.015023 0.005965 0.013202 -0.003986 0.029052 -0.030195 -0.020920 -0.030162 -0.035539 -0.002853 -0.006086 0.007438 -0.084503 0.007096 0.000205 -0.010503 -0.058414 -0.010401 -0.108503 -0.045258 -0.056361 0.003146 0.068605 -0.115520 -0.043916 0.029601 -0.010156 -0.063823 0.047981 0.021654 -0.050659 -0.047824 0.031641 0.246761 0.216325 0.074950 0.063054 -0.684565
0.072396 0.073046 0.074994 0.078241 0.082786 0.088626 0.095760 0.104184 0.113896 0.124889 0.137157 0.150692 0.165483 0.181519 0.198783 0.217257 0.236920 0.257745 0.279702 0.302755 0.326863 0.351981 0.378053 0.405021 0.432815 0.461360 0.490570 0.520352 0.550602 0.581206 0.612039 0.642968 0.673844 0.704511 0.734800 0.764530 0.793510 0.821536 0.848396 0.873866 0.897714 0.919697 0.939568 0.957073 0.971952 0.983944 0.992788 0.998225 0.999997 0.997859 0.991570 0.980909 0.965666 0.945657 0.920719 0.890720 0.855559 0.815176 0.769548 0.718699 0.662704 0.601690 0.535842 0.465404 0.390684 0.312055 0.229958 0.144899 0.057452 0.031740 0.121973 0.212479 0.302437 0.390973 0.477169 0.560074 0.638712 0.712092 0.779224 0.839130 0.890862 0.933517 0.966253 0.988308 0.999019 0.997838 0.984351 0.958295 0.919574 0.868274 0.804676 0.729262 0.642727 0.545982 0.440150 0.326567 0.206767 0.082473 0.044424 0.171888 0.297771 0.419841 0.535826 0.643455 0.740507 0.824856 0.894528 0.947748 0.982998 0.999061 0.995073 0.970561 0.925483 0.860252 0.775759 0.673377 0.554960 0.422824 0.279720 0.128784 0.026517 0.182457 0.335139 0.480587 0.614851 0.734122 0.834845 0.913836 0.968396 0.996416 0.996475 0.967919 0.910923 0.826533 0.716673 0.584139 0.432545 0.266256 0.090274 0.089893 0.268398 0.439236 0.596448 0.734338 0.847690 0.931983 0.983588 0.999956 0.979758 0.923002 0.831092 0.706843 0.554430 0.379291 0.187953 0.012176 0.213087 0.406475 0.584087 0.738080 0.861384 0.948053 0.993581 0.995172 0.951940 0.865039 0.737693 0.575128 0.384414 0.174188 0.045696 0.264617 0.471691 0.656303 0.808684 0.920445 0.985078 0.998379 0.958769 0.867484 0.728618 0.549010 0.337967 0.106823 0.131620 0.363791 0.576118 0.755822 0.891728 0.974994 0.999741 0.963533 0.867649 0.717148 0.520678 0.290057 0.039614 0.214656 0.456099 0.668489 0.837147 0.949996 0.998483 0.978305 0.889857 0.738367 0.533690 0.289752 0.023674 0.245389 0.497591 0.713877 0.877451 0.975135 0.998508 0.944722 0.816908 0.624127 0.380830 0.105875 0.178883 0.450280 0.685732 0.865144 0.972696 0.998306 0.938700 0.797897 0.587086 0.323858 0.030850 0.266153 0.540437 0.766782 0.923832 0.996187 0.976027 0.864080 0.669806 0.410749 0.111068 0.200610 0.493895 0.739581 0.912615 0.994734 0.976521 0.858624 0.651974 0.376935 0.061441 0.261741 0.558380 0.796414 0.949475 0.999925 0.941043 0.778065 0.527927 0.217673 0.118320 0.442093 0.716355 0.908843 0.996213 0.967033 0.823450 0.581295 0.268533 0.077806 0.415907 0.704200 0.906516 0.996731 0.962319 0.806281 0.547159 0.217053 0.142199 0.484210 0.764034 0.944124 0.999525 0.921525 0.719233 0.418782 0.060172 0.307906 0.634603 0.873964 0.991511 0.969400 0.809360 0.532922 0.178763 0.202482 0.555375 0.827725 0.978399 0.983735 0.841503 0.571741 0.214211 0.177214 0.542575 0.824969 0.979527 0.980746 0.826967 0.541173 0.167873 0.233610 0.598442 0.866736 0.993532 0.956550 0.760413 0.436470 0.038080 0.367937 0.712442 0.935781 0.998292 0.887661 0.621650 0.245610 0.174950 0.565596 0.856148 0.993381 0.951078 0.735354 0.384229 0.038739 0.455707 0.788826 0.974822 0.977304 0.794212 0.458910 0.034524 0.397696 0.753817 0.963557 0.984438 0.810728 0.475335 0.043968 0.397396 0.759559 0.968193 0.979330 0.789045 0.435043 0.010394 0.454821 0.804749 0.985387 0.956940 0.723793 0.334429 0.128243 0.564223
1.000000 1.000000 1.000000 1.000000 1.000000 1.000000 1.000000 1.000000 1.000000 1.000000 1.000000 1.000000 1.000000 1.000000 1.000000 1.000000 1.000000 1.000000 1.000000 1.000000 1.000000 1.000000 1.000000 1.000000 1.000000 1.000000 1.000000 1.000000 1.000000 1.000000 1.000000 1.000000 1.000000 1.000000 1.000000 1.000000 1.000000 1.000000 1.000000 1.000000 1.000000 1.000000 1.000000 1.000000 1.000000 1.000000 1.000000 1.000000 1.000000 1.000000 1.000000 1.000000 0.941637 0.941637 0.941637 0.941637 0.941637 0.941637 0.941637 0.941637 0.941637 0.941637 0.941637 0.941637 0.941637 0.941637 0.941637 0.941637 0.941637 0.941637 0.941637 0.941637 0.941637 0.941637 0.941637 0.941637 0.941637 0.941637 0.941637 0.941637 0.941637 0.941637 0.941637 0.941637 0.941637 0.923092 0.924563 0.927531 0.928603 0.928564 0.928108 0.927788 0.927998 0.929705 0.932016 0.948657 0.950812 0.951489 0.952789 0.952311 0.955049 0.953826 0.956768 0.965542 0.964452 0.964871 0.965411 0.966912 0.967292 0.967274 0.965898 0.966192 0.965773 0.964908 0.964042 0.963733 0.963439 0.965075 0.965420 0.965371 0.965810 0.965604 0.965302 0.961786 0.960409 0.961734 0.963489 0.963024 0.969124 0.969328 0.977954 0.978716 0.977226 0.977116 0.977224 0.977351 0.969590 0.965168 0.960516 0.949134 0.940914 0.937951 0.940119 0.940760 0.939282 0.934277 0.933457 0.931664 0.927615 0.926920 0.926574 0.927856 0.922694 0.919176 0.901868 0.900599 0.903145 0.903039 0.900970 0.893033 0.888703 0.890135 0.893058 0.896298 0.893686 0.896126 0.891844 0.892910 0.893550 0.895241 0.898401 0.894498 0.892128 0.888023 0.884684 0.879117 0.880265 0.868970 0.872082 0.863681 0.852599 0.845027 0.848047 0.857714 0.866213 0.874079 0.873007 0.873540 0.872708 0.857529 0.860104 0.846964 0.847749 0.852736 0.858618 0.856278 0.853538 0.859028 0.857045 0.857663 0.860270 0.858081 0.856074 0.845794 0.846293 0.848022 0.864299 0.865144 0.853345 0.844248 0.832021 0.838889 0.842507 0.842111 0.843629 0.836429 0.838462 0.829207 0.816619 0.818752 0.824502 0.818634 0.820764 0.820904 0.826398 0.828512 0.827591 0.823510 0.821881 0.826409 0.795401 0.803728 0.805844 0.800083 0.804602 0.797610 0.790016 0.786420 0.783949 0.782620 0.797971 0.795873 0.762713 0.758317 0.765785 0.750526 0.739861 0.737129 0.738369 0.723225 0.710972 0.680315 0.674035 0.659252 0.657398 0.656370 0.634922 0.620782 0.607890 0.594744 0.607450 0.611138 0.589045 0.589194 0.578438 0.572855 0.565971 0.562372 0.558957 0.565639 0.569947 0.536756 0.531347 0.541317 0.513254 0.512388 0.513048 0.503622 0.481234 0.487437 0.484686 0.510482 0.521220 0.481043 0.473468 0.490781 0.508522 0.519322 0.519789 0.504709 0.486205 0.494377 0.473515 0.451797 0.465935 0.474368 0.465941 0.479845 0.473912 0.502520 0.493532 0.468874 0.491166 0.476751 0.472610 0.488046 0.504395 0.504480 0.506932 0.500370 0.451594 0.471577 0.458202 0.404479 0.407513 0.417151 0.405324 0.407401 0.383196 0.380833 0.357332 0.331282 0.329522 0.321187 0.282965 0.241923 0.248432 0.250470 0.219528 0.187929 0.203643 0.158954 0.150970 0.168479 0.171320 0.166105 0.166336 0.191211 0.191211 0.191211 0.191211 0.191211 0.191211 0.191211 0.191211 0.191211 0.191211 0.191211 0.191211 0.191211 0.191211 0.216569 0.216569 0.216569 0.216569 0.216569 0.216569 0.216569 0.216569 0.216569 0.216569 0.216569 0.216569
0.000000 0.000000 0.000000 0.000000 0.000000 0.000000 0.000000 0.000000 0.000000 0.000000 0.000000 0.000000 0.000000 0.000000 0.000000 0.000000 0.000000 0.000000 0.000000 0.000000 0.000000 0.000000 0.000000 0.000000 0.000000 0.000000 0.000000 0.000000 0.000000 0.000000 0.000000 0.000000 0.000000 0.000000 0.000000 0.000000 0.000000 0.000000 0.000000 0.000000 0.000000 0.000000 0.000000 0.000000 0.000000 0.000000 0.000000 0.000000 0.000000 0.000000 0.000000 0.000000 0.209657 0.209657 0.209657 0.209657 0.209657 0.209657 0.209657 0.209657 0.209657 0.209657 0.209657 0.209657 0.209657 0.209657 0.209657 0.209657 0.209657 0.209657 0.209657 0.209657 0.209657 0.209657 0.209657 0.209657 0.209657 0.209657 0.209657 0.209657 0.209657 0.209657 0.209657 0.209657 0.209657 0.244339 0.244339 0.244339 0.244339 0.244339 0.244339 0.244339 0.244339 0.244339 0.244339 0.244339 0.244339 0.244339 0.244339 0.244339 0.244339 0.244339 0.244339 0.244339 0.244339 0.244339 0.244339 0.244339 0.244339 0.244339 0.260378 0.260378 0.260378 0.260378 0.260378 0.260378 0.260378 0.260378 0.260378 0.260378 0.260378 0.260378 0.260378 0.260378 0.260378 0.260378 0.260378 0.260378 0.260378 0.260378 0.269680 0.269680 0.269680 0.269680 0.269680 0.269680 0.269680 0.269680 0.269680 0.269680 0.269680 0.269680 0.269680 0.269680 0.269680 0.269680 0.269680 0.269680 0.269680 0.269680 0.269680 0.269680 0.269680 0.269680 0.269680 0.269680 0.269680 0.269680 0.269680 0.269680 0.269680 0.269680 0.269680 0.280056 0.280056 0.280056 0.280056 0.280056 0.280056 0.280056 0.280056 0.280056 0.280056 0.280056 0.280056 0.280056 0.280056 0.280056 0.280056 0.280056 0.280056 0.280056 0.280056 0.280056 0.280056 0.280056 0.280056 0.280056 0.280056 0.280056 0.274721 0.274721 0.274721 0.274721 0.274721 0.274721 0.274721 0.274721 0.274721 0.274721 0.274721 0.274721 0.274721 0.285714 0.285714 0.285714 0.285714 0.285714 0.285714 0.285714 0.285714 0.285714 0.285714 0.285714 0.280056 0.280056 0.280056 0.280056 0.280056 0.280056 0.280056 0.280056 0.280056 0.280056 0.280056 0.274721 0.274721 0.274721 0.274721 0.274721 0.274721 0.274721 0.274721 0.274721 0.274721 0.274721 0.280056 0.280056 0.280056 0.280056 0.280056 0.280056 0.280056 0.280056 0.280056 0.280056 0.285714 0.285714 0.285714 0.285714 0.285714 0.285714 0.285714 0.285714 0.285714 0.269680 0.269680 0.269680 0.269680 0.269680 0.269680 0.269680 0.269680 0.269680 0.269680 0.274721 0.274721 0.274721 0.274721 0.274721 0.274721 0.274721 0.274721 0.274721 0.285714 0.285714 0.285714 0.285714 0.285714 0.285714 0.285714 0.285714 0.264906 0.264906 0.264906 0.264906 0.264906 0.264906 0.264906 0.264906 0.264906 0.274721 0.274721 0.274721 0.274721 0.274721 0.274721 0.274721 0.274721 0.269680 0.269680 0.269680 0.269680 0.269680 0.269680 0.269680 0.269680 0.269680 0.269680 0.269680 0.269680 0.269680 0.269680 0.269680 0.269680 0.280056 0.280056 0.280056 0.280056 0.280056 0.280056 0.280056 0.260378 0.260378 0.260378 0.260378 0.260378 0.260378 0.260378 0.260378 0.269680 0.269680 0.269680 0.269680 0.269680 0.269680 0.269680 0.264906 0.264906 0.264906 0.264906 0.264906 0.264906 0.264906 0.264906 0.264906 0.264906 0.264906 0.264906 0.264906 0.264906 0.260378 0.260378 0.260378 0.260378 0.260378 0.260378 0.260378 0.260378 0.260378 0.260378 0.260378 0.260378
