# Output from CTFFind version 4.1.9, run on 2019-11-03 20:08:43
# Input file: stack6_bm3d_averaged_1_7.0_0_2000_half.mrc ; Number of micrographs: 1
# Pixel size: 3.000 Angstroms ; acceleration voltage: 300.0 keV ; spherical aberration: 0.00 mm ; amplitude contrast: 0.07
# Box size: 512 pixels ; min. res.: 30.0 Angstroms ; max. res.: 5.0 Angstroms ; min. def.: 5000.0 um; max. def. 50000.0 um; num. frames averaged: 1
# 6 lines per micrograph: #1 - spatial frequency (1/Angstroms); #2 - 1D rotational average of spectrum (assuming no astigmatism); #3 - 1D rotational average of spectrum; #4 - CTF fit; #5 - cross-correlation between spectrum and CTF fit; #6 - 2sigma of expected cross correlation of noise
0.000000 0.000651 0.001302 0.001953 0.002604 0.003255 0.003906 0.004557 0.005208 0.005859 0.006510 0.007161 0.007812 0.008464 0.009115 0.009766 0.010417 0.011068 0.011719 0.012370 0.013021 0.013672 0.014323 0.014974 0.015625 0.016276 0.016927 0.017578 0.018229 0.018880 0.019531 0.020182 0.020833 0.021484 0.022135 0.022786 0.023438 0.024089 0.024740 0.025391 0.026042 0.026693 0.027344 0.027995 0.028646 0.029297 0.029948 0.030599 0.031250 0.031901 0.032552 0.033203 0.033854 0.034505 0.035156 0.035807 0.036458 0.037109 0.037760 0.038411 0.039062 0.039714 0.040365 0.041016 0.041667 0.042318 0.042969 0.043620 0.044271 0.044922 0.045573 0.046224 0.046875 0.047526 0.048177 0.048828 0.049479 0.050130 0.050781 0.051432 0.052083 0.052734 0.053385 0.054036 0.054688 0.055339 0.055990 0.056641 0.057292 0.057943 0.058594 0.059245 0.059896 0.060547 0.061198 0.061849 0.062500 0.063151 0.063802 0.064453 0.065104 0.065755 0.066406 0.067057 0.067708 0.068359 0.069010 0.069661 0.070312 0.070964 0.071615 0.072266 0.072917 0.073568 0.074219 0.074870 0.075521 0.076172 0.076823 0.077474 0.078125 0.078776 0.079427 0.080078 0.080729 0.081380 0.082031 0.082682 0.083333 0.083984 0.084635 0.085286 0.085938 0.086589 0.087240 0.087891 0.088542 0.089193 0.089844 0.090495 0.091146 0.091797 0.092448 0.093099 0.093750 0.094401 0.095052 0.095703 0.096354 0.097005 0.097656 0.098307 0.098958 0.099609 0.100260 0.100911 0.101562 0.102214 0.102865 0.103516 0.104167 0.104818 0.105469 0.106120 0.106771 0.107422 0.108073 0.108724 0.109375 0.110026 0.110677 0.111328 0.111979 0.112630 0.113281 0.113932 0.114583 0.115234 0.115885 0.116536 0.117188 0.117839 0.118490 0.119141 0.119792 0.120443 0.121094 0.121745 0.122396 0.123047 0.123698 0.124349 0.125000 0.125651 0.126302 0.126953 0.127604 0.128255 0.128906 0.129557 0.130208 0.130859 0.131510 0.132161 0.132812 0.133464 0.134115 0.134766 0.135417 0.136068 0.136719 0.137370 0.138021 0.138672 0.139323 0.139974 0.140625 0.141276 0.141927 0.142578 0.143229 0.143880 0.144531 0.145182 0.145833 0.146484 0.147135 0.147786 0.148438 0.149089 0.149740 0.150391 0.151042 0.151693 0.152344 0.152995 0.153646 0.154297 0.154948 0.155599 0.156250 0.156901 0.157552 0.158203 0.158854 0.159505 0.160156 0.160807 0.161458 0.162109 0.162760 0.163411 0.164062 0.164714 0.165365 0.166016 0.166667 0.167318 0.167969 0.168620 0.169271 0.169922 0.170573 0.171224 0.171875 0.172526 0.173177 0.173828 0.174479 0.175130 0.175781 0.176432 0.177083 0.177734 0.178385 0.179036 0.179688 0.180339 0.180990 0.181641 0.182292 0.182943 0.183594 0.184245 0.184896 0.185547 0.186198 0.186849 0.187500 0.188151 0.188802 0.189453 0.190104 0.190755 0.191406 0.192057 0.192708 0.193359 0.194010 0.194661 0.195312 0.195964 0.196615 0.197266 0.197917 0.198568 0.199219 0.199870 0.200521 0.201172 0.201823 0.202474 0.203125 0.203776 0.204427 0.205078 0.205729 0.206380 0.207031 0.207682 0.208333 0.208984 0.209635 0.210286 0.210938 0.211589 0.212240 0.212891 0.213542 0.214193 0.214844 0.215495 0.216146 0.216797 0.217448 0.218099 0.218750 0.219401 0.220052 0.220703 0.221354 0.222005 0.222656 0.223307 0.223958 0.224609 0.225260 0.225911 0.226562 0.227214 0.227865 0.228516 0.229167 0.229818 0.230469 0.231120 0.231771 0.232422 0.233073 0.233724 0.234375 0.235026 0.235677
       0.33137        0.33137        0.33137        0.33137        0.33137        0.33137        0.33137        0.33137        0.33137        0.33137        0.33137        0.33137        0.33137        0.33137        0.33137        0.33137        0.33137        0.33137        0.33137        0.33137        0.33137        0.33137        0.33137        0.33137        0.33137        0.33137        0.33137        0.33137        0.33137        0.33137        0.33137        0.33137        0.33137        0.33137        0.33137        0.33137        0.33137        0.33137        0.33137        0.33137        0.33137        0.33137        0.33137        0.33137        0.33137        0.33137        0.33137        0.33137        0.33137        0.33137        0.33137        0.59628        0.70966        0.36505        0.17333        0.13886       -0.12970        0.11273        0.04068        0.04325        0.09386        0.30941        0.30829        0.23687        0.14239       -0.03723       -0.00997        0.05147       -0.09167       -0.09806       -0.06921       -0.07643       -0.17619       -0.11253       -0.22188       -0.24077       -0.23856       -0.29747       -0.36873       -0.29799       -0.20667       -0.17188       -0.27859       -0.20295       -0.24404       -0.18537       -0.12448       -0.06634       -0.03780        0.01830        0.06592        0.14999        0.19134        0.23342        0.34648        0.41128        0.36109        0.48213        0.54579        0.55429        0.63068        0.55572        0.58532        0.60342        0.60495        0.59637        0.55948        0.59523        0.54254        0.39823        0.35324        0.37726        0.34445        0.21181        0.20138        0.17190        0.11567        0.11379        0.04136        0.10708        0.08577        0.05196        0.13362        0.18869        0.27631        0.35010        0.36522        0.39644        0.44872        0.48222        0.42236        0.63868        0.54979        0.48241        0.56999        0.50313        0.55706        0.51677        0.38962        0.32733        0.31264        0.26641        0.25639        0.21513        0.19673        0.17379        0.26459        0.24249        0.26384        0.23383        0.27530        0.33782        0.33850        0.45018        0.44544        0.43101        0.41820        0.48099        0.43585        0.41787        0.40705        0.39833        0.33721        0.28455        0.27987        0.27031        0.26902        0.21468        0.20187        0.25154        0.26733        0.28976        0.35203        0.38530        0.42750        0.41573        0.43003        0.48889        0.47342        0.43045        0.38411        0.41811        0.38091        0.33084        0.34010        0.33077        0.27223        0.28444        0.28108        0.25599        0.32118        0.29939        0.31821        0.33776        0.39868        0.42197        0.41278        0.44170        0.39033        0.43277        0.40484        0.33264        0.30049        0.27330        0.28503        0.25667        0.22626        0.31379        0.37577        0.33806        0.30997        0.36606        0.29131        0.34960        0.40232        0.38774        0.36621        0.38102        0.34752        0.36342        0.33660        0.30640        0.28878        0.26844        0.32050        0.33220        0.35098        0.36578        0.38915        0.37286        0.37048        0.32716        0.35665        0.36382        0.34468        0.32978        0.29248        0.28948        0.27033        0.34076        0.33724        0.34777        0.31707        0.34933        0.37013        0.33963        0.35741        0.34860        0.31466        0.31084        0.30968        0.28200        0.27186        0.26242        0.25441        0.27477        0.26760        0.30495        0.27797        0.31899        0.35895        0.26421        0.29665        0.28369        0.24670        0.30143        0.28392        0.28481        0.31101        0.32825        0.32890        0.31715        0.31549        0.31255        0.35768        0.35864        0.30337        0.32837        0.32037        0.37047        0.28167        0.27874        0.29410        0.30774        0.33227        0.36465        0.35858        0.29856        0.23426        0.29834        0.26688        0.25881        0.26049        0.27423        0.30740        0.23779        0.30618        0.33123        0.36671        0.31265        0.31420        0.28153        0.29543        0.29239        0.26429        0.28715        0.27183        0.28841        0.35215        0.34739        0.28597        0.32279        0.33179        0.26327        0.23230        0.18823        0.33085        0.33090        0.36028        0.34373        0.29511        0.23114        0.22013        0.27425        0.26974        0.27007        0.29086        0.29237        0.24633        0.28002        0.27945        0.30996        0.28120        0.27796        0.27365        0.24866        0.22741        0.28338        0.25034        0.21858        0.26556        0.25649        0.26276        0.22498        0.20451        0.27192        0.29686        0.27586        0.19911        0.14654        0.29510        0.22740        0.25503        0.27559        0.16992        0.16441        0.19854        0.24431        0.29044        0.10079       -0.10752       -0.60461       -0.96131
2.414970 2.394513 2.374146 2.353869 2.333683 2.313588 2.293583 2.273669 2.253845 2.234112 2.214470 2.194918 2.175457 2.156086 2.136806 2.117617 2.098518 2.079510 2.060592 2.041765 2.023029 2.004383 1.985828 1.967363 1.948989 1.930705 1.912512 1.894410 1.876398 1.858477 1.840647 1.822907 1.805257 1.787699 1.770231 1.752853 1.735566 1.718370 1.701264 1.684249 1.667324 1.650490 1.633747 1.617094 1.600531 1.584060 1.567679 1.551388 1.535188 1.519079 1.503060 1.861317 2.202344 1.528151 1.330084 1.103114 0.518991 0.933035 0.805068 0.844953 0.701059 1.420902 1.195656 1.211782 0.986462 0.598913 0.470734 0.747799 0.600448 0.280280 0.273823 0.487331 0.245606 0.263666 0.109527 -0.002351 -0.016366 -0.009754 -0.319634 -0.145773 0.012259 0.005573 -0.082475 -0.014116 -0.106839 -0.086884 0.068472 0.195207 0.258638 0.280902 0.384289 0.629968 0.562864 0.666409 0.829302 1.060895 0.804826 1.265177 1.193756 1.269690 1.370266 1.262362 1.164361 1.371467 1.237232 1.349304 1.204522 1.200758 1.221381 0.964588 0.712362 0.749056 0.795871 0.484335 0.444932 0.371934 0.238595 0.197655 0.036078 0.230695 0.174018 0.057517 0.138769 0.237129 0.362235 0.608017 0.610825 0.625359 0.697634 0.880961 0.593737 1.028789 1.052536 0.775547 0.927468 0.770266 0.884490 0.917629 0.649779 0.407097 0.436471 0.383485 0.222308 0.240631 0.164088 -0.014520 0.250353 0.228163 0.261039 0.155100 0.251292 0.334103 0.278707 0.501553 0.603478 0.553157 0.365565 0.653401 0.560121 0.424001 0.538857 0.436945 0.271826 0.316105 0.137292 0.214164 0.026301 0.216215 -0.056126 0.057791 0.065337 0.259124 0.052817 0.399610 0.349897 0.404496 0.382800 0.417829 0.588865 0.409678 0.349313 0.403552 0.199065 0.359088 0.112075 0.268773 0.065857 0.093122 0.083307 0.063841 0.047153 0.159532 0.060007 0.158240 0.242012 0.287262 0.330776 0.265240 0.346413 0.264116 0.293717 0.184244 0.104554 0.019772 -0.008780 0.018191 -0.066238 -0.070346 0.126501 0.218766 0.055914 0.108902 0.127480 0.008900 0.188625 0.257738 0.188771 0.185699 0.131566 0.167695 0.108600 0.099278 0.047118 -0.086341 -0.004464 0.135519 0.049992 0.152930 0.132681 0.221762 0.183853 0.158971 0.108309 0.188709 0.101755 0.143040 0.094851 0.014512 -0.011441 -0.009680 0.130753 0.124710 0.128694 0.060346 0.152671 0.157720 0.047755 0.144301 0.052393 -0.007823 0.027192 0.008126 -0.058781 -0.062591 -0.115451 -0.047831 -0.054302 -0.095489 0.013582 -0.041471 0.049750 0.100595 -0.109537 0.027148 -0.050493 -0.099916 0.047971 -0.028658 -0.063562 0.042598 0.097703 0.030573 0.060060 -0.044386 0.029198 0.195922 0.008514 -0.042208 0.083316 0.042064 0.115514 -0.105208 -0.047220 -0.009513 0.049175 0.057471 0.098240 0.133989 -0.044002 -0.107225 0.008339 -0.063324 -0.066630 -0.047576 -0.049162 0.048123 -0.176484 0.124170 0.122180 0.183736 0.038415 0.045956 0.026995 0.030111 0.092112 -0.032854 0.037460 0.008497 0.058345 0.138525 0.187540 0.043399 0.159453 0.173439 -0.039615 -0.007980 -0.162394 0.232090 0.139020 0.213082 0.168171 0.033471 -0.062610 -0.090456 0.008611 0.007521 -0.015784 0.042249 0.052018 -0.076606 0.012911 0.102785 0.073279 0.041249 0.012175 0.057659 -0.095171 -0.021156 0.052095 -0.023823 -0.107830 0.051677 -0.005596 -0.035843 -0.028668 -0.105693 0.084295 0.124754 0.004307 -0.087688 -0.334919 0.212262 0.511536 0.443368 0.574087 0.269030 0.324635 0.391138 0.513975 0.556497 0.072392 0.040529 -0.919292
0.072396 0.072838 0.074163 0.076371 0.079462 0.083435 0.088289 0.094022 0.100634 0.108122 0.116484 0.125716 0.135815 0.146776 0.158594 0.171262 0.184772 0.199116 0.214282 0.230259 0.247032 0.264586 0.282903 0.301961 0.321739 0.342209 0.363344 0.385111 0.407474 0.430396 0.453833 0.477738 0.502061 0.526747 0.551735 0.576960 0.602354 0.627843 0.653346 0.678779 0.704051 0.729069 0.753731 0.777931 0.801559 0.824499 0.846629 0.867825 0.887956 0.906890 0.924488 0.940610 0.955112 0.967851 0.978680 0.987451 0.994019 0.998237 0.999964 0.999060 0.995388 0.988821 0.979236 0.966518 0.950564 0.931282 0.908590 0.882425 0.852736 0.819493 0.782682 0.742313 0.698416 0.651047 0.600285 0.546238 0.489041 0.428857 0.365881 0.300336 0.232478 0.162594 0.091002 0.018050 0.055883 0.130388 0.205031 0.279348 0.352856 0.425047 0.495396 0.563366 0.628407 0.689964 0.747479 0.800402 0.848190 0.890315 0.926273 0.955588 0.977820 0.992569 0.999485 0.998277 0.988713 0.970632 0.943948 0.908657 0.864842 0.812675 0.752424 0.684454 0.609231 0.527317 0.439375 0.346165 0.248540 0.147440 0.043885 0.061028 0.166143 0.270251 0.372106 0.470437 0.563965 0.651424 0.731572 0.803218 0.865233 0.916578 0.956321 0.983654 0.997916 0.998607 0.985407 0.958192 0.917039 0.862242 0.794319 0.714007 0.622269 0.520285 0.409446 0.291336 0.167716 0.040506 0.088250 0.216406 0.341757 0.462066 0.575119 0.678750 0.770902 0.849658 0.913296 0.960323 0.989521 0.999980 0.991137 0.962795 0.915150 0.848800 0.764752 0.664419 0.549605 0.422480 0.285552 0.141622 0.006269 0.154897 0.300927 0.440980 0.571721 0.689935 0.792613 0.877034 0.940842 0.982127 0.999484 0.992074 0.959665 0.902665 0.822136 0.719788 0.597962 0.459586 0.308120 0.147478 0.018066 0.183983 0.345614 0.498297 0.637510 0.759000 0.858929 0.934004 0.981593 0.999836 0.987727 0.945176 0.873050 0.773168 0.648289 0.502048 0.338864 0.163824 0.017463 0.199040 0.374797 0.538674 0.684877 0.808085 0.903659 0.967832 0.997874 0.992225 0.950588 0.873990 0.764777 0.626575 0.464192 0.283467 0.091080 0.105682 0.299199 0.481803 0.646095 0.785242 0.893285 0.965408 0.998170 0.989698 0.939809 0.850073 0.723801 0.565943 0.382939 0.182460 0.026882 0.235900 0.435226 0.615737 0.768976 0.887568 0.965597 0.998919 0.985421 0.925170 0.820481 0.675864 0.497862 0.294798 0.076395 0.146661 0.363236 0.562304 0.733521 0.867767 0.957665 0.998014 0.986118 0.922006 0.808499 0.651135 0.457938 0.239048 0.006209 0.227834 0.450029 0.647754 0.809529 0.925727 0.989163 0.995583 0.943987 0.836772 0.679681 0.481538 0.253798 0.009912 0.235431 0.467203 0.670938 0.833664 0.944749 0.996643 0.985427 0.911160 0.777971 0.593885 0.370404 0.121820 0.135662 0.384967 0.609279 0.793179 0.923751 0.991510 0.991152 0.922021 0.788260 0.598637 0.366026 0.106581 0.161341 0.418481 0.646035 0.827068 0.947796 0.998685 0.975268 0.878586 0.715243 0.497021 0.240102 0.036101 0.310362 0.561273 0.768927 0.916516 0.991754 0.987952 0.904681 0.747947 0.529842 0.267673 0.017345 0.301778 0.561874 0.775578 0.924413 0.995148 0.981031 0.882517 0.707374 0.470168 0.191118 0.105567 0.393759 0.647693 0.844311 0.965377 0.999256 0.942097 0.798357 0.580554 0.308267 0.006448 0.296823 0.572914 0.795383 0.942524 0.999570 0.960250 0.827572 0.613716 0.339009 0.030078 0.282680 0.568056 0.797160 0.946401 0.999962
1.000000 1.000000 1.000000 1.000000 1.000000 1.000000 1.000000 1.000000 1.000000 1.000000 1.000000 1.000000 1.000000 1.000000 1.000000 1.000000 1.000000 1.000000 1.000000 1.000000 1.000000 1.000000 1.000000 1.000000 1.000000 1.000000 1.000000 1.000000 1.000000 1.000000 1.000000 1.000000 1.000000 1.000000 1.000000 1.000000 1.000000 1.000000 1.000000 1.000000 1.000000 1.000000 1.000000 1.000000 1.000000 1.000000 1.000000 1.000000 1.000000 1.000000 1.000000 1.000000 0.771010 0.771010 0.771010 0.771010 0.771010 0.771010 0.771010 0.759854 0.759854 0.759854 0.759854 0.759854 0.759854 0.759854 0.759854 0.759854 0.759854 0.759854 0.759854 0.759854 0.759854 0.759854 0.759854 0.759854 0.759854 0.759854 0.759854 0.759854 0.759854 0.759854 0.759854 0.759854 0.759854 0.759854 0.759854 0.759854 0.759854 0.759854 0.759854 0.759854 0.759854 0.759854 0.759854 0.759854 0.759854 0.759854 0.759854 0.759854 0.759854 0.759854 0.759854 0.900521 0.901985 0.905033 0.900449 0.902378 0.900222 0.893789 0.896717 0.896532 0.896353 0.897424 0.899079 0.901086 0.908421 0.917329 0.919218 0.926195 0.929628 0.929611 0.931125 0.929739 0.937214 0.934715 0.932944 0.921038 0.924450 0.926352 0.925361 0.924202 0.921027 0.927448 0.926042 0.923964 0.918681 0.914762 0.912850 0.914491 0.912280 0.912477 0.912655 0.913277 0.911483 0.912092 0.908245 0.909189 0.908089 0.904537 0.901526 0.901243 0.902631 0.900940 0.897564 0.891289 0.897250 0.897407 0.896771 0.895680 0.895890 0.896684 0.897458 0.898125 0.895685 0.895737 0.893130 0.894905 0.891195 0.886419 0.880259 0.880475 0.882961 0.890145 0.892201 0.890919 0.888130 0.879920 0.869288 0.867226 0.855246 0.820707 0.822529 0.826422 0.828613 0.829270 0.828381 0.824606 0.820041 0.811407 0.802274 0.807086 0.807684 0.800024 0.795686 0.796604 0.797217 0.804606 0.808116 0.799920 0.796931 0.800111 0.796139 0.797361 0.801264 0.794898 0.791306 0.797852 0.806045 0.806241 0.790785 0.786452 0.784096 0.771868 0.778951 0.785537 0.786070 0.787453 0.784457 0.772822 0.771292 0.764392 0.775082 0.782474 0.781733 0.776860 0.759627 0.716566 0.703305 0.671461 0.670727 0.672312 0.638496 0.638582 0.640175 0.644824 0.589368 0.567563 0.553688 0.554424 0.563089 0.568047 0.562173 0.535417 0.553597 0.550332 0.535941 0.531934 0.511927 0.497629 0.478165 0.480844 0.480151 0.472024 0.441908 0.441977 0.461502 0.470607 0.466148 0.462646 0.434662 0.413962 0.414221 0.407079 0.407066 0.412682 0.421398 0.365567 0.342324 0.327880 0.356688 0.355930 0.354338 0.370577 0.363056 0.356595 0.331929 0.311383 0.284166 0.296606 0.317120 0.321011 0.324847 0.292542 0.282358 0.265665 0.270019 0.314982 0.303232 0.324505 0.328873 0.333854 0.360722 0.333735 0.310048 0.287133 0.330112 0.334375 0.308589 0.299057 0.312906 0.327262 0.326902 0.322850 0.316994 0.364351 0.371817 0.351622 0.352203 0.319127 0.341240 0.373670 0.370286 0.375386 0.385927 0.391070 0.358020 0.288202 0.261007 0.264081 0.240234 0.239711 0.225349 0.210223 0.202011 0.214057 0.236160 0.242289 0.274969 0.244150 0.200753 0.109030 0.176551 0.093971 0.106089 0.106089 0.106089 0.106089 0.106089 0.106089 0.106089 0.106089 0.140548 0.140548 0.140548 0.140548 0.140548 0.140548 0.140548 0.140548 0.140548 0.140548 0.140548 0.140548 0.140548 0.140548 0.140548 0.140548 0.140548 0.140548 0.140548 0.140548 0.140548
0.000000 0.000000 0.000000 0.000000 0.000000 0.000000 0.000000 0.000000 0.000000 0.000000 0.000000 0.000000 0.000000 0.000000 0.000000 0.000000 0.000000 0.000000 0.000000 0.000000 0.000000 0.000000 0.000000 0.000000 0.000000 0.000000 0.000000 0.000000 0.000000 0.000000 0.000000 0.000000 0.000000 0.000000 0.000000 0.000000 0.000000 0.000000 0.000000 0.000000 0.000000 0.000000 0.000000 0.000000 0.000000 0.000000 0.000000 0.000000 0.000000 0.000000 0.000000 0.000000 0.173422 0.173422 0.173422 0.173422 0.173422 0.173422 0.173422 0.191565 0.191565 0.191565 0.191565 0.191565 0.191565 0.191565 0.191565 0.191565 0.191565 0.191565 0.191565 0.191565 0.191565 0.191565 0.191565 0.191565 0.191565 0.191565 0.191565 0.191565 0.191565 0.191565 0.191565 0.191565 0.191565 0.191565 0.191565 0.191565 0.191565 0.191565 0.191565 0.191565 0.191565 0.191565 0.191565 0.191565 0.191565 0.191565 0.191565 0.191565 0.191565 0.191565 0.191565 0.222222 0.222222 0.222222 0.222222 0.222222 0.222222 0.222222 0.222222 0.222222 0.222222 0.222222 0.222222 0.222222 0.222222 0.222222 0.222222 0.222222 0.222222 0.222222 0.222222 0.222222 0.222222 0.222222 0.222222 0.222222 0.222222 0.222222 0.222222 0.222222 0.222222 0.234082 0.234082 0.234082 0.234082 0.234082 0.234082 0.234082 0.234082 0.234082 0.234082 0.234082 0.234082 0.234082 0.234082 0.234082 0.234082 0.234082 0.234082 0.234082 0.234082 0.234082 0.234082 0.234082 0.234082 0.234082 0.244339 0.244339 0.244339 0.244339 0.244339 0.244339 0.244339 0.244339 0.244339 0.244339 0.244339 0.244339 0.244339 0.244339 0.244339 0.244339 0.244339 0.244339 0.244339 0.244339 0.244339 0.248069 0.248069 0.248069 0.248069 0.248069 0.248069 0.248069 0.248069 0.248069 0.248069 0.248069 0.248069 0.248069 0.248069 0.248069 0.248069 0.248069 0.248069 0.248069 0.256074 0.256074 0.256074 0.256074 0.256074 0.256074 0.256074 0.256074 0.256074 0.256074 0.256074 0.256074 0.256074 0.256074 0.256074 0.256074 0.256074 0.256074 0.256074 0.256074 0.256074 0.256074 0.256074 0.256074 0.256074 0.256074 0.256074 0.256074 0.256074 0.256074 0.256074 0.256074 0.256074 0.256074 0.256074 0.256074 0.256074 0.256074 0.256074 0.256074 0.256074 0.256074 0.256074 0.256074 0.256074 0.256074 0.256074 0.256074 0.256074 0.256074 0.256074 0.256074 0.256074 0.256074 0.256074 0.256074 0.256074 0.256074 0.256074 0.256074 0.256074 0.256074 0.260378 0.260378 0.260378 0.260378 0.260378 0.260378 0.260378 0.260378 0.260378 0.260378 0.260378 0.260378 0.260378 0.256074 0.256074 0.256074 0.256074 0.256074 0.256074 0.256074 0.256074 0.256074 0.256074 0.256074 0.256074 0.256074 0.260378 0.260378 0.260378 0.260378 0.260378 0.260378 0.260378 0.260378 0.260378 0.260378 0.260378 0.260378 0.251976 0.251976 0.251976 0.251976 0.251976 0.251976 0.251976 0.251976 0.251976 0.251976 0.251976 0.251976 0.256074 0.256074 0.256074 0.256074 0.256074 0.256074 0.256074 0.256074 0.256074 0.256074 0.256074 0.251976 0.251976 0.251976 0.251976 0.251976 0.251976 0.251976 0.251976 0.251976 0.251976 0.251976 0.260378 0.260378 0.260378 0.260378 0.260378 0.260378 0.260378 0.260378 0.260378 0.260378 0.244339 0.244339 0.244339 0.244339 0.244339 0.244339 0.244339 0.244339 0.244339 0.244339 0.244339 0.244339 0.244339 0.244339 0.244339 0.244339 0.244339 0.244339 0.244339 0.244339 0.244339
