# Output from CTFFind version 4.1.9, run on 2019-11-03 20:05:11
# Input file: stack6_bm3d_averaged_1_5.5_0_750_half.mrc ; Number of micrographs: 1
# Pixel size: 3.000 Angstroms ; acceleration voltage: 300.0 keV ; spherical aberration: 0.00 mm ; amplitude contrast: 0.07
# Box size: 512 pixels ; min. res.: 30.0 Angstroms ; max. res.: 5.0 Angstroms ; min. def.: 5000.0 um; max. def. 50000.0 um; num. frames averaged: 1
# 6 lines per micrograph: #1 - spatial frequency (1/Angstroms); #2 - 1D rotational average of spectrum (assuming no astigmatism); #3 - 1D rotational average of spectrum; #4 - CTF fit; #5 - cross-correlation between spectrum and CTF fit; #6 - 2sigma of expected cross correlation of noise
0.000000 0.000651 0.001302 0.001953 0.002604 0.003255 0.003906 0.004557 0.005208 0.005859 0.006510 0.007161 0.007812 0.008464 0.009115 0.009766 0.010417 0.011068 0.011719 0.012370 0.013021 0.013672 0.014323 0.014974 0.015625 0.016276 0.016927 0.017578 0.018229 0.018880 0.019531 0.020182 0.020833 0.021484 0.022135 0.022786 0.023438 0.024089 0.024740 0.025391 0.026042 0.026693 0.027344 0.027995 0.028646 0.029297 0.029948 0.030599 0.031250 0.031901 0.032552 0.033203 0.033854 0.034505 0.035156 0.035807 0.036458 0.037109 0.037760 0.038411 0.039062 0.039714 0.040365 0.041016 0.041667 0.042318 0.042969 0.043620 0.044271 0.044922 0.045573 0.046224 0.046875 0.047526 0.048177 0.048828 0.049479 0.050130 0.050781 0.051432 0.052083 0.052734 0.053385 0.054036 0.054688 0.055339 0.055990 0.056641 0.057292 0.057943 0.058594 0.059245 0.059896 0.060547 0.061198 0.061849 0.062500 0.063151 0.063802 0.064453 0.065104 0.065755 0.066406 0.067057 0.067708 0.068359 0.069010 0.069661 0.070312 0.070964 0.071615 0.072266 0.072917 0.073568 0.074219 0.074870 0.075521 0.076172 0.076823 0.077474 0.078125 0.078776 0.079427 0.080078 0.080729 0.081380 0.082031 0.082682 0.083333 0.083984 0.084635 0.085286 0.085938 0.086589 0.087240 0.087891 0.088542 0.089193 0.089844 0.090495 0.091146 0.091797 0.092448 0.093099 0.093750 0.094401 0.095052 0.095703 0.096354 0.097005 0.097656 0.098307 0.098958 0.099609 0.100260 0.100911 0.101562 0.102214 0.102865 0.103516 0.104167 0.104818 0.105469 0.106120 0.106771 0.107422 0.108073 0.108724 0.109375 0.110026 0.110677 0.111328 0.111979 0.112630 0.113281 0.113932 0.114583 0.115234 0.115885 0.116536 0.117188 0.117839 0.118490 0.119141 0.119792 0.120443 0.121094 0.121745 0.122396 0.123047 0.123698 0.124349 0.125000 0.125651 0.126302 0.126953 0.127604 0.128255 0.128906 0.129557 0.130208 0.130859 0.131510 0.132161 0.132812 0.133464 0.134115 0.134766 0.135417 0.136068 0.136719 0.137370 0.138021 0.138672 0.139323 0.139974 0.140625 0.141276 0.141927 0.142578 0.143229 0.143880 0.144531 0.145182 0.145833 0.146484 0.147135 0.147786 0.148438 0.149089 0.149740 0.150391 0.151042 0.151693 0.152344 0.152995 0.153646 0.154297 0.154948 0.155599 0.156250 0.156901 0.157552 0.158203 0.158854 0.159505 0.160156 0.160807 0.161458 0.162109 0.162760 0.163411 0.164062 0.164714 0.165365 0.166016 0.166667 0.167318 0.167969 0.168620 0.169271 0.169922 0.170573 0.171224 0.171875 0.172526 0.173177 0.173828 0.174479 0.175130 0.175781 0.176432 0.177083 0.177734 0.178385 0.179036 0.179688 0.180339 0.180990 0.181641 0.182292 0.182943 0.183594 0.184245 0.184896 0.185547 0.186198 0.186849 0.187500 0.188151 0.188802 0.189453 0.190104 0.190755 0.191406 0.192057 0.192708 0.193359 0.194010 0.194661 0.195312 0.195964 0.196615 0.197266 0.197917 0.198568 0.199219 0.199870 0.200521 0.201172 0.201823 0.202474 0.203125 0.203776 0.204427 0.205078 0.205729 0.206380 0.207031 0.207682 0.208333 0.208984 0.209635 0.210286 0.210938 0.211589 0.212240 0.212891 0.213542 0.214193 0.214844 0.215495 0.216146 0.216797 0.217448 0.218099 0.218750 0.219401 0.220052 0.220703 0.221354 0.222005 0.222656 0.223307 0.223958 0.224609 0.225260 0.225911 0.226562 0.227214 0.227865 0.228516 0.229167 0.229818 0.230469 0.231120 0.231771 0.232422 0.233073 0.233724 0.234375 0.235026 0.235677
       0.31004        0.31004        0.31004        0.31004        0.31004        0.31004        0.31004        0.31004        0.31004        0.31004        0.31004        0.31004        0.31004        0.31004        0.31004        0.31004        0.31004        0.31004        0.31004        0.31004        0.31004        0.31004        0.31004        0.31004        0.31004        0.31004        0.31004        0.31004        0.31004        0.31004        0.31004        0.31004        0.31004        0.31004        0.31004        0.31004        0.31004        0.31004        0.31004        0.31004        0.31004        0.31004        0.31004        0.31004        0.31004        0.31004        0.31004        0.31004        0.31004        0.31004        0.31004        0.59707        0.72057        0.35461        0.18094        0.12565       -0.14938        0.10578        0.02682        0.03119        0.08762        0.30468        0.32316        0.24931        0.14544       -0.04166       -0.01469        0.03944       -0.12958       -0.13795       -0.08625       -0.10400       -0.22280       -0.14598       -0.26324       -0.27717       -0.27596       -0.34056       -0.41790       -0.35758       -0.26553       -0.23565       -0.33568       -0.24920       -0.30497       -0.24452       -0.16923       -0.11719       -0.08135       -0.01221        0.02255        0.12264        0.16579        0.21096        0.33372        0.39918        0.35255        0.46230        0.54684        0.55493        0.63623        0.57345        0.60687        0.59678        0.60912        0.61102        0.55250        0.57204        0.54800        0.38959        0.32852        0.36157        0.34126        0.19075        0.16137        0.13198        0.08276        0.08877        0.00218        0.06091        0.03996       -0.00369        0.09655        0.16009        0.25742        0.34972        0.34010        0.36903        0.45481        0.48920        0.41866        0.64628        0.53411        0.47860        0.56833        0.49777        0.53236        0.49364        0.36626        0.30387        0.27231        0.22401        0.21079        0.19155        0.17012        0.12541        0.20336        0.18878        0.22901        0.19967        0.26185        0.30777        0.32777        0.44140        0.42883        0.40945        0.42745        0.47058        0.44267        0.43253        0.38810        0.39837        0.33398        0.28215        0.23825        0.24640        0.23994        0.18840        0.16005        0.21612        0.22178        0.26560        0.33738        0.35450        0.41005        0.39139        0.43392        0.45747        0.45059        0.42210        0.38813        0.40867        0.36757        0.32620        0.32884        0.30837        0.25345        0.27142        0.26947        0.22826        0.29283        0.27157        0.28277        0.31581        0.37036        0.40622        0.39888        0.42064        0.37192        0.40780        0.38788        0.30213        0.28240        0.24050        0.25580        0.21955        0.19849        0.28434        0.33938        0.31124        0.28218        0.33895        0.26422        0.32502        0.37313        0.36693        0.35934        0.37925        0.32296        0.33786        0.31981        0.28214        0.27724        0.24027        0.28709        0.29958        0.31123        0.32977        0.37265        0.37232        0.36677        0.32823        0.34864        0.33395        0.31857        0.31559        0.28369        0.28281        0.25127        0.31337        0.32395        0.31511        0.28936        0.32476        0.32817        0.32867        0.34047        0.31266        0.27971        0.28633        0.28615        0.26439        0.24325        0.23249        0.24303        0.25871        0.24376        0.28052        0.27860        0.31991        0.31900        0.26707        0.30005        0.26480        0.20826        0.26267        0.24243        0.23171        0.27476        0.30004        0.29460        0.29491        0.29684        0.29415        0.30637        0.32224        0.27239        0.30760        0.30515        0.35076        0.27729        0.26409        0.25626        0.30685        0.31255        0.32041        0.33639        0.30890        0.22346        0.28009        0.25205        0.24270        0.24218        0.24645        0.28309        0.23359        0.29819        0.31056        0.34327        0.30827        0.28608        0.24703        0.26197        0.26575        0.23559        0.25932        0.27720        0.31126        0.33055        0.29686        0.28825        0.26604        0.30216        0.26636        0.23132        0.19392        0.27929        0.33430        0.31723        0.30582        0.28880        0.23535        0.21845        0.23838        0.23073        0.23011        0.26718        0.27488        0.25667        0.23515        0.21859        0.26849        0.24147        0.24693        0.26201        0.25734        0.17867        0.22590        0.24928        0.23568        0.28750        0.24434        0.23790        0.19617        0.24417        0.27532        0.20112        0.21069        0.13028        0.14657        0.31179        0.17698        0.19010        0.30725        0.18799        0.16878        0.11837        0.22082        0.13316        0.15516       -0.05593       -0.60377       -0.94882
2.525545 2.502389 2.479345 2.456416 2.433599 2.410896 2.388306 2.365830 2.343466 2.321217 2.299080 2.277057 2.255147 2.233350 2.211667 2.190097 2.168641 2.147298 2.126068 2.104951 2.083948 2.063058 2.042282 2.021618 2.001069 1.980632 1.960309 1.940099 1.920002 1.900019 1.880149 1.860393 1.840750 1.821220 1.801803 1.782500 1.763310 1.744234 1.725270 1.706421 1.687684 1.669061 1.650551 1.632154 1.613871 1.595701 1.577645 1.559701 1.541872 1.524155 1.506552 1.885006 2.230571 1.542378 1.399658 1.129679 0.551188 0.952163 0.838889 0.879569 0.732635 1.424333 1.260631 1.271646 1.016497 0.655181 0.502121 0.773457 0.575657 0.236294 0.301800 0.478717 0.212892 0.242397 0.089112 -0.015569 -0.046028 -0.043141 -0.341417 -0.216650 -0.047198 -0.082760 -0.142819 -0.051878 -0.182157 -0.157816 0.028233 0.127098 0.196975 0.243561 0.322728 0.582426 0.529511 0.607029 0.825125 1.009204 0.799439 1.207850 1.175072 1.241740 1.369415 1.225420 1.197597 1.358821 1.218659 1.358072 1.173751 1.114346 1.199959 0.951055 0.646107 0.710585 0.766114 0.453144 0.371706 0.316237 0.156887 0.151908 -0.006136 0.135168 0.100513 -0.041638 0.070820 0.188796 0.309332 0.584064 0.572090 0.540109 0.700631 0.871857 0.570821 1.026390 0.968622 0.766734 0.898763 0.744224 0.827784 0.853887 0.568908 0.379706 0.355396 0.293786 0.176571 0.133493 0.137843 -0.060034 0.138894 0.108744 0.193259 0.074981 0.242162 0.290279 0.251467 0.474323 0.576893 0.493341 0.380802 0.601925 0.570139 0.473458 0.481625 0.426855 0.294281 0.310611 0.094446 0.155380 0.024405 0.160975 -0.099279 0.017198 -0.002855 0.215004 0.078665 0.356308 0.310589 0.370813 0.413444 0.407580 0.603895 0.426701 0.413226 0.480601 0.269854 0.367678 0.203117 0.303251 0.120686 0.166143 0.130599 0.123035 0.069404 0.195028 0.094527 0.183816 0.283305 0.319762 0.371273 0.319392 0.384156 0.303029 0.330689 0.219507 0.128373 0.072564 0.017282 0.040162 -0.058360 -0.027926 0.128200 0.232352 0.097391 0.140209 0.127912 0.061554 0.229386 0.276012 0.238048 0.290036 0.182749 0.181832 0.158311 0.145731 0.096668 -0.023431 0.022367 0.187962 0.035074 0.179580 0.147353 0.279273 0.206241 0.262847 0.219309 0.243059 0.140933 0.173943 0.168056 0.095748 0.039439 0.074583 0.164309 0.182204 0.152219 0.098136 0.192196 0.157119 0.137634 0.162470 0.058175 0.013885 0.065959 0.022680 0.006555 -0.053219 -0.067676 0.002932 -0.024367 -0.054749 0.037834 0.051398 0.105417 0.075946 -0.027495 0.069606 -0.056495 -0.103489 0.027446 -0.074906 -0.088409 0.051453 0.057295 0.021685 0.086956 -0.074385 0.064894 0.138802 -0.017796 -0.002635 0.105217 0.041928 0.141583 -0.038817 -0.014725 -0.051063 0.133315 0.022065 0.094076 0.125848 0.026717 -0.101584 -0.007311 -0.040603 -0.060966 -0.064741 -0.052597 0.006020 -0.114941 0.083663 0.109277 0.166801 0.053115 -0.006958 -0.018439 -0.000169 0.029543 -0.061276 0.037369 0.022958 0.144298 0.117552 0.086062 0.065334 0.054770 0.157268 -0.015061 0.005272 -0.117008 0.128275 0.171844 0.104198 0.183998 0.018196 -0.022194 -0.053742 -0.033411 -0.018373 -0.020356 0.052366 0.092720 0.027063 0.000554 -0.025284 0.101412 0.067761 0.067356 0.099185 0.049737 -0.021071 0.034015 0.123523 0.052426 0.223166 0.067570 0.090161 0.087689 0.145042 0.211224 0.109596 0.108255 -0.053200 -0.109111 0.506914 0.341446 0.402893 0.578721 0.287576 0.314110 0.143433 0.519251 0.256187 0.339909 -0.095116 -1.778673
0.072396 0.072837 0.074160 0.076364 0.079450 0.083416 0.088261 0.093985 0.100586 0.108061 0.116409 0.125625 0.135707 0.146650 0.158448 0.171094 0.184582 0.198902 0.214043 0.229993 0.246739 0.264265 0.282552 0.301580 0.321327 0.341765 0.362868 0.384602 0.406934 0.429823 0.453227 0.477101 0.501392 0.526047 0.551006 0.576204 0.601573 0.627038 0.652520 0.677934 0.703193 0.728199 0.752854 0.777053 0.800684 0.823632 0.845777 0.866995 0.887154 0.906124 0.923766 0.939941 0.954505 0.967315 0.978225 0.987088 0.993757 0.998089 0.999940 0.999170 0.995646 0.989236 0.979820 0.967283 0.951521 0.932440 0.909960 0.884015 0.854555 0.821548 0.784980 0.744859 0.701213 0.654097 0.603588 0.549792 0.492842 0.432899 0.370154 0.304830 0.237178 0.167483 0.096059 0.023253 0.050560 0.124975 0.199559 0.273854 0.347376 0.419623 0.490072 0.558187 0.623421 0.685220 0.743029 0.796297 0.844482 0.887056 0.923515 0.953380 0.976210 0.991601 0.999202 0.998715 0.989904 0.972602 0.946716 0.912234 0.869232 0.817872 0.758413 0.691210 0.616717 0.535488 0.448173 0.355520 0.258373 0.157659 0.054391 0.050347 0.155407 0.259587 0.361647 0.460321 0.554336 0.642423 0.723344 0.795900 0.858962 0.911480 0.952512 0.981237 0.996980 0.999223 0.987626 0.962040 0.922521 0.869337 0.802976 0.724149 0.633790 0.533052 0.423294 0.306077 0.183137 0.056369 0.072200 0.200441 0.326160 0.447129 0.561131 0.666001 0.759668 0.840201 0.905853 0.955104 0.986699 0.999690 0.993466 0.967780 0.922774 0.858989 0.777375 0.679285 0.566464 0.441030 0.305438 0.162445 0.015051 0.133548 0.280037 0.421049 0.553245 0.673395 0.778462 0.865685 0.932657 0.977398 0.998429 0.994824 0.966258 0.913038 0.836122 0.737118 0.618264 0.482392 0.332875 0.173551 0.008633 0.157396 0.319899 0.474219 0.615811 0.740382 0.844025 0.923358 0.975638 0.998876 0.991919 0.954522 0.887384 0.792161 0.671447 0.528722 0.368268 0.195053 0.014593 0.167220 0.344303 0.510586 0.660227 0.787820 0.888600 0.958642 0.995023 0.995965 0.960937 0.890719 0.787410 0.654394 0.496259 0.318647 0.128083 0.068262 0.262827 0.447948 0.616172 0.760550 0.874951 0.954324 0.994958 0.994663 0.952921 0.870952 0.751714 0.599835 0.421454 0.224002 0.015904 0.193761 0.395653 0.580585 0.739952 0.866144 0.952929 0.995786 0.992166 0.941674 0.846146 0.709629 0.538239 0.339922 0.124120 0.098678 0.317415 0.521024 0.698988 0.841902 0.941985 0.993541 0.993308 0.940700 0.837914 0.689885 0.504087 0.290198 0.059623 0.175093 0.400939 0.605161 0.775988 0.903333 0.979418 0.999288 0.961173 0.866671 0.720742 0.531502 0.309802 0.068661 0.177493 0.413667 0.625211 0.798746 0.923036 0.989747 0.994050 0.935019 0.815786 0.643433 0.428628 0.185024 0.071609 0.324348 0.556241 0.751461 0.896398 0.980652 0.997820 0.946044 0.828241 0.652014 0.429223 0.175229 0.092106 0.353679 0.590474 0.784986 0.922531 0.992395 0.988730 0.911104 0.764656 0.559822 0.311669 0.038836 0.237840 0.496893 0.717891 0.883092 0.978885 0.996995 0.935246 0.797883 0.595361 0.343616 0.062893 0.223867 0.492866 0.721428 0.889947 0.983608 0.993754 0.918770 0.764359 0.543213 0.274035 0.019970 0.313061 0.579196 0.794359 0.938772 0.998762 0.968143 0.848929 0.651319 0.392921 0.097252 0.208342 0.495184 0.735972 0.907393 0.992453 0.982236 0.876929 0.685989 0.427387 0.126022 0.188633 0.485367 0.734328 0.910073 0.994209
1.000000 1.000000 1.000000 1.000000 1.000000 1.000000 1.000000 1.000000 1.000000 1.000000 1.000000 1.000000 1.000000 1.000000 1.000000 1.000000 1.000000 1.000000 1.000000 1.000000 1.000000 1.000000 1.000000 1.000000 1.000000 1.000000 1.000000 1.000000 1.000000 1.000000 1.000000 1.000000 1.000000 1.000000 1.000000 1.000000 1.000000 1.000000 1.000000 1.000000 1.000000 1.000000 1.000000 1.000000 1.000000 1.000000 1.000000 1.000000 1.000000 1.000000 1.000000 1.000000 0.782021 0.782021 0.782021 0.782021 0.782021 0.782021 0.782021 0.767701 0.767701 0.767701 0.767701 0.767701 0.767701 0.767701 0.767701 0.767701 0.767701 0.767701 0.767701 0.767701 0.767701 0.767701 0.767701 0.767701 0.767701 0.767701 0.767701 0.767701 0.767701 0.767701 0.767701 0.767701 0.767701 0.767701 0.767701 0.767701 0.767701 0.767701 0.767701 0.767701 0.767701 0.767701 0.767701 0.767701 0.767701 0.767701 0.767701 0.767701 0.767701 0.767701 0.767701 0.917001 0.917259 0.919698 0.913715 0.915466 0.913113 0.907307 0.910250 0.909343 0.909229 0.910053 0.911161 0.912973 0.918162 0.924751 0.926603 0.934589 0.938218 0.939423 0.939243 0.936649 0.943213 0.940879 0.938694 0.927851 0.930956 0.930151 0.930747 0.929205 0.929682 0.931548 0.931929 0.929432 0.927961 0.925519 0.923929 0.924191 0.923709 0.923628 0.923774 0.923890 0.924051 0.924728 0.920303 0.921733 0.920025 0.917483 0.912922 0.912772 0.913663 0.906649 0.904416 0.894349 0.889517 0.889685 0.891593 0.888785 0.888084 0.889929 0.890671 0.891365 0.889942 0.890056 0.887612 0.887905 0.883999 0.879761 0.875280 0.874582 0.877145 0.883687 0.887322 0.886960 0.883771 0.878510 0.870370 0.868720 0.853527 0.827085 0.829241 0.832343 0.834731 0.835552 0.834526 0.833296 0.829953 0.824025 0.817788 0.823290 0.823788 0.814859 0.803014 0.803299 0.799831 0.807543 0.811226 0.803241 0.805728 0.804792 0.809523 0.810302 0.808234 0.807559 0.802720 0.804821 0.813223 0.814127 0.804484 0.798232 0.793774 0.776062 0.778408 0.781977 0.793443 0.796892 0.790410 0.775379 0.785450 0.781278 0.793688 0.806879 0.808075 0.806865 0.791364 0.751002 0.738102 0.733926 0.736277 0.737838 0.726880 0.724020 0.723841 0.726213 0.687149 0.678638 0.669393 0.665186 0.672961 0.675043 0.679712 0.629577 0.649541 0.647034 0.630979 0.626375 0.590829 0.571465 0.515288 0.521242 0.522736 0.502697 0.488180 0.471838 0.490912 0.502641 0.501930 0.495762 0.472950 0.457517 0.453662 0.455415 0.464925 0.465482 0.470185 0.427183 0.404760 0.399847 0.421174 0.424900 0.423032 0.437447 0.444778 0.447915 0.437232 0.416594 0.411381 0.427783 0.440583 0.448250 0.449509 0.430295 0.409310 0.385654 0.389102 0.433436 0.424552 0.416379 0.404722 0.410753 0.404132 0.379058 0.353252 0.332273 0.371064 0.377342 0.382868 0.345663 0.313119 0.325872 0.322764 0.318730 0.306817 0.348599 0.374011 0.370477 0.374172 0.363915 0.408953 0.485431 0.470506 0.465026 0.476578 0.466445 0.456623 0.435657 0.418649 0.417407 0.406390 0.396287 0.378958 0.369217 0.356125 0.355164 0.373555 0.377507 0.408954 0.391720 0.344931 0.201603 0.251620 0.251620 0.251620 0.251620 0.251620 0.251620 0.251620 0.251620 0.251620 0.251620 0.251620 0.198511 0.198511 0.198511 0.198511 0.198511 0.198511 0.198511 0.198511 0.198511 0.198511 0.198511 0.198511 0.198511 0.198511 0.198511 0.198511 0.198511 0.198511 0.198511 0.198511
0.000000 0.000000 0.000000 0.000000 0.000000 0.000000 0.000000 0.000000 0.000000 0.000000 0.000000 0.000000 0.000000 0.000000 0.000000 0.000000 0.000000 0.000000 0.000000 0.000000 0.000000 0.000000 0.000000 0.000000 0.000000 0.000000 0.000000 0.000000 0.000000 0.000000 0.000000 0.000000 0.000000 0.000000 0.000000 0.000000 0.000000 0.000000 0.000000 0.000000 0.000000 0.000000 0.000000 0.000000 0.000000 0.000000 0.000000 0.000000 0.000000 0.000000 0.000000 0.000000 0.173422 0.173422 0.173422 0.173422 0.173422 0.173422 0.173422 0.191565 0.191565 0.191565 0.191565 0.191565 0.191565 0.191565 0.191565 0.191565 0.191565 0.191565 0.191565 0.191565 0.191565 0.191565 0.191565 0.191565 0.191565 0.191565 0.191565 0.191565 0.191565 0.191565 0.191565 0.191565 0.191565 0.191565 0.191565 0.191565 0.191565 0.191565 0.191565 0.191565 0.191565 0.191565 0.191565 0.191565 0.191565 0.191565 0.191565 0.191565 0.191565 0.191565 0.191565 0.222222 0.222222 0.222222 0.222222 0.222222 0.222222 0.222222 0.222222 0.222222 0.222222 0.222222 0.222222 0.222222 0.222222 0.222222 0.222222 0.222222 0.222222 0.222222 0.222222 0.222222 0.222222 0.222222 0.222222 0.222222 0.222222 0.222222 0.222222 0.222222 0.222222 0.234082 0.234082 0.234082 0.234082 0.234082 0.234082 0.234082 0.234082 0.234082 0.234082 0.234082 0.234082 0.234082 0.234082 0.234082 0.234082 0.234082 0.234082 0.234082 0.234082 0.234082 0.234082 0.234082 0.234082 0.234082 0.244339 0.244339 0.244339 0.244339 0.244339 0.244339 0.244339 0.244339 0.244339 0.244339 0.244339 0.244339 0.244339 0.244339 0.244339 0.244339 0.244339 0.244339 0.244339 0.244339 0.244339 0.248069 0.248069 0.248069 0.248069 0.248069 0.248069 0.248069 0.248069 0.248069 0.248069 0.248069 0.248069 0.248069 0.248069 0.248069 0.248069 0.248069 0.248069 0.248069 0.256074 0.256074 0.256074 0.256074 0.256074 0.256074 0.256074 0.256074 0.256074 0.256074 0.256074 0.256074 0.256074 0.256074 0.256074 0.256074 0.256074 0.256074 0.256074 0.256074 0.256074 0.256074 0.256074 0.256074 0.256074 0.256074 0.256074 0.256074 0.256074 0.256074 0.256074 0.256074 0.256074 0.256074 0.256074 0.256074 0.256074 0.256074 0.256074 0.256074 0.256074 0.256074 0.256074 0.256074 0.256074 0.256074 0.256074 0.256074 0.256074 0.256074 0.256074 0.256074 0.256074 0.256074 0.256074 0.256074 0.256074 0.256074 0.256074 0.256074 0.256074 0.256074 0.260378 0.260378 0.260378 0.260378 0.260378 0.260378 0.260378 0.260378 0.260378 0.260378 0.260378 0.260378 0.260378 0.256074 0.256074 0.256074 0.256074 0.256074 0.256074 0.256074 0.256074 0.256074 0.256074 0.256074 0.256074 0.256074 0.260378 0.260378 0.260378 0.260378 0.260378 0.260378 0.260378 0.260378 0.260378 0.260378 0.260378 0.260378 0.251976 0.251976 0.251976 0.251976 0.251976 0.251976 0.251976 0.251976 0.251976 0.251976 0.251976 0.251976 0.256074 0.256074 0.256074 0.256074 0.256074 0.256074 0.256074 0.256074 0.256074 0.256074 0.256074 0.251976 0.251976 0.251976 0.251976 0.251976 0.251976 0.251976 0.251976 0.251976 0.251976 0.251976 0.248069 0.248069 0.248069 0.248069 0.248069 0.248069 0.248069 0.248069 0.248069 0.248069 0.248069 0.256074 0.256074 0.256074 0.256074 0.256074 0.256074 0.256074 0.256074 0.256074 0.256074 0.256074 0.256074 0.256074 0.256074 0.256074 0.256074 0.256074 0.256074 0.256074 0.256074
