# Output from CTFFind version 4.1.9, run on 2019-11-02 17:58:59
# Input file: stack11_bm3d_averaged_1_1.75_0_250_half.mrc ; Number of micrographs: 1
# Pixel size: 3.000 Angstroms ; acceleration voltage: 300.0 keV ; spherical aberration: 0.00 mm ; amplitude contrast: 0.07
# Box size: 512 pixels ; min. res.: 30.0 Angstroms ; max. res.: 5.0 Angstroms ; min. def.: 5000.0 um; max. def. 50000.0 um; num. frames averaged: 1
# 6 lines per micrograph: #1 - spatial frequency (1/Angstroms); #2 - 1D rotational average of spectrum (assuming no astigmatism); #3 - 1D rotational average of spectrum; #4 - CTF fit; #5 - cross-correlation between spectrum and CTF fit; #6 - 2sigma of expected cross correlation of noise
0.000000 0.000651 0.001302 0.001953 0.002604 0.003255 0.003906 0.004557 0.005208 0.005859 0.006510 0.007161 0.007812 0.008464 0.009115 0.009766 0.010417 0.011068 0.011719 0.012370 0.013021 0.013672 0.014323 0.014974 0.015625 0.016276 0.016927 0.017578 0.018229 0.018880 0.019531 0.020182 0.020833 0.021484 0.022135 0.022786 0.023438 0.024089 0.024740 0.025391 0.026042 0.026693 0.027344 0.027995 0.028646 0.029297 0.029948 0.030599 0.031250 0.031901 0.032552 0.033203 0.033854 0.034505 0.035156 0.035807 0.036458 0.037109 0.037760 0.038411 0.039062 0.039714 0.040365 0.041016 0.041667 0.042318 0.042969 0.043620 0.044271 0.044922 0.045573 0.046224 0.046875 0.047526 0.048177 0.048828 0.049479 0.050130 0.050781 0.051432 0.052083 0.052734 0.053385 0.054036 0.054688 0.055339 0.055990 0.056641 0.057292 0.057943 0.058594 0.059245 0.059896 0.060547 0.061198 0.061849 0.062500 0.063151 0.063802 0.064453 0.065104 0.065755 0.066406 0.067057 0.067708 0.068359 0.069010 0.069661 0.070312 0.070964 0.071615 0.072266 0.072917 0.073568 0.074219 0.074870 0.075521 0.076172 0.076823 0.077474 0.078125 0.078776 0.079427 0.080078 0.080729 0.081380 0.082031 0.082682 0.083333 0.083984 0.084635 0.085286 0.085938 0.086589 0.087240 0.087891 0.088542 0.089193 0.089844 0.090495 0.091146 0.091797 0.092448 0.093099 0.093750 0.094401 0.095052 0.095703 0.096354 0.097005 0.097656 0.098307 0.098958 0.099609 0.100260 0.100911 0.101562 0.102214 0.102865 0.103516 0.104167 0.104818 0.105469 0.106120 0.106771 0.107422 0.108073 0.108724 0.109375 0.110026 0.110677 0.111328 0.111979 0.112630 0.113281 0.113932 0.114583 0.115234 0.115885 0.116536 0.117188 0.117839 0.118490 0.119141 0.119792 0.120443 0.121094 0.121745 0.122396 0.123047 0.123698 0.124349 0.125000 0.125651 0.126302 0.126953 0.127604 0.128255 0.128906 0.129557 0.130208 0.130859 0.131510 0.132161 0.132812 0.133464 0.134115 0.134766 0.135417 0.136068 0.136719 0.137370 0.138021 0.138672 0.139323 0.139974 0.140625 0.141276 0.141927 0.142578 0.143229 0.143880 0.144531 0.145182 0.145833 0.146484 0.147135 0.147786 0.148438 0.149089 0.149740 0.150391 0.151042 0.151693 0.152344 0.152995 0.153646 0.154297 0.154948 0.155599 0.156250 0.156901 0.157552 0.158203 0.158854 0.159505 0.160156 0.160807 0.161458 0.162109 0.162760 0.163411 0.164062 0.164714 0.165365 0.166016 0.166667 0.167318 0.167969 0.168620 0.169271 0.169922 0.170573 0.171224 0.171875 0.172526 0.173177 0.173828 0.174479 0.175130 0.175781 0.176432 0.177083 0.177734 0.178385 0.179036 0.179688 0.180339 0.180990 0.181641 0.182292 0.182943 0.183594 0.184245 0.184896 0.185547 0.186198 0.186849 0.187500 0.188151 0.188802 0.189453 0.190104 0.190755 0.191406 0.192057 0.192708 0.193359 0.194010 0.194661 0.195312 0.195964 0.196615 0.197266 0.197917 0.198568 0.199219 0.199870 0.200521 0.201172 0.201823 0.202474 0.203125 0.203776 0.204427 0.205078 0.205729 0.206380 0.207031 0.207682 0.208333 0.208984 0.209635 0.210286 0.210938 0.211589 0.212240 0.212891 0.213542 0.214193 0.214844 0.215495 0.216146 0.216797 0.217448 0.218099 0.218750 0.219401 0.220052 0.220703 0.221354 0.222005 0.222656 0.223307 0.223958 0.224609 0.225260 0.225911 0.226562 0.227214 0.227865 0.228516 0.229167 0.229818 0.230469 0.231120 0.231771 0.232422 0.233073 0.233724 0.234375 0.235026 0.235677
       0.31901        0.31901        0.31901        0.31901        0.31901        0.31901        0.31901        0.31901        0.31901        0.31901        0.31901        0.31901        0.31901        0.31901        0.31901        0.31901        0.31901        0.31901        0.31901        0.31901        0.31901        0.31901        0.31901        0.31901        0.31901        0.31901        0.31901        0.31901        0.31901        0.31901        0.31901        0.31901        0.31901        0.31901        0.31901        0.31901        0.31901        0.31901        0.31901        0.31901        0.31901        0.31901        0.31901        0.31901        0.31901        0.31901        0.31901        0.31901        0.31901        0.31901        0.31901        0.68337        0.86551        0.52382        0.09075       -0.05797       -0.41924       -0.20180       -0.29462       -0.11595       -0.07194       -0.11748       -0.06435       -0.20195       -0.22962       -0.25145       -0.32702       -0.33658       -0.48146       -0.37859       -0.45974       -0.44459       -0.41631       -0.46116       -0.52721       -0.55386       -0.58201       -0.61417       -0.57223       -0.40800       -0.37470       -0.32581       -0.30746       -0.21019       -0.19906        0.02184        0.08491        0.11708        0.23004        0.37074        0.44369        0.51087        0.56057        0.55902        0.56625        0.69472        0.81014        0.73120        0.73244        0.65842        0.57472        0.48029        0.40970        0.49628        0.38098        0.21450        0.07929        0.05453        0.02433       -0.05777       -0.02900       -0.01079       -0.06130       -0.00718       -0.01442        0.21627        0.25239        0.28635        0.42654        0.45320        0.40428        0.54589        0.62278        0.68974        0.75454        0.68578        0.65007        0.69259        0.58148        0.49592        0.41959        0.28989        0.19820        0.15535        0.10725        0.04140        0.01564        0.00711        0.07626        0.13078        0.20985        0.28113        0.39469        0.42617        0.50386        0.60107        0.62835        0.62681        0.62759        0.55894        0.44914        0.45510        0.35612        0.23083        0.17878        0.14599        0.12026        0.12441        0.08201        0.11221        0.24455        0.26764        0.35227        0.36673        0.44483        0.51287        0.53913        0.54905        0.47330        0.43645        0.38962        0.35687        0.30299        0.25477        0.20572        0.19471        0.17185        0.19867        0.18429        0.27779        0.33681        0.37357        0.43012        0.45624        0.47848        0.43461        0.39195        0.41296        0.36852        0.28446        0.26480        0.22216        0.21813        0.19443        0.22379        0.23558        0.32946        0.37097        0.37412        0.46475        0.43365        0.43484        0.42890        0.39746        0.34483        0.32092        0.27611        0.25460        0.24055        0.27705        0.27589        0.30330        0.31069        0.33491        0.32501        0.40668        0.42147        0.37965        0.34891        0.37090        0.28633        0.28509        0.26147        0.28595        0.26524        0.28009        0.29089        0.31069        0.34693        0.36566        0.36589        0.34604        0.35816        0.29127        0.32090        0.26976        0.24116        0.29399        0.28969        0.31380        0.31042        0.32395        0.33487        0.31783        0.31784        0.28721        0.29577        0.27038        0.28429        0.25910        0.30067        0.28701        0.27442        0.30674        0.31625        0.32397        0.27857        0.30401        0.27796        0.26052        0.25257        0.21980        0.28293        0.27977        0.33235        0.31132        0.31720        0.31995        0.31574        0.27554        0.29749        0.32600        0.26812        0.25921        0.29809        0.28932        0.33593        0.32981        0.33992        0.32914        0.30019        0.28023        0.27797        0.25175        0.22470        0.28581        0.31228        0.29922        0.28489        0.29712        0.27333        0.32885        0.32258        0.25154        0.22021        0.28292        0.32018        0.27466        0.30951        0.32843        0.33087        0.31216        0.31441        0.33856        0.31032        0.28732        0.25801        0.29666        0.35875        0.36598        0.27446        0.26392        0.26164        0.29913        0.22300        0.28798        0.23523        0.24818        0.33279        0.32319        0.34307        0.29764        0.25200        0.23698        0.24116        0.22936        0.20648        0.23476        0.28327        0.31054        0.24633        0.31672        0.31834        0.26858        0.26149        0.20550        0.16359        0.21057        0.22470        0.21396        0.21540        0.22593        0.18766        0.25355        0.35325        0.32258        0.33072        0.23646        0.20851        0.20544        0.28427        0.28357        0.13442        0.21706        0.23706        0.11748        0.19360        0.11886        0.13060        0.19521        0.09293       -0.11729       -0.58661
2.609938 2.582632 2.555475 2.528466 2.501605 2.474893 2.448329 2.421913 2.395645 2.369526 2.343555 2.317733 2.292058 2.266532 2.241154 2.215925 2.190844 2.165911 2.141127 2.116490 2.092003 2.067663 2.043472 2.019429 1.995534 1.971787 1.948189 1.924740 1.901438 1.878285 1.855280 1.832424 1.809715 1.787155 1.764744 1.742480 1.720365 1.698398 1.676580 1.654910 1.633388 1.612014 1.590789 1.569712 1.548784 1.528003 1.507371 1.486888 1.466552 1.446365 1.426326 1.645325 2.055355 1.627576 1.138773 0.997795 0.427282 0.818757 0.563156 0.837514 0.780992 0.794145 0.754267 0.716739 0.569752 0.523027 0.488206 0.440276 0.214947 0.381356 0.203307 0.312339 0.238562 0.185723 0.141582 0.014243 0.039831 -0.008735 -0.058058 0.109709 0.210708 0.192539 0.161239 0.330656 0.195219 0.495461 0.589311 0.565580 0.602715 0.874913 0.814689 0.941444 0.889929 0.982213 0.949199 1.077768 1.142080 1.063975 1.132897 0.941185 0.940372 0.782406 0.652819 0.776293 0.710752 0.469956 0.312310 0.249555 0.228714 0.147775 0.095812 0.133982 0.080571 0.143642 0.058290 0.262516 0.378882 0.352338 0.479723 0.568954 0.456459 0.560573 0.701182 0.733732 0.776526 0.724929 0.725641 0.705917 0.627134 0.561789 0.422918 0.287470 0.210841 0.079429 0.127125 -0.049339 -0.033822 -0.072816 -0.044277 -0.003928 0.149243 0.087295 0.285621 0.286427 0.359864 0.453552 0.522011 0.503100 0.521568 0.512287 0.333260 0.312317 0.283599 0.099298 0.047170 -0.023660 -0.022848 -0.043688 -0.085602 -0.102463 0.008087 0.064632 0.129196 0.161400 0.227924 0.319465 0.318889 0.407387 0.397251 0.287475 0.235399 0.235012 0.188328 0.109653 0.082938 0.014619 0.005501 0.018207 -0.015552 0.067117 0.151003 0.144413 0.243913 0.250880 0.307915 0.238570 0.222087 0.174796 0.214467 0.130816 0.044543 0.025347 -0.008477 -0.010850 -0.037082 0.024339 0.020811 0.162516 0.136495 0.179851 0.238425 0.196899 0.179984 0.197179 0.145643 0.093057 0.051203 0.054145 -0.022126 0.005753 0.027170 0.056014 0.058893 0.078797 0.086128 0.123272 0.138917 0.193550 0.084847 0.099604 0.077743 0.012806 0.007180 0.009401 0.005685 0.019412 0.006261 0.028737 0.066099 0.085204 0.129617 0.058038 0.117422 0.062508 0.018367 0.061224 -0.034148 -0.012277 0.039813 0.007244 0.064827 0.049713 0.048507 0.081544 0.056674 0.039216 0.030410 0.010878 0.024785 0.010434 -0.011309 0.068825 -0.006910 0.022115 0.060279 0.059952 0.044466 0.049248 0.041599 0.022194 0.000776 -0.025982 -0.011948 0.031170 0.043716 0.091684 0.062125 0.066615 0.093234 0.082664 0.028882 0.083291 0.091419 0.017645 0.023479 0.075629 0.056773 0.101565 0.110208 0.085040 0.130239 0.073790 0.040470 0.054796 -0.004871 0.012364 0.074836 0.089011 0.058140 0.046287 0.036033 0.029932 0.106883 0.059533 -0.035810 -0.041023 0.039681 0.089835 0.010905 0.030715 0.076473 0.098128 0.043417 0.059557 0.082503 0.052478 0.036085 -0.025535 0.043045 0.121113 0.091806 -0.031440 -0.020637 -0.030667 0.057639 -0.099171 0.036325 -0.073264 -0.024328 0.054692 0.057399 0.022913 -0.024379 -0.047956 -0.065486 -0.082355 -0.056046 -0.091394 -0.073227 -0.002500 0.074114 -0.052260 0.068119 0.012571 -0.042761 0.040639 -0.099132 -0.100917 -0.060322 -0.007480 -0.029196 -0.022931 0.002930 -0.032848 0.031392 0.218023 0.010248 0.182289 0.046001 0.214145 0.225532 0.321255 0.279975 0.102042 0.220031 0.282768 0.062781 0.209964 0.119065 0.125000 0.277661 0.095292 -0.612431
0.072396 0.072899 0.074406 0.076917 0.080432 0.084950 0.090470 0.096989 0.104506 0.113019 0.122523 0.133014 0.144488 0.156937 0.170354 0.184730 0.200053 0.216311 0.233490 0.251570 0.270534 0.290357 0.311014 0.332476 0.354709 0.377676 0.401336 0.425642 0.450546 0.475989 0.501912 0.528247 0.554922 0.581858 0.608969 0.636165 0.663346 0.690408 0.717239 0.743720 0.769726 0.795125 0.819777 0.843539 0.866258 0.887777 0.907936 0.926566 0.943498 0.958557 0.971567 0.982350 0.990729 0.996525 0.999565 0.999677 0.996695 0.990459 0.980819 0.967635 0.950779 0.930138 0.905617 0.877137 0.844641 0.808097 0.767497 0.722860 0.674236 0.621707 0.565388 0.505429 0.442017 0.375380 0.305783 0.233530 0.158967 0.082481 0.004498 0.074517 0.154061 0.233598 0.312556 0.390336 0.466313 0.539840 0.610255 0.676888 0.739062 0.796108 0.847364 0.892192 0.929979 0.960152 0.982182 0.995599 0.999997 0.995046 0.980501 0.956209 0.922119 0.878290 0.824896 0.762233 0.690721 0.610909 0.523474 0.429222 0.329082 0.224104 0.115451 0.004387 0.107733 0.219478 0.329359 0.435844 0.537387 0.632443 0.719496 0.797089 0.863842 0.918490 0.959901 0.987110 0.999341 0.996032 0.976860 0.941755 0.890918 0.824834 0.744272 0.650295 0.544250 0.427756 0.302691 0.171167 0.035499 0.101833 0.238220 0.370979 0.497402 0.614811 0.720622 0.812402 0.887931 0.945264 0.982787 0.999270 0.993915 0.966395 0.916884 0.846077 0.755198 0.645991 0.520707 0.382064 0.233205 0.077629 0.080876 0.238328 0.390643 0.533747 0.663679 0.776717 0.869482 0.939057 0.983085 0.999865 0.988425 0.948589 0.881006 0.787176 0.669429 0.530895 0.375434 0.207547 0.032256 0.145039 0.318714 0.483108 0.632701 0.762313 0.867289 0.943682 0.988418 0.999438 0.975808 0.917798 0.826917 0.705906 0.558678 0.390222 0.206453 0.014015 0.179938 0.368013 0.542849 0.697418 0.825313 0.921037 0.980250 0.999996 0.978874 0.917153 0.816811 0.681522 0.516545 0.328556 0.125400 0.084222 0.291103 0.485946 0.659775 0.804362 0.912637 0.979059 0.999927 0.973620 0.900742 0.784165 0.628960 0.442221 0.232771 0.010770 0.212754 0.426448 0.619213 0.780788 0.902319 0.976874 0.999876 0.969419 0.886455 0.754832 0.581166 0.374555 0.146138 0.091469 0.324859 0.540590 0.725954 0.869756 0.963023 0.999594 0.976585 0.894652 0.758054 0.574498 0.354752 0.112064 0.138609 0.381503 0.601032 0.782812 0.914616 0.987252 0.995245 0.937311 0.816553 0.640380 0.420105 0.170291 0.092191 0.349255 0.582854 0.776256 0.915271 0.989341 0.992401 0.923436 0.786695 0.591504 0.351718 0.084775 0.189506 0.450389 0.677789 0.853835 0.964322 0.999920 0.957026 0.838203 0.652127 0.413035 0.139715 0.145921 0.420565 0.661412 0.848073 0.964352 0.999716 0.950329 0.819548 0.617805 0.361861 0.073505 0.222256 0.499337 0.732881 0.901519 0.989390 0.987711 0.895750 0.721085 0.479081 0.191647 0.114680 0.411149 0.669475 0.864571 0.977041 0.995191 0.916349 0.747335 0.503987 0.209797 0.106280 0.412627 0.678118 0.875306 0.983329 0.990212 0.894302 0.704680 0.440417 0.128793 0.197465 0.503549 0.756299 0.927841 0.998737 0.960307 0.815812 0.580351 0.279407 0.053784 0.381860 0.667475 0.877596 0.987393 0.983289 0.864770 0.644716 0.348154 0.009547 0.331146 0.633130 0.859692 0.982744 0.986410 0.869232 0.644630 0.339538 0.008700 0.356789 0.660863 0.882010 0.991362 0.973978 0.831053 0.580078 0.252866 0.108334
1.000000 1.000000 1.000000 1.000000 1.000000 1.000000 1.000000 1.000000 1.000000 1.000000 1.000000 1.000000 1.000000 1.000000 1.000000 1.000000 1.000000 1.000000 1.000000 1.000000 1.000000 1.000000 1.000000 1.000000 1.000000 1.000000 1.000000 1.000000 1.000000 1.000000 1.000000 1.000000 1.000000 1.000000 1.000000 1.000000 1.000000 1.000000 1.000000 1.000000 1.000000 1.000000 1.000000 1.000000 1.000000 1.000000 1.000000 1.000000 1.000000 1.000000 1.000000 1.000000 0.923961 0.923961 0.923961 0.914951 0.914951 0.914951 0.914951 0.914951 0.914951 0.914951 0.914951 0.914951 0.914951 0.914951 0.914951 0.914951 0.914951 0.914951 0.914951 0.914951 0.914951 0.914951 0.914951 0.914951 0.914951 0.914951 0.914951 0.914951 0.914951 0.914951 0.914951 0.914951 0.914951 0.914951 0.914951 0.914951 0.914951 0.914951 0.914951 0.914951 0.914951 0.914951 0.914951 0.914951 0.942930 0.944375 0.952436 0.952271 0.951709 0.949500 0.948481 0.948011 0.947889 0.948195 0.948874 0.949807 0.958606 0.959786 0.962609 0.963466 0.964179 0.964786 0.965394 0.966005 0.962464 0.961501 0.960935 0.956834 0.959648 0.958926 0.958895 0.959892 0.959753 0.961328 0.961632 0.960944 0.959918 0.959028 0.958172 0.957661 0.957466 0.958154 0.958509 0.959921 0.963199 0.962626 0.962377 0.962533 0.962628 0.962830 0.963354 0.965198 0.961245 0.961745 0.961574 0.959385 0.965908 0.963030 0.963569 0.964096 0.965557 0.965803 0.962906 0.959258 0.952004 0.951051 0.946992 0.938473 0.936017 0.937217 0.939512 0.940238 0.939747 0.933807 0.934299 0.929210 0.928395 0.931724 0.927957 0.926365 0.927700 0.926544 0.923841 0.923127 0.920352 0.915662 0.912191 0.911992 0.915385 0.917468 0.918875 0.918489 0.914231 0.907122 0.890258 0.887726 0.881336 0.884889 0.873605 0.872701 0.872554 0.868801 0.872060 0.874992 0.876228 0.871650 0.852230 0.829849 0.818870 0.823198 0.829279 0.827245 0.825430 0.818777 0.832131 0.815620 0.828892 0.840390 0.832870 0.833919 0.832883 0.829190 0.820825 0.820113 0.822209 0.821477 0.820767 0.820584 0.814639 0.805984 0.810139 0.765331 0.752617 0.747714 0.752839 0.757652 0.756235 0.755233 0.762557 0.767915 0.766138 0.752003 0.744186 0.732775 0.737400 0.742098 0.748478 0.742260 0.720368 0.705207 0.664196 0.680136 0.709449 0.660622 0.683117 0.692785 0.681102 0.680900 0.672750 0.665041 0.651996 0.655375 0.667638 0.686343 0.702373 0.727251 0.717129 0.706313 0.707665 0.690736 0.681402 0.673591 0.681020 0.661911 0.655666 0.678517 0.677802 0.666384 0.653687 0.636693 0.626591 0.630473 0.640070 0.632708 0.631225 0.613212 0.580224 0.581583 0.605942 0.621385 0.640853 0.617414 0.600623 0.595689 0.574036 0.590794 0.549082 0.549629 0.571407 0.576605 0.554174 0.530584 0.536770 0.556647 0.564991 0.558701 0.536685 0.525260 0.533227 0.571183 0.562174 0.529095 0.541699 0.539379 0.538310 0.483919 0.489827 0.458794 0.434653 0.376784 0.356720 0.354588 0.342637 0.335846 0.304188 0.301503 0.309219 0.320365 0.324803 0.321913 0.302546 0.313946 0.307145 0.294330 0.235369 0.223479 0.214081 0.203155 0.204266 0.179521 0.199832 0.259168 0.261013 0.261013 0.261013 0.261013 0.261013 0.261013 0.273582 0.273582 0.273582 0.273582 0.273582 0.273582 0.273582 0.273582 0.273582 0.282401 0.282401 0.282401 0.282401 0.282401 0.282401 0.282401 0.282401 0.282401 0.282401 0.282401 0.282401 0.282401 0.282401
0.000000 0.000000 0.000000 0.000000 0.000000 0.000000 0.000000 0.000000 0.000000 0.000000 0.000000 0.000000 0.000000 0.000000 0.000000 0.000000 0.000000 0.000000 0.000000 0.000000 0.000000 0.000000 0.000000 0.000000 0.000000 0.000000 0.000000 0.000000 0.000000 0.000000 0.000000 0.000000 0.000000 0.000000 0.000000 0.000000 0.000000 0.000000 0.000000 0.000000 0.000000 0.000000 0.000000 0.000000 0.000000 0.000000 0.000000 0.000000 0.000000 0.000000 0.000000 0.000000 0.180334 0.180334 0.180334 0.199007 0.199007 0.199007 0.199007 0.199007 0.199007 0.199007 0.199007 0.199007 0.199007 0.199007 0.199007 0.199007 0.199007 0.199007 0.199007 0.199007 0.199007 0.199007 0.199007 0.199007 0.199007 0.199007 0.199007 0.199007 0.199007 0.199007 0.199007 0.199007 0.199007 0.199007 0.199007 0.199007 0.199007 0.199007 0.199007 0.199007 0.199007 0.199007 0.199007 0.199007 0.225018 0.225018 0.225018 0.225018 0.225018 0.225018 0.225018 0.225018 0.225018 0.225018 0.225018 0.225018 0.225018 0.225018 0.225018 0.225018 0.225018 0.225018 0.225018 0.225018 0.225018 0.225018 0.225018 0.225018 0.225018 0.225018 0.225018 0.225018 0.225018 0.244339 0.244339 0.244339 0.244339 0.244339 0.244339 0.244339 0.244339 0.244339 0.244339 0.244339 0.244339 0.244339 0.244339 0.244339 0.244339 0.244339 0.244339 0.244339 0.244339 0.244339 0.244339 0.244339 0.251976 0.251976 0.251976 0.251976 0.251976 0.251976 0.251976 0.251976 0.251976 0.251976 0.251976 0.251976 0.251976 0.251976 0.251976 0.251976 0.251976 0.251976 0.251976 0.251976 0.264906 0.264906 0.264906 0.264906 0.264906 0.264906 0.264906 0.264906 0.264906 0.264906 0.264906 0.264906 0.264906 0.264906 0.264906 0.264906 0.264906 0.264906 0.264906 0.264906 0.264906 0.264906 0.264906 0.264906 0.264906 0.264906 0.264906 0.264906 0.264906 0.264906 0.264906 0.264906 0.264906 0.264906 0.264906 0.264906 0.264906 0.264906 0.264906 0.264906 0.264906 0.264906 0.264906 0.264906 0.264906 0.264906 0.264906 0.264906 0.264906 0.264906 0.264906 0.264906 0.264906 0.264906 0.264906 0.264906 0.264906 0.264906 0.264906 0.264906 0.264906 0.264906 0.256074 0.256074 0.256074 0.256074 0.256074 0.256074 0.256074 0.256074 0.256074 0.256074 0.256074 0.256074 0.256074 0.256074 0.269680 0.269680 0.269680 0.269680 0.269680 0.269680 0.269680 0.269680 0.269680 0.269680 0.269680 0.269680 0.264906 0.264906 0.264906 0.264906 0.264906 0.264906 0.264906 0.264906 0.264906 0.264906 0.264906 0.264906 0.269680 0.269680 0.269680 0.269680 0.269680 0.269680 0.269680 0.269680 0.269680 0.269680 0.269680 0.264906 0.264906 0.264906 0.264906 0.264906 0.264906 0.264906 0.264906 0.264906 0.264906 0.264906 0.256074 0.256074 0.256074 0.256074 0.256074 0.256074 0.256074 0.256074 0.256074 0.256074 0.256074 0.264906 0.264906 0.264906 0.264906 0.264906 0.264906 0.264906 0.264906 0.264906 0.264906 0.260378 0.260378 0.260378 0.260378 0.260378 0.260378 0.260378 0.260378 0.260378 0.260378 0.256074 0.256074 0.256074 0.256074 0.256074 0.256074 0.256074 0.256074 0.256074 0.256074 0.260378 0.260378 0.260378 0.260378 0.260378 0.260378 0.260378 0.260378 0.260378 0.256074 0.256074 0.256074 0.256074 0.256074 0.256074 0.256074 0.256074 0.256074 0.251976 0.251976 0.251976 0.251976 0.251976 0.251976 0.251976 0.251976 0.251976 0.251976 0.251976 0.251976 0.251976 0.251976
