# Output from CTFFind version 4.1.9, run on 2019-11-03 19:32:19
# Input file: stack6_bm3d_averaged_1_4.25_0_250_half.mrc ; Number of micrographs: 1
# Pixel size: 3.000 Angstroms ; acceleration voltage: 300.0 keV ; spherical aberration: 0.00 mm ; amplitude contrast: 0.07
# Box size: 512 pixels ; min. res.: 30.0 Angstroms ; max. res.: 5.0 Angstroms ; min. def.: 5000.0 um; max. def. 50000.0 um; num. frames averaged: 1
# 6 lines per micrograph: #1 - spatial frequency (1/Angstroms); #2 - 1D rotational average of spectrum (assuming no astigmatism); #3 - 1D rotational average of spectrum; #4 - CTF fit; #5 - cross-correlation between spectrum and CTF fit; #6 - 2sigma of expected cross correlation of noise
0.000000 0.000651 0.001302 0.001953 0.002604 0.003255 0.003906 0.004557 0.005208 0.005859 0.006510 0.007161 0.007812 0.008464 0.009115 0.009766 0.010417 0.011068 0.011719 0.012370 0.013021 0.013672 0.014323 0.014974 0.015625 0.016276 0.016927 0.017578 0.018229 0.018880 0.019531 0.020182 0.020833 0.021484 0.022135 0.022786 0.023438 0.024089 0.024740 0.025391 0.026042 0.026693 0.027344 0.027995 0.028646 0.029297 0.029948 0.030599 0.031250 0.031901 0.032552 0.033203 0.033854 0.034505 0.035156 0.035807 0.036458 0.037109 0.037760 0.038411 0.039062 0.039714 0.040365 0.041016 0.041667 0.042318 0.042969 0.043620 0.044271 0.044922 0.045573 0.046224 0.046875 0.047526 0.048177 0.048828 0.049479 0.050130 0.050781 0.051432 0.052083 0.052734 0.053385 0.054036 0.054688 0.055339 0.055990 0.056641 0.057292 0.057943 0.058594 0.059245 0.059896 0.060547 0.061198 0.061849 0.062500 0.063151 0.063802 0.064453 0.065104 0.065755 0.066406 0.067057 0.067708 0.068359 0.069010 0.069661 0.070312 0.070964 0.071615 0.072266 0.072917 0.073568 0.074219 0.074870 0.075521 0.076172 0.076823 0.077474 0.078125 0.078776 0.079427 0.080078 0.080729 0.081380 0.082031 0.082682 0.083333 0.083984 0.084635 0.085286 0.085938 0.086589 0.087240 0.087891 0.088542 0.089193 0.089844 0.090495 0.091146 0.091797 0.092448 0.093099 0.093750 0.094401 0.095052 0.095703 0.096354 0.097005 0.097656 0.098307 0.098958 0.099609 0.100260 0.100911 0.101562 0.102214 0.102865 0.103516 0.104167 0.104818 0.105469 0.106120 0.106771 0.107422 0.108073 0.108724 0.109375 0.110026 0.110677 0.111328 0.111979 0.112630 0.113281 0.113932 0.114583 0.115234 0.115885 0.116536 0.117188 0.117839 0.118490 0.119141 0.119792 0.120443 0.121094 0.121745 0.122396 0.123047 0.123698 0.124349 0.125000 0.125651 0.126302 0.126953 0.127604 0.128255 0.128906 0.129557 0.130208 0.130859 0.131510 0.132161 0.132812 0.133464 0.134115 0.134766 0.135417 0.136068 0.136719 0.137370 0.138021 0.138672 0.139323 0.139974 0.140625 0.141276 0.141927 0.142578 0.143229 0.143880 0.144531 0.145182 0.145833 0.146484 0.147135 0.147786 0.148438 0.149089 0.149740 0.150391 0.151042 0.151693 0.152344 0.152995 0.153646 0.154297 0.154948 0.155599 0.156250 0.156901 0.157552 0.158203 0.158854 0.159505 0.160156 0.160807 0.161458 0.162109 0.162760 0.163411 0.164062 0.164714 0.165365 0.166016 0.166667 0.167318 0.167969 0.168620 0.169271 0.169922 0.170573 0.171224 0.171875 0.172526 0.173177 0.173828 0.174479 0.175130 0.175781 0.176432 0.177083 0.177734 0.178385 0.179036 0.179688 0.180339 0.180990 0.181641 0.182292 0.182943 0.183594 0.184245 0.184896 0.185547 0.186198 0.186849 0.187500 0.188151 0.188802 0.189453 0.190104 0.190755 0.191406 0.192057 0.192708 0.193359 0.194010 0.194661 0.195312 0.195964 0.196615 0.197266 0.197917 0.198568 0.199219 0.199870 0.200521 0.201172 0.201823 0.202474 0.203125 0.203776 0.204427 0.205078 0.205729 0.206380 0.207031 0.207682 0.208333 0.208984 0.209635 0.210286 0.210938 0.211589 0.212240 0.212891 0.213542 0.214193 0.214844 0.215495 0.216146 0.216797 0.217448 0.218099 0.218750 0.219401 0.220052 0.220703 0.221354 0.222005 0.222656 0.223307 0.223958 0.224609 0.225260 0.225911 0.226562 0.227214 0.227865 0.228516 0.229167 0.229818 0.230469 0.231120 0.231771 0.232422 0.233073 0.233724 0.234375 0.235026 0.235677
       0.30177        0.30177        0.30177        0.30177        0.30177        0.30177        0.30177        0.30177        0.30177        0.30177        0.30177        0.30177        0.30177        0.30177        0.30177        0.30177        0.30177        0.30177        0.30177        0.30177        0.30177        0.30177        0.30177        0.30177        0.30177        0.30177        0.30177        0.30177        0.30177        0.30177        0.30177        0.30177        0.30177        0.30177        0.30177        0.30177        0.30177        0.30177        0.30177        0.30177        0.30177        0.30177        0.30177        0.30177        0.30177        0.30177        0.30177        0.30177        0.30177        0.30177        0.30177        0.59980        0.73292        0.35657        0.19274        0.12570       -0.15436        0.10662        0.02280        0.02858        0.08761        0.30983        0.33896        0.26916        0.15640       -0.04198       -0.01032        0.03826       -0.14811       -0.15937       -0.09198       -0.11659       -0.24586       -0.15786       -0.28110       -0.29287       -0.29830       -0.36425       -0.44068       -0.39126       -0.30208       -0.26860       -0.36705       -0.27718       -0.33698       -0.27239       -0.19849       -0.14828       -0.10916       -0.03292       -0.00388        0.10433        0.14731        0.20898        0.32901        0.39343        0.35536        0.46318        0.55171        0.56148        0.64383        0.59160        0.63067        0.60159        0.62005        0.61867        0.55871        0.56558        0.55760        0.39585        0.32626        0.35682        0.34181        0.18146        0.13883        0.10509        0.07361        0.07667       -0.02007        0.04066        0.00841       -0.03358        0.08151        0.15203        0.25105        0.34449        0.33402        0.36530        0.46744        0.50118        0.43149        0.65099        0.53120        0.48355        0.56250        0.50110        0.52081        0.47885        0.36188        0.30750        0.24807        0.20692        0.18322        0.17055        0.14884        0.09402        0.15859        0.16290        0.20365        0.18301        0.25127        0.28762        0.32234        0.44943        0.42183        0.41397        0.44630        0.48823        0.47368        0.45314        0.38164        0.39697        0.34063        0.27863        0.22423        0.23249        0.21537        0.17533        0.15298        0.19042        0.19261        0.24284        0.31585        0.34308        0.40136        0.38776        0.44806        0.45290        0.44321        0.42442        0.39186        0.40381        0.37542        0.33284        0.31644        0.29684        0.24615        0.26201        0.25617        0.21082        0.26634        0.25307        0.26387        0.31490        0.35882        0.39634        0.39128        0.40606        0.38043        0.40114        0.39093        0.29086        0.27707        0.23960        0.25578        0.21239        0.18905        0.26841        0.31225        0.29584        0.26936        0.32592        0.25336        0.33432        0.35717        0.35605        0.35976        0.37978        0.31313        0.31633        0.29851        0.27283        0.26923        0.24365        0.27077        0.29425        0.29438        0.31527        0.36087        0.37079        0.35377        0.33474        0.34882        0.31471        0.30312        0.30088        0.27177        0.27728        0.25354        0.29743        0.31173        0.29797        0.28768        0.31308        0.31644        0.32476        0.32950        0.29221        0.26151        0.28567        0.27557        0.26203        0.24327        0.22377        0.24237        0.25251        0.23876        0.26657        0.27618        0.31840        0.30500        0.27899        0.29996        0.24118        0.20488        0.26221        0.23766        0.20462        0.25915        0.30355        0.27089        0.29027        0.29187        0.29512        0.30388        0.30124        0.26187        0.29447        0.28004        0.31504        0.26237        0.26197        0.24900        0.29480        0.29845        0.31930        0.32299        0.30782        0.20850        0.26934        0.25652        0.23297        0.24192        0.23889        0.28222        0.26079        0.30097        0.29929        0.34400        0.30139        0.27155        0.23223        0.23475        0.24462        0.24846        0.27785        0.28393        0.30053        0.31816        0.28253        0.28424        0.25900        0.26313        0.27302        0.22710        0.20333        0.23567        0.31173        0.29552        0.29216        0.28059        0.22061        0.25263        0.24771        0.20296        0.21908        0.26519        0.28171        0.27609        0.20858        0.19701        0.25685        0.23621        0.25818        0.25248        0.24003        0.18596        0.21322        0.25511        0.23525        0.26608        0.23470        0.22534        0.16701        0.28127        0.30629        0.17443        0.17005        0.12094        0.13859        0.27654        0.14141        0.12050        0.31554        0.19774        0.14892        0.11820        0.15453        0.12964        0.16082       -0.04113       -0.67491       -1.06016
2.964116 2.934294 2.904627 2.875115 2.845758 2.816556 2.787509 2.758616 2.729879 2.701297 2.672870 2.644597 2.616480 2.588518 2.560710 2.533057 2.505560 2.478217 2.451030 2.423997 2.397119 2.370397 2.343829 2.317416 2.291158 2.265055 2.239107 2.213314 2.187676 2.162193 2.136865 2.111692 2.086674 2.061810 2.037102 2.012549 1.988150 1.963907 1.939818 1.915885 1.892106 1.868483 1.845014 1.821700 1.798542 1.775538 1.752689 1.729995 1.707457 1.685073 1.662844 1.998820 2.311350 1.691348 1.582806 1.314724 0.777291 1.179742 1.050914 1.064341 0.931277 1.534468 1.416498 1.419912 1.174191 0.844325 0.697873 0.934072 0.720687 0.405585 0.496891 0.625115 0.378782 0.410360 0.264142 0.175139 0.119870 0.118552 -0.142673 -0.054828 0.078633 0.046672 -0.005151 0.083446 -0.054933 -0.025459 0.134895 0.208304 0.265217 0.316563 0.365793 0.609999 0.551318 0.633736 0.845923 0.964273 0.820260 1.151227 1.128257 1.214230 1.275322 1.145340 1.305883 1.180526 1.123499 1.286570 1.085228 1.038124 1.117854 0.898910 0.614243 0.659656 0.716005 0.422641 0.337409 0.265081 0.148363 0.142999 -0.007253 0.109302 0.051705 -0.073434 0.053638 0.162109 0.266203 0.503401 0.499500 0.461997 0.630901 0.771511 0.506682 0.918380 0.773333 0.715738 0.773645 0.625743 0.703272 0.704038 0.433169 0.338859 0.240855 0.177316 0.116549 0.025372 0.055175 -0.114773 0.007884 -0.008171 0.095070 -0.023147 0.172351 0.179437 0.151237 0.381103 0.460034 0.362439 0.310078 0.524201 0.527807 0.411515 0.371274 0.329729 0.261000 0.199097 0.041406 0.054014 -0.017370 0.039508 -0.118113 -0.051785 -0.094223 0.099671 0.015469 0.225367 0.225634 0.260124 0.341294 0.337958 0.439480 0.349951 0.397239 0.387771 0.251246 0.289743 0.159574 0.221580 0.077313 0.129711 0.069611 0.073089 -0.003605 0.116693 0.034700 0.133067 0.224198 0.235293 0.306690 0.287702 0.304387 0.280908 0.294967 0.191640 0.094695 0.078058 0.025361 0.025198 -0.058798 -0.031233 0.082446 0.164034 0.078432 0.098172 0.090134 0.091204 0.193852 0.177216 0.190042 0.232972 0.144653 0.098360 0.091302 0.073642 0.048356 -0.032563 0.006016 0.117870 0.005391 0.110157 0.110606 0.216250 0.199546 0.209969 0.180833 0.200236 0.086840 0.128727 0.121628 0.060966 0.023677 0.078151 0.103465 0.123180 0.111146 0.090732 0.122165 0.143043 0.148722 0.112370 0.040338 0.004132 0.071257 0.010206 0.040037 -0.042853 -0.054608 0.012653 -0.017117 -0.031043 0.028632 0.049302 0.084389 0.099604 0.010597 0.072769 -0.067485 -0.053754 0.030837 -0.064345 -0.071905 0.046675 0.063591 0.006094 0.047806 0.049988 0.059900 0.137996 -0.011342 0.008624 0.112760 -0.006390 0.098740 -0.008606 0.025611 -0.038620 0.126525 0.023041 0.104043 0.120930 0.066475 -0.084926 0.032426 0.005108 -0.024888 -0.025030 -0.009137 0.023484 0.020149 0.141082 0.036767 0.156369 0.094159 -0.020005 0.004713 -0.036890 0.001352 0.038993 0.041254 0.057059 0.090602 0.145826 0.097674 0.073951 0.066553 0.087553 0.076969 0.029943 -0.055315 0.058201 0.142932 0.111432 0.130314 0.117459 0.004646 0.058011 0.037046 -0.038324 0.013945 0.065883 0.129508 0.079799 -0.024054 -0.024521 0.069332 0.054340 0.043435 0.078066 0.004921 0.001030 -0.014727 0.083177 0.037705 0.110811 0.055207 -0.099599 -0.070646 0.160768 0.186208 -0.099018 0.005185 -0.156865 -0.223291 0.214555 -0.107126 0.100330 0.513847 0.262818 0.238332 0.154727 0.362952 0.185635 0.242503 -0.057475 -1.734170
0.072396 0.072835 0.074152 0.076346 0.079417 0.083364 0.088187 0.093884 0.100454 0.107895 0.116203 0.125377 0.135412 0.146304 0.158048 0.170636 0.184062 0.198316 0.213389 0.229267 0.245938 0.263386 0.281592 0.300538 0.320199 0.340551 0.361566 0.383211 0.405453 0.428252 0.451568 0.475354 0.499560 0.524132 0.549011 0.574133 0.599431 0.624831 0.650255 0.675620 0.700837 0.725814 0.750450 0.774642 0.798280 0.821251 0.843436 0.864710 0.884947 0.904014 0.921775 0.938092 0.952824 0.965827 0.976956 0.986067 0.993013 0.997651 0.999839 0.999437 0.996312 0.990333 0.981377 0.969332 0.954090 0.935559 0.913656 0.888314 0.859480 0.827119 0.791214 0.751770 0.708812 0.662388 0.612573 0.559466 0.503194 0.443913 0.381806 0.317089 0.250007 0.180836 0.109883 0.037485 0.035990 0.110146 0.184558 0.258775 0.332323 0.404707 0.475411 0.543905 0.609648 0.672091 0.730683 0.784876 0.834127 0.877911 0.915720 0.947072 0.971520 0.988654 0.998113 0.999586 0.992825 0.977646 0.953939 0.921672 0.880897 0.831753 0.774474 0.709387 0.636917 0.557588 0.472020 0.380933 0.285137 0.185532 0.083101 0.021099 0.125941 0.230249 0.332799 0.432341 0.527610 0.617344 0.700301 0.775279 0.841133 0.896795 0.941297 0.973783 0.993538 0.999996 0.992765 0.971635 0.936597 0.887850 0.825808 0.751104 0.664596 0.567358 0.460674 0.346028 0.225089 0.099689 0.028202 0.156500 0.283044 0.405629 0.522046 0.630121 0.727760 0.812991 0.884010 0.939221 0.977278 0.997126 0.998030 0.979610 0.941862 0.885173 0.810335 0.718540 0.611376 0.490807 0.359145 0.219020 0.073320 0.074847 0.222230 0.365495 0.501307 0.626405 0.737686 0.832287 0.907664 0.961670 0.992623 0.999368 0.981328 0.938542 0.871689 0.782090 0.671704 0.543097 0.399393 0.244214 0.081593 0.084124 0.248382 0.406552 0.554052 0.686489 0.799797 0.890364 0.955163 0.991865 0.998933 0.975701 0.922424 0.840303 0.731484 0.599012 0.446777 0.279401 0.102124 0.079363 0.259086 0.430986 0.589124 0.727892 0.842223 0.927782 0.981151 0.999984 0.983121 0.930674 0.844066 0.726016 0.580480 0.412546 0.228267 0.034460 0.161533 0.352121 0.529751 0.687223 0.817980 0.916404 0.978072 0.999976 0.980693 0.920493 0.821382 0.687061 0.522827 0.335383 0.132586 0.076860 0.283774 0.478900 0.653315 0.798855 0.908509 0.976784 1.000000 0.976520 0.906885 0.793852 0.642321 0.459159 0.252916 0.033452 0.188522 0.401956 0.596015 0.760631 0.887052 0.968326 0.999713 0.978998 0.906672 0.785987 0.622846 0.425557 0.204449 0.028652 0.261034 0.479787 0.672519 0.828087 0.937245 0.993243 0.992272 0.933765 0.820518 0.658600 0.457087 0.227588 0.016397 0.260247 0.489083 0.688687 0.846404 0.951967 0.998205 0.981579 0.902491 0.765358 0.578426 0.353321 0.104367 0.152291 0.399715 0.621305 0.801912 0.928906 0.993104 0.989475 0.917591 0.781769 0.590869 0.357783 0.098608 0.168426 0.424234 0.650221 0.829673 0.948998 0.998831 0.974809 0.878015 0.715022 0.497517 0.241516 0.033749 0.307267 0.557824 0.765674 0.914104 0.990845 0.989135 0.908386 0.754363 0.538854 0.278846 0.004776 0.288843 0.549818 0.765714 0.918011 0.993280 0.984437 0.891486 0.721668 0.488983 0.213108 0.082199 0.371125 0.628035 0.829779 0.957809 0.999951 0.951642 0.816503 0.606175 0.339394 0.040414 0.263166 0.542922 0.772268 0.929026 0.997636 0.970776 0.850236 0.646925 0.379980 0.075056 0.238097 0.528486 0.766969 0.929213
1.000000 1.000000 1.000000 1.000000 1.000000 1.000000 1.000000 1.000000 1.000000 1.000000 1.000000 1.000000 1.000000 1.000000 1.000000 1.000000 1.000000 1.000000 1.000000 1.000000 1.000000 1.000000 1.000000 1.000000 1.000000 1.000000 1.000000 1.000000 1.000000 1.000000 1.000000 1.000000 1.000000 1.000000 1.000000 1.000000 1.000000 1.000000 1.000000 1.000000 1.000000 1.000000 1.000000 1.000000 1.000000 1.000000 1.000000 1.000000 1.000000 1.000000 1.000000 1.000000 0.798324 0.798324 0.798324 0.798324 0.798324 0.798324 0.798324 0.781583 0.781583 0.781583 0.781583 0.781583 0.781583 0.781583 0.781583 0.781583 0.781583 0.781583 0.781583 0.781583 0.781583 0.781583 0.781583 0.781583 0.781583 0.781583 0.781583 0.781583 0.781583 0.781583 0.781583 0.781583 0.781583 0.781583 0.781583 0.781583 0.781583 0.781583 0.781583 0.781583 0.781583 0.781583 0.781583 0.781583 0.781583 0.781583 0.781583 0.781583 0.781583 0.781583 0.781583 0.933816 0.932950 0.934406 0.932889 0.933496 0.932353 0.928381 0.929764 0.928713 0.926436 0.926075 0.926667 0.927758 0.927938 0.932981 0.934399 0.943043 0.946970 0.947778 0.947230 0.945384 0.952167 0.950503 0.946625 0.942727 0.944309 0.941248 0.942289 0.939068 0.939815 0.941503 0.942752 0.938893 0.938180 0.936651 0.935354 0.934315 0.933750 0.933977 0.934055 0.933580 0.934539 0.935306 0.933441 0.935638 0.932496 0.933089 0.930477 0.930983 0.933201 0.921926 0.922237 0.915490 0.909149 0.907155 0.906281 0.904895 0.905468 0.906452 0.907138 0.907813 0.908326 0.908516 0.908078 0.908538 0.905357 0.898431 0.893900 0.891483 0.893208 0.897773 0.901733 0.900629 0.896783 0.896156 0.891166 0.885539 0.873322 0.858317 0.856928 0.857657 0.860296 0.863340 0.863483 0.860614 0.858789 0.858733 0.857458 0.862502 0.863853 0.856007 0.846881 0.845322 0.842013 0.850083 0.853562 0.856650 0.860562 0.854655 0.841568 0.835799 0.841627 0.844369 0.853865 0.852121 0.849129 0.846308 0.842910 0.830966 0.823399 0.822672 0.824130 0.825933 0.825720 0.828042 0.815810 0.789561 0.806486 0.802109 0.805276 0.816019 0.825522 0.827605 0.820346 0.795725 0.782207 0.771410 0.772215 0.774788 0.770952 0.774867 0.764550 0.749827 0.720259 0.727317 0.714576 0.729047 0.738531 0.732772 0.737217 0.729287 0.727256 0.711343 0.685314 0.687779 0.632187 0.632102 0.625519 0.603676 0.608806 0.592911 0.601460 0.608181 0.591736 0.558643 0.566900 0.565935 0.570509 0.534956 0.524099 0.518417 0.531626 0.533011 0.534748 0.526875 0.517846 0.503735 0.522262 0.530803 0.514380 0.517459 0.537601 0.533148 0.522919 0.506969 0.498257 0.513699 0.534265 0.541591 0.543298 0.549833 0.521498 0.496713 0.519941 0.535912 0.531829 0.516265 0.505674 0.500940 0.517839 0.490638 0.500990 0.493198 0.505969 0.485688 0.436057 0.389590 0.338183 0.354056 0.354491 0.353300 0.348258 0.358373 0.375274 0.388269 0.386642 0.389252 0.411168 0.442651 0.432611 0.408922 0.408225 0.406613 0.412161 0.407643 0.379638 0.388223 0.408210 0.412259 0.356944 0.340921 0.314513 0.300729 0.308770 0.322875 0.339717 0.326892 0.316606 0.186922 0.210017 0.173634 0.187517 0.187517 0.187517 0.187517 0.187517 0.187517 0.187517 0.187517 0.187517 0.222450 0.222450 0.222450 0.222450 0.222450 0.222450 0.222450 0.222450 0.222450 0.222450 0.222450 0.222450 0.222450 0.222450 0.222450 0.222450 0.222450 0.222450 0.222450 0.222450
0.000000 0.000000 0.000000 0.000000 0.000000 0.000000 0.000000 0.000000 0.000000 0.000000 0.000000 0.000000 0.000000 0.000000 0.000000 0.000000 0.000000 0.000000 0.000000 0.000000 0.000000 0.000000 0.000000 0.000000 0.000000 0.000000 0.000000 0.000000 0.000000 0.000000 0.000000 0.000000 0.000000 0.000000 0.000000 0.000000 0.000000 0.000000 0.000000 0.000000 0.000000 0.000000 0.000000 0.000000 0.000000 0.000000 0.000000 0.000000 0.000000 0.000000 0.000000 0.000000 0.173422 0.173422 0.173422 0.173422 0.173422 0.173422 0.173422 0.191565 0.191565 0.191565 0.191565 0.191565 0.191565 0.191565 0.191565 0.191565 0.191565 0.191565 0.191565 0.191565 0.191565 0.191565 0.191565 0.191565 0.191565 0.191565 0.191565 0.191565 0.191565 0.191565 0.191565 0.191565 0.191565 0.191565 0.191565 0.191565 0.191565 0.191565 0.191565 0.191565 0.191565 0.191565 0.191565 0.191565 0.191565 0.191565 0.191565 0.191565 0.191565 0.191565 0.191565 0.222222 0.222222 0.222222 0.222222 0.222222 0.222222 0.222222 0.222222 0.222222 0.222222 0.222222 0.222222 0.222222 0.222222 0.222222 0.222222 0.222222 0.222222 0.222222 0.222222 0.222222 0.222222 0.222222 0.222222 0.222222 0.222222 0.222222 0.222222 0.222222 0.222222 0.234082 0.234082 0.234082 0.234082 0.234082 0.234082 0.234082 0.234082 0.234082 0.234082 0.234082 0.234082 0.234082 0.234082 0.234082 0.234082 0.234082 0.234082 0.234082 0.234082 0.234082 0.234082 0.234082 0.234082 0.234082 0.244339 0.244339 0.244339 0.244339 0.244339 0.244339 0.244339 0.244339 0.244339 0.244339 0.244339 0.244339 0.244339 0.244339 0.244339 0.244339 0.244339 0.244339 0.244339 0.244339 0.244339 0.248069 0.248069 0.248069 0.248069 0.248069 0.248069 0.248069 0.248069 0.248069 0.248069 0.248069 0.248069 0.248069 0.248069 0.248069 0.248069 0.248069 0.248069 0.248069 0.248069 0.248069 0.248069 0.248069 0.248069 0.248069 0.248069 0.248069 0.248069 0.248069 0.248069 0.248069 0.248069 0.248069 0.248069 0.248069 0.248069 0.248069 0.256074 0.256074 0.256074 0.256074 0.256074 0.256074 0.256074 0.256074 0.256074 0.256074 0.256074 0.256074 0.256074 0.256074 0.256074 0.256074 0.264906 0.264906 0.264906 0.264906 0.264906 0.264906 0.264906 0.264906 0.264906 0.264906 0.264906 0.264906 0.264906 0.264906 0.248069 0.248069 0.248069 0.248069 0.248069 0.248069 0.248069 0.248069 0.248069 0.248069 0.248069 0.248069 0.248069 0.248069 0.248069 0.260378 0.260378 0.260378 0.260378 0.260378 0.260378 0.260378 0.260378 0.260378 0.260378 0.260378 0.260378 0.260378 0.256074 0.256074 0.256074 0.256074 0.256074 0.256074 0.256074 0.256074 0.256074 0.256074 0.256074 0.256074 0.256074 0.260378 0.260378 0.260378 0.260378 0.260378 0.260378 0.260378 0.260378 0.260378 0.260378 0.260378 0.260378 0.251976 0.251976 0.251976 0.251976 0.251976 0.251976 0.251976 0.251976 0.251976 0.251976 0.251976 0.251976 0.256074 0.256074 0.256074 0.256074 0.256074 0.256074 0.256074 0.256074 0.256074 0.256074 0.256074 0.251976 0.251976 0.251976 0.251976 0.251976 0.251976 0.251976 0.251976 0.251976 0.251976 0.251976 0.260378 0.260378 0.260378 0.260378 0.260378 0.260378 0.260378 0.260378 0.260378 0.260378 0.244339 0.244339 0.244339 0.244339 0.244339 0.244339 0.244339 0.244339 0.244339 0.244339 0.244339 0.244339 0.244339 0.244339 0.244339 0.244339 0.244339 0.244339 0.244339 0.244339
