# Output from CTFFind version 4.1.9, run on 2019-11-02 17:44:57
# Input file: stack6_bm3d_averaged_1_1.5_0_750_half.mrc ; Number of micrographs: 1
# Pixel size: 3.000 Angstroms ; acceleration voltage: 300.0 keV ; spherical aberration: 0.00 mm ; amplitude contrast: 0.07
# Box size: 512 pixels ; min. res.: 30.0 Angstroms ; max. res.: 5.0 Angstroms ; min. def.: 5000.0 um; max. def. 50000.0 um; num. frames averaged: 1
# 6 lines per micrograph: #1 - spatial frequency (1/Angstroms); #2 - 1D rotational average of spectrum (assuming no astigmatism); #3 - 1D rotational average of spectrum; #4 - CTF fit; #5 - cross-correlation between spectrum and CTF fit; #6 - 2sigma of expected cross correlation of noise
0.000000 0.000651 0.001302 0.001953 0.002604 0.003255 0.003906 0.004557 0.005208 0.005859 0.006510 0.007161 0.007812 0.008464 0.009115 0.009766 0.010417 0.011068 0.011719 0.012370 0.013021 0.013672 0.014323 0.014974 0.015625 0.016276 0.016927 0.017578 0.018229 0.018880 0.019531 0.020182 0.020833 0.021484 0.022135 0.022786 0.023438 0.024089 0.024740 0.025391 0.026042 0.026693 0.027344 0.027995 0.028646 0.029297 0.029948 0.030599 0.031250 0.031901 0.032552 0.033203 0.033854 0.034505 0.035156 0.035807 0.036458 0.037109 0.037760 0.038411 0.039062 0.039714 0.040365 0.041016 0.041667 0.042318 0.042969 0.043620 0.044271 0.044922 0.045573 0.046224 0.046875 0.047526 0.048177 0.048828 0.049479 0.050130 0.050781 0.051432 0.052083 0.052734 0.053385 0.054036 0.054688 0.055339 0.055990 0.056641 0.057292 0.057943 0.058594 0.059245 0.059896 0.060547 0.061198 0.061849 0.062500 0.063151 0.063802 0.064453 0.065104 0.065755 0.066406 0.067057 0.067708 0.068359 0.069010 0.069661 0.070312 0.070964 0.071615 0.072266 0.072917 0.073568 0.074219 0.074870 0.075521 0.076172 0.076823 0.077474 0.078125 0.078776 0.079427 0.080078 0.080729 0.081380 0.082031 0.082682 0.083333 0.083984 0.084635 0.085286 0.085938 0.086589 0.087240 0.087891 0.088542 0.089193 0.089844 0.090495 0.091146 0.091797 0.092448 0.093099 0.093750 0.094401 0.095052 0.095703 0.096354 0.097005 0.097656 0.098307 0.098958 0.099609 0.100260 0.100911 0.101562 0.102214 0.102865 0.103516 0.104167 0.104818 0.105469 0.106120 0.106771 0.107422 0.108073 0.108724 0.109375 0.110026 0.110677 0.111328 0.111979 0.112630 0.113281 0.113932 0.114583 0.115234 0.115885 0.116536 0.117188 0.117839 0.118490 0.119141 0.119792 0.120443 0.121094 0.121745 0.122396 0.123047 0.123698 0.124349 0.125000 0.125651 0.126302 0.126953 0.127604 0.128255 0.128906 0.129557 0.130208 0.130859 0.131510 0.132161 0.132812 0.133464 0.134115 0.134766 0.135417 0.136068 0.136719 0.137370 0.138021 0.138672 0.139323 0.139974 0.140625 0.141276 0.141927 0.142578 0.143229 0.143880 0.144531 0.145182 0.145833 0.146484 0.147135 0.147786 0.148438 0.149089 0.149740 0.150391 0.151042 0.151693 0.152344 0.152995 0.153646 0.154297 0.154948 0.155599 0.156250 0.156901 0.157552 0.158203 0.158854 0.159505 0.160156 0.160807 0.161458 0.162109 0.162760 0.163411 0.164062 0.164714 0.165365 0.166016 0.166667 0.167318 0.167969 0.168620 0.169271 0.169922 0.170573 0.171224 0.171875 0.172526 0.173177 0.173828 0.174479 0.175130 0.175781 0.176432 0.177083 0.177734 0.178385 0.179036 0.179688 0.180339 0.180990 0.181641 0.182292 0.182943 0.183594 0.184245 0.184896 0.185547 0.186198 0.186849 0.187500 0.188151 0.188802 0.189453 0.190104 0.190755 0.191406 0.192057 0.192708 0.193359 0.194010 0.194661 0.195312 0.195964 0.196615 0.197266 0.197917 0.198568 0.199219 0.199870 0.200521 0.201172 0.201823 0.202474 0.203125 0.203776 0.204427 0.205078 0.205729 0.206380 0.207031 0.207682 0.208333 0.208984 0.209635 0.210286 0.210938 0.211589 0.212240 0.212891 0.213542 0.214193 0.214844 0.215495 0.216146 0.216797 0.217448 0.218099 0.218750 0.219401 0.220052 0.220703 0.221354 0.222005 0.222656 0.223307 0.223958 0.224609 0.225260 0.225911 0.226562 0.227214 0.227865 0.228516 0.229167 0.229818 0.230469 0.231120 0.231771 0.232422 0.233073 0.233724 0.234375 0.235026 0.235677
       0.30883        0.30883        0.30883        0.30883        0.30883        0.30883        0.30883        0.30883        0.30883        0.30883        0.30883        0.30883        0.30883        0.30883        0.30883        0.30883        0.30883        0.30883        0.30883        0.30883        0.30883        0.30883        0.30883        0.30883        0.30883        0.30883        0.30883        0.30883        0.30883        0.30883        0.30883        0.30883        0.30883        0.30883        0.30883        0.30883        0.30883        0.30883        0.30883        0.30883        0.30883        0.30883        0.30883        0.30883        0.30883        0.30883        0.30883        0.30883        0.30883        0.30883        0.30883        0.63080        0.81015        0.41211        0.30661        0.18277       -0.10777        0.11111       -0.00139        0.03091        0.11387        0.33660        0.42009        0.39914        0.22302       -0.01621        0.04466        0.06969       -0.17602       -0.18181       -0.08792       -0.11109       -0.29857       -0.19268       -0.30383       -0.25830       -0.28686       -0.40992       -0.47544       -0.47785       -0.42540       -0.34490       -0.43787       -0.36654       -0.41454       -0.35525       -0.27925       -0.20460       -0.19666       -0.13665       -0.08888        0.04023        0.07697        0.25171        0.28189        0.36899        0.40277        0.51734        0.59085        0.61189        0.73725        0.69823        0.74192        0.65246        0.66183        0.69053        0.63186        0.61556        0.60751        0.43040        0.39359        0.35015        0.32209        0.22513        0.12799        0.05918        0.05140        0.00037       -0.08224       -0.02652       -0.03412       -0.07382        0.06644        0.16261        0.25447        0.31573        0.33384        0.42398        0.54092        0.59010        0.53794        0.67208        0.56345        0.53556        0.60006        0.63483        0.53005        0.45869        0.40185        0.37695        0.24198        0.20301        0.12950        0.11455        0.05326        0.05027        0.09846        0.15750        0.14606        0.17921        0.22258        0.23906        0.32642        0.45045        0.48827        0.49374        0.51514        0.57889        0.57305        0.52597        0.42179        0.38330        0.36288        0.26669        0.24133        0.20932        0.20341        0.19226        0.17452        0.15936        0.12866        0.18934        0.24263        0.33669        0.37661        0.40748        0.46162        0.53428        0.46795        0.48714        0.42778        0.40194        0.38029        0.36382        0.28702        0.24796        0.19574        0.23549        0.21548        0.19126        0.21431        0.21984        0.23641        0.30543        0.39796        0.39170        0.37901        0.39266        0.45280        0.47745        0.43147        0.35368        0.31870        0.27379        0.26606        0.25423        0.21754        0.28092        0.29313        0.29491        0.31176        0.30341        0.33558        0.37698        0.37052        0.36776        0.35101        0.31415        0.32830        0.32275        0.29333        0.28794        0.27168        0.21565        0.26684        0.27059        0.29596        0.31289        0.33627        0.37288        0.33126        0.30998        0.35896        0.36030        0.25642        0.28927        0.30552        0.23930        0.20587        0.26286        0.27242        0.27612        0.29744        0.30253        0.33370        0.33144        0.35351        0.32203        0.32247        0.30585        0.29585        0.26584        0.24226        0.25114        0.25394        0.27915        0.30011        0.29672        0.29286        0.31792        0.33283        0.27087        0.30232        0.26664        0.25564        0.26512        0.25344        0.25684        0.26280        0.31322        0.28145        0.31410        0.28851        0.26961        0.30977        0.30231        0.32769        0.31576        0.29349        0.24725        0.24914        0.26037        0.25901        0.31125        0.31056        0.32882        0.32077        0.31134        0.25180        0.28448        0.21275        0.19364        0.26066        0.26560        0.25845        0.27810        0.31018        0.29675        0.36237        0.29922        0.24211        0.21716        0.24232        0.29236        0.30619        0.30408        0.27269        0.28103        0.26659        0.31621        0.27598        0.25083        0.26447        0.24811        0.28389        0.24871        0.27507        0.32444        0.29104        0.21480        0.23766        0.28309        0.31306        0.24387        0.26139        0.24182        0.29310        0.28645        0.37633        0.28137        0.25936        0.27030        0.24189        0.21826        0.19644        0.23642        0.20563        0.20056        0.16726        0.19677        0.24589        0.21077        0.23766        0.20569        0.24370        0.22064        0.21994        0.18344        0.15859        0.18969        0.25503        0.13591        0.05939        0.21568        0.16709        0.12189        0.23841        0.16088        0.22840        0.19104       -0.05565       -0.53416       -0.96033
2.847198 2.819160 2.791267 2.763518 2.735914 2.708453 2.681137 2.653966 2.626939 2.600056 2.573318 2.546724 2.520274 2.493969 2.467808 2.441791 2.415919 2.390191 2.364608 2.339169 2.313874 2.288724 2.263718 2.238856 2.214139 2.189566 2.165138 2.140854 2.116714 2.092719 2.068868 2.045161 2.021599 1.998181 1.974908 1.951779 1.928794 1.905954 1.883258 1.860706 1.838299 1.816036 1.793918 1.771944 1.750114 1.728429 1.706887 1.685491 1.664239 1.643131 1.622167 1.915966 2.261254 1.693164 1.734138 1.378245 0.937382 1.199812 1.029425 1.076228 1.026060 1.495344 1.512686 1.534573 1.279065 0.942300 0.821174 1.014690 0.709080 0.488551 0.594315 0.677564 0.419792 0.487767 0.331352 0.370224 0.254056 0.156726 -0.032679 0.010090 0.026934 0.079825 0.043939 0.088875 -0.044317 0.031470 0.109183 0.224685 0.280387 0.215757 0.329961 0.563462 0.441248 0.728941 0.803612 0.875801 0.907889 1.119451 1.146013 1.179938 1.323053 1.230694 1.376753 1.194315 1.107925 1.307493 1.124836 1.054409 1.129943 0.880998 0.732487 0.672584 0.664318 0.472282 0.390351 0.268962 0.216821 0.099821 -0.007808 0.099611 0.026017 -0.064681 0.116636 0.260567 0.312591 0.460379 0.483460 0.549668 0.714326 0.818882 0.654305 0.961267 0.803593 0.655616 0.764955 0.792123 0.712501 0.637157 0.442082 0.503395 0.285378 0.173122 0.138865 0.006488 -0.015750 -0.111803 -0.021217 0.017985 0.080055 -0.041032 0.254362 0.103564 0.207503 0.374468 0.424514 0.534557 0.419326 0.560920 0.665839 0.508710 0.394316 0.334905 0.321418 0.146724 0.132906 0.010200 0.096627 0.011667 0.002487 -0.033166 -0.107618 -0.009911 0.019912 0.100058 0.283714 0.211060 0.352045 0.371102 0.430861 0.406069 0.413283 0.339546 0.226857 0.310353 0.172645 0.160714 -0.003563 0.057479 0.073507 -0.020523 0.002956 0.013593 0.062221 0.076244 0.233067 0.300063 0.245579 0.218284 0.376760 0.389777 0.357226 0.250342 0.172845 0.141659 0.089813 0.076451 0.040257 0.025256 0.133533 0.058988 0.183917 0.091266 0.128114 0.225705 0.218162 0.222114 0.199146 0.198489 0.108083 0.168043 0.128952 0.096596 0.122082 -0.006818 0.032496 0.084081 0.045559 0.145453 0.108364 0.207390 0.200585 0.128423 0.134004 0.219308 0.115649 0.061165 0.090995 0.063686 -0.002048 -0.022892 0.062263 0.073090 0.044272 0.114571 0.113049 0.130382 0.144977 0.169806 0.130476 0.098881 0.107858 0.096034 0.023739 0.014320 0.043411 0.006078 0.082083 0.115803 0.083205 0.065705 0.121068 0.125406 0.029055 0.117251 0.027632 0.021267 0.045340 0.010703 0.013336 0.070025 0.093723 0.019321 0.107361 0.075716 0.004986 0.115815 0.063423 0.091699 0.096274 0.018223 -0.013313 -0.022947 0.035128 -0.005931 0.073867 0.074917 0.087666 0.066104 0.140151 -0.033344 0.051181 -0.106141 -0.032761 -0.013820 0.014914 0.012328 0.009861 0.093001 0.057996 0.116220 -0.025167 -0.057500 -0.098851 -0.073249 0.061386 0.029002 0.033760 -0.017889 -0.017025 -0.027610 0.063256 -0.015762 -0.079565 -0.022882 -0.097197 0.014266 -0.052265 -0.005756 0.048737 -0.016862 -0.098569 -0.027130 0.032358 0.013815 -0.047524 -0.007041 -0.073565 0.095302 0.058276 0.156724 0.016594 -0.003823 0.037531 0.015689 -0.049693 -0.018837 0.039597 -0.019072 -0.036756 -0.058236 -0.028933 0.101640 -0.055112 0.108997 0.005962 0.122363 -0.001540 0.109457 -0.049722 -0.008121 -0.031163 0.179323 -0.012694 0.005101 0.299981 0.221436 0.173265 0.400458 0.222879 0.291815 0.270337 -0.073691 -1.336048
0.072396 0.072834 0.074149 0.076341 0.079408 0.083350 0.088166 0.093856 0.100417 0.107847 0.116145 0.125306 0.135328 0.146206 0.157934 0.170505 0.183913 0.198149 0.213202 0.229060 0.245709 0.263135 0.281318 0.300240 0.319877 0.340205 0.361194 0.382814 0.405030 0.427804 0.451094 0.474855 0.499037 0.523585 0.548441 0.573541 0.598819 0.624200 0.649608 0.674958 0.700164 0.725131 0.749762 0.773951 0.797592 0.820569 0.842765 0.864055 0.884313 0.903407 0.921202 0.937560 0.952339 0.965396 0.976588 0.985768 0.992793 0.997518 0.999801 0.999504 0.996492 0.990635 0.981811 0.969904 0.954811 0.936436 0.914698 0.889527 0.860871 0.828694 0.792979 0.753728 0.710966 0.664740 0.615123 0.562213 0.506136 0.447044 0.385121 0.320579 0.253661 0.184641 0.113824 0.041546 0.031830 0.105909 0.180268 0.254460 0.328012 0.400430 0.471201 0.539799 0.605682 0.668304 0.727115 0.781565 0.831116 0.875240 0.913428 0.945200 0.970105 0.987733 0.997717 0.999747 0.993568 0.978993 0.955907 0.924271 0.884133 0.835624 0.778970 0.714491 0.642604 0.563825 0.478765 0.388135 0.292736 0.193461 0.091283 0.012746 0.117510 0.221835 0.324507 0.424276 0.519883 0.610067 0.693585 0.769235 0.835867 0.892409 0.937884 0.971430 0.992318 0.999971 0.993981 0.974121 0.940365 0.892890 0.832091 0.758580 0.673191 0.576977 0.471199 0.357321 0.236991 0.112022 0.015630 0.143897 0.270628 0.393624 0.510679 0.619620 0.718345 0.804873 0.877384 0.934261 0.974135 0.995919 0.998846 0.982497 0.946828 0.892184 0.819310 0.729352 0.623854 0.504736 0.374269 0.235042 0.089914 0.058036 0.205576 0.349385 0.486131 0.612546 0.725511 0.822137 0.899844 0.956439 0.990184 0.999861 0.984825 0.945038 0.881097 0.794247 0.686365 0.559938 0.418020 0.264165 0.102353 0.063109 0.227699 0.386796 0.535818 0.670346 0.786274 0.879929 0.948209 0.988691 0.999734 0.980553 0.931279 0.852984 0.747683 0.618299 0.468603 0.303118 0.126993 0.054142 0.234353 0.407593 0.567905 0.709635 0.827635 0.917464 0.975573 0.999457 0.987783 0.940476 0.858765 0.745179 0.603491 0.438618 0.256473 0.063760 0.132255 0.324015 0.503959 0.664825 0.799958 0.903586 0.971098 0.999263 0.986407 0.932534 0.839374 0.710364 0.550548 0.366409 0.165626 0.043225 0.251034 0.448546 0.626775 0.777421 0.893277 0.968588 0.999369 0.983639 0.921574 0.815558 0.670136 0.491850 0.288975 0.071158 0.151018 0.366546 0.564533 0.734766 0.868245 0.957690 0.997963 0.986398 0.923006 0.810553 0.654477 0.462671 0.245118 0.013397 0.219911 0.441907 0.640081 0.803030 0.921140 0.987183 0.996793 0.948797 0.845368 0.691976 0.497150 0.272049 0.029847 0.215005 0.447641 0.653676 0.820117 0.936208 0.994155 0.989700 0.922476 0.796127 0.618167 0.399592 0.154236 0.102064 0.352475 0.580277 0.769976 0.908388 0.985603 0.995727 0.937394 0.813965 0.633399 0.407810 0.152689 0.114105 0.373589 0.606997 0.797149 0.929743 0.994488 0.985942 0.904038 0.754211 0.547101 0.297874 0.025149 0.250347 0.507350 0.725703 0.887957 0.980813 0.996272 0.932383 0.793541 0.590264 0.338463 0.058271 0.227543 0.495397 0.722845 0.890482 0.983662 0.993820 0.919350 0.765882 0.545949 0.278039 0.014897 0.307367 0.573547 0.789575 0.935716 0.998232 0.970752 0.854997 0.660785 0.405296 0.111634 0.193230 0.480870 0.724095 0.899524 0.989895 0.985850 0.886987 0.702076 0.448385 0.150160 0.163636 0.462100 0.715421 0.897898
1.000000 1.000000 1.000000 1.000000 1.000000 1.000000 1.000000 1.000000 1.000000 1.000000 1.000000 1.000000 1.000000 1.000000 1.000000 1.000000 1.000000 1.000000 1.000000 1.000000 1.000000 1.000000 1.000000 1.000000 1.000000 1.000000 1.000000 1.000000 1.000000 1.000000 1.000000 1.000000 1.000000 1.000000 1.000000 1.000000 1.000000 1.000000 1.000000 1.000000 1.000000 1.000000 1.000000 1.000000 1.000000 1.000000 1.000000 1.000000 1.000000 1.000000 1.000000 1.000000 0.833256 0.833256 0.833256 0.833256 0.833256 0.833256 0.833256 0.815388 0.815388 0.815388 0.815388 0.815388 0.815388 0.815388 0.815388 0.815388 0.815388 0.815388 0.815388 0.815388 0.815388 0.815388 0.815388 0.815388 0.815388 0.815388 0.815388 0.815388 0.815388 0.815388 0.815388 0.815388 0.815388 0.815388 0.815388 0.815388 0.815388 0.815388 0.815388 0.815388 0.815388 0.815388 0.815388 0.815388 0.815388 0.815388 0.815388 0.815388 0.815388 0.815388 0.815388 0.954198 0.954859 0.952012 0.950961 0.949334 0.945913 0.941706 0.941245 0.942576 0.942789 0.943416 0.945489 0.946453 0.948042 0.949191 0.949984 0.950773 0.958861 0.962556 0.962286 0.962021 0.953020 0.959861 0.957814 0.955468 0.956193 0.956458 0.957142 0.957039 0.956889 0.956432 0.955042 0.955726 0.955551 0.954819 0.953794 0.951732 0.951674 0.951249 0.951394 0.952359 0.953075 0.953856 0.954377 0.954375 0.954536 0.954532 0.954441 0.949768 0.949778 0.942824 0.943292 0.944320 0.943930 0.942912 0.941448 0.941518 0.941422 0.941381 0.941246 0.941448 0.924671 0.924594 0.924613 0.925387 0.919815 0.909454 0.902008 0.896658 0.897708 0.901816 0.906391 0.906878 0.903427 0.902522 0.885735 0.882771 0.866711 0.863224 0.853677 0.863757 0.865622 0.867238 0.860717 0.859562 0.857679 0.855108 0.840857 0.845485 0.845522 0.841621 0.837762 0.835853 0.833080 0.835215 0.843982 0.839623 0.836824 0.838731 0.827022 0.815909 0.814486 0.816386 0.824791 0.836733 0.834918 0.833787 0.827198 0.822974 0.816281 0.811145 0.811457 0.813642 0.810471 0.814358 0.814561 0.824434 0.813812 0.806360 0.811520 0.822208 0.825806 0.826680 0.827335 0.824177 0.828101 0.808621 0.809826 0.810867 0.774383 0.774937 0.765972 0.764323 0.759500 0.761809 0.758082 0.752243 0.743429 0.722216 0.735458 0.744357 0.709447 0.717598 0.710770 0.700124 0.675619 0.681867 0.693355 0.703404 0.703925 0.708924 0.698670 0.697401 0.705836 0.705898 0.711601 0.703358 0.698434 0.693416 0.696674 0.688673 0.678968 0.676761 0.676602 0.675417 0.671218 0.652982 0.663160 0.648282 0.634437 0.623497 0.590779 0.567176 0.555353 0.545483 0.526595 0.506235 0.520678 0.522854 0.508788 0.499012 0.478691 0.443264 0.430048 0.428841 0.415198 0.408170 0.391186 0.338891 0.348730 0.339994 0.340375 0.319974 0.313608 0.293225 0.227541 0.223499 0.183324 0.209660 0.220543 0.219887 0.202167 0.190782 0.221818 0.220071 0.233096 0.231296 0.252703 0.211785 0.149386 0.170136 0.163658 0.168988 0.156811 0.123249 0.151077 0.147101 0.160730 0.167082 0.113290 0.083110 0.060271 0.053291 0.062678 0.085039 0.099156 0.087919 0.070456 -0.023116 0.010304 0.037120 0.037120 0.037120 0.037120 0.037120 0.037120 0.037120 0.037120 0.037120 0.037120 0.037120 -0.020912 -0.020912 -0.020912 -0.020912 -0.020912 -0.020912 -0.020912 -0.020912 -0.020912 -0.020912 -0.020912 -0.020912 -0.020912 -0.020912 -0.020912 -0.020912 -0.020912 -0.020912 -0.020912
0.000000 0.000000 0.000000 0.000000 0.000000 0.000000 0.000000 0.000000 0.000000 0.000000 0.000000 0.000000 0.000000 0.000000 0.000000 0.000000 0.000000 0.000000 0.000000 0.000000 0.000000 0.000000 0.000000 0.000000 0.000000 0.000000 0.000000 0.000000 0.000000 0.000000 0.000000 0.000000 0.000000 0.000000 0.000000 0.000000 0.000000 0.000000 0.000000 0.000000 0.000000 0.000000 0.000000 0.000000 0.000000 0.000000 0.000000 0.000000 0.000000 0.000000 0.000000 0.000000 0.173422 0.173422 0.173422 0.173422 0.173422 0.173422 0.173422 0.191565 0.191565 0.191565 0.191565 0.191565 0.191565 0.191565 0.191565 0.191565 0.191565 0.191565 0.191565 0.191565 0.191565 0.191565 0.191565 0.191565 0.191565 0.191565 0.191565 0.191565 0.191565 0.191565 0.191565 0.191565 0.191565 0.191565 0.191565 0.191565 0.191565 0.191565 0.191565 0.191565 0.191565 0.191565 0.191565 0.191565 0.191565 0.191565 0.191565 0.191565 0.191565 0.191565 0.191565 0.219529 0.219529 0.219529 0.219529 0.219529 0.219529 0.219529 0.219529 0.219529 0.219529 0.219529 0.219529 0.219529 0.219529 0.219529 0.219529 0.219529 0.219529 0.219529 0.219529 0.219529 0.219529 0.219529 0.219529 0.219529 0.219529 0.219529 0.219529 0.219529 0.219529 0.219529 0.237356 0.237356 0.237356 0.237356 0.237356 0.237356 0.237356 0.237356 0.237356 0.237356 0.237356 0.237356 0.237356 0.237356 0.237356 0.237356 0.237356 0.237356 0.237356 0.237356 0.237356 0.237356 0.237356 0.237356 0.244339 0.244339 0.244339 0.244339 0.244339 0.244339 0.244339 0.244339 0.244339 0.244339 0.244339 0.244339 0.244339 0.244339 0.244339 0.244339 0.244339 0.244339 0.244339 0.244339 0.244339 0.248069 0.248069 0.248069 0.248069 0.248069 0.248069 0.248069 0.248069 0.248069 0.248069 0.248069 0.248069 0.248069 0.248069 0.248069 0.248069 0.248069 0.248069 0.248069 0.248069 0.248069 0.248069 0.248069 0.248069 0.248069 0.248069 0.248069 0.248069 0.248069 0.248069 0.248069 0.248069 0.248069 0.248069 0.248069 0.248069 0.248069 0.256074 0.256074 0.256074 0.256074 0.256074 0.256074 0.256074 0.256074 0.256074 0.256074 0.256074 0.256074 0.256074 0.256074 0.256074 0.256074 0.256074 0.256074 0.256074 0.256074 0.256074 0.256074 0.256074 0.256074 0.256074 0.256074 0.256074 0.256074 0.256074 0.256074 0.256074 0.256074 0.256074 0.256074 0.256074 0.256074 0.256074 0.256074 0.256074 0.256074 0.256074 0.256074 0.256074 0.256074 0.256074 0.260378 0.260378 0.260378 0.260378 0.260378 0.260378 0.260378 0.260378 0.260378 0.260378 0.260378 0.260378 0.260378 0.256074 0.256074 0.256074 0.256074 0.256074 0.256074 0.256074 0.256074 0.256074 0.256074 0.256074 0.256074 0.256074 0.260378 0.260378 0.260378 0.260378 0.260378 0.260378 0.260378 0.260378 0.260378 0.260378 0.260378 0.260378 0.251976 0.251976 0.251976 0.251976 0.251976 0.251976 0.251976 0.251976 0.251976 0.251976 0.251976 0.251976 0.256074 0.256074 0.256074 0.256074 0.256074 0.256074 0.256074 0.256074 0.256074 0.256074 0.256074 0.251976 0.251976 0.251976 0.251976 0.251976 0.251976 0.251976 0.251976 0.251976 0.251976 0.251976 0.248069 0.248069 0.248069 0.248069 0.248069 0.248069 0.248069 0.248069 0.248069 0.248069 0.248069 0.256074 0.256074 0.256074 0.256074 0.256074 0.256074 0.256074 0.256074 0.256074 0.256074 0.256074 0.256074 0.256074 0.256074 0.256074 0.256074 0.256074 0.256074 0.256074
