# Output from CTFFind version 4.1.9, run on 2019-11-02 17:47:04
# Input file: stack16_bm3d_averaged_1_1.5_0_1250_half.mrc ; Number of micrographs: 1
# Pixel size: 3.000 Angstroms ; acceleration voltage: 300.0 keV ; spherical aberration: 0.00 mm ; amplitude contrast: 0.07
# Box size: 512 pixels ; min. res.: 30.0 Angstroms ; max. res.: 5.0 Angstroms ; min. def.: 5000.0 um; max. def. 50000.0 um; num. frames averaged: 1
# 6 lines per micrograph: #1 - spatial frequency (1/Angstroms); #2 - 1D rotational average of spectrum (assuming no astigmatism); #3 - 1D rotational average of spectrum; #4 - CTF fit; #5 - cross-correlation between spectrum and CTF fit; #6 - 2sigma of expected cross correlation of noise
0.000000 0.000651 0.001302 0.001953 0.002604 0.003255 0.003906 0.004557 0.005208 0.005859 0.006510 0.007161 0.007812 0.008464 0.009115 0.009766 0.010417 0.011068 0.011719 0.012370 0.013021 0.013672 0.014323 0.014974 0.015625 0.016276 0.016927 0.017578 0.018229 0.018880 0.019531 0.020182 0.020833 0.021484 0.022135 0.022786 0.023438 0.024089 0.024740 0.025391 0.026042 0.026693 0.027344 0.027995 0.028646 0.029297 0.029948 0.030599 0.031250 0.031901 0.032552 0.033203 0.033854 0.034505 0.035156 0.035807 0.036458 0.037109 0.037760 0.038411 0.039062 0.039714 0.040365 0.041016 0.041667 0.042318 0.042969 0.043620 0.044271 0.044922 0.045573 0.046224 0.046875 0.047526 0.048177 0.048828 0.049479 0.050130 0.050781 0.051432 0.052083 0.052734 0.053385 0.054036 0.054688 0.055339 0.055990 0.056641 0.057292 0.057943 0.058594 0.059245 0.059896 0.060547 0.061198 0.061849 0.062500 0.063151 0.063802 0.064453 0.065104 0.065755 0.066406 0.067057 0.067708 0.068359 0.069010 0.069661 0.070312 0.070964 0.071615 0.072266 0.072917 0.073568 0.074219 0.074870 0.075521 0.076172 0.076823 0.077474 0.078125 0.078776 0.079427 0.080078 0.080729 0.081380 0.082031 0.082682 0.083333 0.083984 0.084635 0.085286 0.085938 0.086589 0.087240 0.087891 0.088542 0.089193 0.089844 0.090495 0.091146 0.091797 0.092448 0.093099 0.093750 0.094401 0.095052 0.095703 0.096354 0.097005 0.097656 0.098307 0.098958 0.099609 0.100260 0.100911 0.101562 0.102214 0.102865 0.103516 0.104167 0.104818 0.105469 0.106120 0.106771 0.107422 0.108073 0.108724 0.109375 0.110026 0.110677 0.111328 0.111979 0.112630 0.113281 0.113932 0.114583 0.115234 0.115885 0.116536 0.117188 0.117839 0.118490 0.119141 0.119792 0.120443 0.121094 0.121745 0.122396 0.123047 0.123698 0.124349 0.125000 0.125651 0.126302 0.126953 0.127604 0.128255 0.128906 0.129557 0.130208 0.130859 0.131510 0.132161 0.132812 0.133464 0.134115 0.134766 0.135417 0.136068 0.136719 0.137370 0.138021 0.138672 0.139323 0.139974 0.140625 0.141276 0.141927 0.142578 0.143229 0.143880 0.144531 0.145182 0.145833 0.146484 0.147135 0.147786 0.148438 0.149089 0.149740 0.150391 0.151042 0.151693 0.152344 0.152995 0.153646 0.154297 0.154948 0.155599 0.156250 0.156901 0.157552 0.158203 0.158854 0.159505 0.160156 0.160807 0.161458 0.162109 0.162760 0.163411 0.164062 0.164714 0.165365 0.166016 0.166667 0.167318 0.167969 0.168620 0.169271 0.169922 0.170573 0.171224 0.171875 0.172526 0.173177 0.173828 0.174479 0.175130 0.175781 0.176432 0.177083 0.177734 0.178385 0.179036 0.179688 0.180339 0.180990 0.181641 0.182292 0.182943 0.183594 0.184245 0.184896 0.185547 0.186198 0.186849 0.187500 0.188151 0.188802 0.189453 0.190104 0.190755 0.191406 0.192057 0.192708 0.193359 0.194010 0.194661 0.195312 0.195964 0.196615 0.197266 0.197917 0.198568 0.199219 0.199870 0.200521 0.201172 0.201823 0.202474 0.203125 0.203776 0.204427 0.205078 0.205729 0.206380 0.207031 0.207682 0.208333 0.208984 0.209635 0.210286 0.210938 0.211589 0.212240 0.212891 0.213542 0.214193 0.214844 0.215495 0.216146 0.216797 0.217448 0.218099 0.218750 0.219401 0.220052 0.220703 0.221354 0.222005 0.222656 0.223307 0.223958 0.224609 0.225260 0.225911 0.226562 0.227214 0.227865 0.228516 0.229167 0.229818 0.230469 0.231120 0.231771 0.232422 0.233073 0.233724 0.234375 0.235026 0.235677
       0.34368        0.34368        0.34368        0.34368        0.34368        0.34368        0.34368        0.34368        0.34368        0.34368        0.34368        0.34368        0.34368        0.34368        0.34368        0.34368        0.34368        0.34368        0.34368        0.34368        0.34368        0.34368        0.34368        0.34368        0.34368        0.34368        0.34368        0.34368        0.34368        0.34368        0.34368        0.34368        0.34368        0.34368        0.34368        0.34368        0.34368        0.34368        0.34368        0.34368        0.34368        0.34368        0.34368        0.34368        0.34368        0.34368        0.34368        0.34368        0.34368        0.34368        0.34368        0.48855        0.70000        0.45700       -0.11122       -0.41130       -0.57053       -0.65961       -0.74222       -0.75917       -0.86933       -0.91444       -0.75852       -0.92524       -0.87164       -1.02512       -1.09809       -0.98838       -0.96025       -0.88362       -0.85432       -0.74822       -0.63972       -0.49861       -0.42162       -0.21895       -0.11601       -0.02369        0.20085        0.24298        0.30879        0.38332        0.43658        0.51355        0.58079        0.60048        0.59104        0.50195        0.54752        0.48515        0.39380        0.32800        0.20538        0.17203        0.09862       -0.05663       -0.11259       -0.08925        0.01391       -0.01651        0.01733        0.02720        0.20512        0.21810        0.39210        0.45761        0.56377        0.70218        0.76408        0.73373        0.70429        0.69847        0.58375        0.54002        0.39842        0.27742        0.19719        0.15120        0.06948        0.02947        0.02372        0.06468        0.08266        0.27672        0.41664        0.50526        0.59002        0.63858        0.70291        0.66000        0.65493        0.67137        0.60759        0.48441        0.28742        0.23870        0.20640        0.12920        0.04342        0.09269        0.11375        0.25203        0.34786        0.41681        0.50359        0.54226        0.65728        0.60489        0.55325        0.51140        0.36378        0.20594        0.21225        0.15653        0.12203        0.12317        0.21523        0.25547        0.35995        0.44262        0.43746        0.55737        0.51115        0.45528        0.45730        0.38128        0.32511        0.27390        0.21286        0.23244        0.21441        0.20889        0.31752        0.45186        0.48749        0.48440        0.55353        0.49870        0.45362        0.39843        0.29718        0.22881        0.23492        0.24180        0.26510        0.27523        0.33067        0.44279        0.50405        0.49257        0.46091        0.41515        0.38913        0.36049        0.25030        0.22556        0.25108        0.29545        0.35765        0.36346        0.39345        0.41370        0.44363        0.37587        0.34866        0.31627        0.31170        0.27002        0.25880        0.30777        0.34842        0.41499        0.41844        0.39429        0.39151        0.40463        0.34773        0.28718        0.29793        0.28624        0.30924        0.35813        0.37188        0.41509        0.35898        0.36337        0.38828        0.34439        0.31206        0.28491        0.29152        0.33850        0.32774        0.32446        0.37226        0.39676        0.33647        0.35406        0.30170        0.30844        0.28606        0.28156        0.30258        0.32997        0.38436        0.36588        0.34737        0.32632        0.28508        0.27608        0.29775        0.28454        0.31632        0.36853        0.39605        0.33609        0.31977        0.31034        0.30175        0.29467        0.27970        0.30610        0.33998        0.33252        0.34498        0.32342        0.35215        0.32592        0.28860        0.31249        0.32294        0.34341        0.34320        0.31983        0.31368        0.30134        0.32935        0.31503        0.33886        0.39228        0.33447        0.36199        0.31662        0.30740        0.29070        0.30934        0.29297        0.31141        0.32098        0.35011        0.36051        0.30659        0.32096        0.31848        0.29894        0.29192        0.29505        0.32459        0.34438        0.35518        0.33518        0.31601        0.26588        0.25814        0.31313        0.35182        0.31804        0.29341        0.28094        0.29325        0.32933        0.31449        0.30582        0.33696        0.33526        0.30973        0.24253        0.28376        0.28909        0.28825        0.33187        0.33104        0.34735        0.34535        0.28618        0.27497        0.29996        0.27444        0.30069        0.27260        0.25317        0.26304        0.26572        0.28497        0.29031        0.28521        0.26473        0.31921        0.32731        0.31617        0.27852        0.28335        0.23565        0.26231        0.24784        0.31387        0.35464        0.22998        0.24751        0.28594        0.24470        0.23503        0.31152        0.24256        0.12942        0.17819        0.21877        0.27501        0.25152        0.14289        0.06412       -0.38681       -0.75700
3.167543 3.127700 3.088115 3.048787 3.009717 2.970905 2.932350 2.894053 2.856014 2.818233 2.780709 2.743443 2.706435 2.669685 2.633192 2.596957 2.560980 2.525260 2.489799 2.454595 2.419648 2.384960 2.350529 2.316356 2.282440 2.248783 2.215383 2.182240 2.149356 2.116729 2.084360 2.052249 2.020395 1.988799 1.957461 1.926381 1.895558 1.864993 1.834686 1.804637 1.774845 1.745311 1.716034 1.687016 1.658255 1.629752 1.601507 1.573519 1.545789 1.518317 1.491102 1.548779 1.732011 1.648104 0.993144 0.708206 0.499176 0.451842 0.343188 0.283972 0.216691 0.033708 0.212249 0.093546 0.002270 -0.049830 -0.192146 -0.145695 -0.081338 -0.086427 -0.086634 0.016950 0.039150 0.238388 0.157065 0.370233 0.451727 0.483110 0.719314 0.705079 0.714391 0.842364 0.825361 0.852611 0.927076 0.901585 0.941934 0.753410 0.838745 0.840327 0.623642 0.607921 0.454133 0.433417 0.374197 0.206578 0.112176 0.092009 0.202014 0.134908 0.192875 0.103183 0.296486 0.276968 0.449668 0.405626 0.575575 0.637176 0.757005 0.692864 0.654018 0.655865 0.519040 0.494648 0.350147 0.284229 0.107342 0.137522 -0.011725 -0.022327 -0.054080 -0.043654 -0.015656 0.020765 0.263005 0.314894 0.372222 0.385633 0.453588 0.480174 0.440185 0.482927 0.373511 0.368943 0.130784 0.045266 0.050332 -0.030819 -0.153409 -0.069256 -0.142614 -0.010412 0.116570 0.135852 0.232115 0.238285 0.358485 0.435914 0.325320 0.365992 0.259229 0.097167 0.021069 0.026552 -0.004842 -0.020465 -0.016910 0.084603 0.102933 0.245724 0.214263 0.279922 0.344714 0.227461 0.234532 0.201887 0.113812 0.069613 0.030999 0.008716 0.026576 -0.029881 0.012467 0.170896 0.213585 0.239635 0.272164 0.242572 0.246833 0.153650 0.118396 -0.012741 -0.006880 0.002658 0.024359 0.018218 0.040615 0.116365 0.203191 0.220923 0.221896 0.131915 0.144983 0.078839 0.058632 -0.062077 -0.016541 0.000353 0.054766 0.066489 0.076204 0.148900 0.090300 0.171813 0.065650 0.050583 0.047927 0.030003 0.002469 0.005143 0.047860 0.087569 0.128421 0.134753 0.067410 0.125704 0.095977 0.009841 0.010004 0.009005 -0.001813 0.049843 0.059201 0.100448 0.094510 0.068504 0.064222 0.077893 0.031015 0.011136 -0.010422 0.003785 0.056620 0.023592 0.033709 0.079150 0.085190 0.057853 0.032573 0.012376 0.011302 -0.008451 -0.012957 0.011968 0.051094 0.106016 0.059238 0.059198 0.034106 -0.013358 -0.003312 0.018198 0.012744 0.027874 0.105692 0.061806 0.015344 0.045822 0.002348 0.029092 -0.004859 -0.003814 0.029214 0.057144 0.036358 0.042498 0.032149 0.056831 0.024493 -0.007335 0.024426 0.040276 0.045550 0.034965 0.028908 -0.004668 -0.010772 0.026339 0.009692 0.048113 0.074778 0.041765 0.027083 0.004299 -0.001876 -0.006878 0.007268 0.002813 0.010664 0.000700 0.078334 0.042701 0.022181 0.035738 0.004141 0.009973 0.001913 -0.005109 0.043747 0.062471 0.078089 0.046651 0.038943 -0.024526 -0.000071 0.027557 0.077752 0.025485 0.031506 -0.006055 0.010432 0.048947 0.049730 0.025394 0.068573 0.056038 0.044228 -0.030918 0.009477 0.043947 0.012703 0.045597 0.067749 0.078193 0.062864 0.011718 0.005814 0.012434 -0.006055 0.026180 -0.030417 -0.023921 -0.028064 -0.036102 -0.005591 -0.008719 0.004918 -0.084816 0.001466 0.001386 -0.008377 -0.057267 -0.006742 -0.109894 -0.043752 -0.054910 0.000892 0.066628 -0.117570 -0.039975 0.032023 -0.008185 -0.060859 0.048041 0.024537 -0.051527 -0.046437 0.032483 0.247844 0.223833 0.091863 0.059637 -0.670113
0.072396 0.073046 0.074994 0.078241 0.082785 0.088625 0.095758 0.104182 0.113893 0.124886 0.137153 0.150687 0.165478 0.181513 0.198776 0.217249 0.236911 0.257735 0.279690 0.302742 0.326849 0.351965 0.378037 0.405003 0.432796 0.461339 0.490548 0.520329 0.550577 0.581180 0.612013 0.642940 0.673816 0.704482 0.734771 0.764501 0.793480 0.821507 0.848368 0.873839 0.897687 0.919673 0.939546 0.957053 0.971935 0.983931 0.992779 0.998220 0.999998 0.997865 0.991583 0.980928 0.965693 0.945691 0.920761 0.890771 0.855620 0.815246 0.769628 0.718789 0.662805 0.601801 0.535963 0.465535 0.390825 0.312206 0.230117 0.145065 0.057625 0.031562 0.121790 0.212295 0.302252 0.390789 0.476989 0.559900 0.638546 0.711936 0.779081 0.839003 0.890753 0.933429 0.966188 0.988269 0.999007 0.997856 0.984399 0.958376 0.919688 0.868422 0.804856 0.729474 0.642970 0.546254 0.440448 0.326886 0.207105 0.082824 0.044064 0.171527 0.297413 0.419493 0.535496 0.643151 0.740234 0.824623 0.894339 0.947611 0.982918 0.999042 0.995118 0.970672 0.925661 0.860496 0.776066 0.673743 0.555380 0.423289 0.280221 0.129310 0.025978 0.181918 0.334614 0.480090 0.614397 0.733725 0.834517 0.913590 0.968242 0.996363 0.996527 0.968080 0.911192 0.826906 0.717143 0.584693 0.433170 0.266934 0.090985 0.089172 0.267691 0.438566 0.595841 0.733818 0.847278 0.931697 0.983444 0.999963 0.979922 0.923322 0.831561 0.707447 0.555151 0.380102 0.188826 0.011276 0.212196 0.405632 0.583327 0.737440 0.860896 0.947743 0.993469 0.995269 0.952248 0.865551 0.738389 0.575983 0.385389 0.175242 0.044613 0.263561 0.470712 0.655456 0.808016 0.919996 0.984878 0.998445 0.959106 0.868080 0.729450 0.550036 0.339133 0.108071 0.130363 0.362597 0.575057 0.754963 0.891128 0.974695 0.999771 0.963898 0.868336 0.718120 0.521881 0.291420 0.041053 0.213235 0.454792 0.667386 0.836326 0.949522 0.998397 0.978623 0.890567 0.739428 0.535034 0.291289 0.025292 0.243802 0.496157 0.712709 0.876642 0.974757 0.998600 0.945288 0.817915 0.625504 0.382477 0.107662 0.177098 0.448644 0.684387 0.864209 0.972257 0.998415 0.939358 0.799059 0.588659 0.325716 0.032832 0.264222 0.538738 0.765475 0.923045 0.996004 0.976479 0.865138 0.671382 0.412699 0.113213 0.198480 0.491987 0.738090 0.911700 0.994501 0.977008 0.859795 0.653719 0.379085 0.063779 0.259461 0.556407 0.794963 0.948713 0.999952 0.941872 0.779618 0.530044 0.220126 0.115804 0.439802 0.714558 0.907759 0.995982 0.967700 0.824951 0.583466 0.271122 0.075102 0.413422 0.702245 0.905343 0.996502 0.963081 0.807954 0.549545 0.219856 0.139332 0.481658 0.762136 0.943145 0.999613 0.922687 0.721331 0.421544 0.063230 0.304968 0.632197 0.872438 0.991097 0.970175 0.811233 0.535640 0.181949 0.199287 0.552641 0.825864 0.977706 0.984331 0.843320 0.574520 0.217548 0.173831 0.539665 0.822994 0.978814 0.981429 0.828958 0.544179 0.171422 0.230085 0.595516 0.864900 0.993105 0.957626 0.762840 0.439858 0.041869 0.364387 0.709750 0.934413 0.998511 0.889453 0.624723 0.249446 0.171028 0.562288 0.854056 0.992907 0.952331 0.738129 0.388036 0.034584 0.451988 0.786235 0.973870 0.978197 0.796805 0.462736 0.038854 0.393695 0.750932 0.962370 0.985208 0.813333 0.479270 0.048480 0.393226 0.756583 0.967033 0.980254 0.791891 0.439235 0.005694 0.450610 0.801918 0.984562 0.958324 0.727117 0.338998 0.123399 0.560166
1.000000 1.000000 1.000000 1.000000 1.000000 1.000000 1.000000 1.000000 1.000000 1.000000 1.000000 1.000000 1.000000 1.000000 1.000000 1.000000 1.000000 1.000000 1.000000 1.000000 1.000000 1.000000 1.000000 1.000000 1.000000 1.000000 1.000000 1.000000 1.000000 1.000000 1.000000 1.000000 1.000000 1.000000 1.000000 1.000000 1.000000 1.000000 1.000000 1.000000 1.000000 1.000000 1.000000 1.000000 1.000000 1.000000 1.000000 1.000000 1.000000 1.000000 1.000000 1.000000 0.940924 0.940924 0.940924 0.940924 0.940924 0.940924 0.940924 0.940924 0.940924 0.940924 0.940924 0.940924 0.940924 0.940924 0.940924 0.940924 0.940924 0.940924 0.940924 0.940924 0.940924 0.940924 0.940924 0.940924 0.940924 0.940924 0.940924 0.940924 0.940924 0.940924 0.940924 0.940924 0.940924 0.922082 0.923571 0.926579 0.927666 0.927626 0.927160 0.926832 0.927040 0.928756 0.931084 0.947741 0.949915 0.950607 0.951918 0.951431 0.954151 0.952890 0.955779 0.964542 0.963427 0.963862 0.964424 0.965953 0.966332 0.966311 0.964878 0.965191 0.964761 0.963870 0.962977 0.962653 0.962351 0.963998 0.964355 0.964297 0.965626 0.965531 0.965223 0.961681 0.960322 0.961650 0.963418 0.962960 0.969066 0.969267 0.977894 0.978644 0.977140 0.977034 0.977142 0.977269 0.968956 0.964090 0.959086 0.947455 0.938926 0.936018 0.938238 0.938978 0.937633 0.932917 0.932065 0.930180 0.926046 0.925345 0.925270 0.926604 0.922011 0.918529 0.901213 0.899976 0.902369 0.902070 0.900004 0.892300 0.888225 0.889671 0.892605 0.895761 0.893136 0.895553 0.890598 0.891630 0.892178 0.894010 0.897195 0.893404 0.891226 0.887283 0.883833 0.878438 0.879490 0.867669 0.870794 0.862666 0.851506 0.843984 0.847037 0.856872 0.865466 0.873579 0.872528 0.873087 0.872228 0.863623 0.864738 0.852287 0.853178 0.858197 0.864135 0.861274 0.858501 0.863561 0.861613 0.863529 0.865865 0.862939 0.861063 0.850970 0.851448 0.853987 0.870392 0.871819 0.860116 0.851990 0.839674 0.846416 0.849906 0.849474 0.851015 0.844007 0.845708 0.837247 0.825416 0.826819 0.832085 0.826132 0.828434 0.828235 0.832845 0.834423 0.833417 0.828749 0.827374 0.832502 0.799750 0.808023 0.810270 0.805513 0.809890 0.802485 0.795292 0.791727 0.789108 0.786160 0.795824 0.794396 0.762343 0.757118 0.764560 0.751260 0.741542 0.738423 0.739900 0.717689 0.703944 0.671976 0.666592 0.652816 0.649116 0.647636 0.627753 0.610923 0.597847 0.586737 0.601383 0.604295 0.585604 0.585913 0.575678 0.570023 0.563001 0.560143 0.555933 0.560980 0.565608 0.533200 0.527576 0.536542 0.508211 0.507662 0.508665 0.498723 0.476349 0.482517 0.479236 0.505188 0.512454 0.473788 0.466298 0.482259 0.500482 0.512099 0.512231 0.496968 0.479066 0.486555 0.465743 0.442070 0.456747 0.467136 0.454225 0.468063 0.462256 0.491146 0.482589 0.463955 0.486032 0.473285 0.467890 0.481407 0.499032 0.498820 0.501551 0.495476 0.448815 0.467774 0.450904 0.387925 0.387239 0.392355 0.379210 0.381208 0.358461 0.357192 0.335287 0.310040 0.311430 0.303017 0.267156 0.226548 0.233341 0.235453 0.204998 0.175250 0.189506 0.144222 0.136375 0.153891 0.157541 0.158762 0.154952 0.179357 0.179357 0.179357 0.179357 0.179357 0.179357 0.179357 0.179357 0.179357 0.179357 0.179357 0.179357 0.179357 0.179357 0.205290 0.205290 0.205290 0.205290 0.205290 0.205290 0.205290 0.205290 0.205290 0.205290 0.205290 0.205290
0.000000 0.000000 0.000000 0.000000 0.000000 0.000000 0.000000 0.000000 0.000000 0.000000 0.000000 0.000000 0.000000 0.000000 0.000000 0.000000 0.000000 0.000000 0.000000 0.000000 0.000000 0.000000 0.000000 0.000000 0.000000 0.000000 0.000000 0.000000 0.000000 0.000000 0.000000 0.000000 0.000000 0.000000 0.000000 0.000000 0.000000 0.000000 0.000000 0.000000 0.000000 0.000000 0.000000 0.000000 0.000000 0.000000 0.000000 0.000000 0.000000 0.000000 0.000000 0.000000 0.209657 0.209657 0.209657 0.209657 0.209657 0.209657 0.209657 0.209657 0.209657 0.209657 0.209657 0.209657 0.209657 0.209657 0.209657 0.209657 0.209657 0.209657 0.209657 0.209657 0.209657 0.209657 0.209657 0.209657 0.209657 0.209657 0.209657 0.209657 0.209657 0.209657 0.209657 0.209657 0.209657 0.244339 0.244339 0.244339 0.244339 0.244339 0.244339 0.244339 0.244339 0.244339 0.244339 0.244339 0.244339 0.244339 0.244339 0.244339 0.244339 0.244339 0.244339 0.244339 0.244339 0.244339 0.244339 0.244339 0.244339 0.244339 0.260378 0.260378 0.260378 0.260378 0.260378 0.260378 0.260378 0.260378 0.260378 0.260378 0.260378 0.260378 0.260378 0.260378 0.260378 0.260378 0.260378 0.260378 0.260378 0.260378 0.269680 0.269680 0.269680 0.269680 0.269680 0.269680 0.269680 0.269680 0.269680 0.269680 0.269680 0.269680 0.269680 0.269680 0.269680 0.269680 0.269680 0.269680 0.269680 0.269680 0.269680 0.269680 0.269680 0.269680 0.269680 0.269680 0.269680 0.269680 0.269680 0.269680 0.269680 0.269680 0.269680 0.280056 0.280056 0.280056 0.280056 0.280056 0.280056 0.280056 0.280056 0.280056 0.280056 0.280056 0.280056 0.280056 0.280056 0.280056 0.280056 0.280056 0.280056 0.280056 0.280056 0.280056 0.280056 0.280056 0.280056 0.280056 0.280056 0.280056 0.274721 0.274721 0.274721 0.274721 0.274721 0.274721 0.274721 0.274721 0.274721 0.274721 0.274721 0.274721 0.274721 0.285714 0.285714 0.285714 0.285714 0.285714 0.285714 0.285714 0.285714 0.285714 0.285714 0.285714 0.280056 0.280056 0.280056 0.280056 0.280056 0.280056 0.280056 0.280056 0.280056 0.280056 0.280056 0.274721 0.274721 0.274721 0.274721 0.274721 0.274721 0.274721 0.274721 0.274721 0.274721 0.274721 0.280056 0.280056 0.280056 0.280056 0.280056 0.280056 0.280056 0.280056 0.280056 0.280056 0.285714 0.285714 0.285714 0.285714 0.285714 0.285714 0.285714 0.285714 0.285714 0.269680 0.269680 0.269680 0.269680 0.269680 0.269680 0.269680 0.269680 0.269680 0.269680 0.274721 0.274721 0.274721 0.274721 0.274721 0.274721 0.274721 0.274721 0.274721 0.285714 0.285714 0.285714 0.285714 0.285714 0.285714 0.285714 0.285714 0.264906 0.264906 0.264906 0.264906 0.264906 0.264906 0.264906 0.264906 0.264906 0.274721 0.274721 0.274721 0.274721 0.274721 0.274721 0.274721 0.274721 0.269680 0.269680 0.269680 0.269680 0.269680 0.269680 0.269680 0.269680 0.269680 0.269680 0.269680 0.269680 0.269680 0.269680 0.269680 0.269680 0.280056 0.280056 0.280056 0.280056 0.280056 0.280056 0.280056 0.260378 0.260378 0.260378 0.260378 0.260378 0.260378 0.260378 0.260378 0.269680 0.269680 0.269680 0.269680 0.269680 0.269680 0.269680 0.264906 0.264906 0.264906 0.264906 0.264906 0.264906 0.264906 0.264906 0.264906 0.264906 0.264906 0.264906 0.264906 0.264906 0.260378 0.260378 0.260378 0.260378 0.260378 0.260378 0.260378 0.260378 0.260378 0.260378 0.260378 0.260378
