# Output from CTFFind version 4.1.9, run on 2019-11-03 20:04:06
# Input file: stack11_bm3d_averaged_1_5.5_0_250_half.mrc ; Number of micrographs: 1
# Pixel size: 3.000 Angstroms ; acceleration voltage: 300.0 keV ; spherical aberration: 0.00 mm ; amplitude contrast: 0.07
# Box size: 512 pixels ; min. res.: 30.0 Angstroms ; max. res.: 5.0 Angstroms ; min. def.: 5000.0 um; max. def. 50000.0 um; num. frames averaged: 1
# 6 lines per micrograph: #1 - spatial frequency (1/Angstroms); #2 - 1D rotational average of spectrum (assuming no astigmatism); #3 - 1D rotational average of spectrum; #4 - CTF fit; #5 - cross-correlation between spectrum and CTF fit; #6 - 2sigma of expected cross correlation of noise
0.000000 0.000651 0.001302 0.001953 0.002604 0.003255 0.003906 0.004557 0.005208 0.005859 0.006510 0.007161 0.007812 0.008464 0.009115 0.009766 0.010417 0.011068 0.011719 0.012370 0.013021 0.013672 0.014323 0.014974 0.015625 0.016276 0.016927 0.017578 0.018229 0.018880 0.019531 0.020182 0.020833 0.021484 0.022135 0.022786 0.023438 0.024089 0.024740 0.025391 0.026042 0.026693 0.027344 0.027995 0.028646 0.029297 0.029948 0.030599 0.031250 0.031901 0.032552 0.033203 0.033854 0.034505 0.035156 0.035807 0.036458 0.037109 0.037760 0.038411 0.039062 0.039714 0.040365 0.041016 0.041667 0.042318 0.042969 0.043620 0.044271 0.044922 0.045573 0.046224 0.046875 0.047526 0.048177 0.048828 0.049479 0.050130 0.050781 0.051432 0.052083 0.052734 0.053385 0.054036 0.054688 0.055339 0.055990 0.056641 0.057292 0.057943 0.058594 0.059245 0.059896 0.060547 0.061198 0.061849 0.062500 0.063151 0.063802 0.064453 0.065104 0.065755 0.066406 0.067057 0.067708 0.068359 0.069010 0.069661 0.070312 0.070964 0.071615 0.072266 0.072917 0.073568 0.074219 0.074870 0.075521 0.076172 0.076823 0.077474 0.078125 0.078776 0.079427 0.080078 0.080729 0.081380 0.082031 0.082682 0.083333 0.083984 0.084635 0.085286 0.085938 0.086589 0.087240 0.087891 0.088542 0.089193 0.089844 0.090495 0.091146 0.091797 0.092448 0.093099 0.093750 0.094401 0.095052 0.095703 0.096354 0.097005 0.097656 0.098307 0.098958 0.099609 0.100260 0.100911 0.101562 0.102214 0.102865 0.103516 0.104167 0.104818 0.105469 0.106120 0.106771 0.107422 0.108073 0.108724 0.109375 0.110026 0.110677 0.111328 0.111979 0.112630 0.113281 0.113932 0.114583 0.115234 0.115885 0.116536 0.117188 0.117839 0.118490 0.119141 0.119792 0.120443 0.121094 0.121745 0.122396 0.123047 0.123698 0.124349 0.125000 0.125651 0.126302 0.126953 0.127604 0.128255 0.128906 0.129557 0.130208 0.130859 0.131510 0.132161 0.132812 0.133464 0.134115 0.134766 0.135417 0.136068 0.136719 0.137370 0.138021 0.138672 0.139323 0.139974 0.140625 0.141276 0.141927 0.142578 0.143229 0.143880 0.144531 0.145182 0.145833 0.146484 0.147135 0.147786 0.148438 0.149089 0.149740 0.150391 0.151042 0.151693 0.152344 0.152995 0.153646 0.154297 0.154948 0.155599 0.156250 0.156901 0.157552 0.158203 0.158854 0.159505 0.160156 0.160807 0.161458 0.162109 0.162760 0.163411 0.164062 0.164714 0.165365 0.166016 0.166667 0.167318 0.167969 0.168620 0.169271 0.169922 0.170573 0.171224 0.171875 0.172526 0.173177 0.173828 0.174479 0.175130 0.175781 0.176432 0.177083 0.177734 0.178385 0.179036 0.179688 0.180339 0.180990 0.181641 0.182292 0.182943 0.183594 0.184245 0.184896 0.185547 0.186198 0.186849 0.187500 0.188151 0.188802 0.189453 0.190104 0.190755 0.191406 0.192057 0.192708 0.193359 0.194010 0.194661 0.195312 0.195964 0.196615 0.197266 0.197917 0.198568 0.199219 0.199870 0.200521 0.201172 0.201823 0.202474 0.203125 0.203776 0.204427 0.205078 0.205729 0.206380 0.207031 0.207682 0.208333 0.208984 0.209635 0.210286 0.210938 0.211589 0.212240 0.212891 0.213542 0.214193 0.214844 0.215495 0.216146 0.216797 0.217448 0.218099 0.218750 0.219401 0.220052 0.220703 0.221354 0.222005 0.222656 0.223307 0.223958 0.224609 0.225260 0.225911 0.226562 0.227214 0.227865 0.228516 0.229167 0.229818 0.230469 0.231120 0.231771 0.232422 0.233073 0.233724 0.234375 0.235026 0.235677
       0.34249        0.34249        0.34249        0.34249        0.34249        0.34249        0.34249        0.34249        0.34249        0.34249        0.34249        0.34249        0.34249        0.34249        0.34249        0.34249        0.34249        0.34249        0.34249        0.34249        0.34249        0.34249        0.34249        0.34249        0.34249        0.34249        0.34249        0.34249        0.34249        0.34249        0.34249        0.34249        0.34249        0.34249        0.34249        0.34249        0.34249        0.34249        0.34249        0.34249        0.34249        0.34249        0.34249        0.34249        0.34249        0.34249        0.34249        0.34249        0.34249        0.34249        0.34249        0.69767        0.85919        0.53718        0.10529       -0.03016       -0.38972       -0.18090       -0.28774       -0.11321       -0.05489       -0.11071       -0.05317       -0.16916       -0.20628       -0.21684       -0.30819       -0.31955       -0.44671       -0.36282       -0.42829       -0.42220       -0.39668       -0.41421       -0.45510       -0.51243       -0.56065       -0.55685       -0.53041       -0.36066       -0.33171       -0.29488       -0.27450       -0.18634       -0.17339        0.05785        0.13803        0.16939        0.26210        0.38130        0.45788        0.52286        0.59762        0.59503        0.58165        0.69894        0.80545        0.70624        0.74296        0.62348        0.56886        0.48377        0.43091        0.51212        0.39624        0.26504        0.11378        0.10636        0.08612       -0.01887        0.03653        0.04695        0.00401        0.02519        0.02501        0.23711        0.27005        0.29603        0.43492        0.45411        0.41423        0.59420        0.62253        0.64327        0.72791        0.67845        0.64842        0.66222        0.56243        0.46454        0.41956        0.30372        0.26313        0.18061        0.13377        0.05260        0.05971        0.06700        0.09671        0.15486        0.24131        0.29350        0.41703        0.46387        0.48266        0.57200        0.60678        0.63858        0.61780        0.56134        0.46042        0.47315        0.37939        0.27257        0.20978        0.15762        0.16853        0.15061        0.15316        0.18123        0.31641        0.32933        0.40036        0.44183        0.42813        0.48551        0.56215        0.55485        0.50080        0.45707        0.41151        0.36650        0.33743        0.30400        0.25676        0.24481        0.24683        0.25228        0.22342        0.30766        0.36406        0.38572        0.44015        0.45578        0.46984        0.42616        0.40839        0.40189        0.36210        0.32870        0.27369        0.27465        0.26616        0.23880        0.28977        0.28701        0.34829        0.38021        0.42843        0.47728        0.41090        0.42485        0.43343        0.41076        0.34867        0.32591        0.29394        0.32122        0.27227        0.31899        0.31130        0.32819        0.33741        0.36155        0.31746        0.39331        0.41561        0.38092        0.34937        0.37114        0.31599        0.29377        0.30343        0.32002        0.30699        0.31905        0.34064        0.35212        0.34032        0.36675        0.36633        0.41556        0.38645        0.33725        0.34480        0.29823        0.28957        0.32510        0.31924        0.32890        0.34040        0.33816        0.38330        0.33035        0.33099        0.33616        0.34353        0.30289        0.31229        0.28015        0.30275        0.32796        0.30542        0.32826        0.35400        0.36292        0.29510        0.33503        0.29631        0.29964        0.27953        0.24622        0.30341        0.30358        0.34278        0.33770        0.34034        0.32574        0.34827        0.31357        0.34588        0.31233        0.31936        0.28606        0.33214        0.32210        0.36453        0.32664        0.33482        0.34037        0.29331        0.27533        0.31008        0.24961        0.22823        0.33961        0.32211        0.36251        0.34509        0.35979        0.32950        0.33592        0.34672        0.26403        0.25895        0.31558        0.30039        0.31123        0.32055        0.34094        0.33331        0.29470        0.29139        0.34330        0.32081        0.31321        0.28990        0.32196        0.34178        0.39623        0.35606        0.31558        0.28102        0.30431        0.28774        0.29874        0.27193        0.26201        0.31171        0.32982        0.34390        0.35316        0.32791        0.28905        0.29989        0.26836        0.27460        0.25443        0.31359        0.26951        0.24061        0.30296        0.29716        0.26482        0.29520        0.21421        0.21557        0.24911        0.19166        0.26664        0.34121        0.25064        0.23457        0.31540        0.30945        0.31980        0.31589        0.26319        0.24546        0.18764        0.21043        0.19412        0.25390        0.23093        0.27425        0.34908        0.34003        0.24474        0.15562        0.08064       -0.01249       -0.11164       -0.63338
2.775642 2.746215 2.716948 2.687842 2.658895 2.630110 2.601484 2.573019 2.544714 2.516570 2.488585 2.460761 2.433098 2.405594 2.378251 2.351069 2.324046 2.297184 2.270483 2.243941 2.217560 2.191339 2.165278 2.139378 2.113638 2.088059 2.062640 2.037381 2.012282 1.987343 1.962565 1.937948 1.913490 1.889193 1.865056 1.841080 1.817264 1.793608 1.770112 1.746777 1.723602 1.700587 1.677733 1.655039 1.632506 1.610132 1.587919 1.565866 1.543974 1.522242 1.500670 1.717678 2.140015 1.699277 1.185526 1.049719 0.451808 0.849176 0.564202 0.848457 0.813458 0.820196 0.759246 0.752445 0.597363 0.559430 0.501870 0.431322 0.247931 0.369232 0.202838 0.331565 0.222631 0.207439 0.181354 0.040796 0.009537 0.018080 -0.068541 0.133192 0.231908 0.189964 0.177805 0.329515 0.185447 0.518837 0.623616 0.627914 0.644418 0.877255 0.834910 0.944230 0.933451 1.031565 0.997343 1.084445 1.168968 1.046465 1.161065 0.911892 0.929843 0.795097 0.653603 0.805259 0.698238 0.490451 0.332489 0.250769 0.265242 0.148206 0.131633 0.163035 0.106555 0.124024 0.078546 0.251896 0.354814 0.341998 0.477418 0.547179 0.419718 0.590613 0.727788 0.659812 0.724069 0.711845 0.719355 0.652187 0.598090 0.499008 0.372790 0.277291 0.221312 0.087405 0.116750 -0.106577 -0.048450 -0.064292 -0.079559 -0.021768 0.131882 0.068720 0.241483 0.306232 0.336795 0.383548 0.501123 0.461923 0.487983 0.494478 0.307508 0.294326 0.287789 0.088082 0.046338 -0.074762 -0.012892 -0.061669 -0.094206 -0.078544 0.038070 0.090843 0.121762 0.218744 0.226709 0.228186 0.278255 0.442160 0.394468 0.258660 0.234687 0.221337 0.144112 0.143793 0.114732 -0.003498 0.016143 0.071234 -0.009361 0.049862 0.136122 0.137381 0.219272 0.238544 0.255342 0.180540 0.204727 0.126848 0.138860 0.108560 0.031632 -0.025052 0.001046 -0.018677 -0.055133 0.052572 0.006420 0.107589 0.139695 0.189285 0.172950 0.128808 0.142724 0.164455 0.114641 0.040735 -0.019201 0.036299 0.022382 -0.036336 0.033027 0.024797 0.048056 0.040565 0.053121 0.043728 0.140664 0.129713 0.048433 0.043259 0.047702 0.007933 -0.029576 0.011450 0.010631 0.000093 0.009466 0.050606 0.054697 0.051431 0.072822 0.059439 0.155517 0.063281 0.037784 0.041940 -0.033584 0.010166 0.046737 0.007427 0.036093 0.056937 0.081560 0.029226 0.047803 0.012735 0.076275 0.022069 0.021881 0.023811 -0.007215 0.036661 0.025006 0.019197 0.070796 0.071848 0.068940 0.039107 0.046706 0.030765 0.021760 -0.018788 -0.022242 0.035902 0.053286 0.083808 0.085404 0.060489 0.069753 0.103533 0.048579 0.098603 0.069704 0.039175 0.022813 0.100051 0.061593 0.113536 0.085648 0.051627 0.114327 0.042046 0.008236 0.087215 -0.033695 -0.018246 0.103082 0.049621 0.157937 0.096599 0.090996 0.051872 0.064443 0.091433 -0.022197 -0.028939 0.054860 0.043435 0.039867 0.033871 0.104043 0.047511 -0.004778 0.055095 0.047674 0.051960 0.055533 -0.015224 0.065049 0.061770 0.124453 0.056316 0.024304 -0.026476 -0.012792 -0.008773 -0.001180 -0.052505 -0.031750 0.002225 0.028636 0.023802 0.044652 0.002418 -0.040279 -0.035301 -0.022984 -0.070510 -0.055473 -0.018947 -0.091830 -0.072361 -0.007602 -0.048796 -0.076036 -0.000876 -0.139319 -0.088904 -0.097017 -0.186038 -0.057818 0.059357 -0.060757 -0.156778 0.032274 0.026187 -0.049923 0.038124 -0.082565 0.269759 0.159404 0.215908 0.263859 0.310135 0.252463 0.311295 0.335970 0.393983 0.226455 0.282291 0.095390 -0.018202 -0.698507
0.072396 0.072899 0.074408 0.076921 0.080440 0.084962 0.090487 0.097013 0.104538 0.113059 0.122572 0.133074 0.144558 0.157020 0.170450 0.184839 0.200177 0.216451 0.233646 0.251744 0.270725 0.290567 0.311243 0.332724 0.354976 0.377963 0.401643 0.425970 0.450893 0.476356 0.502298 0.528652 0.555345 0.582297 0.609424 0.636634 0.663827 0.690899 0.717738 0.744225 0.770233 0.795631 0.820279 0.844031 0.866737 0.888240 0.908375 0.926978 0.943876 0.958896 0.971860 0.982591 0.990910 0.996641 0.999607 0.999638 0.996567 0.990235 0.980492 0.967197 0.950224 0.929459 0.904806 0.876189 0.843551 0.806860 0.766109 0.721318 0.672539 0.619854 0.563380 0.503268 0.439708 0.372927 0.303194 0.230814 0.156136 0.079548 0.001478 0.077605 0.157199 0.236763 0.315725 0.393482 0.469408 0.542855 0.613160 0.679649 0.741646 0.798481 0.849492 0.894041 0.931515 0.961343 0.982997 0.996009 0.999976 0.994571 0.979553 0.954774 0.920187 0.875858 0.821966 0.758814 0.686829 0.606568 0.518714 0.424082 0.323609 0.218353 0.109483 0.001729 0.113921 0.225658 0.335443 0.441743 0.543008 0.637691 0.724279 0.801313 0.867421 0.921339 0.961946 0.988284 0.999589 0.995312 0.975145 0.939033 0.887196 0.820136 0.738643 0.643801 0.536974 0.419803 0.294184 0.162248 0.026322 0.111095 0.247390 0.379868 0.505818 0.622564 0.727525 0.818279 0.892618 0.948618 0.984686 0.999622 0.992658 0.963503 0.912369 0.839990 0.747631 0.637078 0.510621 0.371017 0.221441 0.065425 0.093220 0.250496 0.402309 0.544582 0.673367 0.784955 0.875999 0.943617 0.985498 0.999997 0.986203 0.944006 0.874129 0.778142 0.658448 0.518248 0.361464 0.192654 0.016885 0.160407 0.333581 0.496971 0.645073 0.772736 0.875356 0.949051 0.990829 0.998724 0.971910 0.910769 0.816926 0.693237 0.543727 0.373487 0.188515 0.004473 0.198283 0.385497 0.558763 0.711093 0.836145 0.928514 0.983982 0.999736 0.974533 0.908809 0.804720 0.666109 0.498395 0.308395 0.104067 0.105804 0.311974 0.505140 0.676373 0.817537 0.921693 0.983472 0.999379 0.968021 0.890246 0.769170 0.610104 0.420350 0.208913 0.013912 0.237021 0.449041 0.638920 0.796512 0.913140 0.982108 0.999119 0.962579 0.873775 0.736885 0.558836 0.349001 0.118738 0.119192 0.351318 0.564222 0.745318 0.883620 0.970447 1.000000 0.969802 0.880946 0.738125 0.549451 0.326047 0.081434 0.169261 0.410218 0.625922 0.802184 0.927093 0.991874 0.991551 0.925384 0.797039 0.614455 0.389424 0.136880 0.126059 0.381213 0.610611 0.797753 0.928852 0.993874 0.987385 0.909061 0.763846 0.561725 0.317111 0.047864 0.225956 0.483578 0.705099 0.873036 0.973767 0.998685 0.945018 0.816191 0.621701 0.376514 0.099971 0.185678 0.457043 0.691516 0.869164 0.974491 0.997850 0.936411 0.794572 0.583745 0.321544 0.030369 0.264432 0.536782 0.762149 0.919829 0.994891 0.979686 0.874714 0.688774 0.438326 0.146142 0.160708 0.453326 0.703696 0.887407 0.986088 0.989343 0.895942 0.714152 0.461131 0.161406 0.155413 0.457528 0.714138 0.898605 0.991297 0.981781 0.870100 0.667009 0.393061 0.076647 0.248881 0.548672 0.790142 0.946531 0.999993 0.943725 0.782967 0.534670 0.225841 0.109297 0.433025 0.708367 0.903355 0.994811 0.971230 0.834363 0.599272 0.292849 0.049172 0.386281 0.677980 0.888669 0.992081 0.974681 0.837581 0.596703 0.281081 0.070493 0.414171 0.706487 0.909890 0.997671 0.957600 0.793797 0.526512 0.189794 0.172725
1.000000 1.000000 1.000000 1.000000 1.000000 1.000000 1.000000 1.000000 1.000000 1.000000 1.000000 1.000000 1.000000 1.000000 1.000000 1.000000 1.000000 1.000000 1.000000 1.000000 1.000000 1.000000 1.000000 1.000000 1.000000 1.000000 1.000000 1.000000 1.000000 1.000000 1.000000 1.000000 1.000000 1.000000 1.000000 1.000000 1.000000 1.000000 1.000000 1.000000 1.000000 1.000000 1.000000 1.000000 1.000000 1.000000 1.000000 1.000000 1.000000 1.000000 1.000000 1.000000 0.919080 0.919080 0.919080 0.912550 0.912550 0.912550 0.912550 0.912550 0.912550 0.912550 0.912550 0.912550 0.912550 0.912550 0.912550 0.912550 0.912550 0.912550 0.912550 0.912550 0.912550 0.912550 0.912550 0.912550 0.912550 0.912550 0.912550 0.912550 0.912550 0.912550 0.912550 0.912550 0.912550 0.912550 0.912550 0.912550 0.912550 0.912550 0.912550 0.912550 0.912550 0.912550 0.912550 0.912550 0.941515 0.942925 0.951179 0.950754 0.950167 0.948153 0.946945 0.946603 0.946510 0.946846 0.947556 0.948520 0.954743 0.955978 0.960382 0.962062 0.962242 0.963974 0.964677 0.964298 0.955820 0.955597 0.954198 0.953657 0.956183 0.955277 0.954527 0.955499 0.955399 0.955770 0.955756 0.955095 0.954048 0.952987 0.952074 0.951675 0.951478 0.952200 0.952611 0.954059 0.957317 0.957910 0.958046 0.956434 0.955242 0.956517 0.955705 0.955066 0.943213 0.942772 0.941478 0.941518 0.944608 0.944662 0.945249 0.945866 0.947634 0.948000 0.944888 0.944435 0.937183 0.934811 0.932601 0.927358 0.922737 0.924479 0.926148 0.926632 0.926844 0.921616 0.921623 0.919815 0.915787 0.918275 0.918619 0.919912 0.921250 0.917918 0.917015 0.915901 0.914286 0.906345 0.893969 0.892854 0.889928 0.894771 0.895113 0.893929 0.896749 0.885547 0.869882 0.842129 0.844505 0.847862 0.838196 0.833810 0.833910 0.834635 0.838767 0.831891 0.830017 0.824829 0.813543 0.807446 0.800216 0.790536 0.790725 0.782608 0.772834 0.768765 0.792956 0.786792 0.797316 0.801544 0.800868 0.798074 0.791115 0.782342 0.780193 0.763108 0.761904 0.742214 0.735528 0.735589 0.732770 0.721746 0.726460 0.713237 0.713360 0.699853 0.704948 0.709872 0.713612 0.710267 0.704481 0.695653 0.689442 0.700801 0.715190 0.708707 0.703211 0.698596 0.687266 0.682802 0.676688 0.681054 0.677168 0.651971 0.664814 0.688991 0.658036 0.647162 0.655582 0.661159 0.650142 0.652681 0.633047 0.625769 0.605793 0.623041 0.628839 0.646244 0.641426 0.643929 0.655629 0.660746 0.671849 0.672605 0.674121 0.636765 0.638693 0.659739 0.666593 0.650844 0.638861 0.655534 0.654188 0.688122 0.677951 0.637835 0.633690 0.630250 0.592590 0.574369 0.573048 0.577990 0.605887 0.601002 0.580298 0.553882 0.557278 0.563299 0.567412 0.566868 0.549999 0.557243 0.544474 0.521270 0.531496 0.539069 0.537449 0.522753 0.510940 0.525780 0.500175 0.539332 0.508609 0.483331 0.501427 0.497669 0.486262 0.413547 0.430914 0.419152 0.409965 0.362024 0.372199 0.380089 0.365675 0.291021 0.280337 0.281324 0.279914 0.262247 0.244231 0.233050 0.218816 0.199632 0.142932 0.116078 0.117084 0.118154 0.137665 0.097374 0.144209 0.204919 0.207753 0.207753 0.207753 0.207753 0.207753 0.207753 0.207753 0.207753 0.181849 0.181849 0.181849 0.181849 0.181849 0.181849 0.181849 0.181849 0.181849 0.207753 0.207753 0.207753 0.207753 0.207753 0.207753 0.207753 0.207753 0.207753 0.207753 0.207753 0.207753 0.207753 0.207753
0.000000 0.000000 0.000000 0.000000 0.000000 0.000000 0.000000 0.000000 0.000000 0.000000 0.000000 0.000000 0.000000 0.000000 0.000000 0.000000 0.000000 0.000000 0.000000 0.000000 0.000000 0.000000 0.000000 0.000000 0.000000 0.000000 0.000000 0.000000 0.000000 0.000000 0.000000 0.000000 0.000000 0.000000 0.000000 0.000000 0.000000 0.000000 0.000000 0.000000 0.000000 0.000000 0.000000 0.000000 0.000000 0.000000 0.000000 0.000000 0.000000 0.000000 0.000000 0.000000 0.180334 0.180334 0.180334 0.199007 0.199007 0.199007 0.199007 0.199007 0.199007 0.199007 0.199007 0.199007 0.199007 0.199007 0.199007 0.199007 0.199007 0.199007 0.199007 0.199007 0.199007 0.199007 0.199007 0.199007 0.199007 0.199007 0.199007 0.199007 0.199007 0.199007 0.199007 0.199007 0.199007 0.199007 0.199007 0.199007 0.199007 0.199007 0.199007 0.199007 0.199007 0.199007 0.199007 0.199007 0.225018 0.225018 0.225018 0.225018 0.225018 0.225018 0.225018 0.225018 0.225018 0.225018 0.225018 0.225018 0.225018 0.225018 0.225018 0.225018 0.225018 0.225018 0.225018 0.225018 0.225018 0.225018 0.225018 0.225018 0.225018 0.225018 0.225018 0.225018 0.225018 0.244339 0.244339 0.244339 0.244339 0.244339 0.244339 0.244339 0.244339 0.244339 0.244339 0.244339 0.244339 0.244339 0.244339 0.244339 0.244339 0.244339 0.244339 0.244339 0.244339 0.244339 0.244339 0.244339 0.251976 0.251976 0.251976 0.251976 0.251976 0.251976 0.251976 0.251976 0.251976 0.251976 0.251976 0.251976 0.251976 0.251976 0.251976 0.251976 0.251976 0.251976 0.251976 0.251976 0.264906 0.264906 0.264906 0.264906 0.264906 0.264906 0.264906 0.264906 0.264906 0.264906 0.264906 0.264906 0.264906 0.264906 0.264906 0.264906 0.264906 0.264906 0.264906 0.264906 0.264906 0.264906 0.264906 0.264906 0.264906 0.264906 0.264906 0.264906 0.264906 0.264906 0.264906 0.264906 0.264906 0.264906 0.264906 0.264906 0.264906 0.264906 0.264906 0.264906 0.264906 0.264906 0.264906 0.264906 0.264906 0.264906 0.264906 0.264906 0.264906 0.264906 0.264906 0.264906 0.264906 0.264906 0.264906 0.264906 0.264906 0.264906 0.264906 0.264906 0.264906 0.264906 0.264906 0.264906 0.264906 0.264906 0.264906 0.264906 0.264906 0.264906 0.264906 0.264906 0.264906 0.264906 0.264906 0.260378 0.260378 0.260378 0.260378 0.260378 0.260378 0.260378 0.260378 0.260378 0.260378 0.260378 0.260378 0.260378 0.264906 0.264906 0.264906 0.264906 0.264906 0.264906 0.264906 0.264906 0.264906 0.264906 0.264906 0.264906 0.269680 0.269680 0.269680 0.269680 0.269680 0.269680 0.269680 0.269680 0.269680 0.269680 0.269680 0.264906 0.264906 0.264906 0.264906 0.264906 0.264906 0.264906 0.264906 0.264906 0.264906 0.264906 0.256074 0.256074 0.256074 0.256074 0.256074 0.256074 0.256074 0.256074 0.256074 0.256074 0.256074 0.264906 0.264906 0.264906 0.264906 0.264906 0.264906 0.264906 0.264906 0.264906 0.264906 0.260378 0.260378 0.260378 0.260378 0.260378 0.260378 0.260378 0.260378 0.260378 0.260378 0.264906 0.264906 0.264906 0.264906 0.264906 0.264906 0.264906 0.264906 0.264906 0.251976 0.251976 0.251976 0.251976 0.251976 0.251976 0.251976 0.251976 0.251976 0.251976 0.256074 0.256074 0.256074 0.256074 0.256074 0.256074 0.256074 0.256074 0.256074 0.251976 0.251976 0.251976 0.251976 0.251976 0.251976 0.251976 0.251976 0.251976 0.251976 0.251976 0.251976 0.251976 0.251976
