# Output from CTFFind version 4.1.9, run on 2019-11-03 20:09:47
# Input file: stack11_bm3d_averaged_1_7.5_0_2500_half.mrc ; Number of micrographs: 1
# Pixel size: 3.000 Angstroms ; acceleration voltage: 300.0 keV ; spherical aberration: 0.00 mm ; amplitude contrast: 0.07
# Box size: 512 pixels ; min. res.: 30.0 Angstroms ; max. res.: 5.0 Angstroms ; min. def.: 5000.0 um; max. def. 50000.0 um; num. frames averaged: 1
# 6 lines per micrograph: #1 - spatial frequency (1/Angstroms); #2 - 1D rotational average of spectrum (assuming no astigmatism); #3 - 1D rotational average of spectrum; #4 - CTF fit; #5 - cross-correlation between spectrum and CTF fit; #6 - 2sigma of expected cross correlation of noise
0.000000 0.000651 0.001302 0.001953 0.002604 0.003255 0.003906 0.004557 0.005208 0.005859 0.006510 0.007161 0.007812 0.008464 0.009115 0.009766 0.010417 0.011068 0.011719 0.012370 0.013021 0.013672 0.014323 0.014974 0.015625 0.016276 0.016927 0.017578 0.018229 0.018880 0.019531 0.020182 0.020833 0.021484 0.022135 0.022786 0.023438 0.024089 0.024740 0.025391 0.026042 0.026693 0.027344 0.027995 0.028646 0.029297 0.029948 0.030599 0.031250 0.031901 0.032552 0.033203 0.033854 0.034505 0.035156 0.035807 0.036458 0.037109 0.037760 0.038411 0.039062 0.039714 0.040365 0.041016 0.041667 0.042318 0.042969 0.043620 0.044271 0.044922 0.045573 0.046224 0.046875 0.047526 0.048177 0.048828 0.049479 0.050130 0.050781 0.051432 0.052083 0.052734 0.053385 0.054036 0.054688 0.055339 0.055990 0.056641 0.057292 0.057943 0.058594 0.059245 0.059896 0.060547 0.061198 0.061849 0.062500 0.063151 0.063802 0.064453 0.065104 0.065755 0.066406 0.067057 0.067708 0.068359 0.069010 0.069661 0.070312 0.070964 0.071615 0.072266 0.072917 0.073568 0.074219 0.074870 0.075521 0.076172 0.076823 0.077474 0.078125 0.078776 0.079427 0.080078 0.080729 0.081380 0.082031 0.082682 0.083333 0.083984 0.084635 0.085286 0.085938 0.086589 0.087240 0.087891 0.088542 0.089193 0.089844 0.090495 0.091146 0.091797 0.092448 0.093099 0.093750 0.094401 0.095052 0.095703 0.096354 0.097005 0.097656 0.098307 0.098958 0.099609 0.100260 0.100911 0.101562 0.102214 0.102865 0.103516 0.104167 0.104818 0.105469 0.106120 0.106771 0.107422 0.108073 0.108724 0.109375 0.110026 0.110677 0.111328 0.111979 0.112630 0.113281 0.113932 0.114583 0.115234 0.115885 0.116536 0.117188 0.117839 0.118490 0.119141 0.119792 0.120443 0.121094 0.121745 0.122396 0.123047 0.123698 0.124349 0.125000 0.125651 0.126302 0.126953 0.127604 0.128255 0.128906 0.129557 0.130208 0.130859 0.131510 0.132161 0.132812 0.133464 0.134115 0.134766 0.135417 0.136068 0.136719 0.137370 0.138021 0.138672 0.139323 0.139974 0.140625 0.141276 0.141927 0.142578 0.143229 0.143880 0.144531 0.145182 0.145833 0.146484 0.147135 0.147786 0.148438 0.149089 0.149740 0.150391 0.151042 0.151693 0.152344 0.152995 0.153646 0.154297 0.154948 0.155599 0.156250 0.156901 0.157552 0.158203 0.158854 0.159505 0.160156 0.160807 0.161458 0.162109 0.162760 0.163411 0.164062 0.164714 0.165365 0.166016 0.166667 0.167318 0.167969 0.168620 0.169271 0.169922 0.170573 0.171224 0.171875 0.172526 0.173177 0.173828 0.174479 0.175130 0.175781 0.176432 0.177083 0.177734 0.178385 0.179036 0.179688 0.180339 0.180990 0.181641 0.182292 0.182943 0.183594 0.184245 0.184896 0.185547 0.186198 0.186849 0.187500 0.188151 0.188802 0.189453 0.190104 0.190755 0.191406 0.192057 0.192708 0.193359 0.194010 0.194661 0.195312 0.195964 0.196615 0.197266 0.197917 0.198568 0.199219 0.199870 0.200521 0.201172 0.201823 0.202474 0.203125 0.203776 0.204427 0.205078 0.205729 0.206380 0.207031 0.207682 0.208333 0.208984 0.209635 0.210286 0.210938 0.211589 0.212240 0.212891 0.213542 0.214193 0.214844 0.215495 0.216146 0.216797 0.217448 0.218099 0.218750 0.219401 0.220052 0.220703 0.221354 0.222005 0.222656 0.223307 0.223958 0.224609 0.225260 0.225911 0.226562 0.227214 0.227865 0.228516 0.229167 0.229818 0.230469 0.231120 0.231771 0.232422 0.233073 0.233724 0.234375 0.235026 0.235677
       0.34616        0.34616        0.34616        0.34616        0.34616        0.34616        0.34616        0.34616        0.34616        0.34616        0.34616        0.34616        0.34616        0.34616        0.34616        0.34616        0.34616        0.34616        0.34616        0.34616        0.34616        0.34616        0.34616        0.34616        0.34616        0.34616        0.34616        0.34616        0.34616        0.34616        0.34616        0.34616        0.34616        0.34616        0.34616        0.34616        0.34616        0.34616        0.34616        0.34616        0.34616        0.34616        0.34616        0.34616        0.34616        0.34616        0.34616        0.34616        0.34616        0.34616        0.34616        0.69963        0.85728        0.53865        0.10550       -0.02876       -0.38354       -0.17938       -0.28825       -0.11677       -0.05466       -0.11309       -0.05327       -0.16467       -0.20467       -0.21240       -0.30596       -0.31729       -0.44224       -0.36140       -0.42423       -0.41949       -0.39190       -0.40360       -0.44341       -0.50480       -0.55722       -0.54673       -0.52064       -0.35442       -0.32313       -0.28872       -0.26877       -0.18466       -0.16810        0.06283        0.14442        0.17808        0.26811        0.38158        0.45820        0.52361        0.60257        0.59972        0.58566        0.70121        0.80248        0.70204        0.74492        0.61828        0.56860        0.48395        0.43394        0.51284        0.39900        0.27502        0.11866        0.11639        0.09719       -0.01049        0.04889        0.05534        0.01505        0.02895        0.03400        0.23674        0.27224        0.29691        0.43628        0.45423        0.41546        0.60242        0.61717        0.63277        0.72285        0.67512        0.64741        0.65472        0.55990        0.45972        0.41929        0.30517        0.27351        0.18722        0.13801        0.05276        0.06898        0.07991        0.10175        0.16293        0.24814        0.30151        0.42589        0.46649        0.48162        0.56257        0.60117        0.63655        0.61391        0.55724        0.46342        0.47374        0.37899        0.28007        0.21404        0.15643        0.17498        0.15494        0.16509        0.19505        0.32620        0.34101        0.41077        0.44903        0.42512        0.47892        0.56410        0.55653        0.50498        0.45791        0.41535        0.37589        0.34466        0.31239        0.26825        0.24836        0.25902        0.25893        0.22787        0.31215        0.36637        0.38500        0.43953        0.45624        0.46725        0.42923        0.41449        0.40266        0.36443        0.34164        0.27583        0.28465        0.27095        0.25062        0.29865        0.29620        0.35436        0.38529        0.43813        0.47684        0.40663        0.42252        0.43294        0.41312        0.35187        0.33127        0.29323        0.32908        0.27822        0.32625        0.31790        0.33601        0.34408        0.36675        0.31250        0.38742        0.41186        0.38172        0.35359        0.36999        0.32081        0.29718        0.31045        0.32023        0.30914        0.32145        0.34783        0.36025        0.34204        0.36411        0.36269        0.42677        0.39285        0.34188        0.35104        0.30121        0.29669        0.32819        0.32148        0.33206        0.34529        0.34588        0.38988        0.33196        0.33094        0.33984        0.35176        0.30565        0.31370        0.28400        0.30385        0.33378        0.30466        0.33416        0.36107        0.37421        0.30138        0.34668        0.30145        0.29196        0.28026        0.24853        0.31036        0.30960        0.34370        0.34097        0.34739        0.32945        0.35067        0.31692        0.34681        0.30540        0.32814        0.29590        0.33899        0.33522        0.37687        0.33449        0.33786        0.33709        0.29401        0.27783        0.31495        0.25279        0.23169        0.34130        0.32512        0.36982        0.34843        0.36544        0.33847        0.33449        0.35416        0.26790        0.27304        0.32132        0.30216        0.31183        0.31334        0.33982        0.32927        0.28898        0.29277        0.34665        0.32357        0.32526        0.30300        0.32151        0.33739        0.39176        0.36635        0.32280        0.28463        0.30381        0.29111        0.31117        0.28182        0.27458        0.31320        0.32926        0.34695        0.35724        0.33436        0.29846        0.30244        0.27303        0.28119        0.25824        0.30625        0.25928        0.25157        0.28621        0.28126        0.26261        0.29334        0.22219        0.21867        0.23694        0.19527        0.27661        0.35118        0.25500        0.24880        0.32038        0.30006        0.30704        0.31470        0.27695        0.25447        0.19692        0.21150        0.21331        0.29155        0.23767        0.28601        0.36822        0.37798        0.26082        0.18851        0.14114       -0.01825       -0.14272       -0.62725
2.730263 2.701278 2.672450 2.643781 2.615269 2.586915 2.558719 2.530681 2.502801 2.475079 2.447514 2.420108 2.392859 2.365768 2.338835 2.312059 2.285442 2.258982 2.232681 2.206537 2.180551 2.154723 2.129053 2.103540 2.078186 2.052989 2.027950 2.003069 1.978346 1.953781 1.929373 1.905124 1.881032 1.857098 1.833322 1.809704 1.786244 1.762942 1.739797 1.716810 1.693982 1.671311 1.648798 1.626442 1.604245 1.582205 1.560324 1.538600 1.517034 1.495626 1.474375 1.686371 2.101150 1.668741 1.159655 1.025927 0.443297 0.827419 0.545107 0.821527 0.794624 0.796197 0.736382 0.737096 0.581320 0.546245 0.488070 0.414883 0.243009 0.352872 0.192815 0.321197 0.211557 0.205832 0.181038 0.040732 -0.000407 0.018244 -0.068501 0.129540 0.227215 0.183660 0.175325 0.314444 0.178509 0.508907 0.609579 0.620622 0.637026 0.854491 0.814863 0.920024 0.918865 1.012151 0.983877 1.062953 1.142639 1.017607 1.139421 0.886850 0.906264 0.777007 0.638026 0.790144 0.676991 0.486880 0.325636 0.245329 0.264436 0.145749 0.136261 0.162936 0.107139 0.114305 0.081987 0.240932 0.339870 0.331994 0.465134 0.530662 0.405541 0.580367 0.714184 0.624745 0.700520 0.691218 0.700690 0.627787 0.580214 0.475005 0.356281 0.270243 0.213875 0.091420 0.113141 -0.116696 -0.048073 -0.061568 -0.083040 -0.016567 0.124898 0.070542 0.237485 0.299690 0.327737 0.360824 0.481081 0.451255 0.465668 0.475857 0.296397 0.285171 0.278784 0.083689 0.044797 -0.081421 -0.016416 -0.061655 -0.095001 -0.065760 0.039902 0.092969 0.124157 0.221577 0.215898 0.212087 0.306053 0.332271 0.435193 0.248730 0.225717 0.221997 0.139640 0.142343 0.117203 -0.004467 0.014138 0.077079 -0.011009 0.042864 0.130143 0.131520 0.206230 0.226708 0.245004 0.161613 0.205944 0.125703 0.119629 0.113487 0.024909 -0.025669 -0.001627 -0.019881 -0.049919 0.054578 0.003365 0.103995 0.134466 0.189911 0.157265 0.112047 0.135667 0.153914 0.106221 0.033676 -0.025826 0.025470 0.029491 -0.044379 0.038422 0.018489 0.046738 0.038443 0.053208 0.018475 0.127888 0.112427 0.044308 0.035015 0.039902 0.004069 -0.029862 0.007486 0.002169 -0.005531 0.001380 0.057782 0.052073 0.036786 0.069625 0.060418 0.162475 0.062907 0.041869 0.043117 -0.033897 0.012894 0.047205 0.008248 0.031951 0.055505 0.076638 0.057762 0.041306 0.008232 0.078640 0.029161 0.020018 0.025326 -0.004681 0.031252 0.027449 0.020757 0.069255 0.074465 0.079702 0.042235 0.053950 0.021219 0.017783 -0.026481 -0.023112 0.037924 0.051743 0.078599 0.078920 0.065473 0.069121 0.094466 0.041536 0.085832 0.053408 0.045142 0.018026 0.102361 0.063192 0.124629 0.061186 0.069021 0.090115 0.027279 0.002533 0.083108 -0.038653 -0.029889 0.087400 0.041527 0.154112 0.087433 0.085408 0.063198 0.025906 0.086514 -0.028010 -0.023735 0.043448 0.028734 0.028482 0.012091 0.097638 0.025885 -0.014832 0.046984 0.036904 0.051315 0.053738 -0.007473 0.051299 0.044927 0.110404 0.059604 0.027970 -0.029452 -0.031100 -0.004173 0.010935 -0.055650 -0.019217 -0.000573 0.006334 0.041958 0.060178 0.005624 -0.029886 -0.027393 -0.017694 -0.062585 -0.043172 -0.037008 -0.127654 -0.092130 -0.064015 -0.098165 -0.105611 -0.030180 -0.150018 -0.100344 -0.115772 -0.193837 -0.069593 0.058920 -0.075834 -0.129196 0.049564 0.020705 -0.031480 0.067673 -0.023362 -0.004608 -0.078526 -0.041840 0.050597 0.134204 0.050735 0.136023 0.162920 0.473012 0.208085 0.325662 0.177548 -0.023379 -0.683395
0.072396 0.072899 0.074408 0.076923 0.080443 0.084967 0.090494 0.097023 0.104550 0.113074 0.122591 0.133097 0.144585 0.157051 0.170486 0.184881 0.200225 0.216505 0.233706 0.251810 0.270798 0.290647 0.311330 0.332818 0.355078 0.378072 0.401760 0.426095 0.451025 0.476496 0.502445 0.528806 0.555506 0.582465 0.609598 0.636812 0.664010 0.691087 0.717928 0.744417 0.770426 0.795823 0.820469 0.844219 0.866920 0.888415 0.908543 0.927135 0.944020 0.959024 0.971971 0.982682 0.990979 0.996684 0.999622 0.999622 0.996518 0.990149 0.980366 0.967030 0.950011 0.929199 0.904496 0.875827 0.843134 0.806388 0.765579 0.720730 0.671892 0.619147 0.562614 0.502444 0.438827 0.371992 0.302206 0.229778 0.155056 0.078430 0.000327 0.078783 0.158395 0.237969 0.316932 0.394680 0.470586 0.544003 0.614264 0.680699 0.742628 0.799382 0.850300 0.894742 0.932097 0.961792 0.983303 0.996160 0.999962 0.994384 0.979186 0.954221 0.919445 0.874925 0.820843 0.757505 0.685340 0.604908 0.516895 0.422119 0.321520 0.216159 0.107207 0.004060 0.116279 0.228011 0.337758 0.443987 0.545144 0.639684 0.726093 0.802914 0.868774 0.922413 0.962712 0.988717 0.999668 0.995022 0.974475 0.937979 0.885761 0.818330 0.736484 0.641313 0.534190 0.416763 0.290936 0.158844 0.022824 0.114624 0.250879 0.383247 0.509014 0.625503 0.730138 0.820497 0.894380 0.949869 0.985381 0.999726 0.992149 0.962370 0.910618 0.837642 0.744721 0.633658 0.506757 0.366791 0.216949 0.060771 0.097922 0.255124 0.406739 0.548689 0.677030 0.788060 0.878442 0.945309 0.986370 0.999996 0.985305 0.942209 0.871460 0.774655 0.654225 0.513396 0.356116 0.186965 0.011025 0.166255 0.339227 0.502223 0.649745 0.776656 0.878369 0.951029 0.991674 0.998376 0.970348 0.908017 0.813050 0.688349 0.537982 0.367075 0.181660 0.011520 0.205257 0.392125 0.564777 0.716237 0.840191 0.931270 0.985303 0.999532 0.972773 0.905529 0.800021 0.660157 0.491419 0.300672 0.095922 0.114020 0.319891 0.512393 0.682613 0.822450 0.925020 0.985018 0.999029 0.965748 0.886114 0.763339 0.602822 0.411948 0.199785 0.023320 0.246233 0.457579 0.646324 0.802369 0.917105 0.983929 0.998648 0.959794 0.868778 0.729902 0.550214 0.339190 0.108268 0.129737 0.361334 0.573112 0.752539 0.888712 0.973061 0.999928 0.966993 0.875514 0.730350 0.539770 0.315025 0.069736 0.180904 0.421060 0.635248 0.809356 0.931600 0.993364 0.989866 0.920575 0.789369 0.604393 0.377612 0.124101 0.138933 0.393280 0.621002 0.805696 0.933728 0.995274 0.985142 0.903270 0.754871 0.550174 0.303803 0.033773 0.239771 0.496053 0.715247 0.880024 0.976990 0.997822 0.940064 0.807466 0.609844 0.362431 0.084778 0.200757 0.470753 0.702688 0.876818 0.977916 0.996681 0.930669 0.784671 0.570481 0.306013 0.013909 0.280384 0.550788 0.772919 0.926334 0.996466 0.976104 0.866221 0.676076 0.422542 0.128708 0.178170 0.469149 0.716337 0.895590 0.988948 0.986513 0.887609 0.701056 0.444496 0.142849 0.174049 0.474354 0.727401 0.906885 0.993662 0.977890 0.860264 0.652172 0.374721 0.056707 0.268304 0.565474 0.802453 0.952940 0.999702 0.936666 0.769825 0.516824 0.205227 0.130380 0.452180 0.723372 0.912415 0.996789 0.965789 0.822033 0.581412 0.271492 0.071523 0.406955 0.694456 0.898884 0.994698 0.969270 0.824695 0.577836 0.258506 0.093991 0.435635 0.723161 0.919577 0.999025 0.950331 0.778732 0.505509 0.165529 0.197092
1.000000 1.000000 1.000000 1.000000 1.000000 1.000000 1.000000 1.000000 1.000000 1.000000 1.000000 1.000000 1.000000 1.000000 1.000000 1.000000 1.000000 1.000000 1.000000 1.000000 1.000000 1.000000 1.000000 1.000000 1.000000 1.000000 1.000000 1.000000 1.000000 1.000000 1.000000 1.000000 1.000000 1.000000 1.000000 1.000000 1.000000 1.000000 1.000000 1.000000 1.000000 1.000000 1.000000 1.000000 1.000000 1.000000 1.000000 1.000000 1.000000 1.000000 1.000000 1.000000 0.914183 0.914183 0.914183 0.911290 0.911290 0.911290 0.911290 0.911290 0.911290 0.911290 0.911290 0.911290 0.911290 0.911290 0.911290 0.911290 0.911290 0.911290 0.911290 0.911290 0.911290 0.911290 0.911290 0.911290 0.911290 0.911290 0.911290 0.911290 0.911290 0.911290 0.911290 0.911290 0.911290 0.911290 0.911290 0.911290 0.911290 0.911290 0.911290 0.911290 0.911290 0.911290 0.911290 0.911290 0.939721 0.941151 0.949506 0.949029 0.948487 0.946509 0.945242 0.945032 0.944947 0.945300 0.946036 0.947031 0.953248 0.954184 0.958590 0.961312 0.961284 0.963028 0.965001 0.964643 0.956358 0.956111 0.954673 0.953951 0.956064 0.954708 0.953482 0.953958 0.951609 0.955958 0.955526 0.954319 0.952681 0.951089 0.947499 0.946996 0.946031 0.946855 0.946950 0.948562 0.951615 0.951790 0.951536 0.948801 0.948401 0.949612 0.949165 0.950965 0.938790 0.938039 0.936473 0.936418 0.938914 0.938793 0.938678 0.939591 0.939288 0.939208 0.939360 0.934490 0.934255 0.927535 0.923919 0.922758 0.917295 0.913260 0.915915 0.918557 0.919725 0.920071 0.910751 0.907945 0.909020 0.907742 0.909164 0.908654 0.909790 0.910191 0.910098 0.904985 0.895521 0.893997 0.885204 0.887935 0.884225 0.881546 0.878681 0.870095 0.861606 0.873582 0.860522 0.819289 0.822823 0.827347 0.819983 0.816309 0.820607 0.822102 0.826904 0.820842 0.819701 0.813596 0.800132 0.796309 0.789548 0.774922 0.771002 0.761505 0.751330 0.745199 0.768339 0.762114 0.773843 0.778100 0.777691 0.773806 0.764043 0.752560 0.752340 0.751311 0.747043 0.723179 0.714790 0.714808 0.712500 0.699534 0.702526 0.691070 0.691496 0.678621 0.683744 0.689687 0.693345 0.688831 0.682835 0.674625 0.669794 0.683687 0.697023 0.689178 0.685742 0.694532 0.685382 0.679820 0.671221 0.674890 0.666432 0.661719 0.663312 0.696534 0.670044 0.659820 0.666096 0.666509 0.664071 0.664044 0.642979 0.637375 0.614021 0.631446 0.636180 0.651855 0.654053 0.657417 0.668165 0.674052 0.684702 0.689407 0.687348 0.646810 0.651238 0.668661 0.676622 0.666321 0.656570 0.650881 0.641206 0.678042 0.662553 0.620904 0.616742 0.617354 0.571756 0.550760 0.549079 0.550410 0.577692 0.575479 0.558873 0.532846 0.534709 0.534971 0.531079 0.530244 0.509760 0.519999 0.503645 0.480761 0.493616 0.502055 0.500748 0.484840 0.478660 0.492440 0.472868 0.497009 0.475203 0.458217 0.474390 0.473555 0.461310 0.389912 0.396575 0.387454 0.372351 0.329544 0.338838 0.348905 0.328570 0.252266 0.246677 0.247479 0.243802 0.222051 0.196360 0.183055 0.173278 0.150667 0.091854 0.042533 0.045409 0.049397 0.075865 0.037928 0.091604 0.161324 0.157959 0.157959 0.157959 0.157959 0.157959 0.157959 0.157959 0.157959 0.134521 0.134521 0.134521 0.134521 0.134521 0.134521 0.134521 0.134521 0.134521 0.157959 0.157959 0.157959 0.157959 0.157959 0.157959 0.157959 0.157959 0.157959 0.157959 0.157959 0.157959 0.157959 0.157959
0.000000 0.000000 0.000000 0.000000 0.000000 0.000000 0.000000 0.000000 0.000000 0.000000 0.000000 0.000000 0.000000 0.000000 0.000000 0.000000 0.000000 0.000000 0.000000 0.000000 0.000000 0.000000 0.000000 0.000000 0.000000 0.000000 0.000000 0.000000 0.000000 0.000000 0.000000 0.000000 0.000000 0.000000 0.000000 0.000000 0.000000 0.000000 0.000000 0.000000 0.000000 0.000000 0.000000 0.000000 0.000000 0.000000 0.000000 0.000000 0.000000 0.000000 0.000000 0.000000 0.180334 0.180334 0.180334 0.199007 0.199007 0.199007 0.199007 0.199007 0.199007 0.199007 0.199007 0.199007 0.199007 0.199007 0.199007 0.199007 0.199007 0.199007 0.199007 0.199007 0.199007 0.199007 0.199007 0.199007 0.199007 0.199007 0.199007 0.199007 0.199007 0.199007 0.199007 0.199007 0.199007 0.199007 0.199007 0.199007 0.199007 0.199007 0.199007 0.199007 0.199007 0.199007 0.199007 0.199007 0.225018 0.225018 0.225018 0.225018 0.225018 0.225018 0.225018 0.225018 0.225018 0.225018 0.225018 0.225018 0.225018 0.225018 0.225018 0.225018 0.225018 0.225018 0.225018 0.225018 0.225018 0.225018 0.225018 0.225018 0.225018 0.225018 0.225018 0.225018 0.225018 0.244339 0.244339 0.244339 0.244339 0.244339 0.244339 0.244339 0.244339 0.244339 0.244339 0.244339 0.244339 0.244339 0.244339 0.244339 0.244339 0.244339 0.244339 0.244339 0.244339 0.244339 0.244339 0.244339 0.256074 0.256074 0.256074 0.256074 0.256074 0.256074 0.256074 0.256074 0.256074 0.256074 0.256074 0.256074 0.256074 0.256074 0.256074 0.256074 0.256074 0.256074 0.256074 0.256074 0.256074 0.256074 0.256074 0.256074 0.256074 0.256074 0.256074 0.256074 0.256074 0.256074 0.256074 0.256074 0.256074 0.256074 0.256074 0.256074 0.256074 0.264906 0.264906 0.264906 0.264906 0.264906 0.264906 0.264906 0.264906 0.264906 0.264906 0.264906 0.264906 0.264906 0.264906 0.264906 0.264906 0.264906 0.264906 0.264906 0.264906 0.264906 0.264906 0.264906 0.264906 0.264906 0.264906 0.264906 0.264906 0.264906 0.264906 0.264906 0.264906 0.264906 0.264906 0.264906 0.264906 0.264906 0.264906 0.264906 0.264906 0.264906 0.264906 0.264906 0.264906 0.264906 0.264906 0.264906 0.264906 0.264906 0.264906 0.264906 0.264906 0.264906 0.264906 0.264906 0.264906 0.264906 0.264906 0.260378 0.260378 0.260378 0.260378 0.260378 0.260378 0.260378 0.260378 0.260378 0.260378 0.260378 0.260378 0.260378 0.264906 0.264906 0.264906 0.264906 0.264906 0.264906 0.264906 0.264906 0.264906 0.264906 0.264906 0.264906 0.269680 0.269680 0.269680 0.269680 0.269680 0.269680 0.269680 0.269680 0.269680 0.269680 0.269680 0.264906 0.264906 0.264906 0.264906 0.264906 0.264906 0.264906 0.264906 0.264906 0.264906 0.264906 0.256074 0.256074 0.256074 0.256074 0.256074 0.256074 0.256074 0.256074 0.256074 0.256074 0.256074 0.264906 0.264906 0.264906 0.264906 0.264906 0.264906 0.264906 0.264906 0.264906 0.264906 0.260378 0.260378 0.260378 0.260378 0.260378 0.260378 0.260378 0.260378 0.260378 0.260378 0.264906 0.264906 0.264906 0.264906 0.264906 0.264906 0.264906 0.264906 0.264906 0.251976 0.251976 0.251976 0.251976 0.251976 0.251976 0.251976 0.251976 0.251976 0.251976 0.256074 0.256074 0.256074 0.256074 0.256074 0.256074 0.256074 0.256074 0.256074 0.251976 0.251976 0.251976 0.251976 0.251976 0.251976 0.251976 0.251976 0.251976 0.251976 0.251976 0.251976 0.251976 0.251976
