# Output from CTFFind version 4.1.9, run on 2019-11-03 20:03:49
# Input file: stack6_bm3d_averaged_1_7.5_0_250_half.mrc ; Number of micrographs: 1
# Pixel size: 3.000 Angstroms ; acceleration voltage: 300.0 keV ; spherical aberration: 0.00 mm ; amplitude contrast: 0.07
# Box size: 512 pixels ; min. res.: 30.0 Angstroms ; max. res.: 5.0 Angstroms ; min. def.: 5000.0 um; max. def. 50000.0 um; num. frames averaged: 1
# 6 lines per micrograph: #1 - spatial frequency (1/Angstroms); #2 - 1D rotational average of spectrum (assuming no astigmatism); #3 - 1D rotational average of spectrum; #4 - CTF fit; #5 - cross-correlation between spectrum and CTF fit; #6 - 2sigma of expected cross correlation of noise
0.000000 0.000651 0.001302 0.001953 0.002604 0.003255 0.003906 0.004557 0.005208 0.005859 0.006510 0.007161 0.007812 0.008464 0.009115 0.009766 0.010417 0.011068 0.011719 0.012370 0.013021 0.013672 0.014323 0.014974 0.015625 0.016276 0.016927 0.017578 0.018229 0.018880 0.019531 0.020182 0.020833 0.021484 0.022135 0.022786 0.023438 0.024089 0.024740 0.025391 0.026042 0.026693 0.027344 0.027995 0.028646 0.029297 0.029948 0.030599 0.031250 0.031901 0.032552 0.033203 0.033854 0.034505 0.035156 0.035807 0.036458 0.037109 0.037760 0.038411 0.039062 0.039714 0.040365 0.041016 0.041667 0.042318 0.042969 0.043620 0.044271 0.044922 0.045573 0.046224 0.046875 0.047526 0.048177 0.048828 0.049479 0.050130 0.050781 0.051432 0.052083 0.052734 0.053385 0.054036 0.054688 0.055339 0.055990 0.056641 0.057292 0.057943 0.058594 0.059245 0.059896 0.060547 0.061198 0.061849 0.062500 0.063151 0.063802 0.064453 0.065104 0.065755 0.066406 0.067057 0.067708 0.068359 0.069010 0.069661 0.070312 0.070964 0.071615 0.072266 0.072917 0.073568 0.074219 0.074870 0.075521 0.076172 0.076823 0.077474 0.078125 0.078776 0.079427 0.080078 0.080729 0.081380 0.082031 0.082682 0.083333 0.083984 0.084635 0.085286 0.085938 0.086589 0.087240 0.087891 0.088542 0.089193 0.089844 0.090495 0.091146 0.091797 0.092448 0.093099 0.093750 0.094401 0.095052 0.095703 0.096354 0.097005 0.097656 0.098307 0.098958 0.099609 0.100260 0.100911 0.101562 0.102214 0.102865 0.103516 0.104167 0.104818 0.105469 0.106120 0.106771 0.107422 0.108073 0.108724 0.109375 0.110026 0.110677 0.111328 0.111979 0.112630 0.113281 0.113932 0.114583 0.115234 0.115885 0.116536 0.117188 0.117839 0.118490 0.119141 0.119792 0.120443 0.121094 0.121745 0.122396 0.123047 0.123698 0.124349 0.125000 0.125651 0.126302 0.126953 0.127604 0.128255 0.128906 0.129557 0.130208 0.130859 0.131510 0.132161 0.132812 0.133464 0.134115 0.134766 0.135417 0.136068 0.136719 0.137370 0.138021 0.138672 0.139323 0.139974 0.140625 0.141276 0.141927 0.142578 0.143229 0.143880 0.144531 0.145182 0.145833 0.146484 0.147135 0.147786 0.148438 0.149089 0.149740 0.150391 0.151042 0.151693 0.152344 0.152995 0.153646 0.154297 0.154948 0.155599 0.156250 0.156901 0.157552 0.158203 0.158854 0.159505 0.160156 0.160807 0.161458 0.162109 0.162760 0.163411 0.164062 0.164714 0.165365 0.166016 0.166667 0.167318 0.167969 0.168620 0.169271 0.169922 0.170573 0.171224 0.171875 0.172526 0.173177 0.173828 0.174479 0.175130 0.175781 0.176432 0.177083 0.177734 0.178385 0.179036 0.179688 0.180339 0.180990 0.181641 0.182292 0.182943 0.183594 0.184245 0.184896 0.185547 0.186198 0.186849 0.187500 0.188151 0.188802 0.189453 0.190104 0.190755 0.191406 0.192057 0.192708 0.193359 0.194010 0.194661 0.195312 0.195964 0.196615 0.197266 0.197917 0.198568 0.199219 0.199870 0.200521 0.201172 0.201823 0.202474 0.203125 0.203776 0.204427 0.205078 0.205729 0.206380 0.207031 0.207682 0.208333 0.208984 0.209635 0.210286 0.210938 0.211589 0.212240 0.212891 0.213542 0.214193 0.214844 0.215495 0.216146 0.216797 0.217448 0.218099 0.218750 0.219401 0.220052 0.220703 0.221354 0.222005 0.222656 0.223307 0.223958 0.224609 0.225260 0.225911 0.226562 0.227214 0.227865 0.228516 0.229167 0.229818 0.230469 0.231120 0.231771 0.232422 0.233073 0.233724 0.234375 0.235026 0.235677
       0.33400        0.33400        0.33400        0.33400        0.33400        0.33400        0.33400        0.33400        0.33400        0.33400        0.33400        0.33400        0.33400        0.33400        0.33400        0.33400        0.33400        0.33400        0.33400        0.33400        0.33400        0.33400        0.33400        0.33400        0.33400        0.33400        0.33400        0.33400        0.33400        0.33400        0.33400        0.33400        0.33400        0.33400        0.33400        0.33400        0.33400        0.33400        0.33400        0.33400        0.33400        0.33400        0.33400        0.33400        0.33400        0.33400        0.33400        0.33400        0.33400        0.33400        0.33400        0.59566        0.70780        0.36640        0.17190        0.14038       -0.12722        0.11320        0.04211        0.04438        0.09402        0.30995        0.30593        0.23552        0.14170       -0.03712       -0.00919        0.05298       -0.08657       -0.09325       -0.06752       -0.07311       -0.16987       -0.10738       -0.21638       -0.23568       -0.23440       -0.29212       -0.36215       -0.29061       -0.19993       -0.16362       -0.27143       -0.19740       -0.23595       -0.17712       -0.11911       -0.06010       -0.03275        0.02178        0.07150        0.15330        0.19416        0.23669        0.34758        0.41237        0.36254        0.48549        0.54573        0.55403        0.62944        0.55319        0.58350        0.60522        0.60426        0.59251        0.56038        0.59796        0.54124        0.40009        0.35688        0.37878        0.34437        0.21429        0.20728        0.17649        0.11969        0.11686        0.04579        0.11422        0.09126        0.05982        0.13987        0.19400        0.27991        0.34877        0.36813        0.40115        0.44924        0.48152        0.42347        0.63628        0.55111        0.48217        0.56937        0.50439        0.56041        0.51802        0.39273        0.33080        0.31743        0.27231        0.26203        0.21728        0.19980        0.17914        0.27137        0.24961        0.26709        0.23821        0.27617        0.34044        0.33873        0.45107        0.44675        0.43454        0.41877        0.48327        0.43686        0.41633        0.40932        0.39684        0.33676        0.28393        0.28684        0.27393        0.27221        0.21741        0.20841        0.25520        0.27249        0.29197        0.35174        0.38830        0.42818        0.41909        0.42976        0.49343        0.47689        0.43074        0.38279        0.41931        0.38411        0.33217        0.34198        0.33343        0.27590        0.28607        0.28221        0.25954        0.32247        0.30248        0.32157        0.34172        0.40101        0.42449        0.41383        0.44266        0.39277        0.43564        0.40922        0.33847        0.30302        0.27973        0.28939        0.26236        0.23092        0.31630        0.37959        0.34080        0.31327        0.36915        0.29665        0.35497        0.40575        0.39025        0.36678        0.37994        0.35039        0.36462        0.33600        0.30962        0.29015        0.27363        0.32473        0.33614        0.35646        0.37054        0.39177        0.37313        0.36819        0.32846        0.35895        0.36763        0.34783        0.33111        0.29125        0.29032        0.27380        0.34242        0.33832        0.35263        0.32128        0.35196        0.37619        0.34079        0.35852        0.35205        0.31756        0.31502        0.31131        0.28504        0.27606        0.26630        0.25679        0.27762        0.27043        0.30549        0.27575        0.31790        0.36403        0.26572        0.29707        0.28406        0.25342        0.30840        0.29078        0.29190        0.31831        0.33122        0.33225        0.31918        0.31810        0.31543        0.36748        0.36235        0.30456        0.32839        0.32027        0.37074        0.28105        0.28075        0.29904        0.30824        0.33463        0.37007        0.35898        0.29788        0.23401        0.29943        0.27082        0.26123        0.26294        0.28009        0.31282        0.24227        0.30889        0.33525        0.36964        0.31048        0.32022        0.28827        0.29633        0.29236        0.27105        0.29329        0.27114        0.28482        0.35390        0.35115        0.28579        0.32909        0.33035        0.26245        0.23159        0.19048        0.33478        0.32814        0.36275        0.34890        0.29339        0.23273        0.22221        0.28136        0.27411        0.27275        0.29725        0.29462        0.24874        0.28576        0.28769        0.31014        0.28459        0.28253        0.27676        0.24666        0.23798        0.29408        0.25290        0.21611        0.25943        0.25968        0.26435        0.22686        0.20697        0.27388        0.30883        0.28255        0.20654        0.14812        0.28550        0.22594        0.26322        0.27515        0.16662        0.16153        0.20708        0.24125        0.30787        0.08785       -0.12354       -0.61469       -0.97422
2.438377 2.417718 2.397150 2.376673 2.356288 2.335994 2.315792 2.295681 2.275661 2.255733 2.235896 2.216151 2.196497 2.176934 2.157463 2.138083 2.118795 2.099598 2.080492 2.061478 2.042555 2.023723 2.004983 1.986335 1.967777 1.949312 1.930937 1.912654 1.894462 1.876362 1.858353 1.840436 1.822610 1.804875 1.787232 1.769680 1.752219 1.734850 1.717572 1.700386 1.683291 1.666288 1.649376 1.632555 1.615825 1.599188 1.582641 1.566186 1.549822 1.533550 1.517369 1.874819 2.217867 1.540958 1.332517 1.109309 0.519818 0.939021 0.803226 0.849181 0.701649 1.432371 1.195827 1.213702 0.990222 0.593880 0.469639 0.749233 0.607861 0.287211 0.269870 0.489368 0.250941 0.268598 0.111058 -0.001655 -0.016565 -0.008969 -0.322159 -0.140162 0.014402 0.015003 -0.079348 -0.013242 -0.101764 -0.080025 0.069922 0.201729 0.263186 0.282247 0.391439 0.636670 0.566267 0.675132 0.831489 1.069426 0.809146 1.278439 1.201060 1.278420 1.377295 1.268267 1.163387 1.383817 1.244610 1.348799 1.211754 1.216280 1.227542 0.967570 0.723226 0.753021 0.800197 0.483406 0.454373 0.374658 0.244369 0.198819 0.034548 0.240997 0.177086 0.065188 0.146314 0.242188 0.368346 0.608538 0.612402 0.637245 0.698552 0.882582 0.596757 1.030311 1.058836 0.777879 0.928887 0.773598 0.895462 0.924370 0.656370 0.411464 0.442765 0.392370 0.223609 0.250325 0.161117 -0.015122 0.257181 0.240009 0.264043 0.161118 0.247681 0.335555 0.275604 0.502933 0.604817 0.560452 0.368801 0.649275 0.563792 0.413989 0.545339 0.433434 0.264409 0.309337 0.141668 0.217808 0.024785 0.215962 -0.052741 0.058115 0.068104 0.260010 0.045350 0.400114 0.352118 0.406665 0.378949 0.421364 0.594106 0.410957 0.341783 0.397489 0.195722 0.366598 0.103934 0.268096 0.064037 0.088688 0.078812 0.060333 0.044973 0.157596 0.055998 0.159573 0.242312 0.287255 0.329534 0.263513 0.345040 0.264086 0.293845 0.189749 0.104600 0.019170 -0.005786 0.016692 -0.061734 -0.072926 0.128171 0.219607 0.051117 0.108106 0.133074 0.007685 0.193491 0.261885 0.188351 0.176556 0.128455 0.171164 0.103299 0.094963 0.045592 -0.087912 0.001033 0.131419 0.058368 0.156532 0.138187 0.221857 0.175697 0.148876 0.106685 0.187164 0.099931 0.145858 0.088549 0.003137 -0.012447 -0.014975 0.127338 0.120460 0.133827 0.059832 0.151527 0.167418 0.041922 0.145910 0.054846 -0.009962 0.028197 0.007826 -0.060506 -0.060579 -0.118666 -0.049853 -0.052239 -0.099769 0.007639 -0.055061 0.041820 0.106059 -0.117991 0.018869 -0.053210 -0.094050 0.052101 -0.020081 -0.059305 0.045086 0.101187 0.031191 0.057418 -0.046177 0.025364 0.212251 0.012342 -0.052667 0.077658 0.040213 0.110364 -0.115067 -0.047875 -0.002994 0.040886 0.061914 0.105440 0.129145 -0.054372 -0.112308 0.009149 -0.062515 -0.065042 -0.046654 -0.041337 0.057553 -0.174813 0.132220 0.139216 0.185689 0.037789 0.065722 0.039922 0.031930 0.098875 -0.018225 0.043527 0.012387 0.050026 0.147667 0.194841 0.043975 0.174302 0.167750 -0.040401 -0.011187 -0.159352 0.242104 0.131709 0.217779 0.177726 0.026211 -0.062072 -0.092336 0.025004 0.013042 -0.021868 0.055170 0.047494 -0.082173 0.020469 0.118032 0.065536 0.034208 0.002662 0.055748 -0.118055 -0.009530 0.061360 -0.039481 -0.131233 0.028507 -0.016910 -0.045435 -0.047299 -0.128239 0.079809 0.118540 -0.008796 -0.098690 -0.356831 0.161431 0.508048 0.460804 0.578550 0.260470 0.323452 0.429157 0.510108 0.592769 0.019453 0.001376 -0.949070
0.072396 0.072838 0.074163 0.076371 0.079462 0.083435 0.088289 0.094022 0.100634 0.108122 0.116484 0.125716 0.135815 0.146776 0.158594 0.171262 0.184772 0.199116 0.214282 0.230259 0.247032 0.264586 0.282903 0.301961 0.321739 0.342209 0.363344 0.385111 0.407474 0.430396 0.453833 0.477738 0.502061 0.526747 0.551735 0.576960 0.602354 0.627843 0.653346 0.678779 0.704051 0.729069 0.753731 0.777931 0.801559 0.824499 0.846629 0.867825 0.887956 0.906890 0.924488 0.940610 0.955112 0.967851 0.978680 0.987451 0.994019 0.998237 0.999964 0.999060 0.995388 0.988821 0.979236 0.966518 0.950564 0.931282 0.908590 0.882425 0.852736 0.819493 0.782682 0.742313 0.698416 0.651047 0.600285 0.546238 0.489041 0.428857 0.365881 0.300336 0.232478 0.162594 0.091002 0.018050 0.055883 0.130388 0.205031 0.279348 0.352856 0.425047 0.495396 0.563366 0.628407 0.689964 0.747479 0.800402 0.848190 0.890315 0.926273 0.955588 0.977820 0.992569 0.999485 0.998277 0.988713 0.970632 0.943948 0.908657 0.864842 0.812675 0.752424 0.684454 0.609231 0.527317 0.439375 0.346165 0.248540 0.147440 0.043885 0.061028 0.166143 0.270251 0.372106 0.470437 0.563965 0.651424 0.731572 0.803218 0.865233 0.916578 0.956321 0.983654 0.997916 0.998607 0.985407 0.958192 0.917039 0.862242 0.794319 0.714007 0.622269 0.520285 0.409446 0.291336 0.167716 0.040506 0.088250 0.216406 0.341757 0.462066 0.575119 0.678750 0.770902 0.849658 0.913296 0.960323 0.989521 0.999980 0.991137 0.962795 0.915150 0.848800 0.764752 0.664419 0.549605 0.422480 0.285552 0.141622 0.006269 0.154897 0.300927 0.440980 0.571721 0.689935 0.792613 0.877034 0.940842 0.982127 0.999484 0.992074 0.959665 0.902665 0.822136 0.719788 0.597962 0.459586 0.308120 0.147478 0.018066 0.183983 0.345614 0.498297 0.637510 0.759000 0.858929 0.934004 0.981593 0.999836 0.987727 0.945176 0.873050 0.773168 0.648289 0.502048 0.338864 0.163824 0.017463 0.199040 0.374797 0.538674 0.684877 0.808085 0.903659 0.967832 0.997874 0.992225 0.950588 0.873990 0.764777 0.626575 0.464192 0.283467 0.091080 0.105682 0.299199 0.481803 0.646095 0.785242 0.893285 0.965408 0.998170 0.989698 0.939809 0.850073 0.723801 0.565943 0.382939 0.182460 0.026882 0.235900 0.435226 0.615737 0.768976 0.887568 0.965597 0.998919 0.985421 0.925170 0.820481 0.675864 0.497862 0.294798 0.076395 0.146661 0.363236 0.562304 0.733521 0.867767 0.957665 0.998014 0.986118 0.922006 0.808499 0.651135 0.457938 0.239048 0.006209 0.227834 0.450029 0.647754 0.809529 0.925727 0.989163 0.995583 0.943987 0.836772 0.679681 0.481538 0.253798 0.009912 0.235431 0.467203 0.670938 0.833664 0.944749 0.996643 0.985427 0.911160 0.777971 0.593885 0.370404 0.121820 0.135662 0.384967 0.609279 0.793179 0.923751 0.991510 0.991152 0.922021 0.788260 0.598637 0.366026 0.106581 0.161341 0.418481 0.646035 0.827068 0.947796 0.998685 0.975268 0.878586 0.715243 0.497021 0.240102 0.036101 0.310362 0.561273 0.768927 0.916516 0.991754 0.987952 0.904681 0.747947 0.529842 0.267673 0.017345 0.301778 0.561874 0.775578 0.924413 0.995148 0.981031 0.882517 0.707374 0.470168 0.191118 0.105567 0.393759 0.647693 0.844311 0.965377 0.999256 0.942097 0.798357 0.580554 0.308267 0.006448 0.296823 0.572914 0.795383 0.942524 0.999570 0.960250 0.827572 0.613716 0.339009 0.030078 0.282680 0.568056 0.797160 0.946401 0.999962
1.000000 1.000000 1.000000 1.000000 1.000000 1.000000 1.000000 1.000000 1.000000 1.000000 1.000000 1.000000 1.000000 1.000000 1.000000 1.000000 1.000000 1.000000 1.000000 1.000000 1.000000 1.000000 1.000000 1.000000 1.000000 1.000000 1.000000 1.000000 1.000000 1.000000 1.000000 1.000000 1.000000 1.000000 1.000000 1.000000 1.000000 1.000000 1.000000 1.000000 1.000000 1.000000 1.000000 1.000000 1.000000 1.000000 1.000000 1.000000 1.000000 1.000000 1.000000 1.000000 0.770183 0.770183 0.770183 0.770183 0.770183 0.770183 0.770183 0.758560 0.758560 0.758560 0.758560 0.758560 0.758560 0.758560 0.758560 0.758560 0.758560 0.758560 0.758560 0.758560 0.758560 0.758560 0.758560 0.758560 0.758560 0.758560 0.758560 0.758560 0.758560 0.758560 0.758560 0.758560 0.758560 0.758560 0.758560 0.758560 0.758560 0.758560 0.758560 0.758560 0.758560 0.758560 0.758560 0.758560 0.758560 0.758560 0.758560 0.758560 0.758560 0.758560 0.758560 0.901658 0.903105 0.906119 0.901523 0.903443 0.898234 0.891747 0.893147 0.894875 0.894682 0.895495 0.897180 0.899220 0.906562 0.915479 0.917386 0.924330 0.927734 0.927703 0.931269 0.929910 0.934081 0.931454 0.929656 0.917728 0.921277 0.923252 0.922278 0.921121 0.917970 0.923618 0.922215 0.920107 0.914796 0.910826 0.908850 0.910486 0.908207 0.908798 0.908985 0.909938 0.908113 0.908911 0.905060 0.906018 0.904924 0.901378 0.898464 0.898230 0.899696 0.897995 0.894575 0.888152 0.894036 0.894128 0.893298 0.892212 0.892423 0.893218 0.894000 0.894679 0.892232 0.892286 0.889739 0.891509 0.888171 0.883535 0.877523 0.877984 0.880517 0.887634 0.889736 0.888282 0.885345 0.876712 0.866041 0.863572 0.852399 0.822597 0.824670 0.827861 0.829760 0.829958 0.828851 0.825039 0.821064 0.813388 0.804723 0.809478 0.809907 0.802944 0.799178 0.800103 0.801010 0.808355 0.812125 0.803957 0.800534 0.802434 0.798553 0.799698 0.803761 0.796205 0.793586 0.800606 0.808591 0.808525 0.793150 0.788931 0.786346 0.774613 0.781825 0.788331 0.786885 0.788364 0.785294 0.773304 0.772026 0.765566 0.776489 0.783433 0.782692 0.777647 0.760971 0.717120 0.701726 0.666100 0.663759 0.665383 0.631582 0.631890 0.633313 0.637023 0.579621 0.555135 0.540706 0.541862 0.551275 0.556523 0.549794 0.523113 0.540152 0.536293 0.521614 0.517556 0.500474 0.487673 0.471511 0.473895 0.472995 0.465826 0.433417 0.435775 0.456089 0.465263 0.460143 0.456087 0.428489 0.408309 0.407599 0.399517 0.399129 0.405779 0.414189 0.355760 0.333375 0.320637 0.349223 0.346367 0.344400 0.364414 0.356757 0.350126 0.324748 0.304090 0.271865 0.284645 0.305376 0.308450 0.311692 0.280897 0.272504 0.258127 0.261993 0.307055 0.297207 0.321230 0.327617 0.332630 0.355943 0.329383 0.306155 0.285181 0.328201 0.338853 0.306668 0.302944 0.317591 0.329738 0.328459 0.324240 0.319571 0.365996 0.366697 0.344210 0.344303 0.311869 0.329952 0.359613 0.358283 0.364944 0.374705 0.381673 0.342224 0.262944 0.232687 0.236389 0.213663 0.213704 0.200392 0.185285 0.177399 0.189898 0.211187 0.217200 0.248754 0.216643 0.170144 0.080835 0.147020 0.063298 0.079543 0.079543 0.079543 0.079543 0.079543 0.079543 0.079543 0.079543 0.117972 0.117972 0.117972 0.117972 0.117972 0.117972 0.117972 0.117972 0.117972 0.117972 0.117972 0.117972 0.117972 0.117972 0.117972 0.117972 0.117972 0.117972 0.117972 0.117972 0.117972
0.000000 0.000000 0.000000 0.000000 0.000000 0.000000 0.000000 0.000000 0.000000 0.000000 0.000000 0.000000 0.000000 0.000000 0.000000 0.000000 0.000000 0.000000 0.000000 0.000000 0.000000 0.000000 0.000000 0.000000 0.000000 0.000000 0.000000 0.000000 0.000000 0.000000 0.000000 0.000000 0.000000 0.000000 0.000000 0.000000 0.000000 0.000000 0.000000 0.000000 0.000000 0.000000 0.000000 0.000000 0.000000 0.000000 0.000000 0.000000 0.000000 0.000000 0.000000 0.000000 0.173422 0.173422 0.173422 0.173422 0.173422 0.173422 0.173422 0.191565 0.191565 0.191565 0.191565 0.191565 0.191565 0.191565 0.191565 0.191565 0.191565 0.191565 0.191565 0.191565 0.191565 0.191565 0.191565 0.191565 0.191565 0.191565 0.191565 0.191565 0.191565 0.191565 0.191565 0.191565 0.191565 0.191565 0.191565 0.191565 0.191565 0.191565 0.191565 0.191565 0.191565 0.191565 0.191565 0.191565 0.191565 0.191565 0.191565 0.191565 0.191565 0.191565 0.191565 0.222222 0.222222 0.222222 0.222222 0.222222 0.222222 0.222222 0.222222 0.222222 0.222222 0.222222 0.222222 0.222222 0.222222 0.222222 0.222222 0.222222 0.222222 0.222222 0.222222 0.222222 0.222222 0.222222 0.222222 0.222222 0.222222 0.222222 0.222222 0.222222 0.222222 0.234082 0.234082 0.234082 0.234082 0.234082 0.234082 0.234082 0.234082 0.234082 0.234082 0.234082 0.234082 0.234082 0.234082 0.234082 0.234082 0.234082 0.234082 0.234082 0.234082 0.234082 0.234082 0.234082 0.234082 0.234082 0.244339 0.244339 0.244339 0.244339 0.244339 0.244339 0.244339 0.244339 0.244339 0.244339 0.244339 0.244339 0.244339 0.244339 0.244339 0.244339 0.244339 0.244339 0.244339 0.244339 0.244339 0.248069 0.248069 0.248069 0.248069 0.248069 0.248069 0.248069 0.248069 0.248069 0.248069 0.248069 0.248069 0.248069 0.248069 0.248069 0.248069 0.248069 0.248069 0.248069 0.256074 0.256074 0.256074 0.256074 0.256074 0.256074 0.256074 0.256074 0.256074 0.256074 0.256074 0.256074 0.256074 0.256074 0.256074 0.256074 0.256074 0.256074 0.256074 0.256074 0.256074 0.256074 0.256074 0.256074 0.256074 0.256074 0.256074 0.256074 0.256074 0.256074 0.256074 0.256074 0.256074 0.256074 0.256074 0.256074 0.256074 0.256074 0.256074 0.256074 0.256074 0.256074 0.256074 0.256074 0.256074 0.256074 0.256074 0.256074 0.256074 0.256074 0.256074 0.256074 0.256074 0.256074 0.256074 0.256074 0.256074 0.256074 0.256074 0.256074 0.256074 0.256074 0.260378 0.260378 0.260378 0.260378 0.260378 0.260378 0.260378 0.260378 0.260378 0.260378 0.260378 0.260378 0.260378 0.256074 0.256074 0.256074 0.256074 0.256074 0.256074 0.256074 0.256074 0.256074 0.256074 0.256074 0.256074 0.256074 0.260378 0.260378 0.260378 0.260378 0.260378 0.260378 0.260378 0.260378 0.260378 0.260378 0.260378 0.260378 0.251976 0.251976 0.251976 0.251976 0.251976 0.251976 0.251976 0.251976 0.251976 0.251976 0.251976 0.251976 0.256074 0.256074 0.256074 0.256074 0.256074 0.256074 0.256074 0.256074 0.256074 0.256074 0.256074 0.251976 0.251976 0.251976 0.251976 0.251976 0.251976 0.251976 0.251976 0.251976 0.251976 0.251976 0.260378 0.260378 0.260378 0.260378 0.260378 0.260378 0.260378 0.260378 0.260378 0.260378 0.244339 0.244339 0.244339 0.244339 0.244339 0.244339 0.244339 0.244339 0.244339 0.244339 0.244339 0.244339 0.244339 0.244339 0.244339 0.244339 0.244339 0.244339 0.244339 0.244339 0.244339
