# Output from CTFFind version 4.1.9, run on 2019-11-03 19:40:26
# Input file: stack16_bm3d_averaged_1_4.75_0_1000_half.mrc ; Number of micrographs: 1
# Pixel size: 3.000 Angstroms ; acceleration voltage: 300.0 keV ; spherical aberration: 0.00 mm ; amplitude contrast: 0.07
# Box size: 512 pixels ; min. res.: 30.0 Angstroms ; max. res.: 5.0 Angstroms ; min. def.: 5000.0 um; max. def. 50000.0 um; num. frames averaged: 1
# 6 lines per micrograph: #1 - spatial frequency (1/Angstroms); #2 - 1D rotational average of spectrum (assuming no astigmatism); #3 - 1D rotational average of spectrum; #4 - CTF fit; #5 - cross-correlation between spectrum and CTF fit; #6 - 2sigma of expected cross correlation of noise
0.000000 0.000651 0.001302 0.001953 0.002604 0.003255 0.003906 0.004557 0.005208 0.005859 0.006510 0.007161 0.007812 0.008464 0.009115 0.009766 0.010417 0.011068 0.011719 0.012370 0.013021 0.013672 0.014323 0.014974 0.015625 0.016276 0.016927 0.017578 0.018229 0.018880 0.019531 0.020182 0.020833 0.021484 0.022135 0.022786 0.023438 0.024089 0.024740 0.025391 0.026042 0.026693 0.027344 0.027995 0.028646 0.029297 0.029948 0.030599 0.031250 0.031901 0.032552 0.033203 0.033854 0.034505 0.035156 0.035807 0.036458 0.037109 0.037760 0.038411 0.039062 0.039714 0.040365 0.041016 0.041667 0.042318 0.042969 0.043620 0.044271 0.044922 0.045573 0.046224 0.046875 0.047526 0.048177 0.048828 0.049479 0.050130 0.050781 0.051432 0.052083 0.052734 0.053385 0.054036 0.054688 0.055339 0.055990 0.056641 0.057292 0.057943 0.058594 0.059245 0.059896 0.060547 0.061198 0.061849 0.062500 0.063151 0.063802 0.064453 0.065104 0.065755 0.066406 0.067057 0.067708 0.068359 0.069010 0.069661 0.070312 0.070964 0.071615 0.072266 0.072917 0.073568 0.074219 0.074870 0.075521 0.076172 0.076823 0.077474 0.078125 0.078776 0.079427 0.080078 0.080729 0.081380 0.082031 0.082682 0.083333 0.083984 0.084635 0.085286 0.085938 0.086589 0.087240 0.087891 0.088542 0.089193 0.089844 0.090495 0.091146 0.091797 0.092448 0.093099 0.093750 0.094401 0.095052 0.095703 0.096354 0.097005 0.097656 0.098307 0.098958 0.099609 0.100260 0.100911 0.101562 0.102214 0.102865 0.103516 0.104167 0.104818 0.105469 0.106120 0.106771 0.107422 0.108073 0.108724 0.109375 0.110026 0.110677 0.111328 0.111979 0.112630 0.113281 0.113932 0.114583 0.115234 0.115885 0.116536 0.117188 0.117839 0.118490 0.119141 0.119792 0.120443 0.121094 0.121745 0.122396 0.123047 0.123698 0.124349 0.125000 0.125651 0.126302 0.126953 0.127604 0.128255 0.128906 0.129557 0.130208 0.130859 0.131510 0.132161 0.132812 0.133464 0.134115 0.134766 0.135417 0.136068 0.136719 0.137370 0.138021 0.138672 0.139323 0.139974 0.140625 0.141276 0.141927 0.142578 0.143229 0.143880 0.144531 0.145182 0.145833 0.146484 0.147135 0.147786 0.148438 0.149089 0.149740 0.150391 0.151042 0.151693 0.152344 0.152995 0.153646 0.154297 0.154948 0.155599 0.156250 0.156901 0.157552 0.158203 0.158854 0.159505 0.160156 0.160807 0.161458 0.162109 0.162760 0.163411 0.164062 0.164714 0.165365 0.166016 0.166667 0.167318 0.167969 0.168620 0.169271 0.169922 0.170573 0.171224 0.171875 0.172526 0.173177 0.173828 0.174479 0.175130 0.175781 0.176432 0.177083 0.177734 0.178385 0.179036 0.179688 0.180339 0.180990 0.181641 0.182292 0.182943 0.183594 0.184245 0.184896 0.185547 0.186198 0.186849 0.187500 0.188151 0.188802 0.189453 0.190104 0.190755 0.191406 0.192057 0.192708 0.193359 0.194010 0.194661 0.195312 0.195964 0.196615 0.197266 0.197917 0.198568 0.199219 0.199870 0.200521 0.201172 0.201823 0.202474 0.203125 0.203776 0.204427 0.205078 0.205729 0.206380 0.207031 0.207682 0.208333 0.208984 0.209635 0.210286 0.210938 0.211589 0.212240 0.212891 0.213542 0.214193 0.214844 0.215495 0.216146 0.216797 0.217448 0.218099 0.218750 0.219401 0.220052 0.220703 0.221354 0.222005 0.222656 0.223307 0.223958 0.224609 0.225260 0.225911 0.226562 0.227214 0.227865 0.228516 0.229167 0.229818 0.230469 0.231120 0.231771 0.232422 0.233073 0.233724 0.234375 0.235026 0.235677
       0.33386        0.33386        0.33386        0.33386        0.33386        0.33386        0.33386        0.33386        0.33386        0.33386        0.33386        0.33386        0.33386        0.33386        0.33386        0.33386        0.33386        0.33386        0.33386        0.33386        0.33386        0.33386        0.33386        0.33386        0.33386        0.33386        0.33386        0.33386        0.33386        0.33386        0.33386        0.33386        0.33386        0.33386        0.33386        0.33386        0.33386        0.33386        0.33386        0.33386        0.33386        0.33386        0.33386        0.33386        0.33386        0.33386        0.33386        0.33386        0.33386        0.33386        0.33386        0.41901        0.55971        0.34621       -0.20199       -0.45756       -0.55710       -0.65496       -0.72723       -0.74292       -0.84602       -0.90861       -0.70575       -0.86586       -0.84208       -0.99093       -1.02660       -0.91010       -0.86811       -0.81587       -0.74125       -0.66802       -0.58124       -0.48624       -0.41774       -0.19055       -0.08411        0.00930        0.23718        0.24403        0.30137        0.36611        0.39234        0.50045        0.53402        0.56925        0.53116        0.47107        0.50778        0.50557        0.42683        0.31993        0.19453        0.16826        0.10078       -0.02071       -0.03483       -0.04152        0.03453       -0.00308        0.05346        0.03064        0.14484        0.18479        0.39924        0.45544        0.55065        0.65596        0.69117        0.71353        0.63447        0.61174        0.52768        0.43422        0.37745        0.25912        0.20405        0.19372        0.08191        0.08111        0.06623        0.06626        0.08244        0.29551        0.40518        0.50802        0.53391        0.57478        0.61095        0.58790        0.57960        0.58195        0.56145        0.46154        0.28754        0.24801        0.22738        0.12476        0.07338        0.13889        0.16704        0.26778        0.34578        0.41063        0.46700        0.52863        0.60039        0.54806        0.50742        0.48808        0.35157        0.24428        0.23502        0.16068        0.15591        0.20137        0.24890        0.26703        0.30897        0.41435        0.44178        0.50008        0.45313        0.44435        0.47063        0.37396        0.31762        0.27340        0.23773        0.21392        0.21837        0.22925        0.32442        0.42791        0.41838        0.48546        0.54682        0.43954        0.40953        0.35185        0.29540        0.24691        0.25821        0.26392        0.27885        0.31799        0.33221        0.41492        0.46515        0.43297        0.44665        0.35580        0.36858        0.34910        0.24751        0.23012        0.23069        0.29853        0.36202        0.36420        0.38511        0.42853        0.42937        0.35999        0.33286        0.31038        0.33668        0.29453        0.26622        0.26810        0.33231        0.35809        0.37125        0.39012        0.37294        0.40111        0.38063        0.29550        0.27530        0.30742        0.33444        0.35454        0.35280        0.40179        0.33346        0.36712        0.38313        0.32128        0.34181        0.30102        0.28666        0.33201        0.32548        0.31565        0.33213        0.35523        0.31647        0.33493        0.30149        0.30464        0.27633        0.30014        0.29471        0.32613        0.36266        0.35599        0.33655        0.29225        0.27900        0.27819        0.31750        0.29145        0.30397        0.35661        0.36042        0.33102        0.30226        0.29999        0.30340        0.26509        0.28625        0.29509        0.31543        0.35059        0.32580        0.28227        0.32104        0.30960        0.30445        0.34907        0.33539        0.30328        0.32674        0.28583        0.31790        0.27912        0.30045        0.29020        0.31174        0.36636        0.32532        0.34202        0.29720        0.30783        0.32301        0.32081        0.29066        0.28878        0.32296        0.31546        0.31215        0.30252        0.30687        0.29102        0.29714        0.31457        0.31866        0.32689        0.33001        0.32627        0.28729        0.27170        0.26565        0.26018        0.35159        0.30724        0.35216        0.29136        0.26034        0.28411        0.35026        0.29858        0.28008        0.27150        0.30512        0.28087        0.26557        0.30927        0.27033        0.26362        0.29786        0.30606        0.33156        0.32326        0.29295        0.26460        0.25019        0.25055        0.26090        0.28141        0.33739        0.27436        0.20099        0.29168        0.26658        0.29583        0.22858        0.30610        0.30228        0.31218        0.27561        0.25953        0.26664        0.22381        0.28370        0.33344        0.36090        0.23729        0.25994        0.21132        0.21551        0.20013        0.33349        0.23674        0.22679        0.14075        0.23984        0.25135        0.21666        0.15214        0.04243       -0.61092       -0.85898
3.070340 3.031837 2.993581 2.955575 2.917817 2.880307 2.843046 2.806034 2.769270 2.732754 2.696488 2.660469 2.624699 2.589178 2.553906 2.518882 2.484106 2.449579 2.415300 2.381270 2.347489 2.313956 2.280671 2.247636 2.214848 2.182310 2.150019 2.117978 2.086184 2.054640 2.023344 1.992296 1.961497 1.930947 1.900645 1.870592 1.840787 1.811230 1.781923 1.752863 1.724053 1.695491 1.667177 1.639112 1.611295 1.583727 1.556408 1.529337 1.502515 1.475941 1.449615 1.484206 1.580324 1.520370 0.846832 0.583359 0.442004 0.374298 0.282270 0.200986 0.159532 -0.059268 0.188267 0.052726 -0.043802 -0.124586 -0.244571 -0.156297 -0.071986 -0.094743 -0.087400 0.027328 0.020920 0.213574 0.099627 0.344364 0.454574 0.472559 0.749944 0.683412 0.681210 0.827108 0.794717 0.827130 0.917860 0.859935 0.892229 0.727997 0.804798 0.841565 0.671174 0.601786 0.439526 0.422481 0.354126 0.180591 0.177702 0.116723 0.211985 0.117714 0.212671 0.107012 0.227734 0.235207 0.458103 0.414391 0.592289 0.629482 0.672729 0.733386 0.623963 0.606945 0.471621 0.421943 0.307620 0.274639 0.108088 0.169596 -0.017661 0.036841 -0.035057 -0.037179 -0.034074 0.041534 0.290174 0.306017 0.386051 0.331110 0.411556 0.441929 0.434492 0.430792 0.371833 0.359287 0.142234 0.092063 0.068342 -0.001304 -0.147390 -0.034126 -0.071234 0.045921 0.099825 0.171962 0.241461 0.250375 0.335460 0.434593 0.326793 0.377154 0.266071 0.143581 0.067688 0.056047 0.008778 0.039873 0.075141 0.110311 0.120851 0.197774 0.250433 0.301298 0.313622 0.237279 0.265600 0.234530 0.113657 0.089096 0.045612 0.039795 0.008867 0.006228 0.045841 0.176214 0.194448 0.200438 0.316731 0.195950 0.219077 0.094717 0.081232 -0.006215 -0.004979 0.007569 0.008123 0.042018 0.050480 0.091372 0.161753 0.157934 0.210618 0.123916 0.079627 0.104837 0.046821 -0.068298 -0.026941 0.010947 0.051404 0.072540 0.084126 0.148313 0.145548 0.147823 0.038423 0.055483 0.050573 0.046588 0.023209 -0.019894 0.033927 0.042108 0.085891 0.106730 0.101336 0.104535 0.124386 0.066559 0.005487 0.001919 0.032198 0.078600 0.060466 0.105775 0.097893 0.055505 0.111767 0.069310 0.038415 0.075893 -0.025684 0.024237 0.058430 0.035212 0.039939 0.041700 0.071252 0.049838 0.052199 0.010002 0.020917 -0.012268 0.031212 0.001599 0.053883 0.076124 0.063970 0.033459 -0.015738 -0.014017 -0.012301 0.026622 -0.005031 0.013433 0.068106 0.063870 -0.013630 0.010497 -0.010309 0.007543 -0.044442 -0.018557 -0.010391 0.025121 0.043051 0.010104 -0.023897 0.007416 -0.009042 0.001128 0.042310 0.015645 0.014576 -0.069069 0.007744 -0.002802 -0.050684 -0.012391 -0.023789 0.020145 0.066309 0.004665 0.004360 -0.001699 0.011004 0.011655 0.027831 -0.015220 -0.007423 0.010113 0.048723 0.014564 0.005132 0.051151 -0.016433 0.001172 0.029608 0.021759 0.054619 0.052699 0.018587 0.012722 -0.004489 -0.031994 -0.000595 0.074528 0.007434 0.064223 -0.015538 -0.022394 -0.016053 0.085753 -0.007701 0.004243 0.019465 0.024709 -0.002321 0.002301 0.029776 0.006266 -0.003281 0.027032 0.048838 0.092872 0.053554 0.030642 0.011954 -0.020201 -0.004629 0.002204 0.008149 0.099587 -0.025926 -0.090070 0.058208 -0.015523 0.015868 -0.043057 0.027298 0.012493 0.010165 -0.011405 -0.023035 -0.026805 -0.060700 0.018159 0.050128 0.078611 -0.109152 0.025356 -0.033157 -0.037699 -0.099178 0.134001 0.022537 0.061713 -0.047245 0.121393 0.251491 0.183267 0.096881 0.047224 -0.807017
0.072396 0.073047 0.074999 0.078252 0.082805 0.088657 0.095804 0.104245 0.113974 0.124988 0.137279 0.150840 0.165659 0.181724 0.199021 0.217529 0.237228 0.258091 0.280087 0.303181 0.327331 0.352492 0.378608 0.405619 0.433458 0.462046 0.491299 0.521123 0.551412 0.582053 0.612920 0.643878 0.674780 0.705467 0.735770 0.765507 0.794485 0.822501 0.849341 0.874780 0.898585 0.920512 0.940314 0.957734 0.972513 0.984388 0.993099 0.998384 0.999987 0.997660 0.991165 0.980278 0.964791 0.944520 0.919304 0.889011 0.853543 0.812840 0.766882 0.715696 0.659360 0.598005 0.531818 0.461050 0.386012 0.307083 0.224707 0.139398 0.051737 0.037630 0.127990 0.218573 0.308547 0.397036 0.483115 0.565829 0.644197 0.717225 0.783921 0.843307 0.894433 0.936398 0.968363 0.989572 0.999368 0.997210 0.982696 0.955575 0.915766 0.863369 0.798683 0.722210 0.634666 0.536982 0.430303 0.315988 0.195592 0.070861 0.056296 0.183827 0.309564 0.431267 0.546654 0.653451 0.749437 0.832494 0.900658 0.952174 0.985547 0.999590 0.993477 0.966775 0.919490 0.852086 0.765508 0.661185 0.541028 0.407410 0.263133 0.111383 0.044329 0.200245 0.352440 0.496924 0.629749 0.747117 0.845501 0.921761 0.973254 0.997947 0.994502 0.962363 0.901814 0.814011 0.700997 0.565682 0.411792 0.243793 0.066775 0.113685 0.291688 0.461208 0.616294 0.751282 0.861026 0.941100 0.988006 0.999346 0.973971 0.912080 0.815283 0.686600 0.530407 0.352324 0.159043 0.041902 0.242417 0.434158 0.608886 0.758828 0.877044 0.957769 0.996731 0.991406 0.941218 0.847645 0.714240 0.546550 0.351936 0.139274 0.081394 0.299342 0.503655 0.683798 0.830156 0.934598 0.990951 0.995422 0.946889 0.847078 0.700571 0.514675 0.299104 0.065528 0.173034 0.402914 0.610580 0.783447 0.910668 0.983864 0.997728 0.950472 0.844068 0.684265 0.480355 0.244708 0.007926 0.261307 0.498731 0.704127 0.863193 0.964417 0.999989 0.966469 0.865185 0.702303 0.488554 0.238604 0.029872 0.297419 0.544175 0.751365 0.902765 0.986036 0.993810 0.924425 0.782256 0.577552 0.325811 0.046691 0.237470 0.503404 0.728829 0.894359 0.985225 0.992703 0.915044 0.757854 0.533817 0.261807 0.034618 0.329192 0.595252 0.808155 0.947636 0.999819 0.958715 0.827024 0.616141 0.345310 0.039990 0.270462 0.555575 0.786757 0.940238 0.999597 0.957662 0.817504 0.592416 0.304808 0.015881 0.336134 0.621799 0.841781 0.971485 0.995700 0.910537 0.724165 0.456239 0.135973 0.200897 0.516065 0.772985 0.941184 1.000000 0.941275 0.770664 0.507325 0.181945 0.166672 0.496165 0.765748 0.941325 0.999935 0.932934 0.747459 0.465921 0.123504 0.236093 0.566137 0.822950 0.971781 0.991659 0.878569 0.646405 0.325521 0.041030 0.403144 0.710469 0.919451 0.999654 0.938395 0.742988 0.440166 0.072674 0.306593 0.642124 0.883941 0.995172 0.957882 0.776227 0.476331 0.102810 0.287676 0.634912 0.884441 0.996235 0.951348 0.755402 0.438245 0.049701 0.348068 0.690403 0.920706 0.999966 0.913621 0.674548 0.321478 0.086968 0.481838 0.795437 0.973027 0.982604 0.820969 0.514911 0.117134 0.302583 0.669487 0.917175 0.999822 0.900931 0.636981 0.255085 0.175102 0.573892 0.866329 0.996378 0.937983 0.700643 0.328314 0.108346 0.525192 0.840728 0.992176 0.948248 0.716006 0.340228 0.104865 0.529983 0.848635 0.994877 0.937240 0.685934 0.291546 0.164753 0.587658 0.887609 0.999910 0.899067 0.604990 0.179596 0.285862 0.690153
1.000000 1.000000 1.000000 1.000000 1.000000 1.000000 1.000000 1.000000 1.000000 1.000000 1.000000 1.000000 1.000000 1.000000 1.000000 1.000000 1.000000 1.000000 1.000000 1.000000 1.000000 1.000000 1.000000 1.000000 1.000000 1.000000 1.000000 1.000000 1.000000 1.000000 1.000000 1.000000 1.000000 1.000000 1.000000 1.000000 1.000000 1.000000 1.000000 1.000000 1.000000 1.000000 1.000000 1.000000 1.000000 1.000000 1.000000 1.000000 1.000000 1.000000 1.000000 1.000000 0.929366 0.929366 0.929366 0.929366 0.929366 0.929366 0.929366 0.929366 0.929366 0.929366 0.929366 0.929366 0.929366 0.929366 0.929366 0.929366 0.929366 0.929366 0.929366 0.929366 0.929366 0.929366 0.929366 0.929366 0.929366 0.929366 0.929366 0.929366 0.929366 0.929366 0.929366 0.929366 0.929366 0.917109 0.915076 0.916206 0.917316 0.917220 0.916697 0.916366 0.917403 0.918933 0.920872 0.942399 0.945785 0.946457 0.947677 0.949115 0.951635 0.949776 0.957763 0.964516 0.963676 0.964628 0.958661 0.959768 0.959247 0.958586 0.960297 0.960214 0.958745 0.957014 0.955678 0.955256 0.954990 0.956606 0.957116 0.957306 0.957759 0.957708 0.957570 0.957535 0.957831 0.960098 0.959285 0.958336 0.963968 0.962570 0.964509 0.964488 0.965195 0.965936 0.966150 0.966330 0.961781 0.961249 0.960313 0.947444 0.940623 0.937779 0.940252 0.943361 0.940496 0.936105 0.937307 0.939920 0.938296 0.937859 0.928880 0.927006 0.908593 0.899372 0.888206 0.888974 0.890740 0.891893 0.889758 0.881208 0.870968 0.867475 0.869831 0.864296 0.860115 0.876706 0.872513 0.873619 0.877400 0.879829 0.885145 0.879694 0.875407 0.871241 0.867566 0.864404 0.866748 0.871242 0.874546 0.862620 0.855330 0.858070 0.848077 0.840254 0.846763 0.848540 0.844741 0.843737 0.844619 0.845007 0.837524 0.833139 0.834941 0.844783 0.844906 0.835357 0.830815 0.824842 0.825051 0.821521 0.822403 0.821345 0.818415 0.812408 0.825373 0.795188 0.817928 0.814757 0.802949 0.788264 0.775816 0.779009 0.791701 0.794849 0.792359 0.776414 0.774529 0.773165 0.751861 0.757180 0.764357 0.762011 0.749566 0.727060 0.734957 0.744505 0.735716 0.726485 0.728789 0.728665 0.697729 0.710714 0.714292 0.699733 0.713597 0.714740 0.706366 0.703246 0.703915 0.705952 0.693316 0.656254 0.658391 0.664524 0.652818 0.602316 0.600822 0.602386 0.594517 0.522172 0.523207 0.511105 0.513088 0.504701 0.539878 0.512264 0.504921 0.533944 0.487918 0.396858 0.409779 0.402444 0.403870 0.419747 0.398940 0.352544 0.354172 0.391318 0.373923 0.344551 0.289646 0.327324 0.342006 0.385778 0.371510 0.380629 0.404122 0.386673 0.368636 0.355346 0.370833 0.362860 0.401817 0.345016 0.313630 0.325454 0.337013 0.346328 0.347799 0.332864 0.262533 0.302480 0.234975 0.258473 0.236301 0.221565 0.220600 0.251604 0.244942 0.252032 0.240057 0.273408 0.267198 0.267011 0.253845 0.260333 0.283582 0.227741 0.240816 0.271625 0.280108 0.357327 0.345808 0.315655 0.186559 0.249103 0.226861 0.233671 0.206462 0.124155 0.130599 0.139857 0.100383 0.106610 0.095938 0.064116 0.039252 0.003557 0.003017 -0.021807 -0.015176 0.005119 -0.007561 -0.007238 -0.007238 -0.007238 -0.007238 -0.041670 -0.041670 -0.041670 -0.041670 -0.041670 -0.041670 -0.041670 -0.041670 -0.041670 -0.041670 -0.041670 -0.041670 -0.041670 -0.041670 -0.018969 -0.018969 -0.018969 -0.018969 -0.018969 -0.018969 -0.018969 -0.018969 -0.018969 -0.018969 -0.018969 -0.018969
0.000000 0.000000 0.000000 0.000000 0.000000 0.000000 0.000000 0.000000 0.000000 0.000000 0.000000 0.000000 0.000000 0.000000 0.000000 0.000000 0.000000 0.000000 0.000000 0.000000 0.000000 0.000000 0.000000 0.000000 0.000000 7.000000 4.000000 0.000000 0.000000 0.000000 0.000000 0.000000 0.000000 0.000000 0.000000 0.000000 0.000000 0.000000 0.000000 0.000000 0.000000 0.000000 0.000000 0.000000 0.000000 0.000000 0.000000 0.000000 0.000000 0.000000 0.000000 0.000000 0.209657 0.209657 0.209657 0.209657 0.209657 0.209657 0.209657 0.209657 0.209657 0.209657 0.209657 0.209657 0.209657 0.209657 0.209657 0.209657 0.209657 0.209657 0.209657 0.209657 0.209657 0.209657 0.209657 0.209657 0.209657 0.209657 0.209657 0.209657 0.209657 0.209657 0.209657 0.209657 0.209657 0.244339 0.244339 0.244339 0.244339 0.244339 0.244339 0.244339 0.244339 0.244339 0.244339 0.244339 0.244339 0.244339 0.244339 0.244339 0.244339 0.244339 0.244339 0.244339 0.244339 0.244339 0.244339 0.244339 0.244339 0.244339 0.260378 0.260378 0.260378 0.260378 0.260378 0.260378 0.260378 0.260378 0.260378 0.260378 0.260378 0.260378 0.260378 0.260378 0.260378 0.260378 0.260378 0.260378 0.260378 0.260378 0.269680 0.269680 0.269680 0.269680 0.269680 0.269680 0.269680 0.269680 0.269680 0.269680 0.269680 0.269680 0.269680 0.269680 0.269680 0.269680 0.269680 0.269680 0.269680 0.269680 0.269680 0.269680 0.269680 0.269680 0.269680 0.269680 0.269680 0.269680 0.269680 0.269680 0.269680 0.269680 0.269680 0.280056 0.280056 0.280056 0.280056 0.280056 0.280056 0.280056 0.280056 0.280056 0.280056 0.280056 0.280056 0.280056 0.280056 0.280056 0.280056 0.280056 0.280056 0.280056 0.280056 0.280056 0.280056 0.280056 0.280056 0.280056 0.280056 0.280056 0.274721 0.274721 0.274721 0.274721 0.274721 0.274721 0.274721 0.274721 0.274721 0.274721 0.274721 0.274721 0.274721 0.285714 0.285714 0.285714 0.285714 0.285714 0.285714 0.285714 0.285714 0.285714 0.285714 0.285714 0.280056 0.280056 0.280056 0.280056 0.280056 0.280056 0.280056 0.280056 0.280056 0.280056 0.280056 0.274721 0.274721 0.274721 0.274721 0.274721 0.274721 0.274721 0.274721 0.274721 0.274721 0.274721 0.280056 0.280056 0.280056 0.280056 0.280056 0.280056 0.280056 0.280056 0.280056 0.280056 0.285714 0.285714 0.285714 0.285714 0.285714 0.285714 0.285714 0.285714 0.285714 0.269680 0.269680 0.269680 0.269680 0.269680 0.269680 0.269680 0.269680 0.269680 0.269680 0.291730 0.291730 0.291730 0.291730 0.291730 0.291730 0.291730 0.291730 0.269680 0.269680 0.269680 0.269680 0.269680 0.269680 0.269680 0.269680 0.269680 0.264906 0.264906 0.264906 0.264906 0.264906 0.264906 0.264906 0.264906 0.264906 0.274721 0.274721 0.274721 0.274721 0.274721 0.274721 0.274721 0.274721 0.269680 0.269680 0.269680 0.269680 0.269680 0.269680 0.269680 0.269680 0.285714 0.285714 0.285714 0.285714 0.285714 0.285714 0.285714 0.264906 0.264906 0.264906 0.264906 0.264906 0.264906 0.264906 0.264906 0.274721 0.274721 0.274721 0.274721 0.274721 0.274721 0.274721 0.256074 0.256074 0.256074 0.256074 0.256074 0.256074 0.256074 0.256074 0.264906 0.264906 0.264906 0.264906 0.264906 0.264906 0.264906 0.264906 0.264906 0.264906 0.264906 0.264906 0.264906 0.264906 0.260378 0.260378 0.260378 0.260378 0.260378 0.260378 0.260378 0.260378 0.260378 0.260378 0.260378 0.260378
