# Output from CTFFind version 4.1.9, run on 2019-11-03 19:00:54
# Input file: stack6_bm3d_averaged_1_2.75_0_1500_half.mrc ; Number of micrographs: 1
# Pixel size: 3.000 Angstroms ; acceleration voltage: 300.0 keV ; spherical aberration: 0.00 mm ; amplitude contrast: 0.07
# Box size: 512 pixels ; min. res.: 30.0 Angstroms ; max. res.: 5.0 Angstroms ; min. def.: 5000.0 um; max. def. 50000.0 um; num. frames averaged: 1
# 6 lines per micrograph: #1 - spatial frequency (1/Angstroms); #2 - 1D rotational average of spectrum (assuming no astigmatism); #3 - 1D rotational average of spectrum; #4 - CTF fit; #5 - cross-correlation between spectrum and CTF fit; #6 - 2sigma of expected cross correlation of noise
0.000000 0.000651 0.001302 0.001953 0.002604 0.003255 0.003906 0.004557 0.005208 0.005859 0.006510 0.007161 0.007812 0.008464 0.009115 0.009766 0.010417 0.011068 0.011719 0.012370 0.013021 0.013672 0.014323 0.014974 0.015625 0.016276 0.016927 0.017578 0.018229 0.018880 0.019531 0.020182 0.020833 0.021484 0.022135 0.022786 0.023438 0.024089 0.024740 0.025391 0.026042 0.026693 0.027344 0.027995 0.028646 0.029297 0.029948 0.030599 0.031250 0.031901 0.032552 0.033203 0.033854 0.034505 0.035156 0.035807 0.036458 0.037109 0.037760 0.038411 0.039062 0.039714 0.040365 0.041016 0.041667 0.042318 0.042969 0.043620 0.044271 0.044922 0.045573 0.046224 0.046875 0.047526 0.048177 0.048828 0.049479 0.050130 0.050781 0.051432 0.052083 0.052734 0.053385 0.054036 0.054688 0.055339 0.055990 0.056641 0.057292 0.057943 0.058594 0.059245 0.059896 0.060547 0.061198 0.061849 0.062500 0.063151 0.063802 0.064453 0.065104 0.065755 0.066406 0.067057 0.067708 0.068359 0.069010 0.069661 0.070312 0.070964 0.071615 0.072266 0.072917 0.073568 0.074219 0.074870 0.075521 0.076172 0.076823 0.077474 0.078125 0.078776 0.079427 0.080078 0.080729 0.081380 0.082031 0.082682 0.083333 0.083984 0.084635 0.085286 0.085938 0.086589 0.087240 0.087891 0.088542 0.089193 0.089844 0.090495 0.091146 0.091797 0.092448 0.093099 0.093750 0.094401 0.095052 0.095703 0.096354 0.097005 0.097656 0.098307 0.098958 0.099609 0.100260 0.100911 0.101562 0.102214 0.102865 0.103516 0.104167 0.104818 0.105469 0.106120 0.106771 0.107422 0.108073 0.108724 0.109375 0.110026 0.110677 0.111328 0.111979 0.112630 0.113281 0.113932 0.114583 0.115234 0.115885 0.116536 0.117188 0.117839 0.118490 0.119141 0.119792 0.120443 0.121094 0.121745 0.122396 0.123047 0.123698 0.124349 0.125000 0.125651 0.126302 0.126953 0.127604 0.128255 0.128906 0.129557 0.130208 0.130859 0.131510 0.132161 0.132812 0.133464 0.134115 0.134766 0.135417 0.136068 0.136719 0.137370 0.138021 0.138672 0.139323 0.139974 0.140625 0.141276 0.141927 0.142578 0.143229 0.143880 0.144531 0.145182 0.145833 0.146484 0.147135 0.147786 0.148438 0.149089 0.149740 0.150391 0.151042 0.151693 0.152344 0.152995 0.153646 0.154297 0.154948 0.155599 0.156250 0.156901 0.157552 0.158203 0.158854 0.159505 0.160156 0.160807 0.161458 0.162109 0.162760 0.163411 0.164062 0.164714 0.165365 0.166016 0.166667 0.167318 0.167969 0.168620 0.169271 0.169922 0.170573 0.171224 0.171875 0.172526 0.173177 0.173828 0.174479 0.175130 0.175781 0.176432 0.177083 0.177734 0.178385 0.179036 0.179688 0.180339 0.180990 0.181641 0.182292 0.182943 0.183594 0.184245 0.184896 0.185547 0.186198 0.186849 0.187500 0.188151 0.188802 0.189453 0.190104 0.190755 0.191406 0.192057 0.192708 0.193359 0.194010 0.194661 0.195312 0.195964 0.196615 0.197266 0.197917 0.198568 0.199219 0.199870 0.200521 0.201172 0.201823 0.202474 0.203125 0.203776 0.204427 0.205078 0.205729 0.206380 0.207031 0.207682 0.208333 0.208984 0.209635 0.210286 0.210938 0.211589 0.212240 0.212891 0.213542 0.214193 0.214844 0.215495 0.216146 0.216797 0.217448 0.218099 0.218750 0.219401 0.220052 0.220703 0.221354 0.222005 0.222656 0.223307 0.223958 0.224609 0.225260 0.225911 0.226562 0.227214 0.227865 0.228516 0.229167 0.229818 0.230469 0.231120 0.231771 0.232422 0.233073 0.233724 0.234375 0.235026 0.235677
       0.30324        0.30324        0.30324        0.30324        0.30324        0.30324        0.30325        0.30325        0.30324        0.30324        0.30325        0.30324        0.30325        0.30325        0.30325        0.30324        0.30325        0.30324        0.30325        0.30325        0.30324        0.30324        0.30324        0.30325        0.30324        0.30325        0.30324        0.30325        0.30324        0.30325        0.30325        0.30324        0.30325        0.30324        0.30324        0.30324        0.30325        0.30324        0.30325        0.30324        0.30325        0.30324        0.30324        0.30325        0.30324        0.30325        0.30325        0.30325        0.30324        0.30325        0.30324        0.62126        0.78108        0.38463        0.26672        0.16122       -0.12211        0.12092        0.02365        0.03687        0.10821        0.34706        0.40454        0.35806        0.20745       -0.01956        0.03065        0.06628       -0.17164       -0.17775       -0.08738       -0.11411       -0.29130       -0.18276       -0.31323       -0.27407       -0.29214       -0.39370       -0.45909       -0.45243       -0.39056       -0.33523       -0.41467       -0.32226       -0.39486       -0.33335       -0.26518       -0.20052       -0.17834       -0.09278       -0.05346        0.05186        0.08876        0.23028        0.31547        0.37885        0.39045        0.50325        0.56883        0.60131        0.69023        0.66536        0.73099        0.62441        0.65475        0.66611        0.60872        0.60541        0.61519        0.40491        0.37034        0.36024        0.33301        0.19749        0.12824        0.05855        0.07471        0.02303       -0.06917       -0.00183       -0.03631       -0.07639        0.05652        0.16458        0.26512        0.31909        0.31912        0.39740        0.50876        0.53988        0.50295        0.65470        0.53825        0.51781        0.57518        0.58617        0.53078        0.48370        0.41538        0.36850        0.23216        0.18835        0.12580        0.13647        0.10754        0.05812        0.08205        0.14769        0.14096        0.15627        0.21021        0.24290        0.33765        0.44491        0.45651        0.45855        0.51158        0.56993        0.53670        0.50956        0.39668        0.40763        0.36017        0.28228        0.23533        0.21374        0.16447        0.18290        0.17687        0.17136        0.13714        0.20338        0.24379        0.34557        0.38312        0.40428        0.46493        0.49575        0.43788        0.45423        0.41219        0.40466        0.40555        0.34752        0.27501        0.26714        0.19572        0.21727        0.21906        0.19438        0.21603        0.21957        0.25310        0.32274        0.38339        0.37759        0.37374        0.37914        0.44025        0.43199        0.41215        0.33394        0.31392        0.27970        0.29488        0.24515        0.20778        0.26692        0.29835        0.27995        0.28878        0.32942        0.32090        0.38095        0.34511        0.34595        0.36077        0.33551        0.32405        0.30102        0.27530        0.28626        0.25901        0.22237        0.26411        0.26020        0.30498        0.30726        0.34065        0.36253        0.32226        0.30650        0.35040        0.34203        0.25833        0.28460        0.28845        0.25502        0.23860        0.28498        0.27697        0.27504        0.30751        0.30314        0.31772        0.32305        0.34183        0.28131        0.29471        0.31413        0.27629        0.25484        0.24836        0.24263        0.25151        0.27182        0.27957        0.27651        0.27403        0.31748        0.34337        0.28104        0.30099        0.25571        0.24616        0.24497        0.24421        0.23878        0.24030        0.28590        0.25757        0.29623        0.28331        0.27955        0.31666        0.26321        0.29840        0.29199        0.29637        0.25717        0.24951        0.23610        0.24739        0.30687        0.29958        0.32522        0.31708        0.31724        0.28750        0.32314        0.26117        0.18682        0.27596        0.27821        0.26254        0.27807        0.30197        0.29806        0.35847        0.28490        0.22194        0.22194        0.24074        0.27668        0.30240        0.29035        0.25982        0.27480        0.25850        0.28530        0.27660        0.25513        0.25081        0.24233        0.29648        0.24759        0.26310        0.31157        0.28455        0.25088        0.28070        0.27659        0.28470        0.20567        0.24843        0.25528        0.29128        0.28366        0.31393        0.26694        0.24775        0.26485        0.23160        0.20279        0.18606        0.22745        0.21168        0.22133        0.22065        0.21488        0.26969        0.24652        0.27380        0.22705        0.17283        0.18466        0.18604        0.16060        0.20933        0.17306        0.19233        0.19069        0.07688        0.22065        0.14120        0.04468        0.17644        0.11278        0.08707        0.13791       -0.22597       -0.51172       -0.82893
2.834821 2.807113 2.779546 2.752121 2.724837 2.697695 2.670694 2.643834 2.617116 2.590538 2.564103 2.537808 2.511656 2.485644 2.459774 2.434045 2.408457 2.383011 2.357707 2.332543 2.307521 2.282640 2.257901 2.233303 2.208847 2.184531 2.160358 2.136325 2.112434 2.088684 2.065076 2.041609 2.018283 1.995099 1.972056 1.949154 1.926394 1.903775 1.881298 1.858961 1.836767 1.814713 1.792801 1.771030 1.749401 1.727913 1.706567 1.685361 1.664297 1.643375 1.622594 1.939016 2.264344 1.673705 1.679714 1.350626 0.884221 1.195387 1.058365 1.093886 0.988537 1.536835 1.502073 1.507421 1.247249 0.930511 0.784755 1.009137 0.718127 0.444411 0.584882 0.661406 0.397818 0.466360 0.292691 0.302154 0.209504 0.171329 -0.065674 -0.009593 0.036883 0.047080 0.035970 0.132832 -0.052570 0.012992 0.110942 0.211547 0.249936 0.285491 0.340000 0.596392 0.461181 0.682594 0.876548 0.904692 0.905404 1.146540 1.137247 1.215491 1.311738 1.192970 1.412818 1.163026 1.151849 1.317914 1.128923 1.069873 1.185610 0.878869 0.711692 0.684990 0.710255 0.451096 0.400934 0.249105 0.224653 0.142138 -0.005017 0.128368 0.009229 -0.064321 0.103058 0.233659 0.354709 0.472517 0.490587 0.531983 0.713247 0.767716 0.618171 0.968133 0.803723 0.678964 0.759584 0.761474 0.724503 0.712104 0.471864 0.535188 0.252502 0.195453 0.117562 -0.006564 0.056363 -0.063292 -0.050186 -0.011695 0.079325 -0.059781 0.217948 0.130973 0.205596 0.397092 0.453008 0.472765 0.402221 0.616025 0.621509 0.491276 0.375092 0.351780 0.325924 0.171868 0.106252 0.040763 0.036103 -0.023973 -0.016275 -0.027310 -0.103146 -0.008622 0.018968 0.126843 0.276579 0.230665 0.375460 0.361006 0.395417 0.359095 0.429376 0.360151 0.255859 0.343561 0.134832 0.191018 0.023124 0.055089 0.035416 0.022238 -0.020773 0.022577 0.072751 0.121472 0.240149 0.295157 0.216498 0.243748 0.351548 0.333822 0.342534 0.204103 0.143925 0.147634 0.095553 0.101874 -0.007680 -0.010804 0.134655 0.060347 0.097546 0.100921 0.136472 0.214974 0.215070 0.177488 0.187532 0.200746 0.148109 0.141146 0.076952 0.077058 0.115984 -0.032837 0.036715 0.074756 0.024555 0.160370 0.104950 0.198687 0.198050 0.133415 0.113051 0.207728 0.123257 0.037810 0.092957 0.057900 0.018154 0.033657 0.088599 0.056607 0.042384 0.148827 0.087910 0.120084 0.132363 0.129042 0.098514 0.058166 0.113385 0.054184 0.012235 0.001637 0.001586 0.011264 0.035036 0.065753 0.065513 0.011334 0.107905 0.136377 -0.007075 0.084335 -0.005050 -0.017876 -0.021512 -0.027505 -0.042502 0.017915 0.034931 -0.045555 0.075275 0.027408 0.027398 0.068040 -0.008871 0.025506 0.062878 -0.005776 -0.000728 -0.051286 -0.039333 -0.034638 0.057601 0.056969 0.053537 0.033806 0.121442 0.002249 0.094135 -0.070688 -0.126119 0.027803 -0.005270 -0.005527 -0.020472 0.068288 0.034126 0.090784 -0.042436 -0.130781 -0.081708 -0.090539 0.043471 0.008554 0.003371 -0.041713 -0.036297 -0.047856 0.012523 -0.042538 -0.047520 -0.053048 -0.115079 0.031276 -0.071992 -0.003743 0.039822 -0.023573 -0.042320 0.045875 0.009202 0.006837 -0.111043 -0.004750 -0.041787 0.082777 0.077153 0.080249 0.020699 -0.012103 0.037043 0.013713 -0.094128 -0.002831 -0.023503 -0.000411 0.009157 0.013611 0.000556 0.112252 0.067349 0.154191 0.021692 0.010672 -0.009287 0.037852 -0.062721 0.074662 -0.043463 0.105955 0.059557 -0.014593 0.326125 0.214383 0.072502 0.314147 0.208757 0.102297 0.337726 -0.330034 -1.214478
0.072396 0.072835 0.074150 0.076342 0.079410 0.083354 0.088172 0.093863 0.100426 0.107859 0.116160 0.125325 0.135350 0.146231 0.157963 0.170539 0.183952 0.198192 0.213250 0.229113 0.245768 0.263199 0.281389 0.300317 0.319960 0.340294 0.361289 0.382916 0.405139 0.427919 0.451216 0.474983 0.499171 0.523725 0.548587 0.573693 0.598976 0.624362 0.649774 0.675128 0.700337 0.725307 0.749938 0.774129 0.797769 0.820744 0.842937 0.864224 0.884476 0.903563 0.921349 0.937697 0.952464 0.965507 0.976683 0.985845 0.992850 0.997553 0.999811 0.999487 0.996446 0.990557 0.981700 0.969758 0.954627 0.936212 0.914431 0.889216 0.860514 0.828290 0.792526 0.753225 0.710413 0.664136 0.614469 0.561508 0.505381 0.446240 0.384270 0.319682 0.252723 0.183664 0.112812 0.040502 0.032899 0.106998 0.181370 0.255569 0.329120 0.401529 0.472284 0.540855 0.606703 0.669279 0.728033 0.782418 0.831892 0.875929 0.914020 0.945684 0.970472 0.987973 0.997822 0.999709 0.993381 0.978651 0.955405 0.923608 0.883305 0.834633 0.777819 0.713183 0.641147 0.562225 0.477035 0.386287 0.290785 0.191425 0.089181 0.014892 0.119677 0.223999 0.326640 0.426352 0.521873 0.611941 0.695316 0.770794 0.837227 0.893544 0.938770 0.972044 0.992642 0.999988 0.993679 0.973493 0.939408 0.891606 0.830486 0.756669 0.670992 0.574513 0.468501 0.354425 0.233937 0.108855 0.018861 0.147137 0.273822 0.396715 0.513608 0.622328 0.720777 0.806974 0.879103 0.935553 0.974962 0.996249 0.998657 0.981776 0.945573 0.890403 0.817022 0.726592 0.620664 0.501169 0.370393 0.230931 0.085653 0.062357 0.209861 0.353534 0.490044 0.616125 0.728661 0.824771 0.901882 0.957814 0.990843 0.999768 0.983961 0.943402 0.878712 0.791153 0.682624 0.555633 0.413251 0.259050 0.097023 0.068511 0.233023 0.391889 0.540527 0.674525 0.789785 0.882652 0.950042 0.989556 0.999579 0.979357 0.929053 0.849773 0.743563 0.613379 0.463022 0.297041 0.120611 0.060626 0.240723 0.413630 0.573393 0.714372 0.831438 0.920178 0.977075 0.999664 0.986656 0.938027 0.855053 0.740312 0.597625 0.431954 0.249247 0.056236 0.139789 0.331265 0.510629 0.670640 0.804660 0.906962 0.972980 0.999540 0.985034 0.929531 0.834835 0.704449 0.543481 0.358475 0.157153 0.051873 0.259475 0.456398 0.633667 0.783019 0.897296 0.970810 0.999653 0.981931 0.917915 0.810084 0.663076 0.483514 0.279748 0.061479 0.160677 0.375697 0.572704 0.741519 0.873205 0.960566 0.998564 0.984648 0.918954 0.804369 0.646454 0.453209 0.234708 0.002595 0.230516 0.451718 0.648530 0.809614 0.925447 0.988922 0.995817 0.945115 0.839145 0.683533 0.486951 0.260676 0.017967 0.226676 0.458384 0.662814 0.827051 0.940463 0.995417 0.987836 0.917551 0.788404 0.608099 0.387796 0.141457 0.114999 0.364703 0.590969 0.778381 0.913897 0.987789 0.994384 0.932556 0.805911 0.622642 0.395064 0.138831 0.128101 0.386717 0.618288 0.805748 0.934975 0.995910 0.983387 0.897635 0.744377 0.534533 0.283486 0.010018 0.265061 0.520498 0.736228 0.894988 0.983738 0.994793 0.926551 0.783762 0.577268 0.323265 0.042086 0.243392 0.509582 0.734150 0.897915 0.986531 0.991813 0.912568 0.754835 0.531535 0.261466 0.032207 0.323895 0.587811 0.800267 0.941822 0.999133 0.966291 0.845502 0.647056 0.388549 0.093375 0.211307 0.497065 0.736847 0.907569 0.992396 0.982488 0.878005 0.688270 0.431039 0.130929 0.182876 0.479429 0.729081 0.906463
1.000000 1.000000 1.000000 1.000000 1.000000 1.000000 1.000000 1.000000 1.000000 1.000000 1.000000 1.000000 1.000000 1.000000 1.000000 1.000000 1.000000 1.000000 1.000000 1.000000 1.000000 1.000000 1.000000 1.000000 1.000000 1.000000 1.000000 1.000000 1.000000 1.000000 1.000000 1.000000 1.000000 1.000000 1.000000 1.000000 1.000000 1.000000 1.000000 1.000000 1.000000 1.000000 1.000000 1.000000 1.000000 1.000000 1.000000 1.000000 1.000000 1.000000 1.000000 1.000000 0.830867 0.830867 0.830867 0.830867 0.830867 0.830867 0.830867 0.808884 0.808884 0.808884 0.808884 0.808884 0.808884 0.808884 0.808884 0.808884 0.808884 0.808884 0.808884 0.808884 0.808884 0.808884 0.808884 0.808884 0.808884 0.808884 0.808884 0.808884 0.808884 0.808884 0.808884 0.808884 0.808884 0.808884 0.808884 0.808884 0.808884 0.808884 0.808884 0.808884 0.808884 0.808884 0.808884 0.808884 0.808884 0.808884 0.808884 0.808884 0.808884 0.808884 0.808884 0.949198 0.949990 0.950307 0.949313 0.947730 0.944215 0.942502 0.941713 0.944402 0.944620 0.944865 0.945773 0.946343 0.947920 0.948901 0.950067 0.950852 0.958951 0.962655 0.962388 0.961550 0.962404 0.973117 0.970188 0.967742 0.967776 0.967929 0.967903 0.967791 0.967688 0.967249 0.966663 0.967136 0.967010 0.966466 0.965700 0.964706 0.964273 0.963662 0.963585 0.964419 0.964517 0.965123 0.966402 0.966347 0.967002 0.965648 0.964875 0.954204 0.952040 0.949791 0.949559 0.950616 0.950338 0.949573 0.948280 0.948345 0.948270 0.947200 0.947080 0.945959 0.938256 0.938411 0.938286 0.939111 0.932899 0.924018 0.920919 0.919043 0.920207 0.923359 0.926924 0.924664 0.923149 0.919453 0.911529 0.905104 0.895500 0.894216 0.890480 0.893763 0.895191 0.896795 0.896775 0.896810 0.895422 0.893924 0.877836 0.881957 0.879178 0.875419 0.870812 0.867022 0.865071 0.866603 0.869531 0.859871 0.842488 0.842803 0.832418 0.804456 0.802468 0.806200 0.816240 0.826015 0.823958 0.822728 0.809212 0.805454 0.789538 0.780034 0.781726 0.784758 0.782311 0.790397 0.794982 0.789600 0.775066 0.770054 0.776242 0.789674 0.799873 0.804449 0.803229 0.799890 0.799512 0.758820 0.758084 0.760524 0.731939 0.735579 0.729608 0.729317 0.735555 0.732325 0.729163 0.736702 0.734144 0.706272 0.712593 0.713942 0.712432 0.714821 0.701196 0.693366 0.658820 0.652056 0.634092 0.644160 0.647067 0.659570 0.648204 0.657822 0.667598 0.667149 0.676956 0.675884 0.659742 0.652719 0.661916 0.667340 0.634198 0.640863 0.640345 0.635009 0.628117 0.619211 0.632634 0.620282 0.599469 0.596677 0.557902 0.538715 0.530611 0.515962 0.498145 0.480756 0.496317 0.500460 0.498950 0.486234 0.461420 0.389211 0.387570 0.385683 0.362990 0.372150 0.359288 0.330178 0.373874 0.376753 0.385813 0.356849 0.337176 0.310094 0.213294 0.198176 0.158342 0.168741 0.173621 0.162810 0.155172 0.158186 0.157864 0.138474 0.149223 0.148466 0.171818 0.157348 0.128934 0.140416 0.134761 0.117353 0.098885 0.094670 0.138767 0.116775 0.125184 0.128414 0.081119 0.051219 -0.008073 0.001167 0.012791 0.044130 0.075939 0.067412 0.042445 -0.045119 -0.013216 0.012702 0.012702 0.012702 0.012702 0.012702 0.012702 0.012702 0.012702 0.012702 0.012702 0.012702 -0.043185 -0.043185 -0.043185 -0.043185 -0.043185 -0.043185 -0.043185 -0.043185 -0.043185 -0.043185 -0.043185 -0.043185 -0.043185 -0.043185 -0.043185 -0.043185 -0.043185 -0.043185 -0.043185
0.000000 0.000000 0.000000 0.000000 0.000000 0.000000 0.000000 0.000000 0.000000 0.000000 0.000000 0.000000 0.000000 0.000000 0.000000 0.000000 0.000000 0.000000 0.000000 0.000000 0.000000 0.000000 0.000000 0.000000 0.000000 0.000000 0.000000 0.000000 0.000000 0.000000 0.000000 0.000000 0.000000 0.000000 0.000000 0.000000 0.000000 0.000000 0.000000 0.000000 0.000000 0.000000 0.000000 0.000000 0.000000 0.000000 0.000000 0.000000 0.000000 0.000000 0.000000 0.000000 0.173422 0.173422 0.173422 0.173422 0.173422 0.173422 0.173422 0.191565 0.191565 0.191565 0.191565 0.191565 0.191565 0.191565 0.191565 0.191565 0.191565 0.191565 0.191565 0.191565 0.191565 0.191565 0.191565 0.191565 0.191565 0.191565 0.191565 0.191565 0.191565 0.191565 0.191565 0.191565 0.191565 0.191565 0.191565 0.191565 0.191565 0.191565 0.191565 0.191565 0.191565 0.191565 0.191565 0.191565 0.191565 0.191565 0.191565 0.191565 0.191565 0.191565 0.191565 0.219529 0.219529 0.219529 0.219529 0.219529 0.219529 0.219529 0.219529 0.219529 0.219529 0.219529 0.219529 0.219529 0.219529 0.219529 0.219529 0.219529 0.219529 0.219529 0.219529 0.219529 0.219529 0.219529 0.219529 0.219529 0.219529 0.219529 0.219529 0.219529 0.219529 0.219529 0.237356 0.237356 0.237356 0.237356 0.237356 0.237356 0.237356 0.237356 0.237356 0.237356 0.237356 0.237356 0.237356 0.237356 0.237356 0.237356 0.237356 0.237356 0.237356 0.237356 0.237356 0.237356 0.237356 0.237356 0.244339 0.244339 0.244339 0.244339 0.244339 0.244339 0.244339 0.244339 0.244339 0.244339 0.244339 0.244339 0.244339 0.244339 0.244339 0.244339 0.244339 0.244339 0.244339 0.244339 0.244339 0.248069 0.248069 0.248069 0.248069 0.248069 0.248069 0.248069 0.248069 0.248069 0.248069 0.248069 0.248069 0.248069 0.248069 0.248069 0.248069 0.248069 0.248069 0.248069 0.248069 0.248069 0.248069 0.248069 0.248069 0.248069 0.248069 0.248069 0.248069 0.248069 0.248069 0.248069 0.248069 0.248069 0.248069 0.248069 0.248069 0.248069 0.256074 0.256074 0.256074 0.256074 0.256074 0.256074 0.256074 0.256074 0.256074 0.256074 0.256074 0.256074 0.256074 0.256074 0.256074 0.256074 0.256074 0.256074 0.256074 0.256074 0.256074 0.256074 0.256074 0.256074 0.256074 0.256074 0.256074 0.256074 0.256074 0.256074 0.256074 0.256074 0.256074 0.256074 0.256074 0.256074 0.256074 0.256074 0.256074 0.256074 0.256074 0.256074 0.256074 0.256074 0.256074 0.260378 0.260378 0.260378 0.260378 0.260378 0.260378 0.260378 0.260378 0.260378 0.260378 0.260378 0.260378 0.260378 0.256074 0.256074 0.256074 0.256074 0.256074 0.256074 0.256074 0.256074 0.256074 0.256074 0.256074 0.256074 0.256074 0.260378 0.260378 0.260378 0.260378 0.260378 0.260378 0.260378 0.260378 0.260378 0.260378 0.260378 0.260378 0.251976 0.251976 0.251976 0.251976 0.251976 0.251976 0.251976 0.251976 0.251976 0.251976 0.251976 0.251976 0.256074 0.256074 0.256074 0.256074 0.256074 0.256074 0.256074 0.256074 0.256074 0.256074 0.256074 0.251976 0.251976 0.251976 0.251976 0.251976 0.251976 0.251976 0.251976 0.251976 0.251976 0.251976 0.248069 0.248069 0.248069 0.248069 0.248069 0.248069 0.248069 0.248069 0.248069 0.248069 0.248069 0.256074 0.256074 0.256074 0.256074 0.256074 0.256074 0.256074 0.256074 0.256074 0.256074 0.256074 0.256074 0.256074 0.256074 0.256074 0.256074 0.256074 0.256074 0.256074
