# Output from CTFFind version 4.1.9, run on 2019-11-03 20:10:52
# Input file: stack16_bm3d_averaged_1_7.0_0_3000_half.mrc ; Number of micrographs: 1
# Pixel size: 3.000 Angstroms ; acceleration voltage: 300.0 keV ; spherical aberration: 0.00 mm ; amplitude contrast: 0.07
# Box size: 512 pixels ; min. res.: 30.0 Angstroms ; max. res.: 5.0 Angstroms ; min. def.: 5000.0 um; max. def. 50000.0 um; num. frames averaged: 1
# 6 lines per micrograph: #1 - spatial frequency (1/Angstroms); #2 - 1D rotational average of spectrum (assuming no astigmatism); #3 - 1D rotational average of spectrum; #4 - CTF fit; #5 - cross-correlation between spectrum and CTF fit; #6 - 2sigma of expected cross correlation of noise
0.000000 0.000651 0.001302 0.001953 0.002604 0.003255 0.003906 0.004557 0.005208 0.005859 0.006510 0.007161 0.007812 0.008464 0.009115 0.009766 0.010417 0.011068 0.011719 0.012370 0.013021 0.013672 0.014323 0.014974 0.015625 0.016276 0.016927 0.017578 0.018229 0.018880 0.019531 0.020182 0.020833 0.021484 0.022135 0.022786 0.023438 0.024089 0.024740 0.025391 0.026042 0.026693 0.027344 0.027995 0.028646 0.029297 0.029948 0.030599 0.031250 0.031901 0.032552 0.033203 0.033854 0.034505 0.035156 0.035807 0.036458 0.037109 0.037760 0.038411 0.039062 0.039714 0.040365 0.041016 0.041667 0.042318 0.042969 0.043620 0.044271 0.044922 0.045573 0.046224 0.046875 0.047526 0.048177 0.048828 0.049479 0.050130 0.050781 0.051432 0.052083 0.052734 0.053385 0.054036 0.054688 0.055339 0.055990 0.056641 0.057292 0.057943 0.058594 0.059245 0.059896 0.060547 0.061198 0.061849 0.062500 0.063151 0.063802 0.064453 0.065104 0.065755 0.066406 0.067057 0.067708 0.068359 0.069010 0.069661 0.070312 0.070964 0.071615 0.072266 0.072917 0.073568 0.074219 0.074870 0.075521 0.076172 0.076823 0.077474 0.078125 0.078776 0.079427 0.080078 0.080729 0.081380 0.082031 0.082682 0.083333 0.083984 0.084635 0.085286 0.085938 0.086589 0.087240 0.087891 0.088542 0.089193 0.089844 0.090495 0.091146 0.091797 0.092448 0.093099 0.093750 0.094401 0.095052 0.095703 0.096354 0.097005 0.097656 0.098307 0.098958 0.099609 0.100260 0.100911 0.101562 0.102214 0.102865 0.103516 0.104167 0.104818 0.105469 0.106120 0.106771 0.107422 0.108073 0.108724 0.109375 0.110026 0.110677 0.111328 0.111979 0.112630 0.113281 0.113932 0.114583 0.115234 0.115885 0.116536 0.117188 0.117839 0.118490 0.119141 0.119792 0.120443 0.121094 0.121745 0.122396 0.123047 0.123698 0.124349 0.125000 0.125651 0.126302 0.126953 0.127604 0.128255 0.128906 0.129557 0.130208 0.130859 0.131510 0.132161 0.132812 0.133464 0.134115 0.134766 0.135417 0.136068 0.136719 0.137370 0.138021 0.138672 0.139323 0.139974 0.140625 0.141276 0.141927 0.142578 0.143229 0.143880 0.144531 0.145182 0.145833 0.146484 0.147135 0.147786 0.148438 0.149089 0.149740 0.150391 0.151042 0.151693 0.152344 0.152995 0.153646 0.154297 0.154948 0.155599 0.156250 0.156901 0.157552 0.158203 0.158854 0.159505 0.160156 0.160807 0.161458 0.162109 0.162760 0.163411 0.164062 0.164714 0.165365 0.166016 0.166667 0.167318 0.167969 0.168620 0.169271 0.169922 0.170573 0.171224 0.171875 0.172526 0.173177 0.173828 0.174479 0.175130 0.175781 0.176432 0.177083 0.177734 0.178385 0.179036 0.179688 0.180339 0.180990 0.181641 0.182292 0.182943 0.183594 0.184245 0.184896 0.185547 0.186198 0.186849 0.187500 0.188151 0.188802 0.189453 0.190104 0.190755 0.191406 0.192057 0.192708 0.193359 0.194010 0.194661 0.195312 0.195964 0.196615 0.197266 0.197917 0.198568 0.199219 0.199870 0.200521 0.201172 0.201823 0.202474 0.203125 0.203776 0.204427 0.205078 0.205729 0.206380 0.207031 0.207682 0.208333 0.208984 0.209635 0.210286 0.210938 0.211589 0.212240 0.212891 0.213542 0.214193 0.214844 0.215495 0.216146 0.216797 0.217448 0.218099 0.218750 0.219401 0.220052 0.220703 0.221354 0.222005 0.222656 0.223307 0.223958 0.224609 0.225260 0.225911 0.226562 0.227214 0.227865 0.228516 0.229167 0.229818 0.230469 0.231120 0.231771 0.232422 0.233073 0.233724 0.234375 0.235026 0.235677
       0.35515        0.35515        0.35515        0.35515        0.35515        0.35515        0.35515        0.35515        0.35515        0.35515        0.35515        0.35515        0.35515        0.35515        0.35515        0.35515        0.35515        0.35515        0.35515        0.35515        0.35515        0.35515        0.35515        0.35515        0.35515        0.35515        0.35515        0.35515        0.35515        0.35515        0.35515        0.35515        0.35515        0.35515        0.35515        0.35515        0.35515        0.35515        0.35515        0.35515        0.35515        0.35515        0.35515        0.35515        0.35515        0.35515        0.35515        0.35515        0.35515        0.35515        0.35515        0.43300        0.55827        0.34478       -0.21604       -0.44819       -0.53916       -0.64149       -0.70978       -0.71469       -0.80745       -0.88304       -0.67351       -0.82669       -0.81193       -0.95303       -0.99234       -0.87353       -0.83240       -0.79207       -0.70188       -0.63353       -0.54341       -0.45042       -0.38665       -0.15906       -0.05752        0.04744        0.26749        0.26315        0.32186        0.37443        0.40699        0.52935        0.54166        0.57730        0.53535        0.47749        0.50858        0.53471        0.45851        0.33732        0.22321        0.18865        0.11706        0.02192        0.00555       -0.00379        0.06681        0.03359        0.08517        0.05751        0.17495        0.20317        0.41279        0.46392        0.55070        0.65925        0.68619        0.71341        0.64126        0.61393        0.54910        0.44517        0.39357        0.28674        0.22537        0.22275        0.11151        0.12362        0.12527        0.09643        0.10419        0.30954        0.42278        0.53005        0.53633        0.56956        0.60825        0.58920        0.57230        0.58648        0.57092        0.47207        0.31509        0.27347        0.26536        0.16323        0.10026        0.17961        0.22211        0.29405        0.35872        0.43275        0.47828        0.53462        0.60459        0.54916        0.50788        0.51048        0.36068        0.28882        0.26981        0.18458        0.21284        0.24837        0.28589        0.29117        0.33622        0.43557        0.46970        0.50150        0.45668        0.44462        0.49232        0.40180        0.33390        0.29379        0.26970        0.24123        0.23292        0.24489        0.34528        0.45424        0.43949        0.49129        0.55687        0.45518        0.41767        0.36074        0.32369        0.28160        0.28911        0.27654        0.29579        0.36340        0.37000        0.44564        0.47526        0.44595        0.46816        0.38451        0.38395        0.35787        0.28073        0.26185        0.26026        0.34374        0.38595        0.36870        0.39432        0.43677        0.44838        0.38742        0.34320        0.32836        0.35833        0.32277        0.29076        0.29537        0.36488        0.38167        0.39986        0.39204        0.39856        0.42649        0.41276        0.33117        0.29598        0.31903        0.34708        0.39015        0.36676        0.40812        0.35164        0.37556        0.39738        0.34656        0.36004        0.32795        0.30886        0.34296        0.35225        0.33653        0.36735        0.38282        0.33441        0.35497        0.32894        0.32303        0.30651        0.32766        0.33042        0.33288        0.37232        0.38099        0.36515        0.31513        0.30808        0.29294        0.33744        0.32140        0.32130        0.37725        0.36202        0.34637        0.32319        0.31180        0.31210        0.28361        0.32515        0.33962        0.35168        0.37778        0.36012        0.32400        0.34430        0.36212        0.34282        0.36048        0.35247        0.32129        0.33912        0.29764        0.32526        0.30592        0.32150        0.29125        0.32669        0.35504        0.33309        0.36159        0.32015        0.34130        0.36163        0.34731        0.32604        0.33504        0.37267        0.35122        0.35530        0.33685        0.31698        0.32732        0.32123        0.33199        0.33081        0.36875        0.33641        0.33837        0.30200        0.29839        0.27685        0.28089        0.36654        0.31649        0.33780        0.30030        0.26927        0.27927        0.36855        0.31226        0.29025        0.32811        0.32298        0.29905        0.26417        0.30474        0.27406        0.30651        0.31237        0.34753        0.34040        0.32598        0.32093        0.27234        0.28719        0.28569        0.28863        0.30498        0.36457        0.30541        0.21209        0.30889        0.30396        0.33953        0.26885        0.29914        0.29048        0.33379        0.28839        0.27694        0.27765        0.25214        0.31240        0.33786        0.32844        0.25972        0.31766        0.26937        0.24267        0.22671        0.32974        0.25750        0.16157        0.11619        0.20200        0.34859        0.26358        0.19095        0.13970       -0.40757       -0.53437
3.232225 3.191083 3.150208 3.109600 3.069260 3.029187 2.989383 2.949845 2.910575 2.871572 2.832837 2.794369 2.756169 2.718236 2.680570 2.643172 2.606042 2.569179 2.532583 2.496255 2.460195 2.424401 2.388876 2.353618 2.318627 2.283903 2.249448 2.215259 2.181338 2.147685 2.114299 2.081180 2.048329 2.015746 1.983430 1.951381 1.919600 1.888086 1.856840 1.825861 1.795149 1.764706 1.734529 1.704620 1.674979 1.645605 1.616498 1.587659 1.559087 1.530783 1.502746 1.538544 1.609005 1.549874 0.842949 0.600092 0.461500 0.391874 0.294896 0.222636 0.190954 -0.047923 0.211638 0.078249 -0.026893 -0.105057 -0.236518 -0.142137 -0.050234 -0.093814 -0.070776 0.038308 0.038759 0.232894 0.109824 0.358434 0.464265 0.498370 0.774067 0.683235 0.698357 0.822684 0.795457 0.844598 0.922941 0.852113 0.885680 0.725014 0.784572 0.844570 0.689753 0.605065 0.433731 0.427961 0.327563 0.192407 0.187494 0.113555 0.208027 0.119396 0.207040 0.104434 0.214262 0.227254 0.434725 0.398831 0.567124 0.605635 0.626226 0.714556 0.600777 0.571026 0.456863 0.407198 0.283267 0.259366 0.089083 0.148401 -0.031193 0.035654 -0.031018 -0.045522 -0.061099 0.021484 0.258911 0.288281 0.352793 0.290862 0.375761 0.385577 0.405609 0.387595 0.352361 0.321351 0.117071 0.070252 0.060349 -0.024078 -0.154517 -0.057809 -0.065262 0.033204 0.071611 0.145503 0.207965 0.220054 0.312106 0.399588 0.278032 0.359303 0.224564 0.141674 0.064133 0.033317 -0.000138 0.052539 0.068629 0.092477 0.117839 0.167928 0.237253 0.302094 0.265214 0.205642 0.249704 0.224106 0.108660 0.054415 0.054642 0.024226 0.004753 -0.026474 0.028833 0.166810 0.194404 0.187158 0.294723 0.184989 0.192632 0.070832 0.062954 0.013373 -0.007243 -0.005017 -0.011962 0.045435 0.072845 0.100387 0.155750 0.138885 0.222221 0.137367 0.076312 0.098498 0.040833 -0.048618 -0.018256 0.028111 0.068715 0.072175 0.064723 0.150379 0.109933 0.155489 0.036224 0.046563 0.044547 0.044730 0.027208 -0.020815 0.039967 0.050939 0.091516 0.099712 0.084378 0.112465 0.123595 0.079467 0.010982 -0.010792 0.021283 0.074650 0.074341 0.087571 0.083619 0.053715 0.102338 0.065985 0.041520 0.075965 -0.011609 0.011446 0.066098 0.040203 0.044366 0.073133 0.078205 0.048344 0.066635 0.017416 0.018869 0.010119 0.055341 0.014517 0.039799 0.073967 0.077852 0.044826 -0.005321 -0.002665 -0.019605 0.044192 0.001022 0.012161 0.072045 0.046375 0.003519 0.012135 -0.017638 0.005514 -0.039824 0.007991 0.017394 0.045033 0.046244 0.029190 -0.003989 0.005487 0.037496 0.008697 0.035423 0.008760 -0.013616 0.015757 -0.045349 -0.030319 -0.055098 -0.012120 -0.068418 0.005655 0.009166 -0.006764 -0.014569 -0.003520 -0.001277 0.027804 0.012156 -0.012531 0.010454 0.025310 0.033365 0.028083 0.004967 0.010732 0.007969 -0.007944 0.015954 -0.006423 0.095216 0.034699 0.026456 0.004600 -0.008881 -0.028280 0.003028 0.077203 -0.003562 0.054639 -0.023096 -0.023801 -0.023374 0.093609 0.002495 -0.024372 0.063165 0.053886 0.006037 0.001752 0.015681 0.003681 0.043528 0.037201 0.092984 0.050172 0.050837 0.044526 -0.007299 0.019627 -0.001926 -0.002842 0.017299 0.089278 -0.008839 -0.084720 0.038671 0.000705 0.076880 -0.050196 -0.009303 -0.005289 0.018517 -0.005513 -0.028349 -0.014388 -0.067575 0.046463 0.040871 0.051168 -0.115676 0.029487 0.020684 -0.011968 -0.073393 0.101895 0.025986 -0.050314 -0.117440 0.165390 0.345211 0.207985 0.130243 0.141110 -0.513135
0.072396 0.073047 0.074998 0.078249 0.082799 0.088647 0.095790 0.104226 0.113949 0.124957 0.137241 0.150793 0.165603 0.181660 0.198946 0.217443 0.237131 0.257981 0.279965 0.303046 0.327184 0.352330 0.378433 0.405430 0.433255 0.461829 0.491069 0.520879 0.551156 0.581785 0.612642 0.643591 0.674485 0.705165 0.735464 0.765199 0.794177 0.822197 0.849043 0.874492 0.898310 0.920255 0.940079 0.957525 0.972336 0.984249 0.993002 0.998334 0.999991 0.997724 0.991294 0.980478 0.965069 0.944880 0.919752 0.889552 0.854181 0.813579 0.767725 0.716646 0.660417 0.599170 0.533090 0.462426 0.387488 0.308654 0.226366 0.141136 0.053542 0.035770 0.126091 0.216649 0.306619 0.395123 0.481240 0.564015 0.642468 0.715608 0.782443 0.841993 0.893311 0.935495 0.967704 0.989181 0.999266 0.997417 0.983227 0.956443 0.916977 0.864927 0.800584 0.724445 0.637219 0.539831 0.433419 0.319333 0.199124 0.074528 0.052548 0.180060 0.305845 0.427666 0.543244 0.650307 0.746632 0.830099 0.898741 0.950797 0.984764 0.999447 0.994005 0.967995 0.921406 0.854688 0.768767 0.665054 0.545444 0.412291 0.268379 0.116882 0.038706 0.194635 0.346989 0.491784 0.625069 0.743043 0.842171 0.919298 0.971763 0.997509 0.995172 0.964165 0.904736 0.818008 0.705985 0.571542 0.418369 0.250901 0.074200 0.106178 0.284352 0.454299 0.610067 0.745983 0.856876 0.938289 0.986685 0.999616 0.975876 0.915604 0.820344 0.693052 0.538041 0.360873 0.168189 0.032518 0.233178 0.425459 0.601117 0.752355 0.872193 0.954807 0.995850 0.992711 0.944717 0.853243 0.721737 0.555648 0.362238 0.150320 0.070131 0.288416 0.493633 0.675214 0.823500 0.930273 0.989254 0.996518 0.950799 0.853667 0.709552 0.525611 0.311435 0.078584 0.159986 0.390635 0.599815 0.774880 0.904873 0.981270 0.998579 0.954807 0.851706 0.694808 0.493204 0.259092 0.007089 0.246636 0.485391 0.693053 0.855194 0.960122 0.999789 0.970480 0.873227 0.713901 0.502958 0.254837 0.012966 0.281077 0.529634 0.739768 0.895070 0.982928 0.995639 0.931165 0.793486 0.592479 0.343316 0.065406 0.219051 0.486818 0.715507 0.885494 0.981677 0.994895 0.922915 0.770838 0.550885 0.281532 0.013949 0.309430 0.578214 0.795475 0.940585 0.999176 0.964678 0.839167 0.633427 0.366177 0.062474 0.248539 0.536397 0.772303 0.932060 0.998657 0.964204 0.831004 0.611611 0.327798 0.008547 0.312840 0.602169 0.828012 0.965197 0.997733 0.920828 0.741727 0.479232 0.161902 0.174948 0.493078 0.755685 0.931707 0.999607 0.950186 0.787991 0.531136 0.209474 0.138719 0.471226 0.746974 0.931173 0.999842 0.943096 0.766767 0.492058 0.153205 0.206636 0.540798 0.805158 0.964038 0.995186 0.893087 0.670133 0.355373 0.009066 0.373477 0.687284 0.906127 0.998250 0.949317 0.764876 0.470045 0.106324 0.274044 0.615498 0.867298 0.991166 0.967330 0.797921 0.507166 0.138196 0.253126 0.606594 0.866892 0.992396 0.962051 0.779173 0.471480 0.087171 0.312388 0.662385 0.905091 0.999541 0.928700 0.702842 0.358411 0.047532 0.446615 0.770550 0.962949 0.989321 0.843564 0.549647 0.158029 0.262738 0.637860 0.899611 0.999725 0.918581 0.669399 0.296493 0.132270 0.537651 0.843595 0.991657 0.952443 0.731796 0.370400 0.063328 0.485987 0.815106 0.985388 0.961914 0.747697 0.383839 0.057960 0.489259 0.822499 0.988898 0.952938 0.720358 0.337772 0.116263 0.547108 0.863712 0.998002 0.919862 0.644317 0.229180 0.236704 0.652195
1.000000 1.000000 1.000000 1.000000 1.000000 1.000000 1.000000 1.000000 1.000000 1.000000 1.000000 1.000000 1.000000 1.000000 1.000000 1.000000 1.000000 1.000000 1.000000 1.000000 1.000000 1.000000 1.000000 1.000000 1.000000 1.000000 1.000000 1.000000 1.000000 1.000000 1.000000 1.000000 1.000000 1.000000 1.000000 1.000000 1.000000 1.000000 1.000000 1.000000 1.000000 1.000000 1.000000 1.000000 1.000000 1.000000 1.000000 1.000000 1.000000 1.000000 1.000000 1.000000 0.923001 0.923001 0.923001 0.923001 0.923001 0.923001 0.923001 0.923001 0.923001 0.923001 0.923001 0.923001 0.923001 0.923001 0.923001 0.923001 0.923001 0.923001 0.923001 0.923001 0.923001 0.923001 0.923001 0.923001 0.923001 0.923001 0.923001 0.923001 0.923001 0.923001 0.923001 0.923001 0.923001 0.913177 0.911300 0.912448 0.910981 0.909555 0.908965 0.908569 0.909607 0.911204 0.913287 0.934941 0.938041 0.939286 0.940618 0.941998 0.944290 0.942118 0.949656 0.956152 0.955070 0.956197 0.949978 0.951417 0.950739 0.949986 0.951344 0.951500 0.949782 0.947739 0.946023 0.945443 0.945207 0.948866 0.949360 0.949503 0.950100 0.950041 0.950757 0.951347 0.949455 0.951702 0.943750 0.942419 0.947692 0.945580 0.946936 0.946894 0.947583 0.948380 0.948701 0.948975 0.945698 0.945219 0.944242 0.937500 0.930256 0.930493 0.932628 0.935420 0.932810 0.930226 0.931528 0.933295 0.932385 0.935751 0.926697 0.922343 0.895743 0.881828 0.872597 0.872749 0.876869 0.879586 0.877365 0.871438 0.863127 0.859564 0.858877 0.855266 0.846772 0.862066 0.856248 0.852428 0.855991 0.859251 0.864594 0.862809 0.858585 0.853682 0.848644 0.838117 0.839302 0.841071 0.845380 0.827443 0.816105 0.832831 0.825474 0.816641 0.824668 0.826681 0.823975 0.822615 0.822995 0.820501 0.814066 0.806522 0.810399 0.819385 0.820486 0.810750 0.808432 0.806632 0.806105 0.800597 0.805996 0.808071 0.804582 0.796940 0.814534 0.782713 0.803206 0.804550 0.786945 0.771442 0.760100 0.769030 0.778180 0.776311 0.770247 0.777543 0.777515 0.769438 0.745414 0.736554 0.744150 0.742528 0.732222 0.719342 0.726114 0.722536 0.719956 0.717678 0.721031 0.722678 0.700422 0.714546 0.719222 0.710773 0.723539 0.726248 0.717187 0.720568 0.724871 0.728095 0.728741 0.697130 0.700066 0.648804 0.638742 0.596627 0.593284 0.588043 0.532043 0.537146 0.518010 0.503557 0.504148 0.472488 0.522153 0.427709 0.416205 0.442039 0.370608 0.332009 0.349896 0.351226 0.363057 0.365862 0.360947 0.363793 0.348213 0.323597 0.300457 0.327942 0.343828 0.317108 0.318628 0.296150 0.281120 0.232943 0.248812 0.252829 0.284133 0.287089 0.269602 0.290755 0.334238 0.273325 0.255945 0.234008 0.259979 0.268752 0.264165 0.253321 0.269059 0.211623 0.215528 0.236705 0.239181 0.280420 0.306730 0.329754 0.327083 0.331393 0.360930 0.315018 0.325367 0.329895 0.320594 0.346339 0.349682 0.355995 0.350302 0.382150 0.379939 0.386542 0.387427 0.400643 0.438026 0.414436 0.392381 0.357679 0.368587 0.366289 0.374027 0.317115 0.292078 0.291316 0.256715 0.213402 0.215197 0.215495 0.170470 0.162799 0.145265 0.112481 0.110986 0.119218 0.148594 0.119347 0.135577 0.137839 0.137839 0.137839 0.137839 0.137839 0.137839 0.137839 0.137839 0.137839 0.137839 0.137839 0.137839 0.137839 0.137839 0.159688 0.159688 0.159688 0.159688 0.159688 0.159688 0.159688 0.159688 0.159688 0.159688 0.159688 0.159688
0.000000 0.000000 0.000000 0.000000 0.000000 0.000000 0.000000 0.000000 0.000000 0.000000 0.000000 0.000000 0.000000 0.000000 0.000000 0.000000 0.000000 0.000000 0.000000 0.000000 0.000000 0.000000 0.000000 0.000000 0.000000 0.000000 0.000000 0.000000 0.000000 0.000000 0.000000 0.000000 0.000000 0.000000 0.000000 0.000000 0.000000 0.000000 0.000000 0.000000 0.000000 0.000000 0.000000 0.000000 0.000000 0.000000 0.000000 0.000000 0.000000 0.000000 0.000000 0.000000 0.209657 0.209657 0.209657 0.209657 0.209657 0.209657 0.209657 0.209657 0.209657 0.209657 0.209657 0.209657 0.209657 0.209657 0.209657 0.209657 0.209657 0.209657 0.209657 0.209657 0.209657 0.209657 0.209657 0.209657 0.209657 0.209657 0.209657 0.209657 0.209657 0.209657 0.209657 0.209657 0.209657 0.244339 0.244339 0.244339 0.244339 0.244339 0.244339 0.244339 0.244339 0.244339 0.244339 0.244339 0.244339 0.244339 0.244339 0.244339 0.244339 0.244339 0.244339 0.244339 0.244339 0.244339 0.244339 0.244339 0.244339 0.244339 0.260378 0.260378 0.260378 0.260378 0.260378 0.260378 0.260378 0.260378 0.260378 0.260378 0.260378 0.260378 0.260378 0.260378 0.260378 0.260378 0.260378 0.260378 0.260378 0.260378 0.269680 0.269680 0.269680 0.269680 0.269680 0.269680 0.269680 0.269680 0.269680 0.269680 0.269680 0.269680 0.269680 0.269680 0.269680 0.269680 0.269680 0.269680 0.269680 0.269680 0.269680 0.269680 0.269680 0.269680 0.269680 0.269680 0.269680 0.269680 0.269680 0.269680 0.269680 0.269680 0.269680 0.280056 0.280056 0.280056 0.280056 0.280056 0.280056 0.280056 0.280056 0.280056 0.280056 0.280056 0.280056 0.280056 0.280056 0.280056 0.280056 0.280056 0.280056 0.280056 0.280056 0.280056 0.280056 0.280056 0.280056 0.280056 0.280056 0.280056 0.274721 0.274721 0.274721 0.274721 0.274721 0.274721 0.274721 0.274721 0.274721 0.274721 0.274721 0.274721 0.274721 0.285714 0.285714 0.285714 0.285714 0.285714 0.285714 0.285714 0.285714 0.285714 0.285714 0.285714 0.280056 0.280056 0.280056 0.280056 0.280056 0.280056 0.280056 0.280056 0.280056 0.280056 0.280056 0.274721 0.274721 0.274721 0.274721 0.274721 0.274721 0.274721 0.274721 0.274721 0.274721 0.274721 0.280056 0.280056 0.280056 0.280056 0.280056 0.280056 0.280056 0.280056 0.280056 0.280056 0.285714 0.285714 0.285714 0.285714 0.285714 0.285714 0.285714 0.285714 0.285714 0.269680 0.269680 0.269680 0.269680 0.269680 0.269680 0.269680 0.269680 0.269680 0.269680 0.274721 0.274721 0.274721 0.274721 0.274721 0.274721 0.274721 0.274721 0.274721 0.285714 0.285714 0.285714 0.285714 0.285714 0.285714 0.285714 0.285714 0.264906 0.264906 0.264906 0.264906 0.264906 0.264906 0.264906 0.264906 0.264906 0.274721 0.274721 0.274721 0.274721 0.274721 0.274721 0.274721 0.274721 0.269680 0.269680 0.269680 0.269680 0.269680 0.269680 0.269680 0.269680 0.269680 0.269680 0.269680 0.269680 0.269680 0.269680 0.269680 0.269680 0.280056 0.280056 0.280056 0.280056 0.280056 0.280056 0.280056 0.260378 0.260378 0.260378 0.260378 0.260378 0.260378 0.260378 0.260378 0.269680 0.269680 0.269680 0.269680 0.269680 0.269680 0.269680 0.264906 0.264906 0.264906 0.264906 0.264906 0.264906 0.264906 0.264906 0.264906 0.264906 0.264906 0.264906 0.264906 0.264906 0.260378 0.260378 0.260378 0.260378 0.260378 0.260378 0.260378 0.260378 0.260378 0.260378 0.260378 0.260378
