# Output from CTFFind version 4.1.9, run on 2019-11-02 17:59:15
# Input file: stack16_bm3d_averaged_1_1.75_0_2000_half.mrc ; Number of micrographs: 1
# Pixel size: 3.000 Angstroms ; acceleration voltage: 300.0 keV ; spherical aberration: 0.00 mm ; amplitude contrast: 0.07
# Box size: 512 pixels ; min. res.: 30.0 Angstroms ; max. res.: 5.0 Angstroms ; min. def.: 5000.0 um; max. def. 50000.0 um; num. frames averaged: 1
# 6 lines per micrograph: #1 - spatial frequency (1/Angstroms); #2 - 1D rotational average of spectrum (assuming no astigmatism); #3 - 1D rotational average of spectrum; #4 - CTF fit; #5 - cross-correlation between spectrum and CTF fit; #6 - 2sigma of expected cross correlation of noise
0.000000 0.000651 0.001302 0.001953 0.002604 0.003255 0.003906 0.004557 0.005208 0.005859 0.006510 0.007161 0.007812 0.008464 0.009115 0.009766 0.010417 0.011068 0.011719 0.012370 0.013021 0.013672 0.014323 0.014974 0.015625 0.016276 0.016927 0.017578 0.018229 0.018880 0.019531 0.020182 0.020833 0.021484 0.022135 0.022786 0.023438 0.024089 0.024740 0.025391 0.026042 0.026693 0.027344 0.027995 0.028646 0.029297 0.029948 0.030599 0.031250 0.031901 0.032552 0.033203 0.033854 0.034505 0.035156 0.035807 0.036458 0.037109 0.037760 0.038411 0.039062 0.039714 0.040365 0.041016 0.041667 0.042318 0.042969 0.043620 0.044271 0.044922 0.045573 0.046224 0.046875 0.047526 0.048177 0.048828 0.049479 0.050130 0.050781 0.051432 0.052083 0.052734 0.053385 0.054036 0.054688 0.055339 0.055990 0.056641 0.057292 0.057943 0.058594 0.059245 0.059896 0.060547 0.061198 0.061849 0.062500 0.063151 0.063802 0.064453 0.065104 0.065755 0.066406 0.067057 0.067708 0.068359 0.069010 0.069661 0.070312 0.070964 0.071615 0.072266 0.072917 0.073568 0.074219 0.074870 0.075521 0.076172 0.076823 0.077474 0.078125 0.078776 0.079427 0.080078 0.080729 0.081380 0.082031 0.082682 0.083333 0.083984 0.084635 0.085286 0.085938 0.086589 0.087240 0.087891 0.088542 0.089193 0.089844 0.090495 0.091146 0.091797 0.092448 0.093099 0.093750 0.094401 0.095052 0.095703 0.096354 0.097005 0.097656 0.098307 0.098958 0.099609 0.100260 0.100911 0.101562 0.102214 0.102865 0.103516 0.104167 0.104818 0.105469 0.106120 0.106771 0.107422 0.108073 0.108724 0.109375 0.110026 0.110677 0.111328 0.111979 0.112630 0.113281 0.113932 0.114583 0.115234 0.115885 0.116536 0.117188 0.117839 0.118490 0.119141 0.119792 0.120443 0.121094 0.121745 0.122396 0.123047 0.123698 0.124349 0.125000 0.125651 0.126302 0.126953 0.127604 0.128255 0.128906 0.129557 0.130208 0.130859 0.131510 0.132161 0.132812 0.133464 0.134115 0.134766 0.135417 0.136068 0.136719 0.137370 0.138021 0.138672 0.139323 0.139974 0.140625 0.141276 0.141927 0.142578 0.143229 0.143880 0.144531 0.145182 0.145833 0.146484 0.147135 0.147786 0.148438 0.149089 0.149740 0.150391 0.151042 0.151693 0.152344 0.152995 0.153646 0.154297 0.154948 0.155599 0.156250 0.156901 0.157552 0.158203 0.158854 0.159505 0.160156 0.160807 0.161458 0.162109 0.162760 0.163411 0.164062 0.164714 0.165365 0.166016 0.166667 0.167318 0.167969 0.168620 0.169271 0.169922 0.170573 0.171224 0.171875 0.172526 0.173177 0.173828 0.174479 0.175130 0.175781 0.176432 0.177083 0.177734 0.178385 0.179036 0.179688 0.180339 0.180990 0.181641 0.182292 0.182943 0.183594 0.184245 0.184896 0.185547 0.186198 0.186849 0.187500 0.188151 0.188802 0.189453 0.190104 0.190755 0.191406 0.192057 0.192708 0.193359 0.194010 0.194661 0.195312 0.195964 0.196615 0.197266 0.197917 0.198568 0.199219 0.199870 0.200521 0.201172 0.201823 0.202474 0.203125 0.203776 0.204427 0.205078 0.205729 0.206380 0.207031 0.207682 0.208333 0.208984 0.209635 0.210286 0.210938 0.211589 0.212240 0.212891 0.213542 0.214193 0.214844 0.215495 0.216146 0.216797 0.217448 0.218099 0.218750 0.219401 0.220052 0.220703 0.221354 0.222005 0.222656 0.223307 0.223958 0.224609 0.225260 0.225911 0.226562 0.227214 0.227865 0.228516 0.229167 0.229818 0.230469 0.231120 0.231771 0.232422 0.233073 0.233724 0.234375 0.235026 0.235677
       0.34474        0.34474        0.34474        0.34475        0.34474        0.34474        0.34475        0.34475        0.34474        0.34474        0.34474        0.34474        0.34474        0.34475        0.34475        0.34474        0.34475        0.34474        0.34474        0.34475        0.34474        0.34474        0.34474        0.34475        0.34474        0.34474        0.34474        0.34475        0.34474        0.34475        0.34474        0.34474        0.34474        0.34475        0.34474        0.34474        0.34474        0.34474        0.34474        0.34474        0.34474        0.34474        0.34474        0.34474        0.34474        0.34475        0.34475        0.34474        0.34474        0.34475        0.34474        0.48803        0.69786        0.45776       -0.10825       -0.41035       -0.56821       -0.65726       -0.73933       -0.75629       -0.87055       -0.91481       -0.75742       -0.92481       -0.87092       -1.02446       -1.09607       -0.98637       -0.95692       -0.88131       -0.84950       -0.74505       -0.63674       -0.49610       -0.41896       -0.21950       -0.11591       -0.02363        0.19898        0.24250        0.30990        0.38396        0.43508        0.51182        0.58248        0.60403        0.59155        0.50261        0.54988        0.48499        0.39411        0.32950        0.20525        0.17316        0.09843       -0.05343       -0.11438       -0.08643        0.01666       -0.01644        0.02007        0.02844        0.20347        0.21735        0.39237        0.45913        0.56656        0.70581        0.76865        0.73604        0.70461        0.69722        0.58620        0.53911        0.39727        0.28208        0.19891        0.15514        0.07179        0.03180        0.02352        0.06547        0.08639        0.28008        0.41530        0.50630        0.58909        0.63981        0.70460        0.65925        0.65680        0.67242        0.60740        0.48783        0.29038        0.24216        0.20772        0.12739        0.04225        0.09407        0.10901        0.25340        0.35304        0.41991        0.50782        0.54670        0.65434        0.60152        0.55398        0.51230        0.36411        0.20408        0.21416        0.16006        0.12833        0.12426        0.21403        0.25823        0.36200        0.44271        0.43593        0.55212        0.51324        0.45945        0.46037        0.38345        0.32722        0.27039        0.20997        0.23104        0.21612        0.21184        0.31621        0.45303        0.48694        0.48570        0.55308        0.50175        0.45210        0.40176        0.29763        0.23338        0.23702        0.23950        0.26232        0.27687        0.33348        0.44272        0.50543        0.49832        0.46288        0.41303        0.38764        0.35878        0.24781        0.22795        0.25548        0.29771        0.36080        0.36629        0.39702        0.41772        0.44823        0.37938        0.34964        0.31848        0.31700        0.27110        0.26073        0.30827        0.34993        0.41339        0.42115        0.39498        0.38978        0.40369        0.34940        0.28889        0.30090        0.29077        0.30620        0.35914        0.37710        0.41368        0.35895        0.36278        0.39052        0.34593        0.30840        0.28595        0.28784        0.33710        0.33151        0.32795        0.37074        0.39769        0.34174        0.35676        0.30316        0.30623        0.28355        0.28083        0.30475        0.32983        0.38482        0.36547        0.35016        0.32502        0.28571        0.27589        0.29940        0.28517        0.31683        0.36940        0.39782        0.33656        0.32269        0.30925        0.30486        0.30128        0.27981        0.31424        0.34067        0.32998        0.34279        0.32364        0.35457        0.33087        0.29422        0.31186        0.32385        0.34873        0.34726        0.31857        0.31693        0.30131        0.32645        0.31421        0.33781        0.39596        0.33513        0.35960        0.31338        0.31015        0.29383        0.31254        0.29519        0.31409        0.32596        0.34523        0.35944        0.30364        0.32488        0.32024        0.30190        0.29320        0.29979        0.32577        0.34346        0.35576        0.33786        0.31488        0.27345        0.25237        0.31169        0.35373        0.31388        0.29617        0.28345        0.29342        0.32730        0.31326        0.29828        0.34681        0.33096        0.31192        0.24403        0.28191        0.29060        0.29187        0.33376        0.32925        0.35129        0.34869        0.28826        0.28339        0.29819        0.27975        0.30740        0.27032        0.25854        0.26832        0.27871        0.29479        0.28781        0.29027        0.26987        0.31243        0.32679        0.31882        0.27199        0.27172        0.23309        0.26100        0.24467        0.30136        0.35319        0.23398        0.24229        0.29480        0.23856        0.23535        0.31996        0.25848        0.12495        0.16780        0.21693        0.29204        0.28143        0.13512        0.06197       -0.38773       -0.78944
3.059606 3.021528 2.983695 2.946107 2.908764 2.871666 2.834813 2.798205 2.761842 2.725724 2.689851 2.654222 2.618839 2.583701 2.548808 2.514159 2.479756 2.445598 2.411684 2.378016 2.344593 2.311414 2.278481 2.245792 2.213349 2.181150 2.149197 2.117488 2.086024 2.054806 2.023832 1.993104 1.962620 1.932381 1.902387 1.872639 1.843135 1.813876 1.784862 1.756093 1.727570 1.699291 1.671257 1.643468 1.615924 1.588625 1.561571 1.534762 1.508198 1.481879 1.455805 1.513571 1.693118 1.613910 0.967687 0.682157 0.477696 0.431018 0.325041 0.267259 0.197943 0.016673 0.197041 0.078897 -0.011554 -0.061725 -0.200951 -0.154323 -0.087782 -0.093559 -0.090411 0.010182 0.035414 0.230150 0.152880 0.362754 0.442798 0.476186 0.708170 0.697330 0.707950 0.835462 0.817257 0.842282 0.922119 0.899809 0.936636 0.749426 0.837895 0.837058 0.623357 0.607562 0.455585 0.437100 0.374113 0.213944 0.117567 0.098076 0.211596 0.140646 0.202002 0.113556 0.301187 0.282764 0.455356 0.413274 0.583394 0.646848 0.763779 0.704176 0.660952 0.662227 0.527656 0.504598 0.356251 0.297636 0.122492 0.152925 0.003971 -0.006418 -0.040005 -0.029787 0.000252 0.038814 0.275002 0.326121 0.385163 0.395993 0.467648 0.515386 0.474283 0.506195 0.392919 0.396181 0.155397 0.073819 0.076291 -0.007848 -0.129434 -0.043134 -0.119965 0.012774 0.141537 0.163186 0.255249 0.266250 0.376327 0.458914 0.351856 0.391959 0.287168 0.122399 0.048792 0.056298 0.026565 0.010415 0.008850 0.110947 0.128837 0.272093 0.234944 0.298721 0.365345 0.247116 0.250010 0.222396 0.130944 0.085202 0.041550 0.024148 0.038898 -0.011680 0.028525 0.181062 0.224292 0.253681 0.279250 0.238854 0.237724 0.148191 0.111398 -0.018099 -0.009726 -0.010459 0.012812 0.006266 0.032687 0.105370 0.190476 0.207264 0.227811 0.135167 0.139749 0.078216 0.055245 -0.062750 -0.012863 0.005747 0.054213 0.067287 0.078463 0.147344 0.095758 0.167152 0.064121 0.046986 0.048414 0.027884 0.002303 0.002975 0.043002 0.084764 0.123969 0.137098 0.055984 0.118129 0.094323 0.005456 0.010456 0.008797 -0.003197 0.041975 0.059896 0.099650 0.092165 0.054157 0.070924 0.079339 0.029386 0.006656 -0.008242 -0.001972 0.060021 0.023021 0.033744 0.078399 0.085069 0.063532 0.033646 0.012821 0.007768 -0.009823 -0.012309 0.012321 0.049993 0.106533 0.057684 0.061936 0.028383 -0.012308 -0.003654 0.019132 0.011449 0.026407 0.102822 0.069143 0.012403 0.048325 -0.000145 0.031909 -0.003130 -0.005896 0.036929 0.053840 0.022649 0.041614 0.025216 0.057867 0.021785 -0.005893 0.018078 0.035800 0.048016 0.038883 0.018833 -0.006526 -0.011737 0.017880 0.007205 0.042606 0.073133 0.033072 0.022490 0.001289 -0.001380 -0.012661 0.008739 -0.000170 0.008905 0.002464 0.063688 0.039787 0.015633 0.034926 0.002182 0.008855 -0.000794 -0.003691 0.037992 0.059185 0.073455 0.046001 0.032417 -0.020623 -0.010038 0.019938 0.074370 0.019417 0.036116 -0.010180 0.009072 0.040838 0.046142 0.012155 0.067504 0.048746 0.040491 -0.039720 0.004606 0.036824 0.006479 0.035685 0.071931 0.065268 0.055837 0.002274 0.007579 0.000331 -0.010442 0.025035 -0.041551 -0.024752 -0.032601 -0.027516 -0.006545 -0.021407 0.007842 -0.093431 -0.015376 -0.006938 -0.015622 -0.076605 -0.030188 -0.117784 -0.043158 -0.080255 -0.020755 0.060680 -0.113858 -0.052686 0.032738 -0.020606 -0.063512 0.048346 0.033151 -0.065906 -0.057543 0.022326 0.261259 0.266548 0.069286 0.057004 -0.693858
0.072396 0.073046 0.074995 0.078242 0.082787 0.088628 0.095763 0.104188 0.113901 0.124895 0.137165 0.150702 0.165495 0.181532 0.198799 0.217276 0.236941 0.257768 0.279727 0.302783 0.326895 0.352015 0.378090 0.405061 0.432858 0.461406 0.490619 0.520404 0.550656 0.581262 0.612098 0.643028 0.673907 0.704575 0.734865 0.764595 0.793575 0.821601 0.848460 0.873928 0.897772 0.919752 0.939618 0.957117 0.971989 0.983974 0.992809 0.998236 0.999997 0.997846 0.991544 0.980867 0.965608 0.945581 0.920625 0.890606 0.855425 0.815020 0.769370 0.718499 0.662481 0.601444 0.535573 0.465113 0.390372 0.311724 0.229607 0.144531 0.057070 0.032134 0.122375 0.212887 0.302846 0.391378 0.477567 0.560460 0.639079 0.712436 0.779539 0.839410 0.891103 0.933711 0.966396 0.988395 0.999045 0.997798 0.984243 0.958116 0.919322 0.867949 0.804278 0.728793 0.642191 0.545383 0.439494 0.325862 0.206021 0.081698 0.045217 0.172687 0.298560 0.420606 0.536552 0.644126 0.741107 0.825371 0.894943 0.948050 0.983175 0.999103 0.994973 0.970315 0.925089 0.859713 0.775080 0.672568 0.554034 0.421799 0.278615 0.127623 0.027707 0.183648 0.336299 0.481684 0.615853 0.734999 0.835567 0.914377 0.968733 0.996531 0.996356 0.967561 0.910328 0.825709 0.715637 0.582915 0.431166 0.264759 0.088705 0.091485 0.269960 0.440712 0.597785 0.735485 0.848599 0.932612 0.983905 0.999937 0.979394 0.922294 0.830056 0.705508 0.552840 0.377499 0.186027 0.014162 0.215053 0.408336 0.585761 0.739489 0.862457 0.948732 0.993824 0.994954 0.951257 0.863908 0.736152 0.573240 0.382258 0.171862 0.048083 0.266949 0.473845 0.658167 0.810154 0.921432 0.985516 0.998228 0.958021 0.866163 0.726781 0.546744 0.335388 0.104069 0.134393 0.366426 0.578452 0.757712 0.893047 0.975646 0.999669 0.962721 0.866130 0.714998 0.518020 0.287047 0.036441 0.217788 0.458981 0.670921 0.838952 0.951033 0.998663 0.977593 0.888281 0.736019 0.530720 0.286359 0.020096 0.248888 0.500751 0.716450 0.879228 0.975959 0.998294 0.943461 0.814677 0.621081 0.377194 0.101929 0.182819 0.453881 0.688692 0.867199 0.973650 0.998054 0.937236 0.795322 0.583600 0.319752 0.026476 0.270402 0.544174 0.769656 0.925556 0.996575 0.975014 0.861734 0.666323 0.406438 0.106335 0.205313 0.498098 0.742858 0.914616 0.995230 0.975432 0.856028 0.648110 0.372181 0.056281 0.266766 0.562730 0.799605 0.951135 0.999844 0.939196 0.774622 0.523244 0.212257 0.123871 0.447139 0.720304 0.911213 0.996698 0.965538 0.820115 0.576486 0.262807 0.083768 0.421381 0.708499 0.909082 0.997210 0.960613 0.802567 0.541877 0.210856 0.148521 0.489834 0.768199 0.946256 0.999301 0.918934 0.714584 0.412676 0.053420 0.314381 0.639889 0.877299 0.992391 0.967657 0.805200 0.526901 0.171729 0.209522 0.561385 0.831795 0.979890 0.982381 0.837459 0.565578 0.206838 0.184680 0.548980 0.829291 0.981056 0.979194 0.822529 0.534516 0.160035 0.241381 0.604871 0.870749 0.994424 0.954124 0.755026 0.428980 0.029723 0.375749 0.718360 0.938749 0.997754 0.883655 0.614826 0.237132 0.183597 0.572866 0.860711 0.994369 0.948256 0.729186 0.375803 0.047901 0.463898 0.794494 0.976861 0.975271 0.788432 0.450450 0.024968 0.406505 0.760138 0.966114 0.982671 0.804927 0.466599 0.034019 0.406562 0.766070 0.970676 0.977219 0.782709 0.425739 0.020753 0.464077 0.810923 0.987128 0.953810 0.716398 0.324308 0.138919 0.573140
1.000000 1.000000 1.000000 1.000000 1.000000 1.000000 1.000000 1.000000 1.000000 1.000000 1.000000 1.000000 1.000000 1.000000 1.000000 1.000000 1.000000 1.000000 1.000000 1.000000 1.000000 1.000000 1.000000 1.000000 1.000000 1.000000 1.000000 1.000000 1.000000 1.000000 1.000000 1.000000 1.000000 1.000000 1.000000 1.000000 1.000000 1.000000 1.000000 1.000000 1.000000 1.000000 1.000000 1.000000 1.000000 1.000000 1.000000 1.000000 1.000000 1.000000 1.000000 1.000000 0.937344 0.937344 0.937344 0.937344 0.937344 0.937344 0.937344 0.937344 0.937344 0.937344 0.937344 0.937344 0.937344 0.937344 0.937344 0.937344 0.937344 0.937344 0.937344 0.937344 0.937344 0.937344 0.937344 0.937344 0.937344 0.937344 0.937344 0.937344 0.937344 0.937344 0.937344 0.937344 0.937344 0.930167 0.931510 0.934219 0.935196 0.935171 0.934772 0.934499 0.934711 0.935552 0.937746 0.954279 0.955552 0.956037 0.957283 0.956023 0.959019 0.957461 0.957357 0.968068 0.966952 0.967512 0.960465 0.961965 0.961048 0.960111 0.960892 0.961086 0.959214 0.957161 0.955445 0.954828 0.954467 0.956176 0.956608 0.956268 0.957688 0.957635 0.957350 0.953937 0.952528 0.953946 0.955887 0.955171 0.961017 0.959321 0.962629 0.963406 0.961987 0.961898 0.962107 0.962314 0.954266 0.949075 0.944320 0.932403 0.923538 0.920225 0.923075 0.924972 0.924043 0.919444 0.918372 0.916074 0.911402 0.910593 0.910882 0.912386 0.908339 0.905100 0.888684 0.888210 0.891298 0.891421 0.889152 0.881437 0.877939 0.879042 0.881998 0.879819 0.876639 0.892802 0.886949 0.891365 0.894197 0.897373 0.901110 0.896121 0.893357 0.889679 0.886200 0.880877 0.881610 0.873301 0.876114 0.868616 0.857366 0.850655 0.853881 0.863056 0.871309 0.879246 0.878247 0.878961 0.878150 0.863109 0.865717 0.852344 0.853192 0.857429 0.863274 0.861656 0.858834 0.863206 0.861200 0.858538 0.861731 0.857885 0.855931 0.845630 0.845512 0.848857 0.864431 0.866071 0.851902 0.842629 0.830147 0.836760 0.840013 0.839542 0.841247 0.835734 0.837517 0.829010 0.817680 0.819134 0.824519 0.817898 0.822456 0.823040 0.828292 0.829366 0.828087 0.822735 0.821498 0.827195 0.794133 0.802569 0.804965 0.796615 0.800158 0.792887 0.785505 0.784279 0.781511 0.763628 0.778084 0.772674 0.739338 0.737618 0.744640 0.736651 0.725584 0.724561 0.725969 0.710315 0.695171 0.663402 0.660434 0.652258 0.647164 0.652625 0.639514 0.628513 0.617277 0.584710 0.597804 0.602037 0.595100 0.595425 0.588706 0.582980 0.574572 0.564908 0.561123 0.566854 0.570178 0.536526 0.530158 0.539959 0.511322 0.508921 0.508666 0.497645 0.481274 0.487311 0.477308 0.502388 0.512355 0.478984 0.467121 0.478789 0.496411 0.507003 0.509618 0.496262 0.476765 0.500877 0.479204 0.462454 0.478653 0.481598 0.473792 0.481197 0.473524 0.500017 0.489176 0.464842 0.493684 0.474562 0.471991 0.478807 0.470793 0.466615 0.464183 0.462250 0.411904 0.427639 0.404184 0.336939 0.352625 0.346702 0.334890 0.330582 0.306194 0.308983 0.280687 0.259188 0.259068 0.254982 0.216442 0.170479 0.177270 0.179027 0.149786 0.121129 0.128509 0.085363 0.077632 0.099912 0.101901 0.106875 0.102212 0.126912 0.126912 0.126912 0.126912 0.126912 0.126912 0.126912 0.126912 0.126912 0.126912 0.126912 0.126912 0.126912 0.126912 0.153893 0.153893 0.153893 0.153893 0.153893 0.153893 0.153893 0.153893 0.153893 0.153893 0.153893 0.153893
0.000000 0.000000 0.000000 0.000000 0.000000 0.000000 0.000000 0.000000 0.000000 0.000000 0.000000 0.000000 0.000000 0.000000 0.000000 0.000000 0.000000 0.000000 0.000000 0.000000 0.000000 0.000000 0.000000 0.000000 0.000000 7.000000 4.000000 0.000000 0.000000 0.000000 0.000000 0.000000 0.000000 0.000000 0.000000 0.000000 0.000000 0.000000 0.000000 0.000000 0.000000 0.000000 0.000000 0.000000 0.000000 0.000000 0.000000 0.000000 0.000000 0.000000 0.000000 0.000000 0.209657 0.209657 0.209657 0.209657 0.209657 0.209657 0.209657 0.209657 0.209657 0.209657 0.209657 0.209657 0.209657 0.209657 0.209657 0.209657 0.209657 0.209657 0.209657 0.209657 0.209657 0.209657 0.209657 0.209657 0.209657 0.209657 0.209657 0.209657 0.209657 0.209657 0.209657 0.209657 0.209657 0.244339 0.244339 0.244339 0.244339 0.244339 0.244339 0.244339 0.244339 0.244339 0.244339 0.244339 0.244339 0.244339 0.244339 0.244339 0.244339 0.244339 0.244339 0.244339 0.244339 0.244339 0.244339 0.244339 0.244339 0.244339 0.260378 0.260378 0.260378 0.260378 0.260378 0.260378 0.260378 0.260378 0.260378 0.260378 0.260378 0.260378 0.260378 0.260378 0.260378 0.260378 0.260378 0.260378 0.260378 0.260378 0.269680 0.269680 0.269680 0.269680 0.269680 0.269680 0.269680 0.269680 0.269680 0.269680 0.269680 0.269680 0.269680 0.269680 0.269680 0.269680 0.269680 0.269680 0.269680 0.269680 0.269680 0.269680 0.269680 0.269680 0.269680 0.269680 0.269680 0.269680 0.269680 0.269680 0.269680 0.269680 0.269680 0.280056 0.280056 0.280056 0.280056 0.280056 0.280056 0.280056 0.280056 0.280056 0.280056 0.280056 0.280056 0.280056 0.280056 0.280056 0.280056 0.280056 0.280056 0.280056 0.280056 0.280056 0.280056 0.280056 0.280056 0.280056 0.280056 0.280056 0.274721 0.274721 0.274721 0.274721 0.274721 0.274721 0.274721 0.274721 0.274721 0.274721 0.274721 0.274721 0.274721 0.285714 0.285714 0.285714 0.285714 0.285714 0.285714 0.285714 0.285714 0.285714 0.285714 0.285714 0.280056 0.280056 0.280056 0.280056 0.280056 0.280056 0.280056 0.280056 0.280056 0.280056 0.280056 0.274721 0.274721 0.274721 0.274721 0.274721 0.274721 0.274721 0.274721 0.274721 0.274721 0.274721 0.280056 0.280056 0.280056 0.280056 0.280056 0.280056 0.280056 0.280056 0.280056 0.280056 0.285714 0.285714 0.285714 0.285714 0.285714 0.285714 0.285714 0.285714 0.285714 0.269680 0.269680 0.269680 0.269680 0.269680 0.269680 0.269680 0.269680 0.269680 0.269680 0.274721 0.274721 0.274721 0.274721 0.274721 0.274721 0.274721 0.274721 0.274721 0.285714 0.285714 0.285714 0.285714 0.285714 0.285714 0.285714 0.285714 0.264906 0.264906 0.264906 0.264906 0.264906 0.264906 0.264906 0.264906 0.264906 0.274721 0.274721 0.274721 0.274721 0.274721 0.274721 0.274721 0.274721 0.269680 0.269680 0.269680 0.269680 0.269680 0.269680 0.269680 0.269680 0.269680 0.269680 0.269680 0.269680 0.269680 0.269680 0.269680 0.269680 0.280056 0.280056 0.280056 0.280056 0.280056 0.280056 0.280056 0.260378 0.260378 0.260378 0.260378 0.260378 0.260378 0.260378 0.260378 0.269680 0.269680 0.269680 0.269680 0.269680 0.269680 0.269680 0.264906 0.264906 0.264906 0.264906 0.264906 0.264906 0.264906 0.264906 0.264906 0.264906 0.264906 0.264906 0.264906 0.264906 0.260378 0.260378 0.260378 0.260378 0.260378 0.260378 0.260378 0.260378 0.260378 0.260378 0.260378 0.260378
