# Output from CTFFind version 4.1.9, run on 2019-11-03 20:10:13
# Input file: stack1_bm3d_averaged_1_7.5_0_3000_half.mrc ; Number of micrographs: 1
# Pixel size: 3.000 Angstroms ; acceleration voltage: 300.0 keV ; spherical aberration: 0.00 mm ; amplitude contrast: 0.07
# Box size: 512 pixels ; min. res.: 30.0 Angstroms ; max. res.: 5.0 Angstroms ; min. def.: 5000.0 um; max. def. 50000.0 um; num. frames averaged: 1
# 6 lines per micrograph: #1 - spatial frequency (1/Angstroms); #2 - 1D rotational average of spectrum (assuming no astigmatism); #3 - 1D rotational average of spectrum; #4 - CTF fit; #5 - cross-correlation between spectrum and CTF fit; #6 - 2sigma of expected cross correlation of noise
0.000000 0.000651 0.001302 0.001953 0.002604 0.003255 0.003906 0.004557 0.005208 0.005859 0.006510 0.007161 0.007812 0.008464 0.009115 0.009766 0.010417 0.011068 0.011719 0.012370 0.013021 0.013672 0.014323 0.014974 0.015625 0.016276 0.016927 0.017578 0.018229 0.018880 0.019531 0.020182 0.020833 0.021484 0.022135 0.022786 0.023438 0.024089 0.024740 0.025391 0.026042 0.026693 0.027344 0.027995 0.028646 0.029297 0.029948 0.030599 0.031250 0.031901 0.032552 0.033203 0.033854 0.034505 0.035156 0.035807 0.036458 0.037109 0.037760 0.038411 0.039062 0.039714 0.040365 0.041016 0.041667 0.042318 0.042969 0.043620 0.044271 0.044922 0.045573 0.046224 0.046875 0.047526 0.048177 0.048828 0.049479 0.050130 0.050781 0.051432 0.052083 0.052734 0.053385 0.054036 0.054688 0.055339 0.055990 0.056641 0.057292 0.057943 0.058594 0.059245 0.059896 0.060547 0.061198 0.061849 0.062500 0.063151 0.063802 0.064453 0.065104 0.065755 0.066406 0.067057 0.067708 0.068359 0.069010 0.069661 0.070312 0.070964 0.071615 0.072266 0.072917 0.073568 0.074219 0.074870 0.075521 0.076172 0.076823 0.077474 0.078125 0.078776 0.079427 0.080078 0.080729 0.081380 0.082031 0.082682 0.083333 0.083984 0.084635 0.085286 0.085938 0.086589 0.087240 0.087891 0.088542 0.089193 0.089844 0.090495 0.091146 0.091797 0.092448 0.093099 0.093750 0.094401 0.095052 0.095703 0.096354 0.097005 0.097656 0.098307 0.098958 0.099609 0.100260 0.100911 0.101562 0.102214 0.102865 0.103516 0.104167 0.104818 0.105469 0.106120 0.106771 0.107422 0.108073 0.108724 0.109375 0.110026 0.110677 0.111328 0.111979 0.112630 0.113281 0.113932 0.114583 0.115234 0.115885 0.116536 0.117188 0.117839 0.118490 0.119141 0.119792 0.120443 0.121094 0.121745 0.122396 0.123047 0.123698 0.124349 0.125000 0.125651 0.126302 0.126953 0.127604 0.128255 0.128906 0.129557 0.130208 0.130859 0.131510 0.132161 0.132812 0.133464 0.134115 0.134766 0.135417 0.136068 0.136719 0.137370 0.138021 0.138672 0.139323 0.139974 0.140625 0.141276 0.141927 0.142578 0.143229 0.143880 0.144531 0.145182 0.145833 0.146484 0.147135 0.147786 0.148438 0.149089 0.149740 0.150391 0.151042 0.151693 0.152344 0.152995 0.153646 0.154297 0.154948 0.155599 0.156250 0.156901 0.157552 0.158203 0.158854 0.159505 0.160156 0.160807 0.161458 0.162109 0.162760 0.163411 0.164062 0.164714 0.165365 0.166016 0.166667 0.167318 0.167969 0.168620 0.169271 0.169922 0.170573 0.171224 0.171875 0.172526 0.173177 0.173828 0.174479 0.175130 0.175781 0.176432 0.177083 0.177734 0.178385 0.179036 0.179688 0.180339 0.180990 0.181641 0.182292 0.182943 0.183594 0.184245 0.184896 0.185547 0.186198 0.186849 0.187500 0.188151 0.188802 0.189453 0.190104 0.190755 0.191406 0.192057 0.192708 0.193359 0.194010 0.194661 0.195312 0.195964 0.196615 0.197266 0.197917 0.198568 0.199219 0.199870 0.200521 0.201172 0.201823 0.202474 0.203125 0.203776 0.204427 0.205078 0.205729 0.206380 0.207031 0.207682 0.208333 0.208984 0.209635 0.210286 0.210938 0.211589 0.212240 0.212891 0.213542 0.214193 0.214844 0.215495 0.216146 0.216797 0.217448 0.218099 0.218750 0.219401 0.220052 0.220703 0.221354 0.222005 0.222656 0.223307 0.223958 0.224609 0.225260 0.225911 0.226562 0.227214 0.227865 0.228516 0.229167 0.229818 0.230469 0.231120 0.231771 0.232422 0.233073 0.233724 0.234375 0.235026 0.235677
       0.33913        0.33913        0.33913        0.33913        0.33913        0.33913        0.33913        0.33913        0.33913        0.33913        0.33913        0.33913        0.33914        0.33913        0.33913        0.33913        0.33913        0.33913        0.33913        0.33914        0.33913        0.33913        0.33913        0.33914        0.33914        0.33914        0.33913        0.33913        0.33913        0.33914        0.33913        0.33913        0.33913        0.33913        0.33913        0.33913        0.33913        0.33913        0.33914        0.33913        0.33913        0.33913        0.33913        0.33913        0.33913        0.33914        0.33913        0.33913        0.33914        0.33914        0.33913        0.32793        0.46290        0.21434        0.06715       -0.00091       -0.27275       -0.12013       -0.15430       -0.22440        0.00274       -0.14821       -0.06278       -0.06403       -0.04811       -0.12320       -0.16691       -0.24733       -0.29236       -0.40415       -0.33701       -0.23866       -0.21810       -0.31388       -0.23241       -0.28645       -0.25736       -0.27947       -0.12526       -0.14072       -0.19847       -0.03348        0.03433       -0.02187        0.06393        0.03761        0.23561        0.24533        0.33045        0.34513        0.36858        0.40481        0.48078        0.53951        0.54586        0.49662        0.48276        0.50726        0.46451        0.50601        0.42942        0.40542        0.41113        0.35306        0.29212        0.30492        0.32646        0.21604        0.19672        0.12848        0.15343        0.16079        0.17172        0.16046        0.23659        0.29725        0.31033        0.28371        0.39073        0.46806        0.39439        0.48294        0.58431        0.53432        0.51073        0.56390        0.59274        0.41494        0.47457        0.39928        0.32805        0.30503        0.28129        0.25028        0.19384        0.18350        0.15247        0.19715        0.25074        0.28136        0.33512        0.30034        0.40207        0.40827        0.44990        0.49059        0.47109        0.49709        0.44084        0.42827        0.40266        0.33484        0.30684        0.31104        0.31322        0.24602        0.24488        0.24970        0.24356        0.26945        0.31706        0.42194        0.46651        0.41376        0.42307        0.45943        0.43872        0.46253        0.45232        0.38213        0.35683        0.39015        0.35570        0.30788        0.29849        0.30723        0.27224        0.29436        0.30026        0.31774        0.36697        0.37074        0.40871        0.41579        0.35559        0.44540        0.41030        0.34450        0.30566        0.33863        0.32726        0.29494        0.31068        0.28815        0.29449        0.32130        0.32831        0.42837        0.39723        0.37300        0.39374        0.43237        0.36638        0.34689        0.33823        0.34671        0.27299        0.26977        0.30194        0.37854        0.37997        0.33644        0.34609        0.39209        0.38359        0.44914        0.37889        0.36475        0.33058        0.31390        0.31280        0.31305        0.34011        0.37683        0.36515        0.37197        0.32442        0.43085        0.34735        0.35004        0.33829        0.37615        0.36382        0.29121        0.30661        0.26486        0.31096        0.32330        0.31411        0.33571        0.31927        0.34608        0.33620        0.33633        0.31404        0.29543        0.27384        0.31797        0.33879        0.31970        0.29264        0.33479        0.32467        0.32994        0.33300        0.29700        0.28239        0.29711        0.32131        0.31230        0.31042        0.28605        0.30287        0.34698        0.32577        0.31848        0.38554        0.32518        0.26774        0.31146        0.32513        0.31372        0.34108        0.29946        0.32224        0.26934        0.31544        0.33271        0.35798        0.30037        0.31289        0.30571        0.28785        0.36031        0.35276        0.31052        0.30755        0.29397        0.28866        0.33848        0.33565        0.27819        0.32404        0.28334        0.26612        0.25749        0.30164        0.32983        0.32252        0.23617        0.27326        0.33784        0.30880        0.32634        0.33481        0.30652        0.31641        0.32341        0.30368        0.27543        0.27167        0.28422        0.32871        0.32752        0.31081        0.32553        0.35002        0.33664        0.29350        0.30406        0.29341        0.30366        0.29416        0.24426        0.25786        0.31366        0.35196        0.24475        0.21150        0.18399        0.29000        0.29797        0.28637        0.30166        0.27821        0.27424        0.24173        0.28415        0.26800        0.30231        0.23408        0.25262        0.25405        0.21394        0.25189        0.32338        0.33152        0.26580        0.22693        0.21288        0.15910        0.24338        0.24918        0.38201        0.28026        0.22062        0.30441        0.36363        0.14290       -0.07760       -0.12959       -0.61350       -0.79147
3.445173 3.406643 3.368331 3.330239 3.292365 3.254710 3.217275 3.180058 3.143060 3.106280 3.069720 3.033378 2.997256 2.961352 2.925668 2.890202 2.854955 2.819926 2.785117 2.750527 2.716155 2.682003 2.648069 2.614354 2.580858 2.547581 2.514523 2.481683 2.449063 2.416661 2.384479 2.352515 2.320770 2.289244 2.257936 2.226848 2.195979 2.165328 2.134897 2.104684 2.074690 2.044915 2.015359 1.986022 1.956903 1.928004 1.899323 1.870861 1.842618 1.814594 1.786789 1.671224 1.974740 1.714513 1.082436 1.155959 0.349881 0.897063 0.534195 0.639614 0.923531 0.661344 0.682561 0.757143 0.692307 0.651672 0.444189 0.342744 0.196747 0.001154 0.004554 0.134647 0.403863 -0.032097 0.163859 0.043194 0.170076 -0.059197 0.265192 0.177845 0.100762 0.305060 0.512593 0.303096 0.442509 0.363257 0.804471 0.657165 0.862566 0.897494 0.803225 1.029840 0.932420 1.252296 1.067332 1.110928 1.011789 1.030342 0.979989 0.900426 0.936108 0.767814 0.744513 0.670366 0.634451 0.460449 0.569363 0.439833 0.273256 0.208669 0.137712 0.179235 0.205914 0.146409 0.193834 0.394362 0.352596 0.364037 0.468272 0.559497 0.549164 0.430628 0.818236 0.811742 0.622534 0.703226 0.778005 0.561071 0.412152 0.521249 0.208645 0.266802 0.107855 0.153314 -0.009009 -0.040123 -0.109428 -0.103445 0.090516 -0.015612 0.125163 0.196741 0.157277 0.301785 0.301448 0.410273 0.329680 0.473707 0.311617 0.258503 0.245161 0.155159 0.070011 0.048007 0.027357 -0.003641 -0.052636 -0.112891 -0.115218 -0.047933 -0.073066 0.138716 0.324696 0.225855 0.199722 0.294048 0.314370 0.232247 0.352103 0.286687 0.152062 0.140987 0.262404 0.011913 0.046957 0.017355 0.052292 -0.024221 0.088171 0.004405 0.155231 0.005631 0.218799 0.244328 0.175963 0.274196 0.195422 0.147190 0.052864 0.076095 0.077053 0.034080 -0.011896 0.033381 -0.040148 0.005964 0.031315 0.116389 0.267494 0.142397 0.148866 0.264924 0.147368 0.173771 0.040946 0.098123 0.073964 -0.098523 0.001659 0.046660 0.181244 0.128332 0.052753 0.103207 0.188922 0.179979 0.280170 0.122979 0.124771 0.045879 0.009212 0.064600 0.047741 0.102286 0.170487 0.138536 0.095342 0.149080 0.204035 0.015528 0.109105 0.073684 0.157722 0.062953 -0.004906 0.001181 -0.060295 0.038757 0.057056 0.044720 0.015658 0.050158 0.045755 0.011058 0.025011 -0.017444 -0.074510 -0.036832 -0.047627 0.075540 -0.050529 -0.015532 0.028561 0.004002 0.038419 0.048049 -0.041824 -0.037217 -0.023181 0.033132 0.002335 0.020829 -0.052294 -0.022427 0.094638 0.015975 -0.013597 0.167296 -0.071015 -0.080844 0.014707 0.008324 -0.014766 0.024132 -0.036760 0.000932 -0.109621 0.031472 0.052578 0.075336 -0.062784 -0.001864 -0.044266 -0.030090 0.074510 0.068829 -0.061191 -0.010967 -0.060642 -0.058430 0.037985 -0.007075 -0.079108 0.043910 -0.086448 -0.104214 -0.091907 -0.050614 0.032311 -0.069032 -0.229479 -0.027861 0.056790 -0.048135 -0.033598 0.047757 -0.050750 -0.003246 -0.085519 -0.047856 -0.102318 -0.116724 -0.112338 0.048995 0.001693 -0.059778 0.000110 0.101074 -0.113897 0.005709 0.014743 -0.089564 0.025264 -0.014599 -0.115014 -0.071039 0.024633 0.168466 -0.071213 -0.223098 -0.122160 0.128060 0.002952 -0.004709 0.131592 0.070335 0.019689 -0.028168 0.055176 0.076574 0.099720 -0.007767 0.059509 0.087762 -0.090921 0.102888 0.282837 0.161740 0.120848 0.099510 -0.046742 0.063208 0.010661 0.064474 0.366305 0.575061 0.396500 0.578108 0.847983 0.276168 -0.327518 -0.220416 -1.411335
0.072396 0.072907 0.074441 0.076997 0.080574 0.085172 0.090788 0.097423 0.105072 0.113734 0.123405 0.134080 0.145755 0.158421 0.172071 0.186695 0.202283 0.218819 0.236290 0.254676 0.273956 0.294107 0.315101 0.336908 0.359492 0.382815 0.406833 0.431499 0.456758 0.482552 0.508817 0.535483 0.562473 0.589705 0.617089 0.644530 0.671924 0.699162 0.726126 0.752692 0.778729 0.804100 0.828658 0.852254 0.874729 0.895920 0.915659 0.933774 0.950088 0.964420 0.976589 0.986413 0.993708 0.998295 0.999994 0.998632 0.994042 0.986065 0.974551 0.959362 0.940375 0.917483 0.890596 0.859647 0.824590 0.785405 0.742100 0.694713 0.643313 0.588005 0.528928 0.466260 0.400219 0.331060 0.259083 0.184628 0.108078 0.029855 0.049575 0.129708 0.210005 0.289889 0.368752 0.445961 0.520856 0.592763 0.660993 0.724854 0.783656 0.836718 0.883377 0.922999 0.954985 0.978785 0.993902 0.999907 0.996449 0.983260 0.960169 0.927108 0.884122 0.831374 0.769154 0.697878 0.618097 0.530495 0.435887 0.335219 0.229560 0.120099 0.008127 0.104966 0.217714 0.328590 0.436021 0.538420 0.634200 0.721809 0.799748 0.866608 0.921093 0.962050 0.988499 0.999656 0.994965 0.974113 0.937055 0.884027 0.815558 0.732475 0.635908 0.527277 0.408287 0.280903 0.147329 0.009974 0.128586 0.265657 0.398475 0.524261 0.640283 0.743915 0.832707 0.904443 0.957207 0.989439 0.999993 0.988180 0.953809 0.897216 0.819279 0.721425 0.605613 0.474319 0.330486 0.177476 0.018998 0.140977 0.298309 0.448797 0.588289 0.712805 0.818654 0.902553 0.961741 0.994080 0.998151 0.973320 0.919795 0.838655 0.731850 0.602183 0.453249 0.289357 0.115422 0.063180 0.240760 0.411500 0.569648 0.709706 0.826638 0.916067 0.974445 0.999222 0.988968 0.943477 0.863814 0.752327 0.612609 0.449408 0.268489 0.076444 0.119526 0.311876 0.493012 0.655583 0.792797 0.898719 0.968547 0.998850 0.987769 0.935147 0.842599 0.713502 0.552908 0.367382 0.164754 0.046183 0.256050 0.455285 0.634589 0.785365 0.900153 0.973020 0.999903 0.978861 0.910248 0.796765 0.643403 0.457270 0.247294 0.023824 0.201864 0.418118 0.613519 0.777495 0.900910 0.976607 0.999864 0.968719 0.884176 0.750234 0.573749 0.364142 0.132927 0.106887 0.341518 0.557190 0.740953 0.881488 0.969833 1.000000 0.969428 0.879245 0.734298 0.542966 0.316722 0.069500 0.183149 0.424994 0.640193 0.814326 0.935407 0.994750 0.987642 0.913783 0.777423 0.587194 0.355633 0.098413 0.166694 0.420999 0.646234 0.825881 0.946402 0.998335 0.977087 0.883413 0.723493 0.508616 0.254449 0.020045 0.293985 0.546154 0.756645 0.908461 0.988955 0.990939 0.913410 0.761780 0.547613 0.287805 0.003333 0.282399 0.545465 0.763438 0.917330 0.993309 0.984022 0.889394 0.716809 0.480641 0.201153 0.097189 0.387802 0.644352 0.843156 0.965434 0.999147 0.940280 0.793416 0.571491 0.294772 0.010914 0.316528 0.592574 0.811933 0.952604 0.999981 0.948469 0.802255 0.575103 0.289185 0.027006 0.341410 0.621649 0.838381 0.968414 0.997300 0.921048 0.746776 0.492203 0.183957 0.145111 0.459367 0.724266 0.910164 0.995736 0.970530 0.836372 0.607429 0.308850 0.025872 0.358597 0.650829 0.868225 0.984688 0.985624 0.869909 0.650300 0.352199 0.010828 0.332812 0.636864 0.863712 0.984723 0.983988 0.860557 0.628868 0.317231 0.035502 0.384670 0.685444 0.898617 0.995792 0.963325 0.804400 0.538935 0.201271 0.164144 0.508515 0.785219 0.956182
1.000000 1.000000 1.000000 1.000000 1.000000 1.000000 1.000000 1.000000 1.000000 1.000000 1.000000 1.000000 1.000000 1.000000 1.000000 1.000000 1.000000 1.000000 1.000000 1.000000 1.000000 1.000000 1.000000 1.000000 1.000000 1.000000 1.000000 1.000000 1.000000 1.000000 1.000000 1.000000 1.000000 1.000000 1.000000 1.000000 1.000000 1.000000 1.000000 1.000000 1.000000 1.000000 1.000000 1.000000 1.000000 1.000000 1.000000 1.000000 1.000000 1.000000 1.000000 1.000000 0.822611 0.822611 0.822611 0.798865 0.798865 0.798865 0.798865 0.798865 0.798865 0.798865 0.798865 0.798865 0.798865 0.798865 0.798865 0.798865 0.798865 0.798865 0.798865 0.798865 0.798865 0.798865 0.798865 0.798865 0.798865 0.798865 0.798865 0.798865 0.798865 0.798865 0.798865 0.798865 0.798865 0.798865 0.798865 0.798865 0.798865 0.798865 0.798865 0.798865 0.798865 0.798865 0.798865 0.798865 0.854029 0.860678 0.865946 0.869656 0.869934 0.866927 0.865747 0.865315 0.864746 0.865977 0.874717 0.900484 0.913905 0.915129 0.928492 0.929931 0.934874 0.935609 0.955349 0.956811 0.958158 0.957262 0.958233 0.960285 0.966818 0.966987 0.964543 0.964603 0.967375 0.968004 0.967733 0.964165 0.962769 0.962010 0.959514 0.959231 0.958832 0.959325 0.959744 0.954486 0.954943 0.955217 0.957107 0.955630 0.945859 0.940347 0.936439 0.934538 0.917042 0.914492 0.914987 0.913105 0.904789 0.905233 0.894804 0.895956 0.894644 0.886741 0.886232 0.882912 0.878840 0.868699 0.867269 0.866905 0.869685 0.874810 0.877600 0.864138 0.848194 0.828819 0.812769 0.796977 0.798297 0.796827 0.792145 0.796151 0.797866 0.796362 0.794453 0.787019 0.774093 0.781735 0.779479 0.775626 0.769474 0.767762 0.754580 0.747917 0.742402 0.717706 0.703995 0.695940 0.706002 0.698557 0.698971 0.702530 0.710501 0.710734 0.711305 0.704255 0.700691 0.692284 0.672592 0.678772 0.689163 0.682465 0.675875 0.674543 0.649242 0.677796 0.681191 0.700867 0.708827 0.709916 0.710252 0.695498 0.670078 0.675111 0.675623 0.665329 0.671812 0.672642 0.668078 0.652542 0.657109 0.663422 0.683481 0.647908 0.642393 0.626180 0.627844 0.602708 0.585540 0.573687 0.571504 0.537695 0.536241 0.532187 0.524278 0.523153 0.509727 0.493342 0.474168 0.488919 0.472493 0.471501 0.465829 0.466513 0.457459 0.440139 0.417618 0.375630 0.390520 0.398781 0.379205 0.369491 0.339231 0.337887 0.339244 0.343921 0.307438 0.284856 0.286303 0.286077 0.271734 0.273285 0.277299 0.253654 0.256856 0.165444 0.164527 0.179979 0.182969 0.145312 0.134627 0.159723 0.162297 0.145849 0.119711 0.063494 0.020441 0.004267 0.028822 0.037576 0.023542 0.011029 0.007741 0.005146 0.020827 -0.024109 -0.035928 -0.048994 -0.051505 -0.044886 -0.014876 -0.027809 -0.050720 -0.042963 -0.021588 -0.054745 -0.040916 -0.036605 -0.041310 -0.013721 -0.033907 -0.062904 -0.061494 -0.075891 -0.068427 -0.038097 -0.051311 -0.064490 -0.042093 -0.038121 -0.040920 -0.060684 -0.077383 -0.095537 -0.089325 -0.117864 -0.104988 -0.080129 -0.075414 -0.057183 0.003446 0.005284 0.003914 -0.030696 0.005126 -0.020178 -0.028239 -0.011415 -0.043038 -0.044882 -0.002352 0.011388 0.023309 -0.024403 -0.040088 -0.040088 -0.040088 -0.066944 -0.066944 -0.066944 -0.066944 -0.066944 -0.066944 -0.066944 -0.066944 -0.066944 -0.071140 -0.071140 -0.071140 -0.071140 -0.071140 -0.071140 -0.071140 -0.071140 -0.071140 -0.071140 -0.071140 -0.071140 -0.071140 -0.071140 -0.071140 -0.071140 -0.071140
0.000000 0.000000 0.000000 0.000000 0.000000 0.000000 0.000000 0.000000 0.000000 0.000000 0.000000 0.000000 0.000000 0.000000 0.000000 0.000000 0.000000 0.000000 0.000000 0.000000 0.000000 0.000000 0.000000 0.000000 0.000000 0.000000 0.000000 0.000000 0.000000 0.000000 0.000000 0.000000 0.000000 0.000000 0.000000 0.000000 0.000000 0.000000 0.000000 0.000000 0.000000 0.000000 0.000000 0.000000 0.000000 0.000000 0.000000 0.000000 0.000000 0.000000 0.000000 0.000000 0.180334 0.180334 0.180334 0.199007 0.199007 0.199007 0.199007 0.199007 0.199007 0.199007 0.199007 0.199007 0.199007 0.199007 0.199007 0.199007 0.199007 0.199007 0.199007 0.199007 0.199007 0.199007 0.199007 0.199007 0.199007 0.199007 0.199007 0.199007 0.199007 0.199007 0.199007 0.199007 0.199007 0.199007 0.199007 0.199007 0.199007 0.199007 0.199007 0.199007 0.199007 0.199007 0.199007 0.199007 0.230940 0.230940 0.230940 0.230940 0.230940 0.230940 0.230940 0.230940 0.230940 0.230940 0.230940 0.230940 0.230940 0.230940 0.230940 0.230940 0.230940 0.230940 0.230940 0.230940 0.230940 0.230940 0.230940 0.230940 0.230940 0.230940 0.230940 0.230940 0.248069 0.248069 0.248069 0.248069 0.248069 0.248069 0.248069 0.248069 0.248069 0.248069 0.248069 0.248069 0.248069 0.248069 0.248069 0.248069 0.248069 0.248069 0.248069 0.248069 0.248069 0.248069 0.251976 0.251976 0.251976 0.251976 0.251976 0.251976 0.251976 0.251976 0.251976 0.251976 0.251976 0.251976 0.251976 0.251976 0.251976 0.251976 0.251976 0.251976 0.251976 0.251976 0.256074 0.256074 0.256074 0.256074 0.256074 0.256074 0.256074 0.256074 0.256074 0.256074 0.256074 0.256074 0.256074 0.256074 0.256074 0.256074 0.256074 0.256074 0.264906 0.264906 0.264906 0.264906 0.264906 0.264906 0.264906 0.264906 0.264906 0.264906 0.264906 0.264906 0.264906 0.264906 0.264906 0.264906 0.264906 0.264906 0.264906 0.264906 0.264906 0.264906 0.264906 0.264906 0.264906 0.264906 0.264906 0.264906 0.264906 0.264906 0.264906 0.274721 0.274721 0.274721 0.274721 0.274721 0.274721 0.274721 0.274721 0.274721 0.274721 0.274721 0.274721 0.274721 0.264906 0.264906 0.264906 0.264906 0.264906 0.264906 0.264906 0.264906 0.264906 0.264906 0.264906 0.264906 0.264906 0.260378 0.260378 0.260378 0.260378 0.260378 0.260378 0.260378 0.260378 0.260378 0.260378 0.260378 0.260378 0.260378 0.264906 0.264906 0.264906 0.264906 0.264906 0.264906 0.264906 0.264906 0.264906 0.264906 0.264906 0.264906 0.269680 0.269680 0.269680 0.269680 0.269680 0.269680 0.269680 0.269680 0.269680 0.269680 0.269680 0.264906 0.264906 0.264906 0.264906 0.264906 0.264906 0.264906 0.264906 0.264906 0.264906 0.264906 0.269680 0.269680 0.269680 0.269680 0.269680 0.269680 0.269680 0.269680 0.269680 0.269680 0.264906 0.264906 0.264906 0.264906 0.264906 0.264906 0.264906 0.264906 0.264906 0.264906 0.260378 0.260378 0.260378 0.260378 0.260378 0.260378 0.260378 0.260378 0.260378 0.260378 0.256074 0.256074 0.256074 0.256074 0.256074 0.256074 0.256074 0.256074 0.256074 0.256074 0.260378 0.260378 0.260378 0.260378 0.260378 0.260378 0.260378 0.260378 0.260378 0.256074 0.256074 0.256074 0.256074 0.256074 0.256074 0.256074 0.256074 0.256074 0.251976 0.251976 0.251976 0.251976 0.251976 0.251976 0.251976 0.251976 0.251976 0.251976 0.251976 0.251976 0.251976 0.251976 0.251976 0.251976 0.251976
