# Output from CTFFind version 4.1.9, run on 2019-11-03 19:29:39
# Input file: stack11_bm3d_averaged_1_3.75_0_2000_half.mrc ; Number of micrographs: 1
# Pixel size: 3.000 Angstroms ; acceleration voltage: 300.0 keV ; spherical aberration: 0.00 mm ; amplitude contrast: 0.07
# Box size: 512 pixels ; min. res.: 30.0 Angstroms ; max. res.: 5.0 Angstroms ; min. def.: 5000.0 um; max. def. 50000.0 um; num. frames averaged: 1
# 6 lines per micrograph: #1 - spatial frequency (1/Angstroms); #2 - 1D rotational average of spectrum (assuming no astigmatism); #3 - 1D rotational average of spectrum; #4 - CTF fit; #5 - cross-correlation between spectrum and CTF fit; #6 - 2sigma of expected cross correlation of noise
0.000000 0.000651 0.001302 0.001953 0.002604 0.003255 0.003906 0.004557 0.005208 0.005859 0.006510 0.007161 0.007812 0.008464 0.009115 0.009766 0.010417 0.011068 0.011719 0.012370 0.013021 0.013672 0.014323 0.014974 0.015625 0.016276 0.016927 0.017578 0.018229 0.018880 0.019531 0.020182 0.020833 0.021484 0.022135 0.022786 0.023438 0.024089 0.024740 0.025391 0.026042 0.026693 0.027344 0.027995 0.028646 0.029297 0.029948 0.030599 0.031250 0.031901 0.032552 0.033203 0.033854 0.034505 0.035156 0.035807 0.036458 0.037109 0.037760 0.038411 0.039062 0.039714 0.040365 0.041016 0.041667 0.042318 0.042969 0.043620 0.044271 0.044922 0.045573 0.046224 0.046875 0.047526 0.048177 0.048828 0.049479 0.050130 0.050781 0.051432 0.052083 0.052734 0.053385 0.054036 0.054688 0.055339 0.055990 0.056641 0.057292 0.057943 0.058594 0.059245 0.059896 0.060547 0.061198 0.061849 0.062500 0.063151 0.063802 0.064453 0.065104 0.065755 0.066406 0.067057 0.067708 0.068359 0.069010 0.069661 0.070312 0.070964 0.071615 0.072266 0.072917 0.073568 0.074219 0.074870 0.075521 0.076172 0.076823 0.077474 0.078125 0.078776 0.079427 0.080078 0.080729 0.081380 0.082031 0.082682 0.083333 0.083984 0.084635 0.085286 0.085938 0.086589 0.087240 0.087891 0.088542 0.089193 0.089844 0.090495 0.091146 0.091797 0.092448 0.093099 0.093750 0.094401 0.095052 0.095703 0.096354 0.097005 0.097656 0.098307 0.098958 0.099609 0.100260 0.100911 0.101562 0.102214 0.102865 0.103516 0.104167 0.104818 0.105469 0.106120 0.106771 0.107422 0.108073 0.108724 0.109375 0.110026 0.110677 0.111328 0.111979 0.112630 0.113281 0.113932 0.114583 0.115234 0.115885 0.116536 0.117188 0.117839 0.118490 0.119141 0.119792 0.120443 0.121094 0.121745 0.122396 0.123047 0.123698 0.124349 0.125000 0.125651 0.126302 0.126953 0.127604 0.128255 0.128906 0.129557 0.130208 0.130859 0.131510 0.132161 0.132812 0.133464 0.134115 0.134766 0.135417 0.136068 0.136719 0.137370 0.138021 0.138672 0.139323 0.139974 0.140625 0.141276 0.141927 0.142578 0.143229 0.143880 0.144531 0.145182 0.145833 0.146484 0.147135 0.147786 0.148438 0.149089 0.149740 0.150391 0.151042 0.151693 0.152344 0.152995 0.153646 0.154297 0.154948 0.155599 0.156250 0.156901 0.157552 0.158203 0.158854 0.159505 0.160156 0.160807 0.161458 0.162109 0.162760 0.163411 0.164062 0.164714 0.165365 0.166016 0.166667 0.167318 0.167969 0.168620 0.169271 0.169922 0.170573 0.171224 0.171875 0.172526 0.173177 0.173828 0.174479 0.175130 0.175781 0.176432 0.177083 0.177734 0.178385 0.179036 0.179688 0.180339 0.180990 0.181641 0.182292 0.182943 0.183594 0.184245 0.184896 0.185547 0.186198 0.186849 0.187500 0.188151 0.188802 0.189453 0.190104 0.190755 0.191406 0.192057 0.192708 0.193359 0.194010 0.194661 0.195312 0.195964 0.196615 0.197266 0.197917 0.198568 0.199219 0.199870 0.200521 0.201172 0.201823 0.202474 0.203125 0.203776 0.204427 0.205078 0.205729 0.206380 0.207031 0.207682 0.208333 0.208984 0.209635 0.210286 0.210938 0.211589 0.212240 0.212891 0.213542 0.214193 0.214844 0.215495 0.216146 0.216797 0.217448 0.218099 0.218750 0.219401 0.220052 0.220703 0.221354 0.222005 0.222656 0.223307 0.223958 0.224609 0.225260 0.225911 0.226562 0.227214 0.227865 0.228516 0.229167 0.229818 0.230469 0.231120 0.231771 0.232422 0.233073 0.233724 0.234375 0.235026 0.235677
       0.32801        0.32801        0.32801        0.32801        0.32801        0.32801        0.32801        0.32801        0.32801        0.32801        0.32801        0.32801        0.32801        0.32801        0.32801        0.32801        0.32801        0.32801        0.32801        0.32801        0.32801        0.32801        0.32801        0.32801        0.32801        0.32801        0.32801        0.32801        0.32801        0.32801        0.32801        0.32801        0.32801        0.32801        0.32801        0.32801        0.32801        0.32801        0.32801        0.32801        0.32801        0.32801        0.32801        0.32801        0.32801        0.32801        0.32801        0.32801        0.32801        0.32801        0.32801        0.68818        0.86050        0.52824        0.09898       -0.04186       -0.40895       -0.18963       -0.29091       -0.11418       -0.06369       -0.11314       -0.05894       -0.18850       -0.21879       -0.23517       -0.32017       -0.33133       -0.46380       -0.37107       -0.44537       -0.43821       -0.40982       -0.44007       -0.49020       -0.53432       -0.57043       -0.58603       -0.55546       -0.38475       -0.35727       -0.31603       -0.29589       -0.20026       -0.19103        0.04034        0.11065        0.14311        0.24364        0.37455        0.45031        0.51364        0.57376        0.57179        0.56811        0.69114        0.80554        0.71708        0.73497        0.63827        0.56754        0.48168        0.41860        0.50454        0.38775        0.23595        0.09447        0.07621        0.05280       -0.04310        0.00037        0.01843       -0.02983        0.00514       -0.00252        0.23277        0.26039        0.28867        0.42218        0.44574        0.40470        0.56552        0.62479        0.66425        0.74054        0.68222        0.65021        0.67519        0.56767        0.47473        0.41709        0.29171        0.23035        0.16502        0.12356        0.04994        0.03315        0.03195        0.08299        0.13725        0.22185        0.27422        0.39699        0.44577        0.48903        0.58850        0.61599        0.63244        0.62126        0.55982        0.45169        0.46184        0.36735        0.24358        0.19182        0.15138        0.14438        0.13878        0.11836        0.14543        0.27743        0.29001        0.37281        0.40309        0.43064        0.50032        0.54688        0.55057        0.48306        0.44770        0.39483        0.34829        0.31448        0.27755        0.22446        0.21966        0.20196        0.22559        0.20553        0.29338        0.34971        0.38454        0.43357        0.45294        0.47515        0.41907        0.39483        0.40576        0.36084        0.29185        0.26505        0.23867        0.23923        0.21241        0.25433        0.25768        0.33483        0.37058        0.39522        0.47283        0.42092        0.43016        0.42982        0.40242        0.34345        0.31823        0.28498        0.29089        0.25954        0.29275        0.29105        0.31527        0.32119        0.33948        0.31918        0.40349        0.41685        0.38036        0.34567        0.37015        0.29802        0.28367        0.27766        0.30541        0.28357        0.29756        0.31056        0.32429        0.33819        0.36420        0.37114        0.37879        0.36630        0.31446        0.32962        0.28512        0.26058        0.30951        0.30392        0.31845        0.32105        0.32146        0.35337        0.32346        0.32005        0.30555        0.31774        0.28845        0.29868        0.26603        0.29480        0.30420        0.28991        0.31144        0.32996        0.33470        0.27524        0.30968        0.28078        0.29239        0.27289        0.22773        0.28509        0.29058        0.34244        0.32546        0.32427        0.31824        0.32820        0.28754        0.32802        0.32263        0.28370        0.26886        0.31098        0.29738        0.34574        0.32775        0.33126        0.33610        0.29139        0.27209        0.30022        0.24270        0.21826        0.31218        0.31518        0.31770        0.31128        0.32228        0.29752        0.34124        0.33404        0.26156        0.23426        0.29764        0.30416        0.29457        0.32098        0.33689        0.33411        0.30414        0.29016        0.33568        0.31611        0.27962        0.26012        0.31549        0.35337        0.39062        0.30341        0.27301        0.27087        0.30703        0.25194        0.28934        0.26485        0.24899        0.31635        0.33674        0.34267        0.32819        0.28413        0.26551        0.27471        0.24866        0.24021        0.24169        0.31423        0.29231        0.21599        0.32827        0.32172        0.26088        0.26592        0.20203        0.20398        0.24624        0.18334        0.23714        0.26382        0.22038        0.19431        0.28793        0.34711        0.33432        0.33672        0.24414        0.20378        0.18396        0.23390        0.21403        0.15178        0.19745        0.24674        0.21846        0.20629        0.15315        0.09557        0.11393        0.05897       -0.09367       -0.63314
2.658116 2.630257 2.602549 2.574993 2.547588 2.520334 2.493232 2.466281 2.439481 2.412832 2.386335 2.359989 2.333794 2.307751 2.281859 2.256118 2.230528 2.205090 2.179803 2.154667 2.129682 2.104849 2.080167 2.055637 2.031257 2.007029 1.982952 1.959027 1.935252 1.911630 1.888158 1.864838 1.841668 1.818651 1.795784 1.773069 1.750505 1.728092 1.705831 1.683721 1.661762 1.639954 1.618298 1.596793 1.575439 1.554237 1.533185 1.512286 1.491537 1.470940 1.450494 1.668738 2.086577 1.649047 1.154659 1.020290 0.425875 0.831137 0.556550 0.838866 0.789734 0.803204 0.753474 0.725734 0.578944 0.536550 0.489610 0.428179 0.229338 0.373077 0.199654 0.316542 0.225926 0.192254 0.160393 0.026654 0.024736 0.005791 -0.066613 0.120378 0.219259 0.186150 0.162437 0.332261 0.185753 0.506484 0.608494 0.597732 0.621478 0.876412 0.828478 0.941567 0.905861 1.005570 0.967309 1.082181 1.148251 1.051672 1.151134 0.928407 0.934074 0.792646 0.655706 0.793869 0.711672 0.478707 0.326174 0.251146 0.251923 0.148713 0.114618 0.152407 0.102227 0.138326 0.065820 0.266423 0.375999 0.354581 0.476598 0.557235 0.436496 0.581323 0.720780 0.713434 0.758212 0.718104 0.734134 0.683650 0.615519 0.538560 0.403686 0.283430 0.228137 0.084796 0.132778 -0.061418 -0.035955 -0.059433 -0.056740 -0.012206 0.152195 0.071186 0.265037 0.306810 0.353976 0.426567 0.521765 0.487998 0.520745 0.512829 0.329547 0.312580 0.295831 0.099022 0.052846 -0.037818 -0.005184 -0.040475 -0.073736 -0.085225 0.040636 0.077472 0.133542 0.200735 0.236370 0.281992 0.319137 0.425961 0.402546 0.295389 0.250233 0.228258 0.173298 0.139834 0.112920 0.014756 0.021887 0.055184 0.006165 0.078334 0.156605 0.155713 0.255540 0.252796 0.311177 0.188861 0.227472 0.157784 0.203129 0.117003 0.052734 0.007606 0.004578 -0.001054 -0.036822 0.049470 0.028259 0.141112 0.154539 0.184735 0.237770 0.172295 0.177044 0.182581 0.137185 0.069555 0.017905 0.054720 0.006549 -0.010158 0.024262 0.045045 0.060713 0.053424 0.063684 0.098367 0.128215 0.172970 0.070320 0.072371 0.063526 0.010369 -0.016103 0.012730 0.015300 0.008466 0.011542 0.030819 0.056306 0.066630 0.111724 0.061883 0.131071 0.061140 0.023176 0.048238 -0.031348 -0.004350 0.042978 0.002753 0.049875 0.052426 0.026165 0.100170 0.051634 0.019791 0.048972 0.014073 0.027111 0.013295 -0.012571 0.048429 0.005488 0.014972 0.059869 0.067870 0.030920 0.041229 0.032482 0.034473 0.022420 -0.012929 -0.026177 0.031033 0.056607 0.091454 0.078665 0.078932 0.065019 0.093621 0.041684 0.103146 0.091405 0.018994 0.030174 0.085950 0.071024 0.100141 0.091259 0.126424 0.104567 0.066551 0.019771 0.090186 -0.029218 0.005190 0.100449 0.071003 0.102265 0.077717 0.075910 0.021189 0.119656 0.079554 -0.013082 -0.038961 0.053884 0.074576 0.039412 0.041723 0.090192 0.097231 0.015450 0.051333 0.078128 0.061026 0.027296 -0.020417 0.071209 0.111056 0.115248 0.006113 -0.007294 -0.013127 0.053580 -0.049482 0.025659 -0.028047 -0.022089 0.031881 0.075421 0.013921 0.013827 -0.029477 -0.034302 -0.055941 -0.032514 -0.081670 -0.074221 0.036286 0.038478 -0.089551 0.060380 0.006601 -0.048821 0.021246 -0.108799 -0.065529 -0.049164 -0.082660 -0.022266 0.013470 -0.013045 -0.110631 0.050903 0.182026 0.008450 0.136523 0.024584 0.222567 0.172429 0.256606 0.245928 0.152225 0.204534 0.288019 0.207045 0.233994 0.141028 0.148234 0.164843 0.059782 -0.678126
0.072396 0.072898 0.074405 0.076915 0.080429 0.084945 0.090462 0.096979 0.104493 0.113002 0.122502 0.132989 0.144457 0.156901 0.170312 0.184682 0.199999 0.216251 0.233422 0.251496 0.270452 0.290267 0.310916 0.332369 0.354593 0.377552 0.401203 0.425501 0.450396 0.475831 0.501745 0.528072 0.554740 0.581668 0.608773 0.635962 0.663138 0.690196 0.717023 0.743502 0.769507 0.794906 0.819561 0.843326 0.866050 0.887578 0.907746 0.926388 0.943334 0.958410 0.971440 0.982246 0.990650 0.996475 0.999547 0.999693 0.996749 0.990554 0.980959 0.967822 0.951017 0.930431 0.905966 0.877545 0.845110 0.808630 0.768095 0.723524 0.674967 0.622506 0.566253 0.506360 0.443013 0.376438 0.306899 0.234701 0.160188 0.083747 0.005802 0.073183 0.152707 0.232231 0.311188 0.388977 0.464975 0.538536 0.608999 0.675694 0.737944 0.795080 0.846442 0.891389 0.929311 0.959632 0.981825 0.995416 1.000000 0.995245 0.980903 0.956821 0.922946 0.879333 0.826154 0.763702 0.692395 0.612777 0.525523 0.431435 0.331440 0.226584 0.118025 0.007026 0.105062 0.216809 0.326729 0.433293 0.534954 0.630168 0.717422 0.795253 0.862284 0.917245 0.959002 0.986586 0.999216 0.996325 0.977582 0.942912 0.892507 0.826844 0.746685 0.653083 0.547377 0.431178 0.306355 0.175013 0.039458 0.097832 0.234256 0.367132 0.493755 0.611447 0.717621 0.809840 0.885879 0.943785 0.981933 0.999082 0.994421 0.967606 0.918797 0.848670 0.758432 0.649810 0.525037 0.386815 0.238271 0.082892 0.075545 0.233066 0.385590 0.529043 0.659463 0.773119 0.866621 0.937036 0.981987 0.999749 0.989324 0.950507 0.883918 0.791023 0.674123 0.536317 0.381438 0.213960 0.038887 0.138396 0.312274 0.477088 0.627311 0.757753 0.863735 0.941284 0.987292 0.999657 0.977401 0.920746 0.831151 0.711305 0.565074 0.397405 0.214173 0.021994 0.172002 0.360428 0.535920 0.691436 0.820543 0.917700 0.978519 0.999984 0.980624 0.920635 0.821921 0.688081 0.524307 0.337211 0.134587 0.074894 0.282054 0.477589 0.652511 0.798550 0.908584 0.976995 0.999998 0.975872 0.905117 0.790498 0.636987 0.451582 0.243025 0.021421 0.202240 0.416615 0.610586 0.773844 0.897463 0.974411 0.999990 0.972161 0.891732 0.762409 0.590672 0.385497 0.157930 0.079479 0.313360 0.530255 0.717413 0.863550 0.959567 0.999154 0.979249 0.900322 0.766445 0.585146 0.367038 0.125251 0.125338 0.368993 0.590105 0.774207 0.908941 0.984939 0.996514 0.942148 0.824702 0.651351 0.433201 0.184650 0.077539 0.335334 0.570657 0.766684 0.909061 0.987003 0.994177 0.929274 0.796238 0.604115 0.366507 0.100671 0.173690 0.435866 0.665703 0.845165 0.959809 0.999992 0.961761 0.847307 0.664944 0.428596 0.156801 0.128687 0.404605 0.648077 0.838524 0.959464 0.999983 0.955818 0.829877 0.632158 0.379060 0.092083 0.203919 0.482879 0.719806 0.893067 0.986406 0.990558 0.904264 0.734569 0.496364 0.211167 0.094733 0.392660 0.654243 0.854113 0.972449 0.997007 0.924498 0.761113 0.522113 0.230530 0.084986 0.392925 0.662038 0.864556 0.979105 0.993051 0.904020 0.720358 0.460494 0.151194 0.175098 0.483630 0.741024 0.918945 0.997293 0.966588 0.829239 0.599530 0.302272 0.029769 0.359401 0.649165 0.865603 0.983198 0.987495 0.877007 0.663664 0.371668 0.034888 0.306982 0.613073 0.846233 0.977615 0.990361 0.881905 0.664579 0.364377 0.017990 0.331587 0.640364 0.868895 0.987413 0.979832 0.846092 0.602466 0.279773 0.080392
1.000000 1.000000 1.000000 1.000000 1.000000 1.000000 1.000000 1.000000 1.000000 1.000000 1.000000 1.000000 1.000000 1.000000 1.000000 1.000000 1.000000 1.000000 1.000000 1.000000 1.000000 1.000000 1.000000 1.000000 1.000000 1.000000 1.000000 1.000000 1.000000 1.000000 1.000000 1.000000 1.000000 1.000000 1.000000 1.000000 1.000000 1.000000 1.000000 1.000000 1.000000 1.000000 1.000000 1.000000 1.000000 1.000000 1.000000 1.000000 1.000000 1.000000 1.000000 1.000000 0.922901 0.922901 0.922901 0.914337 0.914337 0.914337 0.914337 0.914337 0.914337 0.914337 0.914337 0.914337 0.914337 0.914337 0.914337 0.914337 0.914337 0.914337 0.914337 0.914337 0.914337 0.914337 0.914337 0.914337 0.914337 0.914337 0.914337 0.914337 0.914337 0.914337 0.914337 0.914337 0.914337 0.914337 0.914337 0.914337 0.914337 0.914337 0.914337 0.914337 0.914337 0.914337 0.914337 0.914337 0.941697 0.943205 0.951286 0.951114 0.950524 0.948258 0.947252 0.946751 0.946612 0.946914 0.947601 0.948552 0.957480 0.958671 0.961538 0.962469 0.963299 0.964066 0.964855 0.965755 0.961565 0.958734 0.955147 0.955001 0.957871 0.957479 0.957631 0.958725 0.958606 0.958299 0.958800 0.958553 0.957805 0.956929 0.956101 0.955717 0.955494 0.956196 0.956565 0.958025 0.961367 0.961874 0.961957 0.962111 0.962194 0.963511 0.961814 0.961611 0.957363 0.957859 0.957547 0.957876 0.961668 0.961418 0.961932 0.962456 0.963894 0.964152 0.954220 0.951092 0.940797 0.939185 0.933219 0.925648 0.921252 0.923059 0.925331 0.926862 0.927488 0.922997 0.922992 0.919767 0.915551 0.918784 0.917305 0.916767 0.918164 0.918915 0.919326 0.918053 0.916604 0.909879 0.899810 0.899002 0.902229 0.906907 0.908872 0.909248 0.907797 0.878484 0.878265 0.884782 0.878855 0.868218 0.863845 0.862402 0.867685 0.868091 0.870888 0.870253 0.861100 0.846956 0.833005 0.826581 0.827942 0.823072 0.823236 0.822213 0.819602 0.830046 0.827082 0.832975 0.831724 0.843308 0.844442 0.835784 0.832274 0.831126 0.825162 0.809481 0.812588 0.797473 0.798191 0.797378 0.793689 0.787298 0.792761 0.773985 0.768068 0.756770 0.758869 0.762656 0.757258 0.754630 0.755688 0.756859 0.761480 0.746646 0.736318 0.721637 0.726424 0.736185 0.736468 0.731467 0.709045 0.675549 0.635909 0.653689 0.678219 0.629945 0.653165 0.663758 0.643670 0.642109 0.633825 0.632010 0.633761 0.635789 0.641402 0.649798 0.650055 0.668181 0.647227 0.637803 0.646528 0.639100 0.642002 0.625320 0.628838 0.607001 0.599575 0.624105 0.598661 0.597883 0.594871 0.605256 0.632071 0.596608 0.599801 0.612532 0.600681 0.606998 0.605877 0.595210 0.596318 0.603775 0.592876 0.608873 0.623295 0.596295 0.566279 0.547942 0.525033 0.514871 0.560865 0.561916 0.549238 0.518329 0.521980 0.539637 0.544058 0.536422 0.505677 0.516838 0.519285 0.554926 0.542781 0.493888 0.512868 0.510142 0.509063 0.458295 0.452545 0.435011 0.418039 0.375171 0.374908 0.388461 0.374859 0.341371 0.320038 0.320665 0.319725 0.326943 0.315822 0.295371 0.292600 0.318145 0.321595 0.307298 0.269808 0.261711 0.245751 0.231121 0.230287 0.195108 0.227514 0.293512 0.295017 0.295017 0.295017 0.295017 0.295017 0.295017 0.300090 0.300090 0.300090 0.300090 0.300090 0.300090 0.300090 0.300090 0.300090 0.315641 0.315641 0.315641 0.315641 0.315641 0.315641 0.315641 0.315641 0.315641 0.315641 0.315641 0.315641 0.315641 0.315641
0.000000 0.000000 0.000000 0.000000 0.000000 0.000000 0.000000 0.000000 0.000000 0.000000 0.000000 0.000000 0.000000 0.000000 0.000000 0.000000 0.000000 0.000000 0.000000 0.000000 0.000000 0.000000 0.000000 0.000000 0.000000 7.000000 4.000000 0.000000 0.000000 0.000000 0.000000 0.000000 0.000000 0.000000 0.000000 0.000000 0.000000 0.000000 0.000000 0.000000 0.000000 0.000000 0.000000 0.000000 0.000000 0.000000 0.000000 0.000000 0.000000 0.000000 0.000000 0.000000 0.180334 0.180334 0.180334 0.199007 0.199007 0.199007 0.199007 0.199007 0.199007 0.199007 0.199007 0.199007 0.199007 0.199007 0.199007 0.199007 0.199007 0.199007 0.199007 0.199007 0.199007 0.199007 0.199007 0.199007 0.199007 0.199007 0.199007 0.199007 0.199007 0.199007 0.199007 0.199007 0.199007 0.199007 0.199007 0.199007 0.199007 0.199007 0.199007 0.199007 0.199007 0.199007 0.199007 0.199007 0.225018 0.225018 0.225018 0.225018 0.225018 0.225018 0.225018 0.225018 0.225018 0.225018 0.225018 0.225018 0.225018 0.225018 0.225018 0.225018 0.225018 0.225018 0.225018 0.225018 0.225018 0.225018 0.225018 0.225018 0.225018 0.225018 0.225018 0.225018 0.225018 0.244339 0.244339 0.244339 0.244339 0.244339 0.244339 0.244339 0.244339 0.244339 0.244339 0.244339 0.244339 0.244339 0.244339 0.244339 0.244339 0.244339 0.244339 0.244339 0.244339 0.244339 0.244339 0.244339 0.251976 0.251976 0.251976 0.251976 0.251976 0.251976 0.251976 0.251976 0.251976 0.251976 0.251976 0.251976 0.251976 0.251976 0.251976 0.251976 0.251976 0.251976 0.251976 0.251976 0.264906 0.264906 0.264906 0.264906 0.264906 0.264906 0.264906 0.264906 0.264906 0.264906 0.264906 0.264906 0.264906 0.264906 0.264906 0.264906 0.264906 0.256074 0.256074 0.256074 0.256074 0.256074 0.256074 0.256074 0.256074 0.256074 0.256074 0.256074 0.256074 0.256074 0.256074 0.256074 0.256074 0.256074 0.269680 0.269680 0.269680 0.269680 0.269680 0.269680 0.269680 0.269680 0.269680 0.269680 0.269680 0.269680 0.269680 0.269680 0.264906 0.264906 0.264906 0.264906 0.264906 0.264906 0.264906 0.264906 0.264906 0.264906 0.264906 0.264906 0.264906 0.264906 0.256074 0.256074 0.256074 0.256074 0.256074 0.256074 0.256074 0.256074 0.256074 0.256074 0.256074 0.256074 0.256074 0.256074 0.269680 0.269680 0.269680 0.269680 0.269680 0.269680 0.269680 0.269680 0.269680 0.269680 0.269680 0.269680 0.264906 0.264906 0.264906 0.264906 0.264906 0.264906 0.264906 0.264906 0.264906 0.264906 0.264906 0.264906 0.260378 0.260378 0.260378 0.260378 0.260378 0.260378 0.260378 0.260378 0.260378 0.260378 0.260378 0.260378 0.274721 0.274721 0.274721 0.274721 0.274721 0.274721 0.274721 0.274721 0.274721 0.274721 0.256074 0.256074 0.256074 0.256074 0.256074 0.256074 0.256074 0.256074 0.256074 0.256074 0.256074 0.264906 0.264906 0.264906 0.264906 0.264906 0.264906 0.264906 0.264906 0.264906 0.264906 0.260378 0.260378 0.260378 0.260378 0.260378 0.260378 0.260378 0.260378 0.260378 0.260378 0.256074 0.256074 0.256074 0.256074 0.256074 0.256074 0.256074 0.256074 0.256074 0.256074 0.260378 0.260378 0.260378 0.260378 0.260378 0.260378 0.260378 0.260378 0.260378 0.256074 0.256074 0.256074 0.256074 0.256074 0.256074 0.256074 0.256074 0.256074 0.251976 0.251976 0.251976 0.251976 0.251976 0.251976 0.251976 0.251976 0.251976 0.251976 0.251976 0.251976 0.251976 0.251976
