# Output from CTFFind version 4.1.9, run on 2019-11-03 20:02:16
# Input file: stack1_bm3d_averaged_1_6.5_0_50_half.mrc ; Number of micrographs: 1
# Pixel size: 3.000 Angstroms ; acceleration voltage: 300.0 keV ; spherical aberration: 0.00 mm ; amplitude contrast: 0.07
# Box size: 512 pixels ; min. res.: 30.0 Angstroms ; max. res.: 5.0 Angstroms ; min. def.: 5000.0 um; max. def. 50000.0 um; num. frames averaged: 1
# 6 lines per micrograph: #1 - spatial frequency (1/Angstroms); #2 - 1D rotational average of spectrum (assuming no astigmatism); #3 - 1D rotational average of spectrum; #4 - CTF fit; #5 - cross-correlation between spectrum and CTF fit; #6 - 2sigma of expected cross correlation of noise
0.000000 0.000651 0.001302 0.001953 0.002604 0.003255 0.003906 0.004557 0.005208 0.005859 0.006510 0.007161 0.007812 0.008464 0.009115 0.009766 0.010417 0.011068 0.011719 0.012370 0.013021 0.013672 0.014323 0.014974 0.015625 0.016276 0.016927 0.017578 0.018229 0.018880 0.019531 0.020182 0.020833 0.021484 0.022135 0.022786 0.023438 0.024089 0.024740 0.025391 0.026042 0.026693 0.027344 0.027995 0.028646 0.029297 0.029948 0.030599 0.031250 0.031901 0.032552 0.033203 0.033854 0.034505 0.035156 0.035807 0.036458 0.037109 0.037760 0.038411 0.039062 0.039714 0.040365 0.041016 0.041667 0.042318 0.042969 0.043620 0.044271 0.044922 0.045573 0.046224 0.046875 0.047526 0.048177 0.048828 0.049479 0.050130 0.050781 0.051432 0.052083 0.052734 0.053385 0.054036 0.054688 0.055339 0.055990 0.056641 0.057292 0.057943 0.058594 0.059245 0.059896 0.060547 0.061198 0.061849 0.062500 0.063151 0.063802 0.064453 0.065104 0.065755 0.066406 0.067057 0.067708 0.068359 0.069010 0.069661 0.070312 0.070964 0.071615 0.072266 0.072917 0.073568 0.074219 0.074870 0.075521 0.076172 0.076823 0.077474 0.078125 0.078776 0.079427 0.080078 0.080729 0.081380 0.082031 0.082682 0.083333 0.083984 0.084635 0.085286 0.085938 0.086589 0.087240 0.087891 0.088542 0.089193 0.089844 0.090495 0.091146 0.091797 0.092448 0.093099 0.093750 0.094401 0.095052 0.095703 0.096354 0.097005 0.097656 0.098307 0.098958 0.099609 0.100260 0.100911 0.101562 0.102214 0.102865 0.103516 0.104167 0.104818 0.105469 0.106120 0.106771 0.107422 0.108073 0.108724 0.109375 0.110026 0.110677 0.111328 0.111979 0.112630 0.113281 0.113932 0.114583 0.115234 0.115885 0.116536 0.117188 0.117839 0.118490 0.119141 0.119792 0.120443 0.121094 0.121745 0.122396 0.123047 0.123698 0.124349 0.125000 0.125651 0.126302 0.126953 0.127604 0.128255 0.128906 0.129557 0.130208 0.130859 0.131510 0.132161 0.132812 0.133464 0.134115 0.134766 0.135417 0.136068 0.136719 0.137370 0.138021 0.138672 0.139323 0.139974 0.140625 0.141276 0.141927 0.142578 0.143229 0.143880 0.144531 0.145182 0.145833 0.146484 0.147135 0.147786 0.148438 0.149089 0.149740 0.150391 0.151042 0.151693 0.152344 0.152995 0.153646 0.154297 0.154948 0.155599 0.156250 0.156901 0.157552 0.158203 0.158854 0.159505 0.160156 0.160807 0.161458 0.162109 0.162760 0.163411 0.164062 0.164714 0.165365 0.166016 0.166667 0.167318 0.167969 0.168620 0.169271 0.169922 0.170573 0.171224 0.171875 0.172526 0.173177 0.173828 0.174479 0.175130 0.175781 0.176432 0.177083 0.177734 0.178385 0.179036 0.179688 0.180339 0.180990 0.181641 0.182292 0.182943 0.183594 0.184245 0.184896 0.185547 0.186198 0.186849 0.187500 0.188151 0.188802 0.189453 0.190104 0.190755 0.191406 0.192057 0.192708 0.193359 0.194010 0.194661 0.195312 0.195964 0.196615 0.197266 0.197917 0.198568 0.199219 0.199870 0.200521 0.201172 0.201823 0.202474 0.203125 0.203776 0.204427 0.205078 0.205729 0.206380 0.207031 0.207682 0.208333 0.208984 0.209635 0.210286 0.210938 0.211589 0.212240 0.212891 0.213542 0.214193 0.214844 0.215495 0.216146 0.216797 0.217448 0.218099 0.218750 0.219401 0.220052 0.220703 0.221354 0.222005 0.222656 0.223307 0.223958 0.224609 0.225260 0.225911 0.226562 0.227214 0.227865 0.228516 0.229167 0.229818 0.230469 0.231120 0.231771 0.232422 0.233073 0.233724 0.234375 0.235026 0.235677
       0.34643        0.34643        0.34643        0.34643        0.34643        0.34643        0.34643        0.34643        0.34643        0.34643        0.34643        0.34643        0.34643        0.34643        0.34643        0.34643        0.34643        0.34643        0.34643        0.34643        0.34643        0.34643        0.34643        0.34643        0.34643        0.34643        0.34643        0.34643        0.34643        0.34643        0.34643        0.34643        0.34643        0.34643        0.34643        0.34643        0.34643        0.34643        0.34643        0.34643        0.34643        0.34643        0.34643        0.34643        0.34643        0.34643        0.34643        0.34643        0.34643        0.34643        0.34643        0.35103        0.49958        0.23224        0.08404        0.00124       -0.26919       -0.11179       -0.16092       -0.22192        0.00980       -0.14373       -0.07626       -0.06206       -0.04667       -0.12621       -0.16029       -0.25826       -0.31536       -0.42919       -0.36319       -0.26417       -0.22976       -0.32780       -0.24534       -0.30925       -0.27737       -0.30178       -0.13785       -0.14876       -0.21049       -0.04108        0.02264       -0.02913        0.07511        0.03342        0.22891        0.24348        0.33769        0.35268        0.39061        0.42882        0.50460        0.56273        0.57611        0.51368        0.48858        0.51130        0.46377        0.52731        0.45168        0.41464        0.41564        0.35216        0.29848        0.30787        0.33567        0.22973        0.19551        0.12814        0.15263        0.16201        0.18537        0.16204        0.23034        0.28290        0.31629        0.29610        0.38448        0.46740        0.39717        0.48777        0.60160        0.55982        0.52442        0.56047        0.59721        0.41805        0.48399        0.39434        0.32394        0.30107        0.28271        0.25390        0.19102        0.18490        0.14927        0.20759        0.25972        0.28906        0.34459        0.30817        0.41122        0.43227        0.46077        0.48334        0.48562        0.51745        0.46092        0.43685        0.40951        0.34195        0.32437        0.31187        0.32006        0.25408        0.24436        0.25796        0.24499        0.27163        0.32841        0.43235        0.45642        0.42247        0.42241        0.47642        0.46518        0.46856        0.46220        0.38137        0.36789        0.40312        0.36544        0.30610        0.29854        0.32368        0.28663        0.30193        0.29984        0.31613        0.36166        0.38136        0.43506        0.44749        0.36513        0.45315        0.42291        0.35797        0.30523        0.35288        0.32895        0.30731        0.32391        0.28006        0.28004        0.32408        0.33941        0.44323        0.41258        0.37364        0.38872        0.43011        0.36371        0.35614        0.33975        0.34482        0.28537        0.28329        0.30148        0.37526        0.38289        0.34056        0.34912        0.39758        0.39418        0.45380        0.40101        0.36196        0.33378        0.33386        0.32573        0.31774        0.34324        0.38990        0.36814        0.37126        0.32934        0.44004        0.36274        0.34994        0.33472        0.38019        0.37450        0.31128        0.31600        0.28244        0.31212        0.33038        0.31498        0.33778        0.33717        0.35783        0.34593        0.33835        0.30564        0.29908        0.28710        0.33367        0.33675        0.34425        0.30358        0.34709        0.34288        0.33723        0.33790        0.30780        0.28694        0.31781        0.32645        0.32419        0.31769        0.30373        0.31947        0.33769        0.33181        0.33429        0.38229        0.34129        0.27944        0.32119        0.32590        0.32496        0.34058        0.28805        0.32727        0.28835        0.31851        0.31565        0.37129        0.32525        0.31085        0.29190        0.28728        0.37065        0.36011        0.32779        0.32779        0.30560        0.30830        0.33776        0.33362        0.28443        0.31980        0.27017        0.26536        0.28586        0.30468        0.31565        0.32639        0.23414        0.28585        0.34128        0.34360        0.34386        0.33059        0.31033        0.30900        0.32371        0.31595        0.25455        0.28346        0.28627        0.33260        0.32635        0.35177        0.35424        0.33050        0.32957        0.33620        0.32742        0.31385        0.32282        0.32451        0.26569        0.28899        0.32686        0.32797        0.24171        0.19634        0.21724        0.29814        0.31116        0.29827        0.27503        0.28102        0.28466        0.23980        0.26305        0.26897        0.24901        0.26449        0.26375        0.25146        0.20878        0.24946        0.32509        0.37885        0.27073        0.23834        0.20328        0.19629        0.29141        0.29463        0.39225        0.25477        0.23545        0.29233        0.36334        0.21978        0.03538       -0.10400       -0.52752       -0.73172
3.309193 3.272328 3.235671 3.199223 3.162983 3.126952 3.091129 3.055515 3.020110 2.984913 2.949925 2.915145 2.880573 2.846211 2.812057 2.778111 2.744374 2.710845 2.677525 2.644414 2.611511 2.578817 2.546331 2.514054 2.481985 2.450125 2.418474 2.387031 2.355796 2.324770 2.293953 2.263344 2.232944 2.202752 2.172769 2.142994 2.113428 2.084071 2.054922 2.025982 1.997250 1.968726 1.940412 1.912305 1.884408 1.856719 1.829238 1.801966 1.774903 1.748048 1.721402 1.629425 1.943289 1.677825 1.158829 1.096893 0.370521 0.895184 0.522229 0.634520 0.911416 0.666349 0.640669 0.749358 0.683285 0.631581 0.465991 0.339450 0.176442 -0.009405 -0.005716 0.096340 0.398707 -0.032066 0.158506 0.041169 0.136486 -0.060588 0.255028 0.180990 0.096191 0.293888 0.484480 0.280553 0.455925 0.369709 0.750925 0.625933 0.844094 0.848266 0.807630 1.023943 0.925304 1.218551 1.058738 1.095337 0.967829 0.987328 0.930322 0.881453 0.921908 0.751146 0.710586 0.640010 0.602896 0.455940 0.546268 0.440032 0.275564 0.194872 0.138194 0.174201 0.220477 0.157276 0.176475 0.344533 0.341686 0.357148 0.451967 0.513513 0.519731 0.404472 0.790681 0.768023 0.641376 0.638079 0.738087 0.513238 0.416460 0.478166 0.191201 0.235681 0.097117 0.161167 -0.022833 -0.034010 -0.105568 -0.102291 0.107950 0.004907 0.125492 0.183074 0.161993 0.307922 0.317832 0.337882 0.378515 0.403679 0.341207 0.264084 0.242082 0.140657 0.098942 0.055498 0.025621 0.004490 -0.067480 -0.086010 -0.083098 -0.068022 -0.056740 0.139291 0.303283 0.187795 0.203429 0.248890 0.369115 0.236323 0.337533 0.275602 0.152443 0.129725 0.276694 0.004522 0.042546 0.032664 0.061926 -0.003976 0.085632 -0.013898 0.135984 -0.009798 0.231918 0.289495 0.186655 0.241570 0.205481 0.153038 0.040423 0.077443 0.084966 0.016268 -0.000345 0.044332 -0.079074 -0.022240 0.021445 0.120552 0.282216 0.131219 0.123632 0.189849 0.142419 0.117640 0.053517 0.046634 0.055655 -0.080942 -0.014218 0.031447 0.130939 0.109958 0.029993 0.082437 0.183505 0.141039 0.279017 0.105020 0.081063 0.043248 0.016875 0.054820 0.024649 0.086771 0.158739 0.102643 0.076560 0.046357 0.294959 0.070318 0.059779 0.051808 0.125187 0.070318 -0.009793 0.010402 -0.053951 0.003560 0.045997 0.021273 0.017821 -0.009834 0.051990 0.022794 0.010723 -0.053289 -0.045172 -0.036252 -0.019695 0.050219 -0.011073 -0.004405 0.032219 0.055760 0.024596 0.051372 -0.031279 -0.025684 0.014637 0.020456 0.029903 0.022690 -0.012406 0.001455 0.066247 0.033528 0.026880 0.172582 -0.027173 -0.045872 0.035088 0.019226 0.027105 0.035334 -0.042343 0.042095 -0.068943 0.047210 0.013401 0.110529 -0.007765 -0.026513 -0.046002 -0.022750 0.092445 0.063156 -0.021779 0.029380 -0.027545 -0.021586 0.024441 0.002462 -0.063503 0.023074 -0.111674 -0.087675 -0.040412 -0.062343 0.059571 -0.069382 -0.210931 -0.015913 0.058312 -0.006170 -0.011002 0.029201 -0.049644 -0.057685 -0.021193 -0.050672 -0.132943 -0.108908 -0.132381 0.012472 -0.006580 -0.004791 0.018810 -0.005842 -0.102662 0.031837 -0.016492 -0.078291 -0.020205 -0.012815 -0.115074 -0.050582 -0.004072 -0.026153 -0.058775 -0.256560 -0.105763 0.093203 0.021125 -0.045051 0.019700 0.025915 -0.014294 -0.033705 -0.075580 0.011262 -0.041652 0.025585 -0.009083 0.025387 -0.126772 0.027919 0.233240 0.147888 0.036405 0.042258 -0.132283 -0.007024 0.077844 0.067854 0.299351 0.360124 0.396613 0.500095 0.708344 0.389846 -0.026924 -0.164900 -1.215605
0.072396 0.072907 0.074439 0.076993 0.080567 0.085161 0.090773 0.097402 0.105046 0.113701 0.123364 0.134030 0.145695 0.158351 0.171990 0.186603 0.202178 0.218701 0.236158 0.254530 0.273795 0.293931 0.314909 0.336700 0.359267 0.382574 0.406575 0.431224 0.456466 0.482244 0.508493 0.535143 0.562119 0.589337 0.616709 0.644138 0.671523 0.698752 0.725711 0.752273 0.778309 0.803681 0.828245 0.851849 0.874336 0.895543 0.915303 0.933443 0.949786 0.964154 0.976364 0.986233 0.993581 0.998225 0.999989 0.998697 0.994184 0.986290 0.974865 0.959772 0.940886 0.918101 0.891326 0.860494 0.825558 0.786497 0.743320 0.696062 0.644792 0.589614 0.530666 0.468124 0.402204 0.333162 0.261294 0.186940 0.110479 0.032334 0.047033 0.127120 0.207388 0.287262 0.366137 0.443380 0.518335 0.590326 0.658669 0.722670 0.781640 0.834899 0.881784 0.921661 0.953929 0.978037 0.993487 0.999849 0.996766 0.983969 0.961283 0.928636 0.886068 0.833738 0.771927 0.701049 0.621647 0.534398 0.440111 0.339726 0.234305 0.125030 0.013187 0.099841 0.212592 0.323541 0.431123 0.533751 0.629840 0.717835 0.796239 0.863638 0.918732 0.960361 0.987538 0.999470 0.995589 0.975570 0.939353 0.887160 0.819504 0.737196 0.641347 0.533362 0.414927 0.287995 0.154752 0.017595 0.120912 0.258082 0.391158 0.517363 0.633965 0.738333 0.828008 0.900762 0.954661 0.988127 0.999986 0.989525 0.956521 0.901277 0.824639 0.727995 0.613274 0.482914 0.339830 0.187355 0.029172 0.130765 0.288329 0.439324 0.579599 0.705161 0.812302 0.897713 0.958598 0.992779 0.998785 0.975930 0.924363 0.845100 0.740033 0.611900 0.464242 0.301316 0.127989 0.050392 0.228166 0.399524 0.558708 0.700201 0.818938 0.910487 0.971240 0.998571 0.990966 0.948124 0.871012 0.761880 0.624225 0.462702 0.283000 0.091645 0.104205 0.297039 0.479258 0.643492 0.782903 0.891484 0.964337 0.997919 0.990239 0.940999 0.851666 0.725471 0.567326 0.383672 0.182233 0.028276 0.238517 0.438944 0.620227 0.773703 0.891807 0.968468 0.999453 0.982632 0.918153 0.808509 0.658490 0.475015 0.266856 0.044237 0.181636 0.399138 0.596816 0.764008 0.891434 0.971747 0.999986 0.973929 0.894294 0.764800 0.592038 0.385192 0.155587 0.083899 0.319537 0.537531 0.724838 0.869957 0.963680 0.999713 0.975147 0.890739 0.750970 0.563873 0.340624 0.094927 0.157803 0.401383 0.619897 0.798752 0.925688 0.991654 0.991511 0.924489 0.794365 0.609326 0.381508 0.126288 0.138756 0.394988 0.624065 0.809227 0.936587 0.996210 0.982956 0.896988 0.743899 0.534435 0.283810 0.010669 0.264275 0.519783 0.735746 0.894790 0.983733 0.994738 0.926085 0.782463 0.574748 0.319265 0.036581 0.250117 0.516890 0.741061 0.903177 0.988742 0.989605 0.904815 0.740884 0.511390 0.235949 0.061400 0.354237 0.616098 0.822895 0.955165 0.999991 0.952347 0.815759 0.602165 0.330994 0.027478 0.279641 0.560794 0.788456 0.939877 0.999438 0.960363 0.825592 0.607716 0.327906 0.013964 0.302375 0.588620 0.814894 0.957083 0.999513 0.936783 0.774567 0.529248 0.226392 0.101816 0.419943 0.693111 0.890860 0.990616 0.980386 0.860321 0.642966 0.352093 0.020220 0.314936 0.614713 0.843989 0.975362 0.992534 0.892473 0.686046 0.397015 0.059423 0.286305 0.598175 0.837721 0.974839 0.991674 0.885104 0.667424 0.365105 0.015721 0.336620 0.646813 0.874544 0.989624 0.976123 0.834744 0.583044 0.253457 0.110761 0.461122 0.750325 0.938710
1.000000 1.000000 1.000000 1.000000 1.000000 1.000000 1.000000 1.000000 1.000000 1.000000 1.000000 1.000000 1.000000 1.000000 1.000000 1.000000 1.000000 1.000000 1.000000 1.000000 1.000000 1.000000 1.000000 1.000000 1.000000 1.000000 1.000000 1.000000 1.000000 1.000000 1.000000 1.000000 1.000000 1.000000 1.000000 1.000000 1.000000 1.000000 1.000000 1.000000 1.000000 1.000000 1.000000 1.000000 1.000000 1.000000 1.000000 1.000000 1.000000 1.000000 1.000000 1.000000 0.838840 0.838840 0.838840 0.821177 0.821177 0.821177 0.821177 0.821177 0.821177 0.821177 0.821177 0.821177 0.821177 0.821177 0.821177 0.821177 0.821177 0.821177 0.821177 0.821177 0.821177 0.821177 0.821177 0.821177 0.821177 0.821177 0.821177 0.821177 0.821177 0.821177 0.821177 0.821177 0.821177 0.821177 0.821177 0.821177 0.821177 0.821177 0.821177 0.821177 0.821177 0.821177 0.821177 0.821177 0.861040 0.867364 0.872229 0.874872 0.875653 0.873533 0.872160 0.871892 0.871687 0.871854 0.877799 0.902659 0.919643 0.922619 0.934038 0.937472 0.942884 0.946155 0.962613 0.964684 0.966612 0.965966 0.966840 0.968477 0.972420 0.972470 0.973410 0.973659 0.974796 0.974768 0.974211 0.973415 0.972622 0.970077 0.969909 0.969734 0.969889 0.970552 0.965335 0.965430 0.965522 0.963870 0.962195 0.951915 0.947128 0.945732 0.945783 0.927801 0.924095 0.915410 0.898930 0.922981 0.917227 0.896463 0.895769 0.884225 0.886676 0.886341 0.876936 0.875515 0.872503 0.868634 0.859750 0.860726 0.860063 0.863864 0.868120 0.870166 0.854998 0.834325 0.806333 0.791453 0.791521 0.792987 0.790802 0.794202 0.796482 0.795797 0.794024 0.790542 0.777763 0.786282 0.785330 0.781387 0.774207 0.773199 0.758917 0.754680 0.747302 0.724985 0.707527 0.685901 0.690063 0.678095 0.671907 0.673595 0.681528 0.686860 0.691380 0.684876 0.682009 0.666134 0.638157 0.596423 0.610033 0.616366 0.592819 0.583888 0.569984 0.605272 0.617906 0.641281 0.658020 0.657776 0.652594 0.626091 0.589280 0.572325 0.574637 0.575183 0.574925 0.570108 0.579268 0.593467 0.588861 0.536305 0.536736 0.534279 0.547354 0.566603 0.567028 0.564284 0.530495 0.515941 0.497183 0.466057 0.432786 0.425421 0.427593 0.440281 0.429749 0.414611 0.406298 0.426255 0.414248 0.418116 0.401459 0.397816 0.376158 0.378021 0.380127 0.361669 0.343232 0.289837 0.277744 0.274242 0.280657 0.283298 0.308830 0.323516 0.327664 0.304175 0.303521 0.337181 0.348247 0.356137 0.354875 0.322829 0.309070 0.216972 0.216631 0.248396 0.267384 0.277965 0.252028 0.269462 0.267201 0.244688 0.225437 0.164615 0.117493 0.094676 0.119549 0.121021 0.135749 0.124158 0.083480 0.080509 0.087388 0.047637 0.029119 0.025801 0.037060 0.052707 0.061869 0.047906 0.047922 0.062611 0.080341 0.052870 0.053410 0.064159 0.073322 0.055104 0.041692 0.011658 0.001716 -0.023131 -0.030034 -0.012280 0.006732 0.010215 0.045873 0.010490 -0.028991 -0.060123 -0.049498 -0.053175 -0.078316 -0.114002 -0.114259 -0.137270 -0.105871 -0.097876 -0.033620 -0.028219 -0.024676 -0.045524 -0.018110 -0.068508 -0.081956 -0.077014 -0.102069 -0.088713 -0.038134 -0.021120 -0.013977 -0.052128 -0.070956 -0.070956 -0.070956 -0.089910 -0.089910 -0.089910 -0.089910 -0.089910 -0.089910 -0.089910 -0.089910 -0.089910 -0.101991 -0.101991 -0.101991 -0.101991 -0.101991 -0.101991 -0.101991 -0.101991 -0.101991 -0.101991 -0.101991 -0.101991 -0.101991 -0.101991 -0.101991 -0.101991 -0.101991
0.000000 0.000000 0.000000 0.000000 0.000000 0.000000 0.000000 0.000000 0.000000 0.000000 0.000000 0.000000 0.000000 0.000000 0.000000 0.000000 0.000000 0.000000 2.000000 0.000000 0.000000 0.000000 0.000000 0.000000 0.000000 0.000000 0.000000 0.000000 0.000000 0.000000 0.000000 0.000000 0.000000 0.000000 0.000000 0.000000 0.000000 0.000000 0.000000 0.000000 0.000000 0.000000 0.000000 0.000000 0.000000 0.000000 0.000000 0.000000 0.000000 0.000000 0.000000 0.000000 0.180334 0.180334 0.180334 0.199007 0.199007 0.199007 0.199007 0.199007 0.199007 0.199007 0.199007 0.199007 0.199007 0.199007 0.199007 0.199007 0.199007 0.199007 0.199007 0.199007 0.199007 0.199007 0.199007 0.199007 0.199007 0.199007 0.199007 0.199007 0.199007 0.199007 0.199007 0.199007 0.199007 0.199007 0.199007 0.199007 0.199007 0.199007 0.199007 0.199007 0.199007 0.199007 0.199007 0.199007 0.230940 0.230940 0.230940 0.230940 0.230940 0.230940 0.230940 0.230940 0.230940 0.230940 0.230940 0.230940 0.230940 0.230940 0.230940 0.230940 0.230940 0.230940 0.230940 0.230940 0.230940 0.230940 0.230940 0.230940 0.230940 0.230940 0.230940 0.230940 0.244339 0.244339 0.244339 0.244339 0.244339 0.244339 0.244339 0.244339 0.244339 0.244339 0.244339 0.244339 0.244339 0.244339 0.244339 0.244339 0.244339 0.244339 0.244339 0.244339 0.244339 0.244339 0.244339 0.256074 0.256074 0.256074 0.256074 0.256074 0.256074 0.256074 0.256074 0.256074 0.256074 0.256074 0.256074 0.256074 0.256074 0.256074 0.256074 0.256074 0.256074 0.256074 0.256074 0.256074 0.256074 0.256074 0.256074 0.256074 0.256074 0.256074 0.256074 0.256074 0.256074 0.256074 0.256074 0.256074 0.256074 0.256074 0.256074 0.256074 0.264906 0.264906 0.264906 0.264906 0.264906 0.264906 0.264906 0.264906 0.264906 0.264906 0.264906 0.264906 0.264906 0.264906 0.264906 0.264906 0.264906 0.264906 0.264906 0.264906 0.264906 0.264906 0.264906 0.264906 0.264906 0.264906 0.264906 0.264906 0.264906 0.264906 0.264906 0.264906 0.264906 0.264906 0.264906 0.264906 0.264906 0.264906 0.264906 0.264906 0.264906 0.264906 0.264906 0.264906 0.264906 0.264906 0.264906 0.264906 0.264906 0.264906 0.264906 0.264906 0.264906 0.264906 0.264906 0.264906 0.264906 0.264906 0.269680 0.269680 0.269680 0.269680 0.269680 0.269680 0.269680 0.269680 0.269680 0.269680 0.269680 0.269680 0.264906 0.264906 0.264906 0.264906 0.264906 0.264906 0.264906 0.264906 0.264906 0.264906 0.264906 0.264906 0.269680 0.269680 0.269680 0.269680 0.269680 0.269680 0.269680 0.269680 0.269680 0.269680 0.269680 0.264906 0.264906 0.264906 0.264906 0.264906 0.264906 0.264906 0.264906 0.264906 0.264906 0.264906 0.269680 0.269680 0.269680 0.269680 0.269680 0.269680 0.269680 0.269680 0.269680 0.269680 0.251976 0.251976 0.251976 0.251976 0.251976 0.251976 0.251976 0.251976 0.251976 0.251976 0.251976 0.269680 0.269680 0.269680 0.269680 0.269680 0.269680 0.269680 0.269680 0.269680 0.256074 0.256074 0.256074 0.256074 0.256074 0.256074 0.256074 0.256074 0.256074 0.256074 0.260378 0.260378 0.260378 0.260378 0.260378 0.260378 0.260378 0.260378 0.260378 0.256074 0.256074 0.256074 0.256074 0.256074 0.256074 0.256074 0.256074 0.256074 0.251976 0.251976 0.251976 0.251976 0.251976 0.251976 0.251976 0.251976 0.251976 0.251976 0.251976 0.251976 0.251976 0.251976 0.251976 0.251976 0.251976
