# Output from CTFFind version 4.1.9, run on 2019-11-03 19:02:23
# Input file: stack16_bm3d_averaged_1_2.75_0_750_half.mrc ; Number of micrographs: 1
# Pixel size: 3.000 Angstroms ; acceleration voltage: 300.0 keV ; spherical aberration: 0.00 mm ; amplitude contrast: 0.07
# Box size: 512 pixels ; min. res.: 30.0 Angstroms ; max. res.: 5.0 Angstroms ; min. def.: 5000.0 um; max. def. 50000.0 um; num. frames averaged: 1
# 6 lines per micrograph: #1 - spatial frequency (1/Angstroms); #2 - 1D rotational average of spectrum (assuming no astigmatism); #3 - 1D rotational average of spectrum; #4 - CTF fit; #5 - cross-correlation between spectrum and CTF fit; #6 - 2sigma of expected cross correlation of noise
0.000000 0.000651 0.001302 0.001953 0.002604 0.003255 0.003906 0.004557 0.005208 0.005859 0.006510 0.007161 0.007812 0.008464 0.009115 0.009766 0.010417 0.011068 0.011719 0.012370 0.013021 0.013672 0.014323 0.014974 0.015625 0.016276 0.016927 0.017578 0.018229 0.018880 0.019531 0.020182 0.020833 0.021484 0.022135 0.022786 0.023438 0.024089 0.024740 0.025391 0.026042 0.026693 0.027344 0.027995 0.028646 0.029297 0.029948 0.030599 0.031250 0.031901 0.032552 0.033203 0.033854 0.034505 0.035156 0.035807 0.036458 0.037109 0.037760 0.038411 0.039062 0.039714 0.040365 0.041016 0.041667 0.042318 0.042969 0.043620 0.044271 0.044922 0.045573 0.046224 0.046875 0.047526 0.048177 0.048828 0.049479 0.050130 0.050781 0.051432 0.052083 0.052734 0.053385 0.054036 0.054688 0.055339 0.055990 0.056641 0.057292 0.057943 0.058594 0.059245 0.059896 0.060547 0.061198 0.061849 0.062500 0.063151 0.063802 0.064453 0.065104 0.065755 0.066406 0.067057 0.067708 0.068359 0.069010 0.069661 0.070312 0.070964 0.071615 0.072266 0.072917 0.073568 0.074219 0.074870 0.075521 0.076172 0.076823 0.077474 0.078125 0.078776 0.079427 0.080078 0.080729 0.081380 0.082031 0.082682 0.083333 0.083984 0.084635 0.085286 0.085938 0.086589 0.087240 0.087891 0.088542 0.089193 0.089844 0.090495 0.091146 0.091797 0.092448 0.093099 0.093750 0.094401 0.095052 0.095703 0.096354 0.097005 0.097656 0.098307 0.098958 0.099609 0.100260 0.100911 0.101562 0.102214 0.102865 0.103516 0.104167 0.104818 0.105469 0.106120 0.106771 0.107422 0.108073 0.108724 0.109375 0.110026 0.110677 0.111328 0.111979 0.112630 0.113281 0.113932 0.114583 0.115234 0.115885 0.116536 0.117188 0.117839 0.118490 0.119141 0.119792 0.120443 0.121094 0.121745 0.122396 0.123047 0.123698 0.124349 0.125000 0.125651 0.126302 0.126953 0.127604 0.128255 0.128906 0.129557 0.130208 0.130859 0.131510 0.132161 0.132812 0.133464 0.134115 0.134766 0.135417 0.136068 0.136719 0.137370 0.138021 0.138672 0.139323 0.139974 0.140625 0.141276 0.141927 0.142578 0.143229 0.143880 0.144531 0.145182 0.145833 0.146484 0.147135 0.147786 0.148438 0.149089 0.149740 0.150391 0.151042 0.151693 0.152344 0.152995 0.153646 0.154297 0.154948 0.155599 0.156250 0.156901 0.157552 0.158203 0.158854 0.159505 0.160156 0.160807 0.161458 0.162109 0.162760 0.163411 0.164062 0.164714 0.165365 0.166016 0.166667 0.167318 0.167969 0.168620 0.169271 0.169922 0.170573 0.171224 0.171875 0.172526 0.173177 0.173828 0.174479 0.175130 0.175781 0.176432 0.177083 0.177734 0.178385 0.179036 0.179688 0.180339 0.180990 0.181641 0.182292 0.182943 0.183594 0.184245 0.184896 0.185547 0.186198 0.186849 0.187500 0.188151 0.188802 0.189453 0.190104 0.190755 0.191406 0.192057 0.192708 0.193359 0.194010 0.194661 0.195312 0.195964 0.196615 0.197266 0.197917 0.198568 0.199219 0.199870 0.200521 0.201172 0.201823 0.202474 0.203125 0.203776 0.204427 0.205078 0.205729 0.206380 0.207031 0.207682 0.208333 0.208984 0.209635 0.210286 0.210938 0.211589 0.212240 0.212891 0.213542 0.214193 0.214844 0.215495 0.216146 0.216797 0.217448 0.218099 0.218750 0.219401 0.220052 0.220703 0.221354 0.222005 0.222656 0.223307 0.223958 0.224609 0.225260 0.225911 0.226562 0.227214 0.227865 0.228516 0.229167 0.229818 0.230469 0.231120 0.231771 0.232422 0.233073 0.233724 0.234375 0.235026 0.235677
       0.33670        0.33670        0.33670        0.33670        0.33670        0.33670        0.33670        0.33670        0.33670        0.33670        0.33670        0.33670        0.33670        0.33670        0.33670        0.33670        0.33670        0.33670        0.33670        0.33670        0.33670        0.33670        0.33670        0.33670        0.33670        0.33670        0.33670        0.33670        0.33670        0.33670        0.33670        0.33670        0.33670        0.33670        0.33670        0.33670        0.33670        0.33670        0.33670        0.33670        0.33670        0.33670        0.33670        0.33670        0.33670        0.33670        0.33670        0.33670        0.33670        0.33670        0.33670        0.45611        0.63472        0.42118       -0.13444       -0.43013       -0.57323       -0.66392       -0.73469       -0.75591       -0.89011       -0.92762       -0.74681       -0.93025       -0.87779       -1.02143       -1.08552       -0.97079       -0.93485       -0.85604       -0.80125       -0.71016       -0.61787       -0.50279       -0.42723       -0.23128       -0.10713       -0.02094        0.18881        0.22118        0.30000        0.36752        0.40265        0.48673        0.56414        0.59074        0.56609        0.49333        0.54556        0.49099        0.40972        0.32738        0.18800        0.17327        0.10224       -0.04622       -0.09894       -0.07133        0.02924       -0.01137        0.02433        0.02479        0.17140        0.20073        0.38789        0.45944        0.56569        0.69234        0.76845        0.72544        0.67413        0.63883        0.56640        0.47919        0.36788        0.28165        0.18937        0.18187        0.08815        0.02596        0.00348        0.02871        0.07894        0.27035        0.38445        0.49244        0.55079        0.59880        0.68351        0.64377        0.64651        0.63784        0.58486        0.48310        0.28432        0.25443        0.21216        0.11504        0.05383        0.10391        0.13089        0.26077        0.33482        0.41318        0.47828        0.55001        0.64804        0.58787        0.52441        0.50361        0.38124        0.21523        0.23250        0.16727        0.13721        0.15535        0.23365        0.25316        0.34512        0.42979        0.43176        0.51989        0.49342        0.45562        0.44913        0.35991        0.31322        0.25833        0.21955        0.21594        0.20183        0.21477        0.30447        0.41079        0.44834        0.47828        0.54640        0.47193        0.43581        0.38103        0.31596        0.22963        0.23849        0.24313        0.26499        0.29378        0.32282        0.42578        0.50460        0.48012        0.45281        0.37411        0.37099        0.36151        0.21836        0.23305        0.25548        0.28575        0.34492        0.35796        0.40322        0.43762        0.43609        0.38171        0.34877        0.31586        0.32335        0.27417        0.24730        0.26835        0.32392        0.39925        0.40819        0.39703        0.38918        0.40542        0.35316        0.27997        0.27909        0.29053        0.31962        0.37171        0.36372        0.40655        0.34436        0.37421        0.37880        0.34417        0.31075        0.26878        0.28050        0.32672        0.32339        0.32842        0.33845        0.37148        0.32793        0.35006        0.28824        0.30407        0.25888        0.27979        0.30038        0.33029        0.38541        0.36285        0.34566        0.30784        0.26988        0.26235        0.29892        0.28755        0.32202        0.35316        0.37592        0.33784        0.31437        0.29987        0.29461        0.29459        0.28980        0.30780        0.33561        0.33722        0.32060        0.28636        0.33488        0.31831        0.28870        0.31381        0.32689        0.33551        0.34895        0.30447        0.31496        0.28070        0.28528        0.29573        0.31672        0.39263        0.32201        0.36618        0.29940        0.30646        0.30686        0.30821        0.30539        0.29548        0.29876        0.33090        0.33786        0.29303        0.30611        0.29222        0.28512        0.30346        0.31651        0.32327        0.35402        0.35796        0.30449        0.29856        0.28944        0.24043        0.31746        0.33902        0.29577        0.29100        0.26700        0.29362        0.31782        0.32267        0.29073        0.30302        0.32380        0.31403        0.23526        0.29361        0.29750        0.27963        0.32555        0.28244        0.35242        0.38450        0.27531        0.27770        0.25929        0.26720        0.29132        0.27721        0.26458        0.24329        0.25358        0.30722        0.29143        0.27087        0.25439        0.35013        0.30476        0.26841        0.22751        0.20931        0.27235        0.22879        0.21865        0.29252        0.36088        0.24391        0.24568        0.26367        0.22617        0.22571        0.30031        0.27933        0.23503        0.18168        0.27287        0.32133        0.24338        0.08180        0.09047       -0.41603       -0.66461
2.977874 2.940795 2.903954 2.867352 2.830989 2.794864 2.758978 2.723331 2.687922 2.652752 2.617821 2.583128 2.548674 2.514459 2.480483 2.446745 2.413245 2.379985 2.346963 2.314180 2.281635 2.249330 2.217263 2.185434 2.153844 2.122493 2.091381 2.060507 2.029872 1.999476 1.969318 1.939399 1.909719 1.880277 1.851074 1.822110 1.793385 1.764898 1.736649 1.708640 1.680869 1.653337 1.626043 1.598989 1.572172 1.545595 1.519256 1.493156 1.467295 1.441672 1.416288 1.468305 1.600604 1.550678 0.911766 0.625278 0.439845 0.381719 0.299646 0.227327 0.151850 -0.035747 0.179762 0.039990 -0.056812 -0.091672 -0.235770 -0.171147 -0.096731 -0.095999 -0.088072 0.012405 0.029736 0.202141 0.123925 0.329176 0.431726 0.458705 0.676699 0.672829 0.673177 0.811214 0.781835 0.799852 0.920561 0.859672 0.905593 0.727147 0.824800 0.828952 0.635050 0.586008 0.447768 0.416043 0.362970 0.198280 0.129861 0.098986 0.219169 0.134680 0.202280 0.094645 0.276226 0.262737 0.438040 0.406229 0.596475 0.625080 0.747350 0.736428 0.631924 0.616378 0.497254 0.465770 0.304992 0.298831 0.121412 0.167426 0.020064 -0.013735 -0.045741 -0.070790 -0.023946 0.041274 0.252475 0.311795 0.379920 0.340185 0.469220 0.483603 0.482420 0.475926 0.373620 0.392143 0.144308 0.099565 0.076901 -0.012081 -0.130120 -0.031913 -0.091770 0.023493 0.123027 0.161816 0.252266 0.250346 0.371157 0.463633 0.355547 0.381711 0.302652 0.140237 0.069547 0.070567 0.034347 0.025639 0.056765 0.115870 0.124535 0.255727 0.246746 0.283841 0.347308 0.249288 0.251834 0.210887 0.116164 0.073264 0.036630 0.030387 0.015904 -0.004228 0.031883 0.161662 0.188677 0.217629 0.297774 0.217968 0.227899 0.127564 0.115820 0.002754 -0.017602 0.000478 0.001232 0.039457 0.023493 0.096720 0.197134 0.199872 0.205382 0.131655 0.102494 0.096915 0.043758 -0.073190 -0.005737 0.013751 0.040560 0.052006 0.097144 0.158677 0.144395 0.155921 0.070307 0.065669 0.048385 0.053943 -0.002018 -0.008838 0.014084 0.078163 0.120701 0.142779 0.081215 0.139848 0.117329 0.027929 0.009170 0.011461 0.021286 0.072982 0.088793 0.102519 0.106165 0.073704 0.106075 0.084563 0.060257 0.033399 -0.022392 0.028447 0.069333 0.039653 0.055586 0.047226 0.074026 0.082054 0.033538 0.016833 0.018274 -0.036343 0.010751 0.020397 0.045733 0.107444 0.071423 0.048056 0.007721 -0.029747 -0.015379 0.018610 0.008798 0.034151 0.066503 0.071011 0.005576 0.037895 -0.024562 0.015828 -0.011833 -0.019468 0.023210 0.053944 0.014987 0.011538 -0.010681 0.034926 -0.002719 -0.007358 0.016466 0.029187 0.047282 -0.021981 0.022460 -0.004926 -0.040653 -0.005153 -0.001664 0.026136 0.088625 0.013129 0.049640 -0.011336 0.028459 -0.013317 0.021759 0.011744 0.003625 -0.016709 0.050956 0.023988 0.013009 0.020466 -0.026019 -0.006475 -0.000021 0.009004 0.036545 0.055125 0.039409 0.015742 0.012199 -0.020905 -0.034141 0.002430 0.029800 0.006131 0.011711 -0.033095 -0.006806 0.017824 0.031483 0.000856 0.036223 0.017942 0.021371 -0.067499 0.009014 0.026210 -0.015258 0.025590 0.029070 0.086059 0.102909 0.016816 0.022164 -0.023584 -0.003446 0.098284 -0.038131 0.014496 -0.023247 -0.031057 0.062808 0.019378 0.004642 -0.061221 0.062170 0.003472 -0.047142 -0.079235 -0.073570 -0.010472 -0.059828 -0.080659 0.025649 0.074342 -0.080960 -0.008822 0.015843 0.019212 -0.067875 0.072359 0.082544 0.102676 -0.019433 0.219324 0.269727 0.183920 -0.003985 0.085224 -0.589708
0.072396 0.073047 0.074999 0.078252 0.082805 0.088655 0.095802 0.104242 0.113971 0.124984 0.137274 0.150834 0.165652 0.181716 0.199011 0.217519 0.237216 0.258077 0.280072 0.303164 0.327313 0.352472 0.378586 0.405596 0.433432 0.462019 0.491270 0.521092 0.551380 0.582019 0.612886 0.643843 0.674743 0.705430 0.735732 0.765468 0.794447 0.822464 0.849304 0.874744 0.898551 0.920480 0.940284 0.957708 0.972491 0.984371 0.993087 0.998378 0.999987 0.997668 0.991181 0.980303 0.964826 0.944565 0.919360 0.889079 0.853623 0.812932 0.766987 0.715814 0.659492 0.598150 0.531976 0.461221 0.386196 0.307278 0.224913 0.139615 0.051962 0.037399 0.127754 0.218334 0.308308 0.396798 0.482882 0.565604 0.643982 0.717025 0.783738 0.843144 0.894294 0.936286 0.968282 0.989524 0.999355 0.997236 0.982763 0.955683 0.915917 0.863563 0.798919 0.722488 0.634984 0.537336 0.430691 0.316404 0.196032 0.071317 0.055831 0.183358 0.309102 0.430819 0.546231 0.653061 0.749089 0.832197 0.900421 0.952004 0.985450 0.999574 0.993543 0.966928 0.919729 0.852411 0.765914 0.661667 0.541578 0.408017 0.263785 0.112067 0.043631 0.199548 0.351762 0.496285 0.629168 0.746611 0.845089 0.921456 0.973071 0.997894 0.994587 0.962590 0.902179 0.814510 0.701619 0.566412 0.412611 0.244678 0.067698 0.112751 0.290777 0.460351 0.615521 0.750626 0.860513 0.940754 0.987845 0.999384 0.974212 0.912522 0.815916 0.687405 0.531358 0.353389 0.160182 0.040736 0.241270 0.433078 0.607924 0.758028 0.876446 0.957407 0.996627 0.991574 0.941659 0.848346 0.715177 0.547686 0.353219 0.140649 0.079995 0.297986 0.502414 0.682735 0.829335 0.934067 0.990748 0.995567 0.947384 0.847904 0.701693 0.516040 0.300640 0.067152 0.171413 0.401392 0.609249 0.782390 0.909957 0.983551 0.997844 0.951021 0.845027 0.685583 0.481959 0.246499 0.006060 0.259488 0.497078 0.702760 0.862210 0.963896 0.999978 0.966982 0.866197 0.703756 0.490352 0.240627 0.027771 0.295392 0.542377 0.749935 0.901823 0.985667 0.994054 0.925280 0.783667 0.579419 0.327994 0.049019 0.235185 0.501351 0.727189 0.893274 0.984805 0.992997 0.916043 0.759484 0.535950 0.264265 0.032048 0.326742 0.593148 0.806597 0.946783 0.999765 0.959481 0.828556 0.618308 0.347915 0.042788 0.267743 0.553206 0.784983 0.939249 0.999510 0.958505 0.819208 0.594820 0.307677 0.012845 0.333248 0.619379 0.840098 0.970737 0.995988 0.911850 0.726377 0.459115 0.139204 0.197678 0.513226 0.770863 0.940044 0.999991 0.942421 0.772852 0.510307 0.185376 0.163203 0.493085 0.763447 0.940105 0.999970 0.934241 0.749897 0.469195 0.127201 0.232444 0.563017 0.820779 0.970868 0.992149 0.880421 0.649392 0.329252 0.037054 0.399476 0.707625 0.917848 0.999539 0.939810 0.745755 0.443910 0.076863 0.302563 0.638855 0.881928 0.994739 0.959120 0.778976 0.480197 0.107218 0.283398 0.631434 0.882322 0.995831 0.952749 0.758416 0.442413 0.054364 0.343658 0.686973 0.918838 0.999994 0.915571 0.678122 0.326097 0.082073 0.477500 0.792412 0.971860 0.983526 0.823851 0.519279 0.122232 0.297656 0.665619 0.915080 0.999908 0.903213 0.641077 0.260260 0.169789 0.569448 0.863591 0.995897 0.939881 0.704590 0.333591 0.102754 0.520373 0.837637 0.991446 0.950059 0.720031 0.345689 0.099044 0.524979 0.845492 0.994258 0.939311 0.690302 0.297335 0.158745 0.582696 0.884753 0.999808 0.901775 0.609966 0.185792 0.279788 0.685528
1.000000 1.000000 1.000000 1.000000 1.000000 1.000000 1.000000 1.000000 1.000000 1.000000 1.000000 1.000000 1.000000 1.000000 1.000000 1.000000 1.000000 1.000000 1.000000 1.000000 1.000000 1.000000 1.000000 1.000000 1.000000 1.000000 1.000000 1.000000 1.000000 1.000000 1.000000 1.000000 1.000000 1.000000 1.000000 1.000000 1.000000 1.000000 1.000000 1.000000 1.000000 1.000000 1.000000 1.000000 1.000000 1.000000 1.000000 1.000000 1.000000 1.000000 1.000000 1.000000 0.936587 0.936587 0.936587 0.936587 0.936587 0.936587 0.936587 0.936587 0.936587 0.936587 0.936587 0.936587 0.936587 0.936587 0.936587 0.936587 0.936587 0.936587 0.936587 0.936587 0.936587 0.936587 0.936587 0.936587 0.936587 0.936587 0.936587 0.936587 0.936587 0.936587 0.936587 0.936587 0.936587 0.923200 0.924681 0.927458 0.928434 0.928371 0.927940 0.927677 0.927949 0.929302 0.931097 0.947455 0.949266 0.950289 0.951467 0.950201 0.952640 0.950818 0.955156 0.965750 0.964916 0.965819 0.959796 0.960900 0.960366 0.959696 0.960006 0.959945 0.958458 0.956706 0.955245 0.955521 0.955256 0.956883 0.957272 0.957134 0.957593 0.957538 0.957395 0.954722 0.952762 0.954078 0.955607 0.954551 0.960085 0.959998 0.968178 0.969250 0.968212 0.967979 0.968178 0.968347 0.963007 0.960109 0.955952 0.943233 0.933950 0.931005 0.934593 0.938854 0.936123 0.930586 0.929422 0.926364 0.920826 0.920299 0.917302 0.917642 0.909520 0.906889 0.898586 0.898544 0.900161 0.901408 0.899408 0.888050 0.881238 0.882653 0.885746 0.879619 0.876793 0.892742 0.889792 0.893209 0.896883 0.899190 0.903760 0.891643 0.886802 0.883442 0.879164 0.877670 0.880060 0.884225 0.886079 0.886977 0.884895 0.879851 0.871642 0.877825 0.882808 0.884891 0.883538 0.883895 0.883453 0.873890 0.872550 0.864882 0.866084 0.873108 0.877581 0.874340 0.872054 0.870236 0.869800 0.872090 0.872171 0.869711 0.863567 0.860832 0.860702 0.854657 0.868547 0.864792 0.854518 0.844508 0.839246 0.846323 0.855033 0.849022 0.846102 0.821371 0.819900 0.818468 0.815450 0.816697 0.821989 0.817906 0.818414 0.814254 0.818207 0.823932 0.821883 0.817295 0.817700 0.817728 0.792563 0.799165 0.795692 0.782559 0.791007 0.776388 0.774742 0.774463 0.775717 0.761849 0.761528 0.722072 0.689606 0.703067 0.709029 0.688498 0.677730 0.676739 0.674939 0.615489 0.603291 0.584557 0.583997 0.592300 0.599643 0.602126 0.577158 0.579246 0.566133 0.535691 0.540434 0.537072 0.493927 0.504409 0.495662 0.516740 0.472381 0.492082 0.489157 0.469443 0.448097 0.473583 0.479663 0.519064 0.506113 0.485242 0.495724 0.472706 0.448324 0.465639 0.469340 0.472240 0.472319 0.437384 0.414476 0.431939 0.449239 0.453781 0.457308 0.457716 0.418912 0.444899 0.412910 0.423013 0.439963 0.423177 0.386142 0.395452 0.371345 0.386242 0.369410 0.382407 0.407361 0.378145 0.371514 0.377577 0.393314 0.322346 0.370703 0.395854 0.376215 0.392594 0.377400 0.356993 0.314867 0.332486 0.319255 0.315174 0.328489 0.245212 0.242921 0.237353 0.198940 0.193676 0.213585 0.210079 0.179247 0.137111 0.096211 0.071733 0.080625 0.092083 0.077310 0.075582 0.075582 0.075582 0.075582 0.070608 0.070608 0.070608 0.070608 0.070608 0.070608 0.070608 0.070608 0.070608 0.070608 0.070608 0.070608 0.070608 0.070608 0.084782 0.084782 0.084782 0.084782 0.084782 0.084782 0.084782 0.084782 0.084782 0.084782 0.084782 0.084782
0.000000 0.000000 0.000000 0.000000 0.000000 0.000000 0.000000 0.000000 0.000000 0.000000 0.000000 0.000000 0.000000 0.000000 0.000000 0.000000 0.000000 0.000000 0.000000 0.000000 0.000000 0.000000 0.000000 0.000000 0.000000 0.000000 0.000000 0.000000 0.000000 0.000000 0.000000 0.000000 0.000000 0.000000 0.000000 0.000000 0.000000 0.000000 0.000000 0.000000 0.000000 0.000000 0.000000 0.000000 0.000000 0.000000 0.000000 0.000000 0.000000 0.000000 0.000000 0.000000 0.209657 0.209657 0.209657 0.209657 0.209657 0.209657 0.209657 0.209657 0.209657 0.209657 0.209657 0.209657 0.209657 0.209657 0.209657 0.209657 0.209657 0.209657 0.209657 0.209657 0.209657 0.209657 0.209657 0.209657 0.209657 0.209657 0.209657 0.209657 0.209657 0.209657 0.209657 0.209657 0.209657 0.244339 0.244339 0.244339 0.244339 0.244339 0.244339 0.244339 0.244339 0.244339 0.244339 0.244339 0.244339 0.244339 0.244339 0.244339 0.244339 0.244339 0.244339 0.244339 0.244339 0.244339 0.244339 0.244339 0.244339 0.244339 0.260378 0.260378 0.260378 0.260378 0.260378 0.260378 0.260378 0.260378 0.260378 0.260378 0.260378 0.260378 0.260378 0.260378 0.260378 0.260378 0.260378 0.260378 0.260378 0.260378 0.269680 0.269680 0.269680 0.269680 0.269680 0.269680 0.269680 0.269680 0.269680 0.269680 0.269680 0.269680 0.269680 0.269680 0.269680 0.269680 0.269680 0.269680 0.269680 0.269680 0.269680 0.269680 0.269680 0.269680 0.269680 0.269680 0.269680 0.269680 0.269680 0.269680 0.269680 0.269680 0.269680 0.280056 0.280056 0.280056 0.280056 0.280056 0.280056 0.280056 0.280056 0.280056 0.280056 0.280056 0.280056 0.280056 0.280056 0.280056 0.280056 0.280056 0.280056 0.280056 0.280056 0.280056 0.280056 0.280056 0.280056 0.280056 0.280056 0.280056 0.274721 0.274721 0.274721 0.274721 0.274721 0.274721 0.274721 0.274721 0.274721 0.274721 0.274721 0.274721 0.274721 0.285714 0.285714 0.285714 0.285714 0.285714 0.285714 0.285714 0.285714 0.285714 0.285714 0.285714 0.280056 0.280056 0.280056 0.280056 0.280056 0.280056 0.280056 0.280056 0.280056 0.280056 0.280056 0.274721 0.274721 0.274721 0.274721 0.274721 0.274721 0.274721 0.274721 0.274721 0.274721 0.274721 0.280056 0.280056 0.280056 0.280056 0.280056 0.280056 0.280056 0.280056 0.280056 0.280056 0.285714 0.285714 0.285714 0.285714 0.285714 0.285714 0.285714 0.285714 0.285714 0.269680 0.269680 0.269680 0.269680 0.269680 0.269680 0.269680 0.269680 0.269680 0.269680 0.291730 0.291730 0.291730 0.291730 0.291730 0.291730 0.291730 0.291730 0.269680 0.269680 0.269680 0.269680 0.269680 0.269680 0.269680 0.269680 0.269680 0.264906 0.264906 0.264906 0.264906 0.264906 0.264906 0.264906 0.264906 0.264906 0.274721 0.274721 0.274721 0.274721 0.274721 0.274721 0.274721 0.274721 0.269680 0.269680 0.269680 0.269680 0.269680 0.269680 0.269680 0.269680 0.285714 0.285714 0.285714 0.285714 0.285714 0.285714 0.285714 0.264906 0.264906 0.264906 0.264906 0.264906 0.264906 0.264906 0.264906 0.274721 0.274721 0.274721 0.274721 0.274721 0.274721 0.274721 0.256074 0.256074 0.256074 0.256074 0.256074 0.256074 0.256074 0.256074 0.264906 0.264906 0.264906 0.264906 0.264906 0.264906 0.264906 0.264906 0.264906 0.264906 0.264906 0.264906 0.264906 0.264906 0.260378 0.260378 0.260378 0.260378 0.260378 0.260378 0.260378 0.260378 0.260378 0.260378 0.260378 0.260378
