# Output from CTFFind version 4.1.9, run on 2019-11-03 19:02:24
# Input file: stack16_bm3d_averaged_1_2.75_0_1500_half.mrc ; Number of micrographs: 1
# Pixel size: 3.000 Angstroms ; acceleration voltage: 300.0 keV ; spherical aberration: 0.00 mm ; amplitude contrast: 0.07
# Box size: 512 pixels ; min. res.: 30.0 Angstroms ; max. res.: 5.0 Angstroms ; min. def.: 5000.0 um; max. def. 50000.0 um; num. frames averaged: 1
# 6 lines per micrograph: #1 - spatial frequency (1/Angstroms); #2 - 1D rotational average of spectrum (assuming no astigmatism); #3 - 1D rotational average of spectrum; #4 - CTF fit; #5 - cross-correlation between spectrum and CTF fit; #6 - 2sigma of expected cross correlation of noise
0.000000 0.000651 0.001302 0.001953 0.002604 0.003255 0.003906 0.004557 0.005208 0.005859 0.006510 0.007161 0.007812 0.008464 0.009115 0.009766 0.010417 0.011068 0.011719 0.012370 0.013021 0.013672 0.014323 0.014974 0.015625 0.016276 0.016927 0.017578 0.018229 0.018880 0.019531 0.020182 0.020833 0.021484 0.022135 0.022786 0.023438 0.024089 0.024740 0.025391 0.026042 0.026693 0.027344 0.027995 0.028646 0.029297 0.029948 0.030599 0.031250 0.031901 0.032552 0.033203 0.033854 0.034505 0.035156 0.035807 0.036458 0.037109 0.037760 0.038411 0.039062 0.039714 0.040365 0.041016 0.041667 0.042318 0.042969 0.043620 0.044271 0.044922 0.045573 0.046224 0.046875 0.047526 0.048177 0.048828 0.049479 0.050130 0.050781 0.051432 0.052083 0.052734 0.053385 0.054036 0.054688 0.055339 0.055990 0.056641 0.057292 0.057943 0.058594 0.059245 0.059896 0.060547 0.061198 0.061849 0.062500 0.063151 0.063802 0.064453 0.065104 0.065755 0.066406 0.067057 0.067708 0.068359 0.069010 0.069661 0.070312 0.070964 0.071615 0.072266 0.072917 0.073568 0.074219 0.074870 0.075521 0.076172 0.076823 0.077474 0.078125 0.078776 0.079427 0.080078 0.080729 0.081380 0.082031 0.082682 0.083333 0.083984 0.084635 0.085286 0.085938 0.086589 0.087240 0.087891 0.088542 0.089193 0.089844 0.090495 0.091146 0.091797 0.092448 0.093099 0.093750 0.094401 0.095052 0.095703 0.096354 0.097005 0.097656 0.098307 0.098958 0.099609 0.100260 0.100911 0.101562 0.102214 0.102865 0.103516 0.104167 0.104818 0.105469 0.106120 0.106771 0.107422 0.108073 0.108724 0.109375 0.110026 0.110677 0.111328 0.111979 0.112630 0.113281 0.113932 0.114583 0.115234 0.115885 0.116536 0.117188 0.117839 0.118490 0.119141 0.119792 0.120443 0.121094 0.121745 0.122396 0.123047 0.123698 0.124349 0.125000 0.125651 0.126302 0.126953 0.127604 0.128255 0.128906 0.129557 0.130208 0.130859 0.131510 0.132161 0.132812 0.133464 0.134115 0.134766 0.135417 0.136068 0.136719 0.137370 0.138021 0.138672 0.139323 0.139974 0.140625 0.141276 0.141927 0.142578 0.143229 0.143880 0.144531 0.145182 0.145833 0.146484 0.147135 0.147786 0.148438 0.149089 0.149740 0.150391 0.151042 0.151693 0.152344 0.152995 0.153646 0.154297 0.154948 0.155599 0.156250 0.156901 0.157552 0.158203 0.158854 0.159505 0.160156 0.160807 0.161458 0.162109 0.162760 0.163411 0.164062 0.164714 0.165365 0.166016 0.166667 0.167318 0.167969 0.168620 0.169271 0.169922 0.170573 0.171224 0.171875 0.172526 0.173177 0.173828 0.174479 0.175130 0.175781 0.176432 0.177083 0.177734 0.178385 0.179036 0.179688 0.180339 0.180990 0.181641 0.182292 0.182943 0.183594 0.184245 0.184896 0.185547 0.186198 0.186849 0.187500 0.188151 0.188802 0.189453 0.190104 0.190755 0.191406 0.192057 0.192708 0.193359 0.194010 0.194661 0.195312 0.195964 0.196615 0.197266 0.197917 0.198568 0.199219 0.199870 0.200521 0.201172 0.201823 0.202474 0.203125 0.203776 0.204427 0.205078 0.205729 0.206380 0.207031 0.207682 0.208333 0.208984 0.209635 0.210286 0.210938 0.211589 0.212240 0.212891 0.213542 0.214193 0.214844 0.215495 0.216146 0.216797 0.217448 0.218099 0.218750 0.219401 0.220052 0.220703 0.221354 0.222005 0.222656 0.223307 0.223958 0.224609 0.225260 0.225911 0.226562 0.227214 0.227865 0.228516 0.229167 0.229818 0.230469 0.231120 0.231771 0.232422 0.233073 0.233724 0.234375 0.235026 0.235677
       0.33817        0.33817        0.33817        0.33817        0.33817        0.33817        0.33817        0.33817        0.33817        0.33817        0.33817        0.33817        0.33817        0.33817        0.33817        0.33817        0.33817        0.33817        0.33817        0.33817        0.33817        0.33817        0.33817        0.33817        0.33817        0.33817        0.33817        0.33817        0.33817        0.33817        0.33817        0.33817        0.33817        0.33817        0.33817        0.33817        0.33817        0.33817        0.33817        0.33817        0.33817        0.33817        0.33817        0.33817        0.33817        0.33817        0.33817        0.33817        0.33817        0.33817        0.33817        0.45912        0.64046        0.42466       -0.12699       -0.42818       -0.57089       -0.66102       -0.73382       -0.75407       -0.89116       -0.92631       -0.74815       -0.93204       -0.87760       -1.02216       -1.08506       -0.97160       -0.93578       -0.85665       -0.80423       -0.71115       -0.61858       -0.50245       -0.42471       -0.23068       -0.10892       -0.02290        0.18848        0.22368        0.30300        0.37025        0.40551        0.48891        0.56842        0.59552        0.57062        0.49476        0.54947        0.49071        0.40654        0.32781        0.19076        0.17437        0.10470       -0.04827       -0.10264       -0.07333        0.02769       -0.01176        0.02212        0.02625        0.17557        0.20280        0.38758        0.46066        0.56807        0.69696        0.77438        0.72608        0.67885        0.64670        0.57233        0.48524        0.36925        0.28504        0.18991        0.17890        0.08857        0.02471        0.00280        0.02936        0.08026        0.26979        0.38464        0.49252        0.55285        0.60410        0.69146        0.64841        0.65093        0.64618        0.58900        0.48456        0.28583        0.25336        0.21305        0.11547        0.05218        0.10188        0.12841        0.25971        0.33805        0.41450        0.48190        0.55221        0.65256        0.59182        0.53315        0.50682        0.38271        0.21246        0.23177        0.16833        0.13588        0.14963        0.23019        0.25570        0.35140        0.43201        0.43149        0.52747        0.49985        0.45657        0.44705        0.36179        0.31509        0.25743        0.21834        0.21975        0.20044        0.21400        0.30498        0.41229        0.45644        0.47799        0.54566        0.47743        0.43832        0.38448        0.31294        0.22973        0.23840        0.24325        0.26540        0.29018        0.32355        0.43001        0.50781        0.48699        0.45396        0.37893        0.36967        0.36293        0.21796        0.23440        0.25696        0.28702        0.34555        0.36099        0.40455        0.43705        0.44240        0.38187        0.34786        0.31782        0.32176        0.27352        0.24736        0.27405        0.32734        0.40262        0.41245        0.39914        0.39281        0.40841        0.35267        0.27952        0.28091        0.29025        0.31848        0.37258        0.36449        0.40703        0.34663        0.37554        0.38009        0.34645        0.30827        0.26903        0.28075        0.32532        0.32710        0.32930        0.34093        0.37594        0.33260        0.35489        0.28934        0.30335        0.25894        0.27722        0.30227        0.33065        0.38791        0.36448        0.34948        0.31441        0.27222        0.26262        0.29783        0.28889        0.32158        0.35284        0.37697        0.33949        0.31739        0.30027        0.29684        0.29691        0.28782        0.31192        0.33758        0.33649        0.32271        0.29026        0.33669        0.31865        0.29000        0.31211        0.32769        0.34168        0.35085        0.30738        0.31609        0.28331        0.28943        0.29914        0.32101        0.39163        0.32311        0.36673        0.29878        0.30626        0.30715        0.30782        0.30580        0.30004        0.30115        0.33554        0.34478        0.29205        0.31105        0.29752        0.28932        0.30595        0.31083        0.32441        0.35445        0.36176        0.30769        0.30178        0.28752        0.24009        0.31496        0.34076        0.29645        0.29413        0.26752        0.29274        0.31726        0.32011        0.28957        0.30860        0.32487        0.31847        0.23886        0.28990        0.29964        0.28145        0.32780        0.28530        0.35248        0.38186        0.27905        0.28619        0.26426        0.27082        0.29998        0.27966        0.25620        0.24275        0.26366        0.31022        0.28668        0.26917        0.25651        0.34479        0.31048        0.27082        0.22574        0.21142        0.26413        0.22871        0.21637        0.28406        0.36389        0.23928        0.24757        0.27984        0.22729        0.22695        0.29960        0.27896        0.22819        0.18962        0.27724        0.33367        0.26935        0.11524        0.02099       -0.45772       -0.71418
2.976253 2.939242 2.902468 2.865933 2.829635 2.793575 2.757754 2.722170 2.686825 2.651717 2.616848 2.582216 2.547823 2.513668 2.479750 2.446071 2.412630 2.379426 2.346461 2.313734 2.281245 2.248994 2.216981 2.185205 2.153668 2.122369 2.091308 2.060485 2.029900 1.999553 1.969444 1.939573 1.909940 1.880546 1.851389 1.822470 1.793789 1.765346 1.737142 1.709175 1.681446 1.653955 1.626703 1.599688 1.572911 1.546373 1.520072 1.494010 1.468185 1.442599 1.417250 1.468326 1.606601 1.552872 0.919974 0.627253 0.442626 0.385711 0.300229 0.231476 0.150911 -0.032928 0.179354 0.039702 -0.055439 -0.091361 -0.232634 -0.170031 -0.097596 -0.095514 -0.088026 0.012484 0.031012 0.201943 0.127191 0.331145 0.431299 0.457381 0.676538 0.675199 0.677296 0.813422 0.784352 0.802241 0.924384 0.862041 0.913576 0.728443 0.828457 0.831322 0.631125 0.586734 0.450297 0.417868 0.366852 0.199091 0.126311 0.098836 0.217728 0.136171 0.200244 0.096255 0.281591 0.265155 0.438436 0.407862 0.597166 0.629684 0.755453 0.735408 0.635126 0.622681 0.504897 0.470939 0.308757 0.301427 0.123648 0.165835 0.020309 -0.014832 -0.044729 -0.070035 -0.020750 0.041981 0.250385 0.314393 0.379631 0.344229 0.476388 0.465362 0.507812 0.483616 0.376255 0.396056 0.146521 0.097672 0.077961 -0.011635 -0.129794 -0.032494 -0.093819 0.021194 0.127318 0.163085 0.252298 0.255672 0.368649 0.487758 0.349601 0.385231 0.304283 0.138247 0.068234 0.070612 0.033755 0.024087 0.049249 0.115661 0.129326 0.260307 0.240287 0.293867 0.344611 0.254033 0.251138 0.208508 0.119730 0.072560 0.034836 0.030952 0.017587 -0.007961 0.031000 0.162345 0.190304 0.226007 0.291546 0.223453 0.224755 0.130785 0.113451 0.000518 -0.018679 -0.000699 0.001892 0.033591 0.021980 0.101272 0.194712 0.199095 0.214510 0.133843 0.104540 0.092813 0.043192 -0.073603 -0.004389 0.012042 0.039981 0.051174 0.100630 0.156889 0.132326 0.162129 0.067907 0.063381 0.048013 0.049828 -0.003029 -0.008841 0.018305 0.078528 0.121747 0.147111 0.077515 0.142296 0.118317 0.022823 0.009723 0.010386 0.019678 0.072705 0.086380 0.101300 0.108962 0.069345 0.107182 0.083800 0.060194 0.028956 -0.018755 0.025474 0.068111 0.041257 0.054894 0.050123 0.076205 0.083797 0.034116 0.016117 0.014740 -0.037512 0.005711 0.021433 0.045187 0.106836 0.069858 0.052903 0.011843 -0.032017 -0.015494 0.015255 0.009860 0.028289 0.070841 0.063904 0.007127 0.038900 -0.026887 0.018671 -0.013558 -0.022572 0.028379 0.054794 0.010144 0.010871 -0.010009 0.035352 -0.003725 -0.009500 0.012789 0.029463 0.027365 0.073760 0.002631 -0.006929 -0.034985 -0.004217 0.001412 0.027455 0.083213 0.016733 0.046179 -0.018354 0.028720 -0.014020 0.019341 0.009977 0.006033 -0.008884 0.048023 0.023473 0.011971 0.021752 -0.023463 -0.004126 0.000291 -0.000644 0.039054 0.055501 0.055224 0.006426 0.013986 -0.022204 -0.033971 0.000015 0.038600 0.002624 0.017642 -0.032393 -0.008495 0.019920 0.032231 -0.004335 -0.002597 0.035618 0.034513 -0.064747 0.006748 0.032210 -0.015120 0.028764 0.028169 0.083128 0.101805 0.015784 0.025498 -0.020914 0.019688 -0.017219 0.006970 -0.000138 -0.027769 -0.028402 0.054442 0.006814 -0.005888 -0.063982 0.052872 -0.001455 -0.039876 -0.089087 -0.077896 -0.016543 -0.077024 -0.091210 0.008937 0.070609 -0.100336 -0.029271 0.022740 0.000159 -0.087437 0.043590 0.057359 0.067752 -0.042956 0.236027 0.284786 0.208456 0.055249 0.023075 -0.632989
0.072396 0.073047 0.074998 0.078250 0.082801 0.088650 0.095794 0.104231 0.113957 0.124966 0.137253 0.150808 0.165621 0.181680 0.198969 0.217470 0.237161 0.258016 0.280003 0.303088 0.327230 0.352381 0.378487 0.405489 0.433318 0.461897 0.491141 0.520955 0.551236 0.581869 0.612729 0.643681 0.674577 0.705260 0.735559 0.765295 0.794273 0.822292 0.849136 0.874582 0.898396 0.920336 0.940152 0.957590 0.972391 0.984293 0.993032 0.998350 0.999990 0.997704 0.991254 0.980415 0.964982 0.944768 0.919613 0.889383 0.853982 0.813348 0.767462 0.716349 0.660088 0.598806 0.532693 0.461996 0.387028 0.308164 0.225848 0.140594 0.052979 0.036350 0.126684 0.217250 0.307221 0.395720 0.481825 0.564581 0.643008 0.716114 0.782905 0.842404 0.893662 0.935777 0.967911 0.989304 0.999298 0.997353 0.983063 0.956173 0.916600 0.864442 0.799991 0.723748 0.636423 0.538942 0.432447 0.318289 0.198022 0.073384 0.053718 0.181235 0.307006 0.428791 0.544310 0.651290 0.747509 0.830848 0.899341 0.951229 0.985011 0.999494 0.993842 0.967617 0.920811 0.853878 0.767751 0.663849 0.544068 0.410768 0.266742 0.115165 0.040462 0.196386 0.348691 0.493390 0.626532 0.744317 0.843214 0.920070 0.972233 0.997650 0.994967 0.963607 0.903829 0.816764 0.704432 0.569716 0.416319 0.248684 0.071883 0.108521 0.286643 0.456459 0.612015 0.747642 0.858177 0.939174 0.987105 0.999539 0.975289 0.914511 0.818771 0.691044 0.535663 0.358208 0.165336 0.035448 0.236064 0.428177 0.603549 0.754385 0.873716 0.955742 0.996136 0.992315 0.943636 0.851506 0.719407 0.552815 0.359027 0.146876 0.073647 0.291831 0.496768 0.677904 0.825590 0.931637 0.989799 0.996192 0.949595 0.851624 0.706761 0.522207 0.307592 0.074511 0.164061 0.394475 0.603187 0.777569 0.906701 0.982100 0.998335 0.953474 0.849342 0.691534 0.489205 0.254609 0.002403 0.251223 0.489566 0.696528 0.857713 0.961489 0.999879 0.969255 0.870741 0.710302 0.498477 0.249778 0.018243 0.286185 0.534190 0.743412 0.897501 0.983932 0.995102 0.929094 0.790009 0.587841 0.337864 0.059566 0.224809 0.492014 0.719694 0.888298 0.982825 0.994252 0.920497 0.766818 0.545583 0.275388 0.020402 0.315611 0.583561 0.799471 0.942832 0.999427 0.962866 0.835419 0.628066 0.359682 0.055460 0.255398 0.542413 0.776858 0.934667 0.999009 0.962219 0.826841 0.605657 0.320645 0.000922 0.320131 0.608336 0.832367 0.967226 0.997168 0.917680 0.736299 0.472092 0.153822 0.183062 0.500292 0.761145 0.934738 0.999809 0.947481 0.782647 0.523746 0.200898 0.147459 0.479051 0.752899 0.934425 0.999963 0.940011 0.760811 0.483947 0.143948 0.215853 0.548764 0.810792 0.966554 0.994188 0.888650 0.662798 0.346092 0.019044 0.382779 0.694597 0.910390 0.998805 0.946020 0.758136 0.460773 0.095834 0.284238 0.623887 0.872604 0.992545 0.964508 0.791253 0.497607 0.127171 0.263949 0.615520 0.872493 0.993737 0.958850 0.771867 0.461174 0.075487 0.323575 0.671235 0.910109 0.999833 0.924142 0.694123 0.346939 0.059851 0.457687 0.778450 0.966264 0.987399 0.836658 0.538901 0.145292 0.275230 0.647853 0.905268 0.999948 0.913251 0.659409 0.283628 0.145673 0.549077 0.850865 0.993339 0.948129 0.722225 0.357339 0.077399 0.498333 0.823287 0.987732 0.957868 0.737978 0.370314 0.072623 0.502093 0.830861 0.991008 0.948274 0.709788 0.323421 0.131434 0.559912 0.871399 0.998864 0.913618 0.632213 0.213757 0.252121 0.664233
1.000000 1.000000 1.000000 1.000000 1.000000 1.000000 1.000000 1.000000 1.000000 1.000000 1.000000 1.000000 1.000000 1.000000 1.000000 1.000000 1.000000 1.000000 1.000000 1.000000 1.000000 1.000000 1.000000 1.000000 1.000000 1.000000 1.000000 1.000000 1.000000 1.000000 1.000000 1.000000 1.000000 1.000000 1.000000 1.000000 1.000000 1.000000 1.000000 1.000000 1.000000 1.000000 1.000000 1.000000 1.000000 1.000000 1.000000 1.000000 1.000000 1.000000 1.000000 1.000000 0.936017 0.936017 0.936017 0.936017 0.936017 0.936017 0.936017 0.936017 0.936017 0.936017 0.936017 0.936017 0.936017 0.936017 0.936017 0.936017 0.936017 0.936017 0.936017 0.936017 0.936017 0.936017 0.936017 0.936017 0.936017 0.936017 0.936017 0.936017 0.936017 0.936017 0.936017 0.936017 0.936017 0.922866 0.924354 0.927180 0.928181 0.928125 0.927690 0.927417 0.927680 0.929014 0.930833 0.947246 0.949047 0.950075 0.951278 0.949997 0.952497 0.950665 0.954891 0.965466 0.964569 0.965431 0.959217 0.960421 0.959813 0.959092 0.959440 0.959465 0.957905 0.956082 0.954559 0.954800 0.954517 0.956161 0.956551 0.956372 0.956856 0.956783 0.956616 0.953805 0.951962 0.953316 0.954952 0.953945 0.959530 0.959438 0.967587 0.968606 0.967496 0.967292 0.967491 0.967665 0.963325 0.960576 0.956372 0.944795 0.935621 0.932518 0.935984 0.939960 0.937418 0.932304 0.931275 0.928530 0.923959 0.923389 0.921517 0.921862 0.914554 0.911706 0.902387 0.901864 0.903589 0.904803 0.902845 0.891787 0.886298 0.887626 0.890565 0.884496 0.881673 0.897475 0.893836 0.896708 0.900568 0.903293 0.907595 0.895603 0.891333 0.888270 0.883849 0.882195 0.884192 0.887175 0.888994 0.887791 0.884628 0.879507 0.874175 0.880606 0.886013 0.889633 0.888299 0.889009 0.888496 0.875653 0.874847 0.864460 0.865198 0.872134 0.876718 0.873593 0.871758 0.870741 0.869816 0.869621 0.870225 0.868278 0.862449 0.857549 0.856632 0.853479 0.867058 0.864414 0.854685 0.845583 0.839825 0.847329 0.853713 0.846837 0.843644 0.821245 0.820784 0.819143 0.817131 0.818650 0.823767 0.820419 0.824160 0.821739 0.825049 0.828027 0.827260 0.821916 0.821860 0.823349 0.803073 0.810664 0.807112 0.788485 0.794531 0.780706 0.777463 0.778742 0.780024 0.757493 0.758272 0.718334 0.687019 0.703598 0.711719 0.694085 0.682942 0.681517 0.685231 0.684784 0.662472 0.641565 0.638006 0.644496 0.646377 0.653535 0.615306 0.613581 0.601337 0.569268 0.573167 0.572121 0.541952 0.551118 0.542878 0.539296 0.541422 0.547538 0.553637 0.557608 0.557146 0.539954 0.535312 0.541532 0.512311 0.510775 0.509771 0.509297 0.493703 0.491184 0.463167 0.466179 0.508645 0.477429 0.458395 0.457374 0.458674 0.467478 0.474663 0.474569 0.435144 0.467654 0.437188 0.441977 0.457367 0.440010 0.398568 0.405227 0.384514 0.398990 0.378942 0.350327 0.329927 0.331004 0.323356 0.332447 0.354219 0.339629 0.328519 0.316709 0.275661 0.306507 0.297308 0.287455 0.311209 0.333577 0.314341 0.284351 0.284223 0.274667 0.229581 0.203467 0.219846 0.215775 0.153164 0.098482 0.091268 0.078626 0.047630 0.014461 0.013493 -0.016334 -0.018834 0.016922 0.013651 0.002984 0.006801 0.033647 0.033647 0.033647 0.033647 0.033647 0.033647 0.033647 0.033647 0.033647 0.033647 0.033647 0.033647 0.033647 0.033647 0.050650 0.050650 0.050650 0.050650 0.050650 0.050650 0.050650 0.050650 0.050650 0.050650 0.050650 0.050650
0.000000 0.000000 0.000000 0.000000 0.000000 0.000000 0.000000 0.000000 0.000000 0.000000 0.000000 0.000000 0.000000 0.000000 0.000000 0.000000 0.000000 0.000000 0.000000 0.000000 0.000000 0.000000 0.000000 0.000000 0.000000 7.000000 4.000000 0.000000 0.000000 0.000000 0.000000 0.000000 0.000000 0.000000 0.000000 0.000000 0.000000 0.000000 0.000000 0.000000 0.000000 0.000000 0.000000 0.000000 0.000000 0.000000 0.000000 0.000000 0.000000 0.000000 0.000000 0.000000 0.209657 0.209657 0.209657 0.209657 0.209657 0.209657 0.209657 0.209657 0.209657 0.209657 0.209657 0.209657 0.209657 0.209657 0.209657 0.209657 0.209657 0.209657 0.209657 0.209657 0.209657 0.209657 0.209657 0.209657 0.209657 0.209657 0.209657 0.209657 0.209657 0.209657 0.209657 0.209657 0.209657 0.244339 0.244339 0.244339 0.244339 0.244339 0.244339 0.244339 0.244339 0.244339 0.244339 0.244339 0.244339 0.244339 0.244339 0.244339 0.244339 0.244339 0.244339 0.244339 0.244339 0.244339 0.244339 0.244339 0.244339 0.244339 0.260378 0.260378 0.260378 0.260378 0.260378 0.260378 0.260378 0.260378 0.260378 0.260378 0.260378 0.260378 0.260378 0.260378 0.260378 0.260378 0.260378 0.260378 0.260378 0.260378 0.269680 0.269680 0.269680 0.269680 0.269680 0.269680 0.269680 0.269680 0.269680 0.269680 0.269680 0.269680 0.269680 0.269680 0.269680 0.269680 0.269680 0.269680 0.269680 0.269680 0.269680 0.269680 0.269680 0.269680 0.269680 0.269680 0.269680 0.269680 0.269680 0.269680 0.269680 0.269680 0.269680 0.280056 0.280056 0.280056 0.280056 0.280056 0.280056 0.280056 0.280056 0.280056 0.280056 0.280056 0.280056 0.280056 0.280056 0.280056 0.280056 0.280056 0.280056 0.280056 0.280056 0.280056 0.280056 0.280056 0.280056 0.280056 0.280056 0.280056 0.274721 0.274721 0.274721 0.274721 0.274721 0.274721 0.274721 0.274721 0.274721 0.274721 0.274721 0.274721 0.274721 0.285714 0.285714 0.285714 0.285714 0.285714 0.285714 0.285714 0.285714 0.285714 0.285714 0.285714 0.280056 0.280056 0.280056 0.280056 0.280056 0.280056 0.280056 0.280056 0.280056 0.280056 0.280056 0.274721 0.274721 0.274721 0.274721 0.274721 0.274721 0.274721 0.274721 0.274721 0.274721 0.274721 0.280056 0.280056 0.280056 0.280056 0.280056 0.280056 0.280056 0.280056 0.280056 0.280056 0.285714 0.285714 0.285714 0.285714 0.285714 0.285714 0.285714 0.285714 0.285714 0.269680 0.269680 0.269680 0.269680 0.269680 0.269680 0.269680 0.269680 0.269680 0.269680 0.274721 0.274721 0.274721 0.274721 0.274721 0.274721 0.274721 0.274721 0.274721 0.285714 0.285714 0.285714 0.285714 0.285714 0.285714 0.285714 0.285714 0.264906 0.264906 0.264906 0.264906 0.264906 0.264906 0.264906 0.264906 0.264906 0.274721 0.274721 0.274721 0.274721 0.274721 0.274721 0.274721 0.274721 0.269680 0.269680 0.269680 0.269680 0.269680 0.269680 0.269680 0.269680 0.269680 0.269680 0.269680 0.269680 0.269680 0.269680 0.269680 0.269680 0.280056 0.280056 0.280056 0.280056 0.280056 0.280056 0.280056 0.260378 0.260378 0.260378 0.260378 0.260378 0.260378 0.260378 0.260378 0.269680 0.269680 0.269680 0.269680 0.269680 0.269680 0.269680 0.264906 0.264906 0.264906 0.264906 0.264906 0.264906 0.264906 0.264906 0.264906 0.264906 0.264906 0.264906 0.264906 0.264906 0.260378 0.260378 0.260378 0.260378 0.260378 0.260378 0.260378 0.260378 0.260378 0.260378 0.260378 0.260378
