# Output from CTFFind version 4.1.9, run on 2019-11-02 17:47:42
# Input file: stack11_bm3d_averaged_1_1.5_0_1500_half.mrc ; Number of micrographs: 1
# Pixel size: 3.000 Angstroms ; acceleration voltage: 300.0 keV ; spherical aberration: 0.00 mm ; amplitude contrast: 0.07
# Box size: 512 pixels ; min. res.: 30.0 Angstroms ; max. res.: 5.0 Angstroms ; min. def.: 5000.0 um; max. def. 50000.0 um; num. frames averaged: 1
# 6 lines per micrograph: #1 - spatial frequency (1/Angstroms); #2 - 1D rotational average of spectrum (assuming no astigmatism); #3 - 1D rotational average of spectrum; #4 - CTF fit; #5 - cross-correlation between spectrum and CTF fit; #6 - 2sigma of expected cross correlation of noise
0.000000 0.000651 0.001302 0.001953 0.002604 0.003255 0.003906 0.004557 0.005208 0.005859 0.006510 0.007161 0.007812 0.008464 0.009115 0.009766 0.010417 0.011068 0.011719 0.012370 0.013021 0.013672 0.014323 0.014974 0.015625 0.016276 0.016927 0.017578 0.018229 0.018880 0.019531 0.020182 0.020833 0.021484 0.022135 0.022786 0.023438 0.024089 0.024740 0.025391 0.026042 0.026693 0.027344 0.027995 0.028646 0.029297 0.029948 0.030599 0.031250 0.031901 0.032552 0.033203 0.033854 0.034505 0.035156 0.035807 0.036458 0.037109 0.037760 0.038411 0.039062 0.039714 0.040365 0.041016 0.041667 0.042318 0.042969 0.043620 0.044271 0.044922 0.045573 0.046224 0.046875 0.047526 0.048177 0.048828 0.049479 0.050130 0.050781 0.051432 0.052083 0.052734 0.053385 0.054036 0.054688 0.055339 0.055990 0.056641 0.057292 0.057943 0.058594 0.059245 0.059896 0.060547 0.061198 0.061849 0.062500 0.063151 0.063802 0.064453 0.065104 0.065755 0.066406 0.067057 0.067708 0.068359 0.069010 0.069661 0.070312 0.070964 0.071615 0.072266 0.072917 0.073568 0.074219 0.074870 0.075521 0.076172 0.076823 0.077474 0.078125 0.078776 0.079427 0.080078 0.080729 0.081380 0.082031 0.082682 0.083333 0.083984 0.084635 0.085286 0.085938 0.086589 0.087240 0.087891 0.088542 0.089193 0.089844 0.090495 0.091146 0.091797 0.092448 0.093099 0.093750 0.094401 0.095052 0.095703 0.096354 0.097005 0.097656 0.098307 0.098958 0.099609 0.100260 0.100911 0.101562 0.102214 0.102865 0.103516 0.104167 0.104818 0.105469 0.106120 0.106771 0.107422 0.108073 0.108724 0.109375 0.110026 0.110677 0.111328 0.111979 0.112630 0.113281 0.113932 0.114583 0.115234 0.115885 0.116536 0.117188 0.117839 0.118490 0.119141 0.119792 0.120443 0.121094 0.121745 0.122396 0.123047 0.123698 0.124349 0.125000 0.125651 0.126302 0.126953 0.127604 0.128255 0.128906 0.129557 0.130208 0.130859 0.131510 0.132161 0.132812 0.133464 0.134115 0.134766 0.135417 0.136068 0.136719 0.137370 0.138021 0.138672 0.139323 0.139974 0.140625 0.141276 0.141927 0.142578 0.143229 0.143880 0.144531 0.145182 0.145833 0.146484 0.147135 0.147786 0.148438 0.149089 0.149740 0.150391 0.151042 0.151693 0.152344 0.152995 0.153646 0.154297 0.154948 0.155599 0.156250 0.156901 0.157552 0.158203 0.158854 0.159505 0.160156 0.160807 0.161458 0.162109 0.162760 0.163411 0.164062 0.164714 0.165365 0.166016 0.166667 0.167318 0.167969 0.168620 0.169271 0.169922 0.170573 0.171224 0.171875 0.172526 0.173177 0.173828 0.174479 0.175130 0.175781 0.176432 0.177083 0.177734 0.178385 0.179036 0.179688 0.180339 0.180990 0.181641 0.182292 0.182943 0.183594 0.184245 0.184896 0.185547 0.186198 0.186849 0.187500 0.188151 0.188802 0.189453 0.190104 0.190755 0.191406 0.192057 0.192708 0.193359 0.194010 0.194661 0.195312 0.195964 0.196615 0.197266 0.197917 0.198568 0.199219 0.199870 0.200521 0.201172 0.201823 0.202474 0.203125 0.203776 0.204427 0.205078 0.205729 0.206380 0.207031 0.207682 0.208333 0.208984 0.209635 0.210286 0.210938 0.211589 0.212240 0.212891 0.213542 0.214193 0.214844 0.215495 0.216146 0.216797 0.217448 0.218099 0.218750 0.219401 0.220052 0.220703 0.221354 0.222005 0.222656 0.223307 0.223958 0.224609 0.225260 0.225911 0.226562 0.227214 0.227865 0.228516 0.229167 0.229818 0.230469 0.231120 0.231771 0.232422 0.233073 0.233724 0.234375 0.235026 0.235677
       0.31642        0.31642        0.31642        0.31642        0.31642        0.31642        0.31642        0.31642        0.31642        0.31642        0.31642        0.31642        0.31642        0.31642        0.31642        0.31642        0.31642        0.31642        0.31642        0.31642        0.31642        0.31642        0.31642        0.31642        0.31642        0.31642        0.31642        0.31642        0.31642        0.31642        0.31642        0.31642        0.31642        0.31642        0.31642        0.31642        0.31642        0.31642        0.31642        0.31642        0.31642        0.31642        0.31642        0.31642        0.31642        0.31642        0.31642        0.31642        0.31642        0.31642        0.31642        0.68280        0.86836        0.52160        0.08703       -0.06481       -0.42603       -0.20554       -0.29679       -0.11882       -0.07779       -0.11978       -0.06979       -0.20838       -0.23597       -0.25820       -0.33182       -0.33922       -0.49054       -0.38308       -0.46626       -0.44976       -0.42208       -0.46896       -0.54240       -0.56213       -0.58787       -0.62322       -0.57839       -0.41539       -0.37855       -0.33146       -0.31537       -0.21174       -0.19955        0.01873        0.07296        0.10534        0.22456        0.37053        0.44227        0.51599        0.55822        0.55238        0.57143        0.69752        0.81176        0.74126        0.73332        0.66833        0.57857        0.48379        0.40538        0.49331        0.37421        0.20222        0.07720        0.04471        0.01044       -0.06184       -0.03994       -0.02197       -0.07161       -0.00874       -0.02081        0.21258        0.25065        0.28971        0.42888        0.46141        0.40319        0.53421        0.62511        0.69775        0.76271        0.68801        0.65684        0.69674        0.58443        0.50056        0.41850        0.28951        0.18845        0.15582        0.10941        0.03629        0.01114       -0.00011        0.07506        0.13219        0.20418        0.27987        0.39875        0.41727        0.50708        0.60018        0.63290        0.61552        0.62904        0.55287        0.44625        0.44701        0.35204        0.22779        0.18296        0.14767        0.10885        0.12226        0.06989        0.10204        0.22609        0.26201        0.34125        0.35310        0.45066        0.51250        0.53738        0.54887        0.46938        0.42861        0.38941        0.36782        0.30652        0.25068        0.20218        0.18579        0.16246        0.19255        0.17756        0.26860        0.33270        0.36568        0.42400        0.45962        0.47681        0.44200        0.39350        0.41259        0.37346        0.28610        0.27127        0.22492        0.21292        0.19385        0.21438        0.22884        0.32771        0.37250        0.36825        0.46111        0.43527        0.43738        0.42817        0.39427        0.34409        0.32751        0.27805        0.23958        0.23683        0.26982        0.27201        0.30026        0.30141        0.33685        0.32842        0.40812        0.41728        0.37549        0.34549        0.36459        0.28078        0.27946        0.26099        0.27707        0.26063        0.28013        0.29128        0.31081        0.34791        0.35837        0.35981        0.33461        0.35162        0.28697        0.32315        0.26750        0.24402        0.28368        0.28409        0.30927        0.31224        0.32894        0.32497        0.31266        0.31780        0.28593        0.28628        0.25959        0.28212        0.26714        0.30850        0.28290        0.26530        0.30713        0.31032        0.31516        0.28527        0.29870        0.28658        0.24832        0.24304        0.21812        0.27955        0.27523        0.31746        0.31332        0.32140        0.31703        0.30642        0.27469        0.28462        0.32939        0.26774        0.25943        0.29258        0.28996        0.33956        0.33538        0.35628        0.33274        0.30988        0.28316        0.26602        0.25896        0.22491        0.26910        0.30495        0.29652        0.27918        0.29429        0.26784        0.32322        0.33276        0.24970        0.21821        0.27170        0.33508        0.27746        0.30937        0.32619        0.32500        0.29743        0.32127        0.34326        0.29846        0.28896        0.25633        0.28065        0.35159        0.35607        0.26177        0.26536        0.25450        0.28359        0.22065        0.29118        0.22321        0.25103        0.33461        0.32068        0.34963        0.29791        0.23881        0.23560        0.23974        0.23281        0.18465        0.22267        0.26406        0.29756        0.26978        0.30823        0.29763        0.27359        0.27799        0.20929        0.17137        0.19145        0.22868        0.19551        0.21216        0.22875        0.20160        0.25258        0.34456        0.30055        0.31483        0.22356        0.25101        0.22694        0.28603        0.29855        0.14593        0.22876        0.22285        0.11165        0.22261        0.11199        0.15456        0.22417        0.13105       -0.12868       -0.62621
2.586473 2.559489 2.532651 2.505959 2.479414 2.453015 2.426762 2.400656 2.374695 2.348881 2.323213 2.297692 2.272316 2.247087 2.222005 2.197068 2.172278 2.147634 2.123136 2.098785 2.074579 2.050520 2.026608 2.002841 1.979221 1.955747 1.932419 1.909238 1.886203 1.863314 1.840571 1.817975 1.795525 1.773221 1.751063 1.729052 1.707187 1.685468 1.663895 1.642469 1.621189 1.600055 1.579068 1.558226 1.537531 1.516982 1.496580 1.476324 1.456214 1.436250 1.416432 1.637607 2.044645 1.617104 1.129142 0.988824 0.419442 0.813784 0.560191 0.833707 0.771882 0.786732 0.750313 0.710414 0.561743 0.513459 0.483692 0.441693 0.205109 0.378822 0.201403 0.307105 0.235395 0.180665 0.131954 0.005398 0.039797 -0.013316 -0.056356 0.104444 0.207241 0.192702 0.153721 0.332717 0.197407 0.496857 0.578774 0.551328 0.593835 0.877529 0.810530 0.946729 0.889555 0.974441 0.943873 1.081353 1.140375 1.076182 1.129638 0.951917 0.942328 0.785723 0.650926 0.771806 0.707399 0.461070 0.309126 0.251498 0.214892 0.147654 0.089098 0.129357 0.070580 0.151254 0.053266 0.262896 0.380543 0.359556 0.480845 0.580577 0.466402 0.548099 0.698243 0.743408 0.782052 0.731747 0.734327 0.714476 0.627970 0.568721 0.429623 0.287714 0.209208 0.078694 0.134548 -0.043674 -0.031196 -0.078291 -0.038267 0.004598 0.148520 0.088057 0.300125 0.279403 0.364419 0.454072 0.525013 0.507874 0.520875 0.506564 0.334861 0.310421 0.282043 0.099357 0.049318 -0.006794 -0.030916 -0.040063 -0.087897 -0.102505 -0.007868 0.055981 0.134562 0.144146 0.229089 0.332284 0.312198 0.410784 0.398387 0.285083 0.231853 0.246483 0.205123 0.104334 0.077304 0.019095 0.001420 0.009801 -0.014477 0.058945 0.148326 0.143335 0.232675 0.254011 0.307088 0.254804 0.222816 0.183754 0.212898 0.144287 0.045671 0.042777 -0.010154 -0.011533 -0.031500 0.017069 0.017276 0.168787 0.129872 0.183158 0.237511 0.200260 0.190831 0.195770 0.141520 0.103522 0.063699 0.050122 -0.034982 0.008771 0.023589 0.055898 0.051982 0.078355 0.095788 0.122211 0.137637 0.187131 0.079770 0.097782 0.073639 0.000133 0.004141 0.008625 -0.007965 0.018051 0.006120 0.028975 0.066095 0.079256 0.122365 0.050434 0.102046 0.055414 0.014805 0.062991 -0.036971 -0.015386 0.025205 0.003514 0.056685 0.052610 0.049698 0.055899 0.054623 0.046587 0.022675 -0.000475 0.011488 0.016135 -0.009056 0.071407 -0.013806 0.013373 0.058622 0.048719 0.037262 0.044584 0.038502 0.019408 -0.016929 -0.036751 -0.016331 0.022642 0.029715 0.072027 0.061505 0.064852 0.084274 0.065983 0.024531 0.066903 0.088356 0.015998 0.019116 0.062337 0.053698 0.104114 0.110342 0.114813 0.119903 0.070020 0.047680 0.036352 0.004793 0.002244 0.053510 0.086086 0.050500 0.036225 0.028751 0.022711 0.096686 0.066090 -0.046049 -0.049991 0.032900 0.097458 0.008020 0.027618 0.064945 0.088578 0.025432 0.060688 0.083798 0.036503 0.036102 -0.041341 0.023813 0.112114 0.073910 -0.048641 -0.022504 -0.045772 0.026661 -0.108837 0.039960 -0.104041 -0.030246 0.058743 0.035516 0.033675 -0.040424 -0.066507 -0.088651 -0.086350 -0.073263 -0.127065 -0.093306 -0.034549 0.031757 -0.038743 0.044863 -0.020982 -0.049041 0.050669 -0.109979 -0.103193 -0.090718 -0.012432 -0.062648 -0.048857 -0.000118 0.000133 0.020920 0.190830 -0.013522 0.151273 0.011155 0.257930 0.244582 0.329085 0.273548 0.109343 0.232255 0.265866 0.032372 0.243129 0.116002 0.131353 0.306216 0.134498 -0.649174
0.072396 0.072899 0.074406 0.076917 0.080432 0.084950 0.090470 0.096990 0.104508 0.113020 0.122525 0.133016 0.144490 0.156940 0.170357 0.184733 0.200057 0.216316 0.233495 0.251577 0.270541 0.290365 0.311023 0.332485 0.354718 0.377686 0.401347 0.425654 0.450558 0.476002 0.501926 0.528262 0.554937 0.581874 0.608986 0.636182 0.663363 0.690426 0.717257 0.743738 0.769745 0.795143 0.819796 0.843557 0.866275 0.887794 0.907952 0.926581 0.943511 0.958569 0.971577 0.982359 0.990735 0.996530 0.999567 0.999676 0.996690 0.990451 0.980807 0.967619 0.950759 0.930114 0.905588 0.877102 0.844602 0.808052 0.767447 0.722804 0.674175 0.621640 0.565315 0.505351 0.441934 0.375292 0.305689 0.233431 0.158865 0.082375 0.004389 0.074628 0.154175 0.233712 0.312671 0.390450 0.466425 0.539949 0.610360 0.676988 0.739156 0.796194 0.847441 0.892259 0.930035 0.960195 0.982212 0.995614 0.999997 0.995030 0.980467 0.956157 0.922050 0.878203 0.824791 0.762110 0.690581 0.610753 0.523303 0.429037 0.328884 0.223897 0.115236 0.004166 0.107957 0.219702 0.329578 0.436058 0.537591 0.632633 0.719670 0.797242 0.863972 0.918593 0.959976 0.987153 0.999351 0.996007 0.976800 0.941658 0.890785 0.824665 0.744069 0.650062 0.543987 0.427469 0.302385 0.170846 0.035167 0.102167 0.238552 0.371301 0.497706 0.615093 0.720873 0.812616 0.888102 0.945387 0.982857 0.999284 0.993871 0.966292 0.916723 0.845859 0.754926 0.645671 0.520344 0.381666 0.232780 0.077189 0.081322 0.238768 0.391066 0.534139 0.664031 0.777016 0.869720 0.939224 0.983176 0.999873 0.988348 0.948426 0.880761 0.786852 0.669035 0.530440 0.374931 0.207011 0.031701 0.145595 0.319252 0.483610 0.633152 0.762693 0.867584 0.943881 0.988510 0.999417 0.975672 0.917549 0.826560 0.705452 0.558141 0.389620 0.205806 0.013347 0.180602 0.368646 0.543427 0.697916 0.825710 0.921313 0.980391 0.999993 0.978725 0.916858 0.816380 0.680970 0.515893 0.327830 0.124630 0.085001 0.291860 0.486645 0.660381 0.804845 0.912972 0.979227 0.999916 0.973427 0.900371 0.783631 0.628285 0.441436 0.231912 0.009879 0.213633 0.427269 0.619932 0.781365 0.902720 0.977075 0.999861 0.969183 0.886008 0.754194 0.580367 0.373637 0.145151 0.092470 0.325820 0.541450 0.726663 0.870270 0.963305 0.999624 0.976355 0.894171 0.757347 0.573601 0.353721 0.110959 0.139720 0.382546 0.601940 0.783525 0.915083 0.987437 0.995130 0.936897 0.815864 0.639457 0.419007 0.169088 0.093418 0.350417 0.583867 0.777049 0.915780 0.989527 0.992242 0.922938 0.785887 0.590442 0.350475 0.083441 0.190828 0.451598 0.678792 0.854551 0.964689 0.999901 0.956617 0.837430 0.651045 0.411728 0.138283 0.147362 0.421894 0.662518 0.848860 0.964748 0.999679 0.949856 0.818673 0.616592 0.360417 0.071949 0.223788 0.500708 0.733962 0.902211 0.989623 0.987455 0.895023 0.719942 0.477627 0.190011 0.116347 0.412685 0.670735 0.865429 0.977407 0.995019 0.915650 0.746166 0.502460 0.208058 0.108059 0.414267 0.679448 0.876186 0.983661 0.989952 0.893470 0.703353 0.438728 0.126912 0.199334 0.505205 0.757561 0.928564 0.998833 0.959757 0.814668 0.578731 0.277487 0.055795 0.383731 0.668990 0.878576 0.987717 0.982910 0.863720 0.643111 0.346175 0.007426 0.333158 0.634788 0.860792 0.983143 0.986049 0.868144 0.642940 0.337445 0.010932 0.358888 0.662557 0.883079 0.991660 0.973455 0.829765 0.578187 0.250607 0.110670
1.000000 1.000000 1.000000 1.000000 1.000000 1.000000 1.000000 1.000000 1.000000 1.000000 1.000000 1.000000 1.000000 1.000000 1.000000 1.000000 1.000000 1.000000 1.000000 1.000000 1.000000 1.000000 1.000000 1.000000 1.000000 1.000000 1.000000 1.000000 1.000000 1.000000 1.000000 1.000000 1.000000 1.000000 1.000000 1.000000 1.000000 1.000000 1.000000 1.000000 1.000000 1.000000 1.000000 1.000000 1.000000 1.000000 1.000000 1.000000 1.000000 1.000000 1.000000 1.000000 0.929689 0.929689 0.929689 0.919733 0.919733 0.919733 0.919733 0.919733 0.919733 0.919733 0.919733 0.919733 0.919733 0.919733 0.919733 0.919733 0.919733 0.919733 0.919733 0.919733 0.919733 0.919733 0.919733 0.919733 0.919733 0.919733 0.919733 0.919733 0.919733 0.919733 0.919733 0.919733 0.919733 0.919733 0.919733 0.919733 0.919733 0.919733 0.919733 0.919733 0.919733 0.919733 0.919733 0.919733 0.950275 0.951517 0.959407 0.959250 0.958756 0.956666 0.955756 0.954633 0.954182 0.954452 0.955052 0.955878 0.964595 0.965662 0.967236 0.968061 0.968775 0.969418 0.969244 0.969964 0.969168 0.968600 0.968080 0.964088 0.964722 0.965282 0.965391 0.966422 0.966299 0.968332 0.968510 0.967901 0.967008 0.966256 0.965532 0.965103 0.964820 0.965326 0.965621 0.966930 0.970114 0.969534 0.969241 0.969399 0.969499 0.969679 0.970114 0.971808 0.968051 0.968696 0.967034 0.964850 0.969059 0.966190 0.965973 0.967336 0.967717 0.968115 0.966553 0.962842 0.956626 0.955641 0.952678 0.943614 0.942135 0.942847 0.945229 0.945720 0.944408 0.937328 0.937899 0.931844 0.932730 0.936041 0.931147 0.931187 0.932327 0.931608 0.930272 0.929606 0.927001 0.924158 0.922431 0.922017 0.925014 0.925277 0.926470 0.926343 0.920863 0.912307 0.899256 0.897662 0.892488 0.895602 0.885174 0.884964 0.885086 0.880580 0.884101 0.884242 0.885228 0.881816 0.865991 0.847537 0.839260 0.842601 0.847696 0.843556 0.842246 0.835262 0.847243 0.827859 0.840603 0.852287 0.848564 0.849423 0.848886 0.846669 0.839900 0.840738 0.843068 0.844748 0.843557 0.841641 0.839555 0.821471 0.822089 0.757298 0.740046 0.734071 0.739578 0.745767 0.746485 0.745708 0.754111 0.759356 0.755319 0.739017 0.731217 0.722540 0.727490 0.730351 0.734863 0.722322 0.697337 0.691062 0.657965 0.675442 0.691285 0.649671 0.673060 0.683859 0.680496 0.679826 0.672464 0.668690 0.664163 0.667164 0.675063 0.689755 0.709151 0.733693 0.731020 0.720817 0.720490 0.701747 0.692345 0.684362 0.695536 0.675010 0.670333 0.688560 0.687876 0.674405 0.653820 0.642491 0.631454 0.628357 0.637218 0.628854 0.625566 0.614852 0.588598 0.582511 0.619280 0.635618 0.654603 0.626178 0.612088 0.602671 0.584541 0.598143 0.543963 0.543744 0.563992 0.571109 0.549907 0.533291 0.542740 0.552038 0.556373 0.547279 0.531184 0.519827 0.534510 0.564892 0.555609 0.532685 0.536514 0.536095 0.531955 0.449966 0.444498 0.414545 0.383107 0.322453 0.299397 0.292665 0.274874 0.259137 0.224606 0.221192 0.230446 0.238878 0.252001 0.253495 0.238418 0.242917 0.235058 0.221532 0.160231 0.149176 0.141927 0.131451 0.131529 0.106522 0.128927 0.195647 0.198324 0.198324 0.198324 0.198324 0.198324 0.198324 0.209132 0.209132 0.209132 0.209132 0.209132 0.209132 0.209132 0.209132 0.209132 0.219140 0.219140 0.219140 0.219140 0.219140 0.219140 0.219140 0.219140 0.219140 0.219140 0.219140 0.219140 0.219140 0.219140
0.000000 0.000000 0.000000 0.000000 0.000000 0.000000 0.000000 0.000000 0.000000 0.000000 0.000000 0.000000 0.000000 0.000000 0.000000 0.000000 0.000000 0.000000 0.000000 0.000000 0.000000 0.000000 0.000000 0.000000 0.000000 0.000000 0.000000 0.000000 0.000000 0.000000 0.000000 0.000000 0.000000 0.000000 0.000000 0.000000 0.000000 0.000000 0.000000 0.000000 0.000000 0.000000 0.000000 0.000000 0.000000 0.000000 0.000000 0.000000 0.000000 0.000000 0.000000 0.000000 0.180334 0.180334 0.180334 0.199007 0.199007 0.199007 0.199007 0.199007 0.199007 0.199007 0.199007 0.199007 0.199007 0.199007 0.199007 0.199007 0.199007 0.199007 0.199007 0.199007 0.199007 0.199007 0.199007 0.199007 0.199007 0.199007 0.199007 0.199007 0.199007 0.199007 0.199007 0.199007 0.199007 0.199007 0.199007 0.199007 0.199007 0.199007 0.199007 0.199007 0.199007 0.199007 0.199007 0.199007 0.225018 0.225018 0.225018 0.225018 0.225018 0.225018 0.225018 0.225018 0.225018 0.225018 0.225018 0.225018 0.225018 0.225018 0.225018 0.225018 0.225018 0.225018 0.225018 0.225018 0.225018 0.225018 0.225018 0.225018 0.225018 0.225018 0.225018 0.225018 0.225018 0.244339 0.244339 0.244339 0.244339 0.244339 0.244339 0.244339 0.244339 0.244339 0.244339 0.244339 0.244339 0.244339 0.244339 0.244339 0.244339 0.244339 0.244339 0.244339 0.244339 0.244339 0.244339 0.244339 0.251976 0.251976 0.251976 0.251976 0.251976 0.251976 0.251976 0.251976 0.251976 0.251976 0.251976 0.251976 0.251976 0.251976 0.251976 0.251976 0.251976 0.251976 0.251976 0.251976 0.264906 0.264906 0.264906 0.264906 0.264906 0.264906 0.264906 0.264906 0.264906 0.264906 0.264906 0.264906 0.264906 0.264906 0.264906 0.264906 0.264906 0.264906 0.264906 0.264906 0.264906 0.264906 0.264906 0.264906 0.264906 0.264906 0.264906 0.264906 0.264906 0.264906 0.264906 0.264906 0.264906 0.264906 0.264906 0.264906 0.264906 0.264906 0.264906 0.264906 0.264906 0.264906 0.264906 0.264906 0.264906 0.264906 0.264906 0.264906 0.264906 0.264906 0.264906 0.264906 0.264906 0.264906 0.264906 0.264906 0.264906 0.264906 0.264906 0.264906 0.264906 0.264906 0.256074 0.256074 0.256074 0.256074 0.256074 0.256074 0.256074 0.256074 0.256074 0.256074 0.256074 0.256074 0.256074 0.256074 0.269680 0.269680 0.269680 0.269680 0.269680 0.269680 0.269680 0.269680 0.269680 0.269680 0.269680 0.269680 0.264906 0.264906 0.264906 0.264906 0.264906 0.264906 0.264906 0.264906 0.264906 0.264906 0.264906 0.264906 0.269680 0.269680 0.269680 0.269680 0.269680 0.269680 0.269680 0.269680 0.269680 0.269680 0.269680 0.264906 0.264906 0.264906 0.264906 0.264906 0.264906 0.264906 0.264906 0.264906 0.264906 0.264906 0.256074 0.256074 0.256074 0.256074 0.256074 0.256074 0.256074 0.256074 0.256074 0.256074 0.256074 0.264906 0.264906 0.264906 0.264906 0.264906 0.264906 0.264906 0.264906 0.264906 0.264906 0.260378 0.260378 0.260378 0.260378 0.260378 0.260378 0.260378 0.260378 0.260378 0.260378 0.256074 0.256074 0.256074 0.256074 0.256074 0.256074 0.256074 0.256074 0.256074 0.256074 0.260378 0.260378 0.260378 0.260378 0.260378 0.260378 0.260378 0.260378 0.260378 0.256074 0.256074 0.256074 0.256074 0.256074 0.256074 0.256074 0.256074 0.256074 0.251976 0.251976 0.251976 0.251976 0.251976 0.251976 0.251976 0.251976 0.251976 0.251976 0.251976 0.251976 0.251976 0.251976
