# Output from CTFFind version 4.1.9, run on 2019-11-02 17:45:21
# Input file: stack16_bm3d_averaged_1_0.5_0_750_half.mrc ; Number of micrographs: 1
# Pixel size: 3.000 Angstroms ; acceleration voltage: 300.0 keV ; spherical aberration: 0.00 mm ; amplitude contrast: 0.07
# Box size: 512 pixels ; min. res.: 30.0 Angstroms ; max. res.: 5.0 Angstroms ; min. def.: 5000.0 um; max. def. 50000.0 um; num. frames averaged: 1
# 6 lines per micrograph: #1 - spatial frequency (1/Angstroms); #2 - 1D rotational average of spectrum (assuming no astigmatism); #3 - 1D rotational average of spectrum; #4 - CTF fit; #5 - cross-correlation between spectrum and CTF fit; #6 - 2sigma of expected cross correlation of noise
0.000000 0.000651 0.001302 0.001953 0.002604 0.003255 0.003906 0.004557 0.005208 0.005859 0.006510 0.007161 0.007812 0.008464 0.009115 0.009766 0.010417 0.011068 0.011719 0.012370 0.013021 0.013672 0.014323 0.014974 0.015625 0.016276 0.016927 0.017578 0.018229 0.018880 0.019531 0.020182 0.020833 0.021484 0.022135 0.022786 0.023438 0.024089 0.024740 0.025391 0.026042 0.026693 0.027344 0.027995 0.028646 0.029297 0.029948 0.030599 0.031250 0.031901 0.032552 0.033203 0.033854 0.034505 0.035156 0.035807 0.036458 0.037109 0.037760 0.038411 0.039062 0.039714 0.040365 0.041016 0.041667 0.042318 0.042969 0.043620 0.044271 0.044922 0.045573 0.046224 0.046875 0.047526 0.048177 0.048828 0.049479 0.050130 0.050781 0.051432 0.052083 0.052734 0.053385 0.054036 0.054688 0.055339 0.055990 0.056641 0.057292 0.057943 0.058594 0.059245 0.059896 0.060547 0.061198 0.061849 0.062500 0.063151 0.063802 0.064453 0.065104 0.065755 0.066406 0.067057 0.067708 0.068359 0.069010 0.069661 0.070312 0.070964 0.071615 0.072266 0.072917 0.073568 0.074219 0.074870 0.075521 0.076172 0.076823 0.077474 0.078125 0.078776 0.079427 0.080078 0.080729 0.081380 0.082031 0.082682 0.083333 0.083984 0.084635 0.085286 0.085938 0.086589 0.087240 0.087891 0.088542 0.089193 0.089844 0.090495 0.091146 0.091797 0.092448 0.093099 0.093750 0.094401 0.095052 0.095703 0.096354 0.097005 0.097656 0.098307 0.098958 0.099609 0.100260 0.100911 0.101562 0.102214 0.102865 0.103516 0.104167 0.104818 0.105469 0.106120 0.106771 0.107422 0.108073 0.108724 0.109375 0.110026 0.110677 0.111328 0.111979 0.112630 0.113281 0.113932 0.114583 0.115234 0.115885 0.116536 0.117188 0.117839 0.118490 0.119141 0.119792 0.120443 0.121094 0.121745 0.122396 0.123047 0.123698 0.124349 0.125000 0.125651 0.126302 0.126953 0.127604 0.128255 0.128906 0.129557 0.130208 0.130859 0.131510 0.132161 0.132812 0.133464 0.134115 0.134766 0.135417 0.136068 0.136719 0.137370 0.138021 0.138672 0.139323 0.139974 0.140625 0.141276 0.141927 0.142578 0.143229 0.143880 0.144531 0.145182 0.145833 0.146484 0.147135 0.147786 0.148438 0.149089 0.149740 0.150391 0.151042 0.151693 0.152344 0.152995 0.153646 0.154297 0.154948 0.155599 0.156250 0.156901 0.157552 0.158203 0.158854 0.159505 0.160156 0.160807 0.161458 0.162109 0.162760 0.163411 0.164062 0.164714 0.165365 0.166016 0.166667 0.167318 0.167969 0.168620 0.169271 0.169922 0.170573 0.171224 0.171875 0.172526 0.173177 0.173828 0.174479 0.175130 0.175781 0.176432 0.177083 0.177734 0.178385 0.179036 0.179688 0.180339 0.180990 0.181641 0.182292 0.182943 0.183594 0.184245 0.184896 0.185547 0.186198 0.186849 0.187500 0.188151 0.188802 0.189453 0.190104 0.190755 0.191406 0.192057 0.192708 0.193359 0.194010 0.194661 0.195312 0.195964 0.196615 0.197266 0.197917 0.198568 0.199219 0.199870 0.200521 0.201172 0.201823 0.202474 0.203125 0.203776 0.204427 0.205078 0.205729 0.206380 0.207031 0.207682 0.208333 0.208984 0.209635 0.210286 0.210938 0.211589 0.212240 0.212891 0.213542 0.214193 0.214844 0.215495 0.216146 0.216797 0.217448 0.218099 0.218750 0.219401 0.220052 0.220703 0.221354 0.222005 0.222656 0.223307 0.223958 0.224609 0.225260 0.225911 0.226562 0.227214 0.227865 0.228516 0.229167 0.229818 0.230469 0.231120 0.231771 0.232422 0.233073 0.233724 0.234375 0.235026 0.235677
       0.34247        0.34247        0.34247        0.34247        0.34247        0.34247        0.34247        0.34247        0.34247        0.34247        0.34247        0.34247        0.34247        0.34247        0.34247        0.34247        0.34247        0.34247        0.34247        0.34247        0.34247        0.34247        0.34247        0.34247        0.34247        0.34247        0.34247        0.34247        0.34247        0.34247        0.34247        0.34247        0.34247        0.34247        0.34247        0.34247        0.34247        0.34247        0.34247        0.34247        0.34247        0.34247        0.34247        0.34247        0.34247        0.34247        0.34247        0.34247        0.34247        0.34247        0.34247        0.48886        0.70272        0.45511       -0.11200       -0.41290       -0.57229       -0.66275       -0.74642       -0.76382       -0.86914       -0.91466       -0.75975       -0.92529       -0.87187       -1.02449       -1.09751       -0.98951       -0.96289       -0.88394       -0.86238       -0.75161       -0.64176       -0.50127       -0.42493       -0.21905       -0.11769       -0.02231        0.20376        0.24377        0.30783        0.38454        0.43903        0.51605        0.57987        0.59474        0.59123        0.50156        0.54516        0.48623        0.39101        0.32240        0.20576        0.17187        0.10289       -0.06154       -0.11055       -0.09271        0.00968       -0.01678        0.01184        0.02839        0.20979        0.21945        0.39153        0.45671        0.56101        0.69826        0.75943        0.72941        0.70519        0.70142        0.58319        0.54229        0.39982        0.27160        0.19242        0.14419        0.06636        0.02292        0.02259        0.06166        0.07660        0.26975        0.41744        0.50585        0.58787        0.63847        0.70406        0.66073        0.65086        0.67013        0.60891        0.47989        0.28402        0.23447        0.20607        0.12997        0.04535        0.09164        0.12292        0.24988        0.33861        0.41479        0.50001        0.53798        0.66228        0.60981        0.55562        0.50968        0.36579        0.21051        0.21239        0.15211        0.11248        0.12088        0.21587        0.25239        0.35825        0.44218        0.43978        0.56519        0.50997        0.44748        0.45313        0.38269        0.32352        0.27654        0.21830        0.23743        0.20929        0.21034        0.32337        0.44896        0.48540        0.47978        0.55020        0.49537        0.45538        0.39422        0.29374        0.22401        0.23174        0.24551        0.26668        0.27390        0.32357        0.44245        0.49900        0.48566        0.45950        0.41648        0.38672        0.36224        0.24813        0.22530        0.24576        0.29337        0.35365        0.36147        0.39079        0.40971        0.44308        0.37038        0.34838        0.31294        0.30366        0.26638        0.25821        0.30830        0.34513        0.41522        0.41592        0.39726        0.39428        0.40689        0.34923        0.28809        0.29079        0.27688        0.30968        0.35941        0.36679        0.41585        0.35913        0.36723        0.38993        0.34659        0.31674        0.27924        0.29647        0.33976        0.33024        0.32552        0.37506        0.39454        0.33338        0.35226        0.29585        0.30785        0.28711        0.28239        0.29982        0.33126        0.38356        0.36521        0.34666        0.32673        0.28433        0.27704        0.29604        0.28204        0.31336        0.36767        0.39393        0.33778        0.31770        0.31028        0.29737        0.28096        0.27864        0.29937        0.34057        0.33700        0.34212        0.31597        0.34750        0.32351        0.28679        0.31625        0.32201        0.33177        0.33768        0.31930        0.31528        0.30626        0.32658        0.31155        0.33509        0.38777        0.33410        0.36145        0.32113        0.31409        0.29038        0.31007        0.28998        0.30949        0.31516        0.35045        0.36060        0.31700        0.32256        0.31557        0.29207        0.29138        0.28977        0.33197        0.34388        0.35611        0.33329        0.32407        0.25923        0.26529        0.31415        0.34758        0.31907        0.29999        0.28408        0.28615        0.32432        0.30752        0.30920        0.33383        0.34387        0.31045        0.24155        0.28943        0.28238        0.28657        0.32122        0.32021        0.34336        0.34235        0.27899        0.26618        0.29289        0.27018        0.28901        0.27619        0.24858        0.26534        0.24903        0.28038        0.28014        0.27677        0.26427        0.31748        0.32550        0.31515        0.28582        0.30494        0.24432        0.26812        0.25517        0.33777        0.34520        0.22981        0.25409        0.26810        0.24430        0.24962        0.29720        0.22742        0.14535        0.17477        0.24976        0.27548        0.22755        0.13824        0.03088       -0.41872       -0.74858
3.059237 3.021228 2.983464 2.945943 2.908667 2.871635 2.834847 2.798303 2.762003 2.725947 2.690136 2.654568 2.619245 2.584166 2.549331 2.514740 2.480393 2.446290 2.412432 2.378817 2.345447 2.312321 2.279439 2.246801 2.214407 2.182258 2.150352 2.118691 2.087273 2.056100 2.025171 1.994486 1.964045 1.933849 1.903896 1.874188 1.844724 1.815504 1.786528 1.757796 1.729308 1.701064 1.673065 1.645310 1.617798 1.590531 1.563508 1.536730 1.510195 1.483904 1.457858 1.515335 1.704714 1.615892 0.967014 0.684894 0.477215 0.431145 0.321725 0.264011 0.200712 0.020910 0.198339 0.081288 -0.006406 -0.057964 -0.199245 -0.152069 -0.091908 -0.091564 -0.098348 0.010442 0.030980 0.234922 0.149134 0.365471 0.447395 0.479809 0.718060 0.702154 0.709738 0.840376 0.824416 0.856850 0.924285 0.894042 0.942061 0.753960 0.838293 0.842929 0.623481 0.608181 0.458310 0.436876 0.388862 0.210714 0.122156 0.101304 0.206555 0.147738 0.195721 0.112119 0.314057 0.289884 0.459069 0.417723 0.582803 0.644123 0.765725 0.695526 0.663969 0.668949 0.532753 0.507416 0.370300 0.293448 0.118262 0.146152 0.003369 -0.013011 -0.037710 -0.027310 -0.001851 0.032300 0.275679 0.333879 0.388923 0.397906 0.468992 0.523136 0.470904 0.506610 0.402218 0.390823 0.155540 0.069369 0.074388 -0.000333 -0.123628 -0.042820 -0.108431 0.018742 0.135280 0.157555 0.254888 0.256922 0.384053 0.464660 0.356345 0.391707 0.284844 0.128383 0.051831 0.052356 0.012675 0.003054 0.008407 0.108991 0.128477 0.263253 0.238327 0.307711 0.371425 0.236703 0.244331 0.219611 0.132776 0.082447 0.052916 0.028617 0.039078 -0.013337 0.028336 0.186502 0.223681 0.247180 0.282750 0.230251 0.241017 0.146984 0.107109 -0.021473 -0.017856 -0.004046 0.016913 0.010074 0.028427 0.104490 0.190392 0.199900 0.224491 0.137713 0.145540 0.080038 0.057238 -0.060130 -0.015697 -0.006989 0.055370 0.066197 0.076470 0.151077 0.092246 0.165185 0.070189 0.054522 0.045219 0.028803 0.002504 0.008843 0.054483 0.084606 0.133418 0.142242 0.069494 0.132792 0.101815 0.019623 0.009401 0.007144 -0.003545 0.059315 0.062746 0.101094 0.100182 0.070969 0.071514 0.082934 0.036503 0.015759 -0.013607 0.014516 0.060320 0.026153 0.041789 0.082837 0.085114 0.055335 0.034740 0.009512 0.015873 -0.006688 -0.010032 0.014485 0.055450 0.106062 0.060770 0.057617 0.040341 -0.014036 -0.000032 0.015205 0.011974 0.029192 0.103944 0.065089 0.026280 0.044479 0.003175 0.027596 -0.012058 -0.001039 0.023711 0.065967 0.035030 0.046525 0.031531 0.056842 0.028469 -0.004023 0.032852 0.043764 0.042281 0.039660 0.026825 0.004606 -0.007250 0.028898 0.008128 0.046560 0.076980 0.044704 0.031350 0.012092 0.003811 -0.005791 0.009445 0.002995 0.014322 -0.006690 0.082039 0.053729 0.035922 0.040824 0.004717 0.008376 0.008978 -0.005255 0.054589 0.062433 0.085354 0.045639 0.049596 -0.025436 0.012352 0.037960 0.072161 0.034837 0.034025 0.006634 0.003983 0.050103 0.047097 0.038751 0.060360 0.074107 0.055092 -0.023275 0.020745 0.040748 0.024513 0.044273 0.073448 0.074593 0.070480 0.016031 0.004550 0.016854 0.001562 0.020496 -0.016279 -0.027143 -0.009511 -0.048767 0.002888 -0.006657 0.009787 -0.075050 0.006643 0.012746 0.000678 -0.037681 0.027197 -0.091845 -0.022331 -0.042019 0.039072 0.069111 -0.107251 -0.020803 0.032739 0.015267 -0.040279 0.044552 0.029182 0.002750 -0.045600 0.079950 0.239439 0.199313 0.096523 0.030391 -0.658417
0.072396 0.073046 0.074995 0.078242 0.082787 0.088628 0.095763 0.104189 0.113902 0.124897 0.137167 0.150704 0.165497 0.181535 0.198802 0.217280 0.236945 0.257773 0.279733 0.302789 0.326901 0.352022 0.378098 0.405069 0.432867 0.461416 0.490629 0.520415 0.550668 0.581275 0.612111 0.643042 0.673920 0.704589 0.734879 0.764610 0.793589 0.821615 0.848473 0.873941 0.897785 0.919764 0.939629 0.957127 0.971998 0.983981 0.992814 0.998238 0.999997 0.997843 0.991538 0.980858 0.965595 0.945565 0.920604 0.890581 0.855396 0.814987 0.769331 0.718455 0.662433 0.601391 0.535515 0.465050 0.390305 0.311652 0.229532 0.144452 0.056988 0.032219 0.122462 0.212975 0.302934 0.391466 0.477653 0.560543 0.639159 0.712511 0.779607 0.839471 0.891154 0.933753 0.966427 0.988414 0.999050 0.997790 0.984219 0.958077 0.919268 0.867879 0.804192 0.728692 0.642075 0.545253 0.439352 0.325709 0.205860 0.081530 0.045389 0.172859 0.298731 0.420771 0.536709 0.644271 0.741237 0.825482 0.895032 0.948115 0.983213 0.999112 0.994952 0.970262 0.925004 0.859596 0.774934 0.672393 0.553834 0.421577 0.278376 0.127371 0.027965 0.183905 0.336550 0.481921 0.616070 0.735188 0.835723 0.914493 0.968805 0.996556 0.996330 0.967483 0.910199 0.825530 0.715412 0.582650 0.430868 0.264436 0.088366 0.091829 0.270297 0.441031 0.598075 0.735732 0.848795 0.932747 0.983973 0.999933 0.979315 0.922140 0.829832 0.705219 0.552495 0.377111 0.185610 0.014592 0.215478 0.408740 0.586123 0.739793 0.862689 0.948878 0.993876 0.994906 0.951109 0.863663 0.735819 0.572832 0.381793 0.171359 0.048599 0.267452 0.474312 0.658571 0.810471 0.921645 0.985609 0.998195 0.957859 0.865877 0.726383 0.546254 0.334829 0.103474 0.134994 0.366996 0.578958 0.758120 0.893331 0.975786 0.999652 0.962545 0.865800 0.714532 0.517443 0.286395 0.035753 0.218466 0.459604 0.671447 0.839341 0.951257 0.998700 0.977438 0.887940 0.735510 0.530077 0.285624 0.019322 0.249645 0.501432 0.717006 0.879611 0.976136 0.998245 0.943187 0.814193 0.620420 0.376406 0.101075 0.183670 0.454660 0.689330 0.867644 0.973854 0.997997 0.936917 0.794762 0.582844 0.318862 0.025530 0.271320 0.544983 0.770274 0.925927 0.996656 0.974792 0.861222 0.665566 0.405504 0.105311 0.206328 0.499008 0.743565 0.915045 0.995335 0.975193 0.855464 0.647270 0.371150 0.055165 0.267851 0.563669 0.800292 0.951491 0.999823 0.938793 0.773876 0.522229 0.211082 0.125071 0.448228 0.721155 0.911723 0.996798 0.965211 0.819392 0.575445 0.261566 0.085060 0.422563 0.709427 0.909633 0.997309 0.960239 0.801758 0.540732 0.209513 0.149890 0.491048 0.769097 0.946712 0.999247 0.918367 0.713575 0.411351 0.051957 0.315778 0.641029 0.878015 0.992576 0.967274 0.804294 0.525594 0.170203 0.211044 0.562681 0.832669 0.980206 0.982081 0.836578 0.564240 0.205244 0.186296 0.550360 0.830222 0.981379 0.978851 0.821563 0.533074 0.158336 0.243057 0.606258 0.871609 0.994608 0.953592 0.753854 0.427359 0.027916 0.377438 0.719632 0.939384 0.997628 0.882782 0.613345 0.235294 0.185464 0.574435 0.861688 0.994573 0.947636 0.727843 0.373971 0.049882 0.465668 0.795711 0.977291 0.974821 0.787178 0.448610 0.022901 0.408400 0.761495 0.966655 0.982277 0.803662 0.464702 0.031869 0.408540 0.767471 0.971202 0.976749 0.781330 0.423722 0.022996 0.466070 0.812251 0.987489 0.953120 0.714788 0.322113 0.141231 0.575058
1.000000 1.000000 1.000000 1.000000 1.000000 1.000000 1.000000 1.000000 1.000000 1.000000 1.000000 1.000000 1.000000 1.000000 1.000000 1.000000 1.000000 1.000000 1.000000 1.000000 1.000000 1.000000 1.000000 1.000000 1.000000 1.000000 1.000000 1.000000 1.000000 1.000000 1.000000 1.000000 1.000000 1.000000 1.000000 1.000000 1.000000 1.000000 1.000000 1.000000 1.000000 1.000000 1.000000 1.000000 1.000000 1.000000 1.000000 1.000000 1.000000 1.000000 1.000000 1.000000 0.932968 0.932968 0.932968 0.932968 0.932968 0.932968 0.932968 0.932968 0.932968 0.932968 0.932968 0.932968 0.932968 0.932968 0.932968 0.932968 0.932968 0.932968 0.932968 0.932968 0.932968 0.932968 0.932968 0.932968 0.932968 0.932968 0.932968 0.932968 0.932968 0.932968 0.932968 0.932968 0.932968 0.922343 0.923830 0.926810 0.927885 0.927845 0.927386 0.927068 0.927284 0.929000 0.931322 0.947943 0.950122 0.950694 0.951988 0.952230 0.954751 0.952999 0.952792 0.963355 0.962162 0.962868 0.955896 0.957486 0.956562 0.955628 0.956140 0.956394 0.954453 0.952296 0.950600 0.949957 0.949581 0.951350 0.951827 0.951787 0.953264 0.953224 0.952944 0.949571 0.948155 0.949628 0.951678 0.950830 0.956541 0.956368 0.964405 0.965188 0.963771 0.963677 0.963875 0.964072 0.953630 0.947185 0.941689 0.929930 0.920664 0.918543 0.921449 0.923417 0.922444 0.917841 0.916764 0.914213 0.908765 0.907899 0.907473 0.909083 0.904912 0.901255 0.884863 0.884064 0.886558 0.886157 0.884035 0.875623 0.870675 0.871393 0.874474 0.871963 0.868390 0.884527 0.879255 0.884244 0.887368 0.890638 0.894648 0.891093 0.890108 0.886314 0.882613 0.877103 0.878311 0.869399 0.872155 0.867807 0.859067 0.851928 0.854970 0.864349 0.872515 0.880879 0.879973 0.880066 0.879237 0.871018 0.871745 0.864014 0.864971 0.870048 0.875996 0.871973 0.869529 0.873784 0.871837 0.874182 0.876893 0.872783 0.870853 0.862185 0.862452 0.863743 0.880795 0.880017 0.868089 0.860366 0.852002 0.859081 0.862532 0.861693 0.863443 0.854864 0.856665 0.846625 0.834129 0.836215 0.840896 0.835277 0.836152 0.833942 0.837405 0.839526 0.837916 0.833707 0.832759 0.838574 0.817589 0.824594 0.827596 0.821878 0.826037 0.818881 0.812502 0.807729 0.807668 0.803506 0.815430 0.813481 0.781370 0.771225 0.779185 0.760173 0.751172 0.747807 0.748734 0.725498 0.706377 0.678325 0.672737 0.661071 0.664516 0.668136 0.659140 0.649382 0.635955 0.624318 0.638122 0.641526 0.606688 0.606629 0.600389 0.595948 0.591264 0.588513 0.584519 0.593874 0.599965 0.563046 0.558640 0.565694 0.541749 0.539275 0.536000 0.528901 0.501846 0.509260 0.504148 0.521312 0.553424 0.517016 0.510240 0.521567 0.534862 0.546441 0.546855 0.531840 0.511091 0.523674 0.497937 0.484257 0.500556 0.510995 0.501003 0.517516 0.505277 0.538108 0.531020 0.511853 0.536930 0.552485 0.552541 0.541626 0.553901 0.535219 0.538245 0.527208 0.475128 0.486666 0.468989 0.415120 0.415780 0.435776 0.423436 0.422940 0.395848 0.396885 0.373159 0.336976 0.347282 0.342306 0.307562 0.267308 0.268908 0.270939 0.239058 0.210908 0.231627 0.180663 0.172707 0.192426 0.203161 0.194358 0.192722 0.213872 0.213872 0.213872 0.213872 0.213872 0.213872 0.213872 0.213872 0.213872 0.213872 0.213872 0.213872 0.213872 0.213872 0.239794 0.239794 0.239794 0.239794 0.239794 0.239794 0.239794 0.239794 0.239794 0.239794 0.239794 0.239794
0.000000 0.000000 0.000000 0.000000 0.000000 0.000000 0.000000 0.000000 0.000000 0.000000 0.000000 0.000000 0.000000 0.000000 0.000000 0.000000 0.000000 0.000000 0.000000 0.000000 0.000000 0.000000 0.000000 0.000000 0.000000 0.000000 0.000000 0.000000 0.000000 0.000000 0.000000 0.000000 0.000000 0.000000 0.000000 0.000000 0.000000 0.000000 0.000000 0.000000 0.000000 0.000000 0.000000 0.000000 0.000000 0.000000 0.000000 0.000000 0.000000 0.000000 0.000000 0.000000 0.209657 0.209657 0.209657 0.209657 0.209657 0.209657 0.209657 0.209657 0.209657 0.209657 0.209657 0.209657 0.209657 0.209657 0.209657 0.209657 0.209657 0.209657 0.209657 0.209657 0.209657 0.209657 0.209657 0.209657 0.209657 0.209657 0.209657 0.209657 0.209657 0.209657 0.209657 0.209657 0.209657 0.244339 0.244339 0.244339 0.244339 0.244339 0.244339 0.244339 0.244339 0.244339 0.244339 0.244339 0.244339 0.244339 0.244339 0.244339 0.244339 0.244339 0.244339 0.244339 0.244339 0.244339 0.244339 0.244339 0.244339 0.244339 0.260378 0.260378 0.260378 0.260378 0.260378 0.260378 0.260378 0.260378 0.260378 0.260378 0.260378 0.260378 0.260378 0.260378 0.260378 0.260378 0.260378 0.260378 0.260378 0.260378 0.269680 0.269680 0.269680 0.269680 0.269680 0.269680 0.269680 0.269680 0.269680 0.269680 0.269680 0.269680 0.269680 0.269680 0.269680 0.269680 0.269680 0.269680 0.269680 0.269680 0.269680 0.269680 0.269680 0.269680 0.269680 0.269680 0.269680 0.269680 0.269680 0.269680 0.269680 0.269680 0.269680 0.280056 0.280056 0.280056 0.280056 0.280056 0.280056 0.280056 0.280056 0.280056 0.280056 0.280056 0.280056 0.280056 0.280056 0.280056 0.280056 0.280056 0.280056 0.280056 0.280056 0.280056 0.280056 0.280056 0.280056 0.280056 0.280056 0.280056 0.274721 0.274721 0.274721 0.274721 0.274721 0.274721 0.274721 0.274721 0.274721 0.274721 0.274721 0.274721 0.274721 0.285714 0.285714 0.285714 0.285714 0.285714 0.285714 0.285714 0.285714 0.285714 0.285714 0.285714 0.280056 0.280056 0.280056 0.280056 0.280056 0.280056 0.280056 0.280056 0.280056 0.280056 0.280056 0.274721 0.274721 0.274721 0.274721 0.274721 0.274721 0.274721 0.274721 0.274721 0.274721 0.274721 0.280056 0.280056 0.280056 0.280056 0.280056 0.280056 0.280056 0.280056 0.280056 0.280056 0.285714 0.285714 0.285714 0.285714 0.285714 0.285714 0.285714 0.285714 0.285714 0.269680 0.269680 0.269680 0.269680 0.269680 0.269680 0.269680 0.269680 0.269680 0.269680 0.274721 0.274721 0.274721 0.274721 0.274721 0.274721 0.274721 0.274721 0.274721 0.285714 0.285714 0.285714 0.285714 0.285714 0.285714 0.285714 0.285714 0.264906 0.264906 0.264906 0.264906 0.264906 0.264906 0.264906 0.264906 0.264906 0.274721 0.274721 0.274721 0.274721 0.274721 0.274721 0.274721 0.274721 0.269680 0.269680 0.269680 0.269680 0.269680 0.269680 0.269680 0.269680 0.269680 0.269680 0.269680 0.269680 0.269680 0.269680 0.269680 0.269680 0.280056 0.280056 0.280056 0.280056 0.280056 0.280056 0.280056 0.260378 0.260378 0.260378 0.260378 0.260378 0.260378 0.260378 0.260378 0.269680 0.269680 0.269680 0.269680 0.269680 0.269680 0.269680 0.264906 0.264906 0.264906 0.264906 0.264906 0.264906 0.264906 0.264906 0.264906 0.264906 0.264906 0.264906 0.264906 0.264906 0.260378 0.260378 0.260378 0.260378 0.260378 0.260378 0.260378 0.260378 0.260378 0.260378 0.260378 0.260378
