# Output from CTFFind version 4.1.9, run on 2019-11-02 17:43:00
# Input file: stack1_bm3d_averaged_1_0.5_0_50_half.mrc ; Number of micrographs: 1
# Pixel size: 3.000 Angstroms ; acceleration voltage: 300.0 keV ; spherical aberration: 0.00 mm ; amplitude contrast: 0.07
# Box size: 512 pixels ; min. res.: 30.0 Angstroms ; max. res.: 5.0 Angstroms ; min. def.: 5000.0 um; max. def. 50000.0 um; num. frames averaged: 1
# 6 lines per micrograph: #1 - spatial frequency (1/Angstroms); #2 - 1D rotational average of spectrum (assuming no astigmatism); #3 - 1D rotational average of spectrum; #4 - CTF fit; #5 - cross-correlation between spectrum and CTF fit; #6 - 2sigma of expected cross correlation of noise
0.000000 0.000651 0.001302 0.001953 0.002604 0.003255 0.003906 0.004557 0.005208 0.005859 0.006510 0.007161 0.007812 0.008464 0.009115 0.009766 0.010417 0.011068 0.011719 0.012370 0.013021 0.013672 0.014323 0.014974 0.015625 0.016276 0.016927 0.017578 0.018229 0.018880 0.019531 0.020182 0.020833 0.021484 0.022135 0.022786 0.023438 0.024089 0.024740 0.025391 0.026042 0.026693 0.027344 0.027995 0.028646 0.029297 0.029948 0.030599 0.031250 0.031901 0.032552 0.033203 0.033854 0.034505 0.035156 0.035807 0.036458 0.037109 0.037760 0.038411 0.039062 0.039714 0.040365 0.041016 0.041667 0.042318 0.042969 0.043620 0.044271 0.044922 0.045573 0.046224 0.046875 0.047526 0.048177 0.048828 0.049479 0.050130 0.050781 0.051432 0.052083 0.052734 0.053385 0.054036 0.054688 0.055339 0.055990 0.056641 0.057292 0.057943 0.058594 0.059245 0.059896 0.060547 0.061198 0.061849 0.062500 0.063151 0.063802 0.064453 0.065104 0.065755 0.066406 0.067057 0.067708 0.068359 0.069010 0.069661 0.070312 0.070964 0.071615 0.072266 0.072917 0.073568 0.074219 0.074870 0.075521 0.076172 0.076823 0.077474 0.078125 0.078776 0.079427 0.080078 0.080729 0.081380 0.082031 0.082682 0.083333 0.083984 0.084635 0.085286 0.085938 0.086589 0.087240 0.087891 0.088542 0.089193 0.089844 0.090495 0.091146 0.091797 0.092448 0.093099 0.093750 0.094401 0.095052 0.095703 0.096354 0.097005 0.097656 0.098307 0.098958 0.099609 0.100260 0.100911 0.101562 0.102214 0.102865 0.103516 0.104167 0.104818 0.105469 0.106120 0.106771 0.107422 0.108073 0.108724 0.109375 0.110026 0.110677 0.111328 0.111979 0.112630 0.113281 0.113932 0.114583 0.115234 0.115885 0.116536 0.117188 0.117839 0.118490 0.119141 0.119792 0.120443 0.121094 0.121745 0.122396 0.123047 0.123698 0.124349 0.125000 0.125651 0.126302 0.126953 0.127604 0.128255 0.128906 0.129557 0.130208 0.130859 0.131510 0.132161 0.132812 0.133464 0.134115 0.134766 0.135417 0.136068 0.136719 0.137370 0.138021 0.138672 0.139323 0.139974 0.140625 0.141276 0.141927 0.142578 0.143229 0.143880 0.144531 0.145182 0.145833 0.146484 0.147135 0.147786 0.148438 0.149089 0.149740 0.150391 0.151042 0.151693 0.152344 0.152995 0.153646 0.154297 0.154948 0.155599 0.156250 0.156901 0.157552 0.158203 0.158854 0.159505 0.160156 0.160807 0.161458 0.162109 0.162760 0.163411 0.164062 0.164714 0.165365 0.166016 0.166667 0.167318 0.167969 0.168620 0.169271 0.169922 0.170573 0.171224 0.171875 0.172526 0.173177 0.173828 0.174479 0.175130 0.175781 0.176432 0.177083 0.177734 0.178385 0.179036 0.179688 0.180339 0.180990 0.181641 0.182292 0.182943 0.183594 0.184245 0.184896 0.185547 0.186198 0.186849 0.187500 0.188151 0.188802 0.189453 0.190104 0.190755 0.191406 0.192057 0.192708 0.193359 0.194010 0.194661 0.195312 0.195964 0.196615 0.197266 0.197917 0.198568 0.199219 0.199870 0.200521 0.201172 0.201823 0.202474 0.203125 0.203776 0.204427 0.205078 0.205729 0.206380 0.207031 0.207682 0.208333 0.208984 0.209635 0.210286 0.210938 0.211589 0.212240 0.212891 0.213542 0.214193 0.214844 0.215495 0.216146 0.216797 0.217448 0.218099 0.218750 0.219401 0.220052 0.220703 0.221354 0.222005 0.222656 0.223307 0.223958 0.224609 0.225260 0.225911 0.226562 0.227214 0.227865 0.228516 0.229167 0.229818 0.230469 0.231120 0.231771 0.232422 0.233073 0.233724 0.234375 0.235026 0.235677
       0.33185        0.33185        0.33185        0.33185        0.33185        0.33185        0.33185        0.33185        0.33185        0.33185        0.33185        0.33185        0.33185        0.33185        0.33185        0.33185        0.33185        0.33185        0.33185        0.33185        0.33185        0.33185        0.33185        0.33185        0.33185        0.33185        0.33185        0.33185        0.33185        0.33185        0.33185        0.33185        0.33185        0.33185        0.33185        0.33185        0.33185        0.33185        0.33185        0.33185        0.33185        0.33185        0.33185        0.33185        0.33185        0.33185        0.33185        0.33185        0.33185        0.33185        0.33185        0.50270        0.71906        0.43001        0.18763       -0.08246       -0.25912       -0.06759       -0.13467       -0.04951       -0.00538       -0.14942       -0.09043       -0.05844       -0.00667       -0.15555       -0.22408       -0.34941       -0.45977       -0.55260       -0.51311       -0.44252       -0.37013       -0.54401       -0.45259       -0.62244       -0.50508       -0.47408       -0.38931       -0.39006       -0.33954       -0.25435       -0.16216       -0.14119        0.03123       -0.01446        0.11683        0.16210        0.30683        0.41196        0.46071        0.50135        0.54307        0.55118        0.68408        0.64177        0.67428        0.58968        0.55430        0.65092        0.52635        0.42283        0.37946        0.32126        0.22859        0.25857        0.25001        0.10503        0.08088        0.00037       -0.00310        0.04138       -0.00919        0.07221        0.10533        0.23260        0.28454        0.29704        0.37583        0.56271        0.53142        0.57900        0.66535        0.70390        0.62944        0.63842        0.63132        0.55950        0.57530        0.40266        0.34339        0.26268        0.18385        0.07431        0.14285        0.11790        0.09084        0.10408        0.20776        0.21408        0.31724        0.36270        0.41075        0.49200        0.58098        0.54281        0.55699        0.60347        0.53281        0.45812        0.48457        0.33055        0.24358        0.26021        0.23769        0.14112        0.14153        0.15461        0.21757        0.23732        0.33130        0.36475        0.38771        0.46735        0.44294        0.48263        0.45266        0.46685        0.44896        0.40922        0.38561        0.35110        0.31374        0.29429        0.20358        0.18791        0.21732        0.26553        0.26596        0.34739        0.37186        0.35725        0.41205        0.44559        0.43988        0.42635        0.44503        0.38388        0.33542        0.28252        0.25743        0.29307        0.26604        0.29240        0.29989        0.34158        0.34143        0.39056        0.40357        0.43144        0.40736        0.43612        0.40034        0.35522        0.27976        0.29087        0.30630        0.26757        0.25244        0.31982        0.36945        0.34070        0.35083        0.35918        0.35883        0.40982        0.40839        0.36430        0.33687        0.30262        0.31256        0.31765        0.31890        0.30062        0.27861        0.33650        0.35973        0.37970        0.33255        0.32801        0.33601        0.34571        0.31058        0.28411        0.30034        0.30737        0.33888        0.31587        0.32295        0.35760        0.32555        0.31453        0.32378        0.29912        0.26548        0.25672        0.26623        0.30980        0.32194        0.35397        0.30336        0.30641        0.32647        0.29436        0.31350        0.28338        0.28326        0.29185        0.29227        0.30508        0.34358        0.33455        0.33204        0.34150        0.31353        0.33766        0.32060        0.32025        0.30760        0.28042        0.29057        0.30243        0.29267        0.32399        0.33084        0.33059        0.32965        0.34114        0.32152        0.28302        0.24617        0.26280        0.32690        0.35091        0.33733        0.30907        0.28920        0.29159        0.30836        0.25187        0.30081        0.31474        0.34377        0.29754        0.30481        0.28325        0.33256        0.33550        0.33843        0.31057        0.29201        0.31588        0.39693        0.32172        0.30626        0.31822        0.28307        0.28187        0.30622        0.27594        0.32627        0.23128        0.26840        0.29927        0.31238        0.29440        0.25746        0.28970        0.24273        0.22125        0.26521        0.29630        0.30925        0.27124        0.27928        0.32908        0.26452        0.22616        0.29800        0.26694        0.26352        0.28409        0.38281        0.29091        0.28510        0.25206        0.24460        0.27240        0.25500        0.24039        0.18426        0.26528        0.23414        0.24482        0.31692        0.25538        0.36090        0.31435        0.22386        0.21410        0.20789        0.23354        0.33033        0.23941        0.13868        0.17807        0.22364        0.24214        0.23748        0.19544        0.02022       -0.47716       -0.96371
2.667642 2.639432 2.611374 2.583467 2.555712 2.528108 2.500655 2.473354 2.446205 2.419207 2.392360 2.365664 2.339120 2.312728 2.286487 2.260397 2.234459 2.208672 2.183037 2.157553 2.132220 2.107039 2.082010 2.057131 2.032405 2.007829 1.983405 1.959133 1.935012 1.911042 1.887224 1.863557 1.840041 1.816677 1.793465 1.770404 1.747494 1.724736 1.702129 1.679674 1.657370 1.635217 1.613216 1.591366 1.569668 1.548121 1.526726 1.505482 1.484389 1.463448 1.442658 1.513150 1.813062 1.513513 1.144218 0.928011 0.541335 0.903982 0.624097 0.869267 0.914115 0.580784 0.706773 0.760727 0.807127 0.619697 0.526582 0.340159 0.102112 0.082127 0.047131 0.088384 0.300021 -0.036295 0.077836 -0.137228 -0.016294 -0.017835 0.082817 0.048740 0.102921 0.168274 0.275693 0.241285 0.474087 0.389450 0.540280 0.514420 0.758033 0.785219 0.867355 0.916352 0.932010 0.937558 1.068817 0.967105 1.125992 0.931586 0.842753 1.001842 0.837800 0.743413 0.607560 0.585669 0.456270 0.403001 0.503212 0.259975 0.189666 0.152315 0.014043 0.212822 -0.006487 0.108754 0.182404 0.258956 0.330025 0.335477 0.415475 0.537149 0.647713 0.535178 0.724322 0.868426 0.633985 0.689045 0.660908 0.591579 0.529521 0.466476 0.294303 0.208271 0.112476 -0.042019 -0.021721 0.054231 -0.101180 -0.058614 0.046489 0.050358 0.108209 0.221664 0.235373 0.306003 0.427550 0.425814 0.440079 0.475130 0.433850 0.311537 0.334856 0.245160 0.038365 0.060944 0.020086 -0.064548 -0.094211 -0.104972 -0.013862 -0.066297 0.065248 0.123541 0.119664 0.249792 0.219072 0.239204 0.286702 0.249430 0.242224 0.205614 0.178595 0.105309 0.099743 0.032639 0.013867 -0.128627 -0.060466 -0.005093 0.001495 0.013448 0.094071 0.079877 0.129534 0.181225 0.246186 0.162943 0.191984 0.113864 0.147350 0.012481 -0.030320 0.014414 -0.016729 -0.012296 -0.005206 0.029703 0.069653 0.056169 0.135941 0.120463 0.153136 0.069586 0.149925 0.081521 -0.018069 -0.058185 -0.017809 -0.033962 -0.082623 -0.064892 0.038156 0.066542 -0.011864 0.052279 0.058532 0.072730 0.146847 0.076377 0.063635 0.036877 -0.026721 0.029654 0.004649 0.012615 0.004383 -0.016528 0.045743 0.064203 0.071240 0.028495 0.045917 0.017743 0.067575 -0.007560 -0.018848 0.014603 0.007023 0.064137 0.026512 0.036482 0.073287 0.027199 0.014270 0.029400 -0.003587 -0.038233 -0.025112 -0.028399 0.029079 0.046559 0.096113 0.005535 0.046462 0.066906 -0.005225 0.066483 0.018254 0.021662 0.046645 0.047792 0.046720 0.103991 0.072104 0.079054 0.082991 0.090612 0.075404 0.070085 0.085696 0.032540 0.000606 0.044459 0.029246 0.063361 0.059062 0.091387 -0.002335 0.072505 0.065158 0.011234 0.016528 -0.078993 -0.028813 0.100021 0.065234 0.043132 0.026632 -0.027339 0.028610 0.016188 -0.060175 0.041628 0.052271 0.074390 0.025286 -0.001716 -0.001966 0.045264 0.045839 0.020396 0.031349 -0.032340 0.063424 0.117023 0.006680 -0.011102 0.015444 -0.028919 -0.027964 -0.007845 -0.047242 0.023898 -0.104093 -0.028871 -0.024653 0.020305 -0.033936 -0.062596 -0.001924 -0.059213 -0.060654 -0.055194 0.042041 0.014465 0.001841 -0.004168 0.078872 -0.036251 -0.038056 0.029363 -0.017423 0.030590 0.007448 0.179108 -0.008873 0.005613 0.036599 -0.024234 -0.002701 -0.002750 -0.016262 -0.136490 0.026700 -0.031028 -0.000813 0.038402 -0.027198 0.155031 0.048829 -0.018954 -0.103932 -0.032802 -0.074034 0.102059 0.283260 0.158374 0.223627 0.203715 0.333551 0.267238 0.224055 0.026388 -1.120421
0.072396 0.072910 0.074450 0.077017 0.080611 0.085229 0.090871 0.097535 0.105219 0.113919 0.123633 0.134356 0.146082 0.158804 0.172514 0.187203 0.202858 0.219467 0.237013 0.255478 0.274840 0.295075 0.316156 0.338052 0.360727 0.384141 0.408251 0.433009 0.458359 0.484243 0.510596 0.537346 0.564416 0.591724 0.619177 0.646679 0.674126 0.701407 0.728403 0.754988 0.781030 0.806389 0.830920 0.854468 0.876875 0.897977 0.917602 0.935578 0.951725 0.965863 0.977808 0.987377 0.994385 0.998650 0.999995 0.998245 0.993231 0.984796 0.972789 0.957075 0.937530 0.914049 0.886546 0.854953 0.819230 0.779360 0.735355 0.687258 0.635144 0.579123 0.519342 0.455985 0.389277 0.319484 0.246913 0.171913 0.094878 0.016239 0.063528 0.143911 0.224356 0.304280 0.383066 0.460069 0.534624 0.606048 0.673646 0.736723 0.794583 0.846544 0.891944 0.930152 0.960573 0.982662 0.995935 0.999975 0.994443 0.979092 0.953771 0.918435 0.873155 0.818125 0.753662 0.680218 0.598376 0.508858 0.412514 0.310326 0.203402 0.092961 0.019668 0.133068 0.245746 0.356149 0.462691 0.563769 0.657794 0.743213 0.818539 0.882380 0.933467 0.970682 0.993091 0.999964 0.990805 0.965373 0.923700 0.866104 0.793205 0.705921 0.605474 0.493379 0.371431 0.241682 0.106416 0.031887 0.170594 0.306966 0.438207 0.561529 0.674208 0.773650 0.857453 0.923478 0.969902 0.995284 0.998613 0.979356 0.937492 0.873538 0.788561 0.684179 0.562545 0.426313 0.278601 0.122918 0.036898 0.196781 0.352527 0.499911 0.634801 0.753281 0.851769 0.927137 0.976822 0.998928 0.992307 0.956633 0.892438 0.801139 0.685028 0.547237 0.391669 0.222913 0.046112 0.133178 0.309159 0.475974 0.627909 0.759592 0.866195 0.943626 0.988702 0.999298 0.974470 0.914531 0.821089 0.697035 0.546486 0.374672 0.187771 0.007288 0.203076 0.391938 0.566298 0.718962 0.843430 0.934195 0.987001 0.999075 0.969293 0.898290 0.788493 0.644077 0.470845 0.276020 0.067972 0.144130 0.350703 0.542187 0.709498 0.844463 0.940251 0.991743 0.995838 0.951670 0.860730 0.726865 0.556162 0.356711 0.138257 0.088259 0.311221 0.518942 0.700271 0.845217 0.945522 0.995168 0.990775 0.931875 0.821026 0.663758 0.468356 0.245461 0.007534 0.231831 0.458655 0.659409 0.821828 0.935696 0.993517 0.991070 0.927756 0.806746 0.634888 0.422382 0.182229 0.070539 0.319761 0.549184 0.743525 0.889521 0.976869 0.999009 0.953671 0.843153 0.674290 0.458098 0.209120 0.055501 0.317193 0.557222 0.758059 0.904693 0.985791 0.994638 0.929764 0.795194 0.600278 0.359138 0.089689 0.187640 0.451418 0.680890 0.857624 0.967035 0.999656 0.952033 0.827163 0.634403 0.388870 0.110316 0.178393 0.453133 0.690537 0.870006 0.975553 0.997302 0.932491 0.785899 0.569597 0.302062 0.006662 0.290317 0.562009 0.783384 0.933625 0.998137 0.970060 0.851100 0.651567 0.389592 0.089578 0.220006 0.509299 0.749926 0.917822 0.995716 0.975001 0.856796 0.652061 0.380688 0.069694 0.249404 0.543763 0.782576 0.940364 0.999776 0.953604 0.805779 0.571198 0.274346 0.053151 0.375832 0.658211 0.868721 0.983306 0.988279 0.882086 0.675747 0.391860 0.062257 0.275478 0.582257 0.822019 0.966036 0.996463 0.908690 0.712160 0.429537 0.094215 0.253499 0.571211 0.819588 0.967319 0.995162 0.898608 0.688741 0.391159 0.042987 0.311642 0.627139 0.862331 0.985933 0.980833 0.846628 0.600015 0.272881 0.091642 0.444812 0.738728 0.932916 0.999992
1.000000 1.000000 1.000000 1.000000 1.000000 1.000000 1.000000 1.000000 1.000000 1.000000 1.000000 1.000000 1.000000 1.000000 1.000000 1.000000 1.000000 1.000000 1.000000 1.000000 1.000000 1.000000 1.000000 1.000000 1.000000 1.000000 1.000000 1.000000 1.000000 1.000000 1.000000 1.000000 1.000000 1.000000 1.000000 1.000000 1.000000 1.000000 1.000000 1.000000 1.000000 1.000000 1.000000 1.000000 1.000000 1.000000 1.000000 1.000000 1.000000 1.000000 1.000000 1.000000 0.920146 0.920146 0.906772 0.906772 0.906772 0.906772 0.906772 0.906772 0.906772 0.906772 0.906772 0.906772 0.906772 0.906772 0.906772 0.906772 0.906772 0.906772 0.906772 0.906772 0.906772 0.906772 0.906772 0.906772 0.906772 0.906772 0.906772 0.906772 0.906772 0.906772 0.906772 0.906772 0.906772 0.906772 0.906772 0.906772 0.906772 0.906772 0.906772 0.906772 0.906772 0.906772 0.906772 0.904129 0.908615 0.910438 0.908639 0.912212 0.912303 0.911607 0.911930 0.911550 0.911819 0.913170 0.923737 0.934848 0.946010 0.946127 0.951207 0.955648 0.957944 0.958995 0.960522 0.966676 0.965474 0.964895 0.965626 0.967282 0.969566 0.968076 0.967954 0.971049 0.971808 0.969981 0.967994 0.967356 0.966747 0.966462 0.966028 0.966180 0.966090 0.966720 0.966952 0.967191 0.967327 0.967352 0.968375 0.969529 0.971729 0.972689 0.972443 0.971190 0.969048 0.973079 0.973853 0.973480 0.973357 0.972803 0.973124 0.960582 0.955973 0.955935 0.951789 0.951014 0.948753 0.946447 0.943287 0.943228 0.942598 0.943396 0.938606 0.926354 0.912579 0.900404 0.922522 0.907379 0.894846 0.872806 0.873011 0.873489 0.874173 0.869175 0.861993 0.858105 0.855015 0.856287 0.852269 0.854280 0.852063 0.842731 0.844968 0.843593 0.816795 0.799681 0.781675 0.781666 0.779584 0.780894 0.780889 0.780350 0.788282 0.778126 0.777003 0.769406 0.751166 0.712723 0.699891 0.709548 0.718900 0.715695 0.712194 0.696837 0.660271 0.671111 0.691976 0.693417 0.696534 0.686703 0.677468 0.676757 0.679997 0.668926 0.658701 0.657193 0.655094 0.664448 0.668845 0.668313 0.656124 0.639891 0.626411 0.614488 0.625425 0.634291 0.600681 0.595086 0.579786 0.571009 0.554866 0.535138 0.531574 0.506155 0.497886 0.503172 0.508745 0.511999 0.520163 0.522261 0.503600 0.522049 0.533070 0.558297 0.539366 0.539993 0.539963 0.543162 0.531012 0.514390 0.512167 0.512894 0.522412 0.545624 0.585989 0.571222 0.558520 0.547073 0.554785 0.518111 0.521143 0.543112 0.520801 0.464781 0.400613 0.398002 0.360111 0.361989 0.341009 0.335706 0.336736 0.330569 0.320884 0.307653 0.293487 0.231983 0.192504 0.176549 0.163074 0.157925 0.174207 0.173713 0.166611 0.183328 0.230840 0.234045 0.226364 0.189489 0.183105 0.156247 0.155014 0.180255 0.135964 0.125330 0.116581 0.091435 0.067389 0.017930 0.039900 -0.048651 -0.070128 -0.076798 -0.055854 -0.044107 -0.045580 -0.044804 -0.080412 -0.069970 -0.025802 -0.021857 -0.029810 -0.093917 -0.077293 -0.066996 -0.066731 -0.079970 -0.088482 -0.082118 -0.093109 -0.093916 -0.083717 -0.028020 0.033109 0.035808 0.022040 0.054466 0.054612 0.038386 0.053145 0.036058 0.037201 0.015784 0.009253 -0.031979 -0.065297 -0.065297 -0.063455 -0.063455 -0.063455 -0.063455 -0.063455 -0.063455 -0.063455 -0.063455 -0.063455 -0.065997 -0.065997 -0.065997 -0.065997 -0.065997 -0.065997 -0.065997 -0.065997 -0.065997 -0.034606 -0.034606 -0.034606 -0.034606 -0.034606 -0.034606 -0.034606 -0.034606 -0.034606
0.000000 0.000000 0.000000 0.000000 0.000000 0.000000 0.000000 0.000000 0.000000 0.000000 0.000000 0.000000 0.000000 0.000000 0.000000 0.000000 0.000000 0.000000 2.000000 0.000000 0.000000 0.000000 0.000000 0.000000 0.000000 0.000000 0.000000 0.000000 0.000000 0.000000 0.000000 0.000000 0.000000 0.000000 0.000000 0.000000 0.000000 0.000000 0.000000 0.000000 0.000000 0.000000 0.000000 0.000000 0.000000 0.000000 0.000000 0.000000 0.000000 0.000000 0.000000 0.000000 0.181818 0.181818 0.199007 0.199007 0.199007 0.199007 0.199007 0.199007 0.199007 0.199007 0.199007 0.199007 0.199007 0.199007 0.199007 0.199007 0.199007 0.199007 0.199007 0.199007 0.199007 0.199007 0.199007 0.199007 0.199007 0.199007 0.199007 0.199007 0.199007 0.199007 0.199007 0.199007 0.199007 0.199007 0.199007 0.199007 0.199007 0.199007 0.199007 0.199007 0.199007 0.199007 0.199007 0.230940 0.230940 0.230940 0.230940 0.230940 0.230940 0.230940 0.230940 0.230940 0.230940 0.230940 0.230940 0.230940 0.230940 0.230940 0.230940 0.230940 0.230940 0.230940 0.230940 0.230940 0.230940 0.230940 0.230940 0.230940 0.230940 0.230940 0.230940 0.244339 0.244339 0.244339 0.244339 0.244339 0.244339 0.244339 0.244339 0.244339 0.244339 0.244339 0.244339 0.244339 0.244339 0.244339 0.244339 0.244339 0.244339 0.244339 0.244339 0.244339 0.244339 0.244339 0.251976 0.251976 0.251976 0.251976 0.251976 0.251976 0.251976 0.251976 0.251976 0.251976 0.251976 0.251976 0.251976 0.251976 0.251976 0.251976 0.251976 0.251976 0.251976 0.251976 0.264906 0.264906 0.264906 0.264906 0.264906 0.264906 0.264906 0.264906 0.264906 0.264906 0.264906 0.264906 0.264906 0.264906 0.264906 0.264906 0.264906 0.264906 0.264906 0.264906 0.264906 0.264906 0.264906 0.264906 0.264906 0.264906 0.264906 0.264906 0.264906 0.264906 0.264906 0.264906 0.264906 0.264906 0.264906 0.264906 0.264906 0.264906 0.264906 0.264906 0.264906 0.264906 0.264906 0.264906 0.264906 0.264906 0.264906 0.264906 0.264906 0.264906 0.264906 0.264906 0.264906 0.264906 0.264906 0.264906 0.264906 0.264906 0.264906 0.264906 0.264906 0.264906 0.264906 0.264906 0.264906 0.264906 0.264906 0.264906 0.264906 0.264906 0.264906 0.264906 0.264906 0.264906 0.264906 0.269680 0.269680 0.269680 0.269680 0.269680 0.269680 0.269680 0.269680 0.269680 0.269680 0.269680 0.269680 0.264906 0.264906 0.264906 0.264906 0.264906 0.264906 0.264906 0.264906 0.264906 0.264906 0.264906 0.264906 0.269680 0.269680 0.269680 0.269680 0.269680 0.269680 0.269680 0.269680 0.269680 0.269680 0.269680 0.264906 0.264906 0.264906 0.264906 0.264906 0.264906 0.264906 0.264906 0.264906 0.264906 0.264906 0.256074 0.256074 0.256074 0.256074 0.256074 0.256074 0.256074 0.256074 0.256074 0.256074 0.256074 0.264906 0.264906 0.264906 0.264906 0.264906 0.264906 0.264906 0.264906 0.264906 0.264906 0.260378 0.260378 0.260378 0.260378 0.260378 0.260378 0.260378 0.260378 0.260378 0.260378 0.264906 0.264906 0.264906 0.264906 0.264906 0.264906 0.264906 0.264906 0.264906 0.260378 0.260378 0.260378 0.260378 0.260378 0.260378 0.260378 0.260378 0.260378 0.256074 0.256074 0.256074 0.256074 0.256074 0.256074 0.256074 0.256074 0.256074 0.251976 0.251976 0.251976 0.251976 0.251976 0.251976 0.251976 0.251976 0.251976 0.264906 0.264906 0.264906 0.264906 0.264906 0.264906 0.264906 0.264906 0.264906
