# Output from CTFFind version 4.1.9, run on 2019-11-03 20:02:16
# Input file: stack1_bm3d_averaged_1_6.0_0_50_half.mrc ; Number of micrographs: 1
# Pixel size: 3.000 Angstroms ; acceleration voltage: 300.0 keV ; spherical aberration: 0.00 mm ; amplitude contrast: 0.07
# Box size: 512 pixels ; min. res.: 30.0 Angstroms ; max. res.: 5.0 Angstroms ; min. def.: 5000.0 um; max. def. 50000.0 um; num. frames averaged: 1
# 6 lines per micrograph: #1 - spatial frequency (1/Angstroms); #2 - 1D rotational average of spectrum (assuming no astigmatism); #3 - 1D rotational average of spectrum; #4 - CTF fit; #5 - cross-correlation between spectrum and CTF fit; #6 - 2sigma of expected cross correlation of noise
0.000000 0.000651 0.001302 0.001953 0.002604 0.003255 0.003906 0.004557 0.005208 0.005859 0.006510 0.007161 0.007812 0.008464 0.009115 0.009766 0.010417 0.011068 0.011719 0.012370 0.013021 0.013672 0.014323 0.014974 0.015625 0.016276 0.016927 0.017578 0.018229 0.018880 0.019531 0.020182 0.020833 0.021484 0.022135 0.022786 0.023438 0.024089 0.024740 0.025391 0.026042 0.026693 0.027344 0.027995 0.028646 0.029297 0.029948 0.030599 0.031250 0.031901 0.032552 0.033203 0.033854 0.034505 0.035156 0.035807 0.036458 0.037109 0.037760 0.038411 0.039062 0.039714 0.040365 0.041016 0.041667 0.042318 0.042969 0.043620 0.044271 0.044922 0.045573 0.046224 0.046875 0.047526 0.048177 0.048828 0.049479 0.050130 0.050781 0.051432 0.052083 0.052734 0.053385 0.054036 0.054688 0.055339 0.055990 0.056641 0.057292 0.057943 0.058594 0.059245 0.059896 0.060547 0.061198 0.061849 0.062500 0.063151 0.063802 0.064453 0.065104 0.065755 0.066406 0.067057 0.067708 0.068359 0.069010 0.069661 0.070312 0.070964 0.071615 0.072266 0.072917 0.073568 0.074219 0.074870 0.075521 0.076172 0.076823 0.077474 0.078125 0.078776 0.079427 0.080078 0.080729 0.081380 0.082031 0.082682 0.083333 0.083984 0.084635 0.085286 0.085938 0.086589 0.087240 0.087891 0.088542 0.089193 0.089844 0.090495 0.091146 0.091797 0.092448 0.093099 0.093750 0.094401 0.095052 0.095703 0.096354 0.097005 0.097656 0.098307 0.098958 0.099609 0.100260 0.100911 0.101562 0.102214 0.102865 0.103516 0.104167 0.104818 0.105469 0.106120 0.106771 0.107422 0.108073 0.108724 0.109375 0.110026 0.110677 0.111328 0.111979 0.112630 0.113281 0.113932 0.114583 0.115234 0.115885 0.116536 0.117188 0.117839 0.118490 0.119141 0.119792 0.120443 0.121094 0.121745 0.122396 0.123047 0.123698 0.124349 0.125000 0.125651 0.126302 0.126953 0.127604 0.128255 0.128906 0.129557 0.130208 0.130859 0.131510 0.132161 0.132812 0.133464 0.134115 0.134766 0.135417 0.136068 0.136719 0.137370 0.138021 0.138672 0.139323 0.139974 0.140625 0.141276 0.141927 0.142578 0.143229 0.143880 0.144531 0.145182 0.145833 0.146484 0.147135 0.147786 0.148438 0.149089 0.149740 0.150391 0.151042 0.151693 0.152344 0.152995 0.153646 0.154297 0.154948 0.155599 0.156250 0.156901 0.157552 0.158203 0.158854 0.159505 0.160156 0.160807 0.161458 0.162109 0.162760 0.163411 0.164062 0.164714 0.165365 0.166016 0.166667 0.167318 0.167969 0.168620 0.169271 0.169922 0.170573 0.171224 0.171875 0.172526 0.173177 0.173828 0.174479 0.175130 0.175781 0.176432 0.177083 0.177734 0.178385 0.179036 0.179688 0.180339 0.180990 0.181641 0.182292 0.182943 0.183594 0.184245 0.184896 0.185547 0.186198 0.186849 0.187500 0.188151 0.188802 0.189453 0.190104 0.190755 0.191406 0.192057 0.192708 0.193359 0.194010 0.194661 0.195312 0.195964 0.196615 0.197266 0.197917 0.198568 0.199219 0.199870 0.200521 0.201172 0.201823 0.202474 0.203125 0.203776 0.204427 0.205078 0.205729 0.206380 0.207031 0.207682 0.208333 0.208984 0.209635 0.210286 0.210938 0.211589 0.212240 0.212891 0.213542 0.214193 0.214844 0.215495 0.216146 0.216797 0.217448 0.218099 0.218750 0.219401 0.220052 0.220703 0.221354 0.222005 0.222656 0.223307 0.223958 0.224609 0.225260 0.225911 0.226562 0.227214 0.227865 0.228516 0.229167 0.229818 0.230469 0.231120 0.231771 0.232422 0.233073 0.233724 0.234375 0.235026 0.235677
       0.34967        0.34967        0.34967        0.34967        0.34967        0.34967        0.34967        0.34967        0.34967        0.34967        0.34967        0.34967        0.34967        0.34967        0.34967        0.34967        0.34967        0.34967        0.34967        0.34967        0.34967        0.34967        0.34967        0.34967        0.34967        0.34967        0.34967        0.34967        0.34967        0.34967        0.34967        0.34967        0.34967        0.34967        0.34967        0.34967        0.34967        0.34967        0.34967        0.34967        0.34967        0.34967        0.34967        0.34967        0.34967        0.34967        0.34967        0.34967        0.34967        0.34967        0.34967        0.37061        0.53290        0.24578        0.09548       -0.00372       -0.26896       -0.10652       -0.16997       -0.22149        0.01358       -0.13950       -0.08869       -0.05865       -0.04295       -0.12762       -0.15600       -0.27194       -0.34357       -0.45793       -0.39354       -0.29199       -0.24253       -0.34412       -0.26123       -0.33716       -0.29827       -0.32916       -0.15652       -0.16203       -0.22362       -0.05355        0.00414       -0.03609        0.08085        0.03117        0.21920        0.24000        0.34167        0.35819        0.41175        0.45077        0.52090        0.57955        0.60842        0.53121        0.49964        0.51057        0.46656        0.54579        0.46682        0.41742        0.41173        0.34350        0.29712        0.31091        0.33657        0.23292        0.19635        0.11860        0.14498        0.15280        0.18611        0.15316        0.21991        0.26749        0.31506        0.30071        0.36609        0.46736        0.40261        0.48865        0.61728        0.58846        0.53250        0.55482        0.59447        0.42121        0.48918        0.38440        0.31866        0.29627        0.27336        0.25544        0.18478        0.18123        0.14484        0.21436        0.26208        0.28817        0.34916        0.31337        0.41709        0.45236        0.46536        0.46897        0.49278        0.53249        0.47997        0.44727        0.41635        0.34223        0.33610        0.30046        0.31791        0.24967        0.23679        0.27005        0.24885        0.27188        0.33046        0.43372        0.43725        0.43006        0.41647        0.48776        0.48350        0.47157        0.45763        0.38173        0.37790        0.40945        0.37823        0.31012        0.29243        0.32680        0.29412        0.30550        0.29576        0.32221        0.36146        0.38720        0.44949        0.47046        0.37623        0.44950        0.42998        0.37091        0.30553        0.36320        0.32437        0.31222        0.33443        0.27234        0.26470        0.32160        0.33975        0.44428        0.41772        0.37860        0.38624        0.41997        0.36216        0.36255        0.33635        0.33690        0.30594        0.29976        0.29805        0.36181        0.37355        0.34566        0.35182        0.40414        0.40240        0.46052        0.41001        0.35631        0.34622        0.35277        0.33508        0.32104        0.34467        0.39323        0.35675        0.36348        0.33610        0.43860        0.37365        0.35138        0.34223        0.37870        0.37821        0.32780        0.32698        0.29648        0.31729        0.33590        0.31225        0.32998        0.34626        0.36145        0.34637        0.34117        0.30374        0.30159        0.28954        0.33707        0.32584        0.35590        0.31938        0.34835        0.36029        0.33822        0.33308        0.31457        0.28668        0.33186        0.32269        0.33050        0.32204        0.31934        0.32700        0.32254        0.33980        0.34945        0.36303        0.34195        0.29391        0.33265        0.31337        0.33599        0.33553        0.27170        0.32233        0.30020        0.33115        0.32075        0.38820        0.33627        0.30854        0.26890        0.30821        0.38204        0.35529        0.32490        0.33656        0.31417        0.32494        0.33034        0.33130        0.29635        0.31671        0.26606        0.27648        0.31062        0.30107        0.30180        0.31581        0.23673        0.30744        0.34325        0.36110        0.35216        0.32146        0.31826        0.29384        0.31063        0.31300        0.27400        0.31065        0.28225        0.31208        0.33227        0.37219        0.35734        0.29304        0.28713        0.33864        0.31911        0.31754        0.34893        0.35845        0.28010        0.29131        0.32393        0.31748        0.25600        0.21080        0.22863        0.27293        0.30587        0.30985        0.27298        0.32893        0.29380        0.25255        0.27705        0.28033        0.21629        0.27522        0.30971        0.26593        0.20671        0.23291        0.32273        0.41103        0.29945        0.24076        0.16888        0.21892        0.29063        0.28909        0.41359        0.23958        0.18556        0.26844        0.33460        0.28488        0.16390       -0.04792       -0.55414       -0.85200
2.463724 2.438600 2.413608 2.388750 2.364024 2.339432 2.314972 2.290645 2.266451 2.242390 2.218462 2.194667 2.171005 2.147475 2.124079 2.100815 2.077685 2.054687 2.031822 2.009090 1.986491 1.964025 1.941692 1.919491 1.897424 1.875489 1.853688 1.832019 1.810483 1.789080 1.767810 1.746673 1.725669 1.704798 1.684059 1.663454 1.642981 1.622642 1.602435 1.582361 1.562420 1.542612 1.522937 1.503394 1.483985 1.464709 1.445565 1.426555 1.407677 1.388932 1.370320 1.298222 1.727333 1.293958 0.947559 0.648646 -0.076414 0.534772 0.095210 0.244234 0.574974 0.315944 0.252962 0.430875 0.360320 0.298842 0.149651 -0.024965 -0.227450 -0.424536 -0.410041 -0.308654 0.098273 -0.395954 -0.172156 -0.304335 -0.208259 -0.400817 -0.032419 -0.091919 -0.188650 0.044912 0.254301 0.048513 0.281808 0.186032 0.593337 0.472824 0.751283 0.732065 0.755404 1.001357 0.888383 1.186653 1.148541 1.027571 0.936297 0.965708 0.901046 0.888963 0.920984 0.736363 0.662147 0.597401 0.547752 0.427304 0.519343 0.390297 0.250263 0.116606 0.071041 0.111290 0.184476 0.108012 0.128177 0.300213 0.336188 0.360715 0.455933 0.514412 0.571908 0.419952 0.860525 0.912996 0.733289 0.671605 0.825111 0.556146 0.500065 0.518147 0.220837 0.259408 0.104722 0.207939 -0.024395 -0.013596 -0.096357 -0.090916 0.164506 0.055247 0.175886 0.233709 0.247653 0.404589 0.426753 0.405235 0.439483 0.545389 0.448181 0.371383 0.341778 0.208924 0.188989 0.109826 0.068801 0.052909 -0.062421 -0.015691 0.013686 -0.048179 -0.001138 0.201914 0.380182 0.247770 0.302524 0.192882 0.471646 0.397600 0.359703 0.310763 0.193717 0.147661 0.346794 0.020055 0.058815 0.033316 0.085085 0.012294 0.099135 -0.016864 0.167065 -0.003529 0.255213 0.368469 0.227799 0.247234 0.257464 0.189077 0.060859 0.094180 0.116700 -0.001776 0.023329 0.066259 -0.121819 -0.046244 0.022574 0.132887 0.325780 0.147274 0.116255 0.190986 0.162002 0.087422 0.082385 0.012346 0.048633 -0.050512 -0.031473 0.023642 0.096545 0.102783 0.023290 0.082185 0.163226 0.175490 0.327396 0.094885 0.070999 0.070397 0.028790 0.053310 0.008002 0.097189 0.160287 0.046007 0.079555 0.049170 0.248121 0.052487 0.051400 0.046032 0.106695 0.086821 -0.013368 0.020710 -0.059681 -0.013256 0.029474 -0.007893 -0.011490 0.083958 -0.002327 0.020115 -0.003401 -0.093055 -0.042239 -0.072038 -0.017278 -0.001757 0.013555 -0.006025 0.021741 0.045815 -0.064249 0.012120 -0.071105 -0.086511 -0.000821 -0.044174 0.005664 -0.013523 -0.032898 -0.018701 -0.038563 0.035625 0.020308 0.091837 -0.050982 -0.049830 -0.006069 -0.023513 0.011085 0.010724 -0.114467 0.006232 -0.076494 -0.004327 0.004882 0.144776 -0.005125 -0.075611 -0.112785 -0.007950 0.124601 0.013336 -0.024274 0.027642 -0.034647 0.007854 -0.013960 0.003385 -0.047723 -0.013469 -0.122329 -0.096439 -0.018485 -0.029783 -0.075258 -0.086138 -0.249570 -0.002147 0.037271 0.023424 -0.007654 0.015180 -0.083741 -0.069178 -0.065368 -0.060765 -0.096657 -0.055398 -0.131257 -0.050393 0.018406 0.059608 0.013951 -0.076117 -0.079177 -0.034666 0.002183 -0.097466 0.040024 0.031584 -0.111770 -0.063354 -0.016422 0.002118 -0.079762 -0.208301 -0.171166 0.023641 0.019277 -0.068504 -0.093473 0.107647 0.032843 -0.224255 0.023726 -0.048125 -0.159824 0.022285 0.050622 -0.025528 -0.137474 -0.032474 -0.018991 0.312572 0.054370 0.026865 -0.265449 -0.063637 0.148146 0.029239 0.456383 0.312761 0.348917 0.550458 0.697776 0.373566 0.269907 -0.079276 -1.576582
0.072396 0.072905 0.074432 0.076976 0.080537 0.085113 0.090705 0.097309 0.104924 0.113546 0.123173 0.133800 0.145422 0.158031 0.171620 0.186179 0.201697 0.218161 0.235554 0.253860 0.273057 0.293122 0.314028 0.335744 0.358236 0.381466 0.405390 0.429962 0.455128 0.480830 0.507006 0.533585 0.560494 0.587649 0.614962 0.642340 0.669679 0.696872 0.723803 0.750348 0.776379 0.801759 0.826345 0.849986 0.872528 0.893809 0.913661 0.931915 0.948395 0.962922 0.975316 0.985396 0.992981 0.997890 0.999946 0.998977 0.994814 0.987299 0.976282 0.961625 0.943202 0.920906 0.894644 0.864346 0.829965 0.791475 0.748882 0.702217 0.651545 0.596964 0.538607 0.476645 0.411286 0.342780 0.271416 0.197526 0.121481 0.043696 0.035376 0.115240 0.195366 0.275187 0.354107 0.431500 0.506716 0.579086 0.647931 0.712562 0.772292 0.826443 0.874352 0.915383 0.948934 0.974446 0.991414 0.999398 0.998031 0.987027 0.966195 0.935445 0.894794 0.844379 0.784456 0.715411 0.637759 0.552148 0.459356 0.360292 0.255990 0.147601 0.036384 0.076305 0.189026 0.300276 0.408505 0.512135 0.609589 0.699313 0.779803 0.849631 0.907478 0.952157 0.982644 0.998106 0.997922 0.981713 0.949357 0.901007 0.837102 0.758380 0.665872 0.560906 0.445092 0.320308 0.188673 0.052522 0.085633 0.223149 0.357294 0.485308 0.604456 0.712090 0.805712 0.883042 0.942072 0.981131 0.998938 0.994656 0.967925 0.918900 0.848271 0.757267 0.647656 0.521724 0.382237 0.232397 0.075773 0.083772 0.242175 0.395273 0.538910 0.669058 0.781932 0.874110 0.942642 0.985166 0.999994 0.986193 0.943648 0.873099 0.776152 0.655268 0.513717 0.355517 0.185324 0.008315 0.169962 0.343760 0.507316 0.655039 0.781723 0.882726 0.954167 0.993083 0.997580 0.966933 0.901665 0.803571 0.675703 0.522298 0.348668 0.161029 0.033695 0.228131 0.414718 0.586014 0.734988 0.855330 0.941733 0.990150 0.998008 0.964369 0.890027 0.777540 0.631171 0.456769 0.261558 0.053867 0.157218 0.362227 0.551751 0.716861 0.849551 0.943156 0.992700 0.995202 0.949884 0.858284 0.724251 0.553830 0.355029 0.137477 0.088023 0.310017 0.516966 0.697869 0.842846 0.943721 0.994502 0.991783 0.935014 0.826612 0.671924 0.479009 0.258266 0.021906 0.216699 0.443763 0.645878 0.810833 0.928368 0.990853 0.993834 0.936393 0.821309 0.654997 0.447201 0.210481 0.040508 0.289903 0.521626 0.720417 0.872878 0.968407 0.999978 0.964724 0.864242 0.704607 0.496080 0.252502 0.009566 0.271951 0.516104 0.724419 0.881535 0.975513 0.998790 0.948864 0.828612 0.646206 0.414658 0.150929 0.125243 0.392801 0.630962 0.820872 0.947107 0.999009 0.971649 0.866371 0.690836 0.458563 0.187968 0.099051 0.378837 0.627925 0.825029 0.952894 0.999891 0.961144 0.839120 0.643600 0.390987 0.103009 0.195079 0.476694 0.716286 0.891687 0.986233 0.990423 0.902970 0.731117 0.490149 0.202142 0.105994 0.404974 0.665922 0.863178 0.976880 0.995065 0.915014 0.743750 0.497541 0.200470 0.117830 0.425097 0.689684 0.883862 0.986791 0.986854 0.883086 0.685518 0.414329 0.097920 0.229992 0.533928 0.780476 0.942032 0.999969 0.946906 0.787784 0.539555 0.229533 0.107527 0.433245 0.709975 0.905204 0.995441 0.969181 0.828502 0.589104 0.278710 0.066020 0.403744 0.693376 0.899116 0.994959 0.968123 0.820899 0.570672 0.248022 0.106858 0.449128 0.734907 0.926986 0.999742 0.942725 0.762312 0.481209 0.135745 0.228683 0.563511 0.823506
1.000000 1.000000 1.000000 1.000000 1.000000 1.000000 1.000000 1.000000 1.000000 1.000000 1.000000 1.000000 1.000000 1.000000 1.000000 1.000000 1.000000 1.000000 1.000000 1.000000 1.000000 1.000000 1.000000 1.000000 1.000000 1.000000 1.000000 1.000000 1.000000 1.000000 1.000000 1.000000 1.000000 1.000000 1.000000 1.000000 1.000000 1.000000 1.000000 1.000000 1.000000 1.000000 1.000000 1.000000 1.000000 1.000000 1.000000 1.000000 1.000000 1.000000 1.000000 1.000000 0.808335 0.808335 0.808335 0.792714 0.792714 0.792714 0.792714 0.792714 0.792714 0.792714 0.792714 0.792714 0.792714 0.792714 0.792714 0.792714 0.792714 0.792714 0.792714 0.792714 0.792714 0.792714 0.792714 0.792714 0.792714 0.792714 0.792714 0.792714 0.792714 0.792714 0.792714 0.792714 0.792714 0.792714 0.792714 0.792714 0.792714 0.792714 0.792714 0.792714 0.792714 0.792714 0.792714 0.792714 0.819865 0.828769 0.832307 0.835865 0.837261 0.833950 0.832641 0.831789 0.831584 0.832843 0.839865 0.865201 0.882599 0.886163 0.900365 0.904298 0.908589 0.910486 0.917227 0.916452 0.956818 0.955905 0.955870 0.957198 0.956512 0.948086 0.945866 0.946606 0.958776 0.949766 0.945993 0.944686 0.943448 0.939528 0.939165 0.938866 0.937113 0.937672 0.938510 0.939179 0.938632 0.937530 0.936031 0.927935 0.921481 0.920050 0.919557 0.897019 0.888909 0.876414 0.863567 0.875902 0.859436 0.859025 0.839261 0.840892 0.842161 0.836306 0.830903 0.827355 0.822154 0.812573 0.809462 0.806536 0.811774 0.811637 0.817917 0.809534 0.799163 0.789427 0.777477 0.772583 0.758711 0.753472 0.757980 0.757895 0.750384 0.751068 0.748702 0.740907 0.734180 0.729363 0.724878 0.738802 0.747735 0.750015 0.748028 0.746320 0.722625 0.701361 0.685355 0.685191 0.686099 0.663149 0.650138 0.651879 0.656376 0.662425 0.674526 0.668382 0.657631 0.633093 0.609465 0.573333 0.587854 0.589283 0.569665 0.562157 0.550555 0.588481 0.611005 0.630736 0.649429 0.656252 0.661379 0.638462 0.602304 0.606320 0.598881 0.599030 0.598480 0.585898 0.588127 0.606026 0.575259 0.561113 0.556915 0.551846 0.559149 0.574011 0.542591 0.540822 0.508033 0.485268 0.458777 0.447988 0.390440 0.376601 0.373838 0.381131 0.345622 0.341491 0.350725 0.376563 0.371370 0.375502 0.365609 0.355079 0.320927 0.300798 0.297138 0.288040 0.279854 0.236907 0.193565 0.184461 0.203698 0.208368 0.252511 0.258853 0.249076 0.218285 0.223084 0.236513 0.255216 0.280176 0.291192 0.266511 0.243461 0.160679 0.204090 0.197040 0.207252 0.218966 0.243455 0.185502 0.187746 0.160040 0.118922 0.091970 0.069836 0.040717 0.038023 0.043900 0.030359 0.010790 -0.036029 -0.013250 -0.010786 0.016082 -0.000821 -0.015753 -0.030234 -0.017244 -0.035344 -0.056877 -0.044868 -0.047944 -0.058710 -0.108806 -0.135804 -0.089753 -0.086013 -0.079164 -0.093726 -0.115688 -0.120571 -0.131447 -0.146967 -0.114301 -0.099549 -0.086036 -0.098896 -0.100164 -0.093877 -0.104258 -0.173393 -0.227724 -0.217541 -0.218616 -0.212007 -0.219538 -0.206169 -0.205726 -0.190303 -0.174212 -0.179387 -0.180904 -0.130581 -0.196952 -0.222997 -0.230603 -0.236222 -0.244470 -0.191126 -0.169477 -0.152666 -0.147947 -0.173339 -0.173339 -0.173339 -0.173339 -0.172386 -0.172386 -0.172386 -0.172386 -0.172386 -0.172386 -0.172386 -0.172386 -0.172386 -0.181217 -0.181217 -0.181217 -0.181217 -0.181217 -0.181217 -0.181217 -0.181217 -0.181217 -0.181217 -0.181217 -0.181217 -0.181217 -0.181217 -0.181217 -0.181217
0.000000 0.000000 0.000000 0.000000 0.000000 0.000000 0.000000 0.000000 0.000000 0.000000 0.000000 0.000000 0.000000 0.000000 0.000000 0.000000 0.000000 0.000000 2.000000 0.000000 0.000000 0.000000 0.000000 0.000000 0.000000 0.000000 0.000000 0.000000 0.000000 0.000000 0.000000 0.000000 0.000000 0.000000 0.000000 0.000000 0.000000 0.000000 0.000000 0.000000 0.000000 0.000000 0.000000 0.000000 0.000000 0.000000 0.000000 0.000000 0.000000 0.000000 0.000000 0.000000 0.180334 0.180334 0.180334 0.199007 0.199007 0.199007 0.199007 0.199007 0.199007 0.199007 0.199007 0.199007 0.199007 0.199007 0.199007 0.199007 0.199007 0.199007 0.199007 0.199007 0.199007 0.199007 0.199007 0.199007 0.199007 0.199007 0.199007 0.199007 0.199007 0.199007 0.199007 0.199007 0.199007 0.199007 0.199007 0.199007 0.199007 0.199007 0.199007 0.199007 0.199007 0.199007 0.199007 0.199007 0.230940 0.230940 0.230940 0.230940 0.230940 0.230940 0.230940 0.230940 0.230940 0.230940 0.230940 0.230940 0.230940 0.230940 0.230940 0.230940 0.230940 0.230940 0.230940 0.230940 0.230940 0.230940 0.230940 0.230940 0.230940 0.230940 0.230940 0.230940 0.244339 0.244339 0.244339 0.244339 0.244339 0.244339 0.244339 0.244339 0.244339 0.244339 0.244339 0.244339 0.244339 0.244339 0.244339 0.244339 0.244339 0.244339 0.244339 0.244339 0.244339 0.244339 0.244339 0.251976 0.251976 0.251976 0.251976 0.251976 0.251976 0.251976 0.251976 0.251976 0.251976 0.251976 0.251976 0.251976 0.251976 0.251976 0.251976 0.251976 0.251976 0.251976 0.251976 0.264906 0.264906 0.264906 0.264906 0.264906 0.264906 0.264906 0.264906 0.264906 0.264906 0.264906 0.264906 0.264906 0.264906 0.264906 0.264906 0.264906 0.264906 0.264906 0.264906 0.264906 0.264906 0.264906 0.264906 0.264906 0.264906 0.264906 0.264906 0.264906 0.264906 0.264906 0.264906 0.264906 0.264906 0.264906 0.264906 0.264906 0.264906 0.264906 0.264906 0.264906 0.264906 0.264906 0.264906 0.264906 0.264906 0.264906 0.264906 0.264906 0.264906 0.264906 0.264906 0.264906 0.264906 0.264906 0.264906 0.264906 0.264906 0.264906 0.264906 0.264906 0.264906 0.264906 0.264906 0.264906 0.264906 0.264906 0.264906 0.264906 0.264906 0.264906 0.264906 0.264906 0.264906 0.264906 0.269680 0.269680 0.269680 0.269680 0.269680 0.269680 0.269680 0.269680 0.269680 0.269680 0.269680 0.269680 0.264906 0.264906 0.264906 0.264906 0.264906 0.264906 0.264906 0.264906 0.264906 0.264906 0.264906 0.264906 0.260378 0.260378 0.260378 0.260378 0.260378 0.260378 0.260378 0.260378 0.260378 0.260378 0.260378 0.260378 0.264906 0.264906 0.264906 0.264906 0.264906 0.264906 0.264906 0.264906 0.264906 0.264906 0.264906 0.269680 0.269680 0.269680 0.269680 0.269680 0.269680 0.269680 0.269680 0.269680 0.269680 0.264906 0.264906 0.264906 0.264906 0.264906 0.264906 0.264906 0.264906 0.264906 0.264906 0.260378 0.260378 0.260378 0.260378 0.260378 0.260378 0.260378 0.260378 0.260378 0.260378 0.256074 0.256074 0.256074 0.256074 0.256074 0.256074 0.256074 0.256074 0.256074 0.256074 0.260378 0.260378 0.260378 0.260378 0.260378 0.260378 0.260378 0.260378 0.260378 0.256074 0.256074 0.256074 0.256074 0.256074 0.256074 0.256074 0.256074 0.256074 0.251976 0.251976 0.251976 0.251976 0.251976 0.251976 0.251976 0.251976 0.251976 0.251976 0.251976 0.251976 0.251976 0.251976 0.251976 0.251976
