# Output from CTFFind version 4.1.9, run on 2019-11-03 20:07:04
# Input file: stack11_bm3d_averaged_1_6.0_0_1250_half.mrc ; Number of micrographs: 1
# Pixel size: 3.000 Angstroms ; acceleration voltage: 300.0 keV ; spherical aberration: 0.00 mm ; amplitude contrast: 0.07
# Box size: 512 pixels ; min. res.: 30.0 Angstroms ; max. res.: 5.0 Angstroms ; min. def.: 5000.0 um; max. def. 50000.0 um; num. frames averaged: 1
# 6 lines per micrograph: #1 - spatial frequency (1/Angstroms); #2 - 1D rotational average of spectrum (assuming no astigmatism); #3 - 1D rotational average of spectrum; #4 - CTF fit; #5 - cross-correlation between spectrum and CTF fit; #6 - 2sigma of expected cross correlation of noise
0.000000 0.000651 0.001302 0.001953 0.002604 0.003255 0.003906 0.004557 0.005208 0.005859 0.006510 0.007161 0.007812 0.008464 0.009115 0.009766 0.010417 0.011068 0.011719 0.012370 0.013021 0.013672 0.014323 0.014974 0.015625 0.016276 0.016927 0.017578 0.018229 0.018880 0.019531 0.020182 0.020833 0.021484 0.022135 0.022786 0.023438 0.024089 0.024740 0.025391 0.026042 0.026693 0.027344 0.027995 0.028646 0.029297 0.029948 0.030599 0.031250 0.031901 0.032552 0.033203 0.033854 0.034505 0.035156 0.035807 0.036458 0.037109 0.037760 0.038411 0.039062 0.039714 0.040365 0.041016 0.041667 0.042318 0.042969 0.043620 0.044271 0.044922 0.045573 0.046224 0.046875 0.047526 0.048177 0.048828 0.049479 0.050130 0.050781 0.051432 0.052083 0.052734 0.053385 0.054036 0.054688 0.055339 0.055990 0.056641 0.057292 0.057943 0.058594 0.059245 0.059896 0.060547 0.061198 0.061849 0.062500 0.063151 0.063802 0.064453 0.065104 0.065755 0.066406 0.067057 0.067708 0.068359 0.069010 0.069661 0.070312 0.070964 0.071615 0.072266 0.072917 0.073568 0.074219 0.074870 0.075521 0.076172 0.076823 0.077474 0.078125 0.078776 0.079427 0.080078 0.080729 0.081380 0.082031 0.082682 0.083333 0.083984 0.084635 0.085286 0.085938 0.086589 0.087240 0.087891 0.088542 0.089193 0.089844 0.090495 0.091146 0.091797 0.092448 0.093099 0.093750 0.094401 0.095052 0.095703 0.096354 0.097005 0.097656 0.098307 0.098958 0.099609 0.100260 0.100911 0.101562 0.102214 0.102865 0.103516 0.104167 0.104818 0.105469 0.106120 0.106771 0.107422 0.108073 0.108724 0.109375 0.110026 0.110677 0.111328 0.111979 0.112630 0.113281 0.113932 0.114583 0.115234 0.115885 0.116536 0.117188 0.117839 0.118490 0.119141 0.119792 0.120443 0.121094 0.121745 0.122396 0.123047 0.123698 0.124349 0.125000 0.125651 0.126302 0.126953 0.127604 0.128255 0.128906 0.129557 0.130208 0.130859 0.131510 0.132161 0.132812 0.133464 0.134115 0.134766 0.135417 0.136068 0.136719 0.137370 0.138021 0.138672 0.139323 0.139974 0.140625 0.141276 0.141927 0.142578 0.143229 0.143880 0.144531 0.145182 0.145833 0.146484 0.147135 0.147786 0.148438 0.149089 0.149740 0.150391 0.151042 0.151693 0.152344 0.152995 0.153646 0.154297 0.154948 0.155599 0.156250 0.156901 0.157552 0.158203 0.158854 0.159505 0.160156 0.160807 0.161458 0.162109 0.162760 0.163411 0.164062 0.164714 0.165365 0.166016 0.166667 0.167318 0.167969 0.168620 0.169271 0.169922 0.170573 0.171224 0.171875 0.172526 0.173177 0.173828 0.174479 0.175130 0.175781 0.176432 0.177083 0.177734 0.178385 0.179036 0.179688 0.180339 0.180990 0.181641 0.182292 0.182943 0.183594 0.184245 0.184896 0.185547 0.186198 0.186849 0.187500 0.188151 0.188802 0.189453 0.190104 0.190755 0.191406 0.192057 0.192708 0.193359 0.194010 0.194661 0.195312 0.195964 0.196615 0.197266 0.197917 0.198568 0.199219 0.199870 0.200521 0.201172 0.201823 0.202474 0.203125 0.203776 0.204427 0.205078 0.205729 0.206380 0.207031 0.207682 0.208333 0.208984 0.209635 0.210286 0.210938 0.211589 0.212240 0.212891 0.213542 0.214193 0.214844 0.215495 0.216146 0.216797 0.217448 0.218099 0.218750 0.219401 0.220052 0.220703 0.221354 0.222005 0.222656 0.223307 0.223958 0.224609 0.225260 0.225911 0.226562 0.227214 0.227865 0.228516 0.229167 0.229818 0.230469 0.231120 0.231771 0.232422 0.233073 0.233724 0.234375 0.235026 0.235677
       0.34378        0.34378        0.34378        0.34378        0.34378        0.34378        0.34378        0.34378        0.34378        0.34378        0.34378        0.34378        0.34378        0.34378        0.34378        0.34378        0.34378        0.34378        0.34378        0.34378        0.34378        0.34378        0.34378        0.34378        0.34378        0.34378        0.34378        0.34378        0.34378        0.34378        0.34378        0.34378        0.34378        0.34378        0.34378        0.34378        0.34378        0.34378        0.34378        0.34378        0.34378        0.34378        0.34378        0.34378        0.34378        0.34378        0.34378        0.34378        0.34378        0.34378        0.34378        0.69854        0.85853        0.53763        0.10542       -0.02931       -0.38800       -0.18038       -0.28807       -0.11467       -0.05501       -0.11170       -0.05327       -0.16819       -0.20635       -0.21547       -0.30773       -0.31920       -0.44545       -0.36246       -0.42739       -0.42199       -0.39546       -0.41075       -0.45129       -0.51023       -0.55972       -0.55367       -0.52752       -0.35863       -0.32902       -0.29302       -0.27300       -0.18609       -0.17155        0.05983        0.14021        0.17269        0.26436        0.38148        0.45792        0.52340        0.59931        0.59670        0.58317        0.69952        0.80441        0.70484        0.74364        0.62144        0.56898        0.48381        0.43198        0.51242        0.39705        0.26850        0.11559        0.10996        0.08985       -0.01646        0.04096        0.05003        0.00817        0.02692        0.02826        0.23749        0.27128        0.29623        0.43503        0.45368        0.41464        0.59748        0.62129        0.63952        0.72625        0.67736        0.64775        0.65936        0.56109        0.46262        0.41927        0.30369        0.26693        0.18256        0.13552        0.05267        0.06291        0.07178        0.09859        0.15739        0.24364        0.29571        0.41973        0.46499        0.48153        0.56779        0.60449        0.63768        0.61708        0.56027        0.46109        0.47363        0.37923        0.27493        0.21101        0.15720        0.17072        0.15250        0.15712        0.18578        0.32027        0.33416        0.40436        0.44489        0.42755        0.48315        0.56312        0.55495        0.50211        0.45741        0.41270        0.36997        0.33994        0.30718        0.26107        0.24618        0.25120        0.25510        0.22523        0.30898        0.36431        0.38533        0.43963        0.45646        0.46916        0.42685        0.41021        0.40245        0.36312        0.33332        0.27433        0.27799        0.26794        0.24293        0.29355        0.29048        0.35057        0.38175        0.43196        0.47679        0.40883        0.42362        0.43326        0.41146        0.34951        0.32715        0.29366        0.32448        0.27444        0.32102        0.31341        0.33106        0.33943        0.36343        0.31637        0.39095        0.41401        0.38093        0.35066        0.37057        0.31751        0.29448        0.30621        0.32045        0.30814        0.32015        0.34327        0.35479        0.34065        0.36548        0.36429        0.41959        0.38879        0.33894        0.34697        0.29948        0.29286        0.32587        0.31997        0.33027        0.34214        0.34096        0.38631        0.33093        0.33052        0.33812        0.34649        0.30470        0.31294        0.28141        0.30365        0.33008        0.30569        0.33044        0.35645        0.36643        0.29691        0.33930        0.29854        0.29698        0.27967        0.24685        0.30503        0.30543        0.34297        0.33884        0.34270        0.32689        0.34995        0.31464        0.34608        0.30979        0.32308        0.28926        0.33540        0.32614        0.36808        0.32808        0.33600        0.33954        0.29331        0.27566        0.31113        0.25052        0.22896        0.34164        0.32253        0.36539        0.34674        0.36183        0.33297        0.33562        0.34940        0.26521        0.26366        0.31700        0.30147        0.31169        0.31766        0.34038        0.33151        0.29237        0.29099        0.34496        0.32177        0.31771        0.29437        0.32248        0.34054        0.39527        0.35920        0.31810        0.28221        0.30377        0.28903        0.30299        0.27551        0.26672        0.31319        0.33089        0.34492        0.35495        0.33080        0.29239        0.30125        0.26920        0.27617        0.25565        0.30940        0.26510        0.24313        0.29684        0.29163        0.26406        0.29587        0.21684        0.21430        0.24414        0.19240        0.27060        0.34647        0.25212        0.23750        0.31722        0.30607        0.31458        0.31525        0.26774        0.24984        0.19049        0.21158        0.20058        0.26758        0.23504        0.28146        0.35770        0.35532        0.24858        0.16559        0.10160       -0.01286       -0.11545       -0.62981
2.780502 2.751012 2.721683 2.692514 2.663505 2.634658 2.605970 2.577444 2.549078 2.520873 2.492828 2.464944 2.437220 2.409658 2.382255 2.355014 2.327933 2.301012 2.274252 2.247653 2.221214 2.194936 2.168819 2.142862 2.117066 2.091430 2.065955 2.040641 2.015487 1.990494 1.965661 1.940989 1.916478 1.892127 1.867937 1.843907 1.820038 1.796330 1.772782 1.749395 1.726168 1.703102 1.680197 1.657452 1.634868 1.612444 1.590181 1.568079 1.546138 1.524356 1.502736 1.719615 2.142526 1.700870 1.185564 1.049894 0.451755 0.848186 0.561631 0.845317 0.812729 0.817955 0.757003 0.752228 0.595736 0.558968 0.500784 0.428390 0.248071 0.366280 0.200493 0.329846 0.220198 0.208325 0.182657 0.040818 0.005934 0.018274 -0.069176 0.132969 0.231839 0.188862 0.178147 0.326454 0.184557 0.519402 0.623459 0.630442 0.646936 0.875930 0.834263 0.942738 0.935396 1.032361 1.000233 1.084790 1.168180 1.044096 1.162191 0.909334 0.928577 0.794988 0.652934 0.805945 0.695917 0.492620 0.332897 0.250689 0.266877 0.148030 0.134333 0.164576 0.107881 0.122084 0.080602 0.250183 0.352883 0.341213 0.476119 0.544893 0.417367 0.591756 0.729183 0.652314 0.720948 0.709780 0.717794 0.647737 0.595830 0.493908 0.369339 0.276333 0.220248 0.089239 0.116360 -0.110791 -0.048852 -0.063295 -0.081584 -0.020096 0.129956 0.069347 0.241256 0.306328 0.335332 0.376789 0.497467 0.467739 0.479726 0.491799 0.305285 0.293423 0.286663 0.086890 0.045583 -0.078204 -0.013797 -0.062290 -0.095046 -0.075466 0.038947 0.093001 0.124007 0.221240 0.225419 0.223695 0.273748 0.445212 0.393081 0.256722 0.232781 0.223346 0.143223 0.144329 0.116846 -0.004252 0.016040 0.073496 -0.009327 0.047548 0.133718 0.136009 0.215554 0.233700 0.256981 0.167582 0.209956 0.127045 0.133263 0.111021 0.029184 -0.026092 -0.000030 -0.019843 -0.053649 0.053983 0.005597 0.106320 0.138556 0.190170 0.169142 0.118733 0.141301 0.161628 0.111516 0.037729 -0.023339 0.032285 0.025378 -0.040239 0.033732 0.022321 0.047412 0.038862 0.051913 0.035935 0.135213 0.124053 0.046885 0.040107 0.044629 0.006248 -0.030360 0.010165 0.007645 -0.001525 0.006403 0.053158 0.053792 0.040106 0.079219 0.059264 0.158728 0.062878 0.039128 0.041675 -0.033666 0.011223 0.046102 0.007445 0.034349 0.054534 0.079186 0.048842 0.042458 0.010405 0.078275 0.023874 0.022553 0.023282 -0.006265 0.035211 0.025947 0.022058 0.067979 0.082050 0.062408 0.040218 0.049652 0.027657 0.018702 -0.020812 -0.023241 0.035222 0.053236 0.082215 0.084639 0.051845 0.074289 0.103328 0.045868 0.094982 0.064045 0.041972 0.021025 0.102712 0.061205 0.115898 0.081507 0.052091 0.107127 0.036869 0.005424 0.086374 -0.035999 -0.023055 0.100090 0.046020 0.159345 0.094709 0.090775 0.066629 0.042287 0.092551 -0.024156 -0.026222 0.052044 0.040064 0.038077 0.027206 0.102586 0.042741 -0.007132 0.053428 0.046965 0.052511 0.059497 -0.010648 0.063474 0.058396 0.118853 0.054382 0.026130 -0.025271 -0.018361 -0.005031 0.004526 -0.052495 -0.025574 0.004018 0.023440 0.029130 0.051942 0.005976 -0.035745 -0.031381 -0.020764 -0.068679 -0.049927 -0.026894 -0.126825 -0.103119 -0.045701 -0.082943 -0.100364 -0.020364 -0.151544 -0.105746 -0.098650 -0.189085 -0.068309 0.060263 -0.064732 -0.143198 0.052383 0.043804 -0.018852 0.081337 -0.025621 0.000925 -0.092319 -0.029800 0.040688 0.113282 0.056723 0.137949 0.173144 0.412969 0.229499 0.300895 0.125486 -0.018509 -0.696647
0.072396 0.072899 0.074408 0.076922 0.080441 0.084964 0.090490 0.097017 0.104542 0.113064 0.122579 0.133082 0.144568 0.157031 0.170463 0.184854 0.200194 0.216470 0.233667 0.251767 0.270751 0.290595 0.311273 0.332757 0.355012 0.378001 0.401684 0.426014 0.450939 0.476405 0.502350 0.528706 0.555401 0.582356 0.609485 0.636696 0.663892 0.690965 0.717805 0.744292 0.770301 0.795698 0.820346 0.844097 0.866802 0.888301 0.908434 0.927033 0.943927 0.958941 0.971899 0.982623 0.990934 0.996656 0.999612 0.999632 0.996550 0.990205 0.980448 0.967138 0.950149 0.929367 0.904697 0.876061 0.843405 0.806694 0.765923 0.721112 0.672312 0.619606 0.563111 0.502978 0.439398 0.372598 0.302846 0.230450 0.155756 0.079155 0.001074 0.078019 0.157620 0.237187 0.316149 0.393903 0.469822 0.543259 0.613548 0.680018 0.741992 0.798798 0.849777 0.894288 0.931720 0.961501 0.983105 0.996062 0.999972 0.994506 0.979424 0.954580 0.919927 0.875530 0.821572 0.758354 0.686306 0.605984 0.518075 0.423392 0.322875 0.217582 0.108683 0.002548 0.114750 0.226485 0.336257 0.442532 0.543759 0.638392 0.724918 0.801877 0.867897 0.921717 0.962216 0.988437 0.999617 0.995211 0.974910 0.938663 0.886692 0.819502 0.737885 0.642926 0.535995 0.418735 0.293043 0.161051 0.025092 0.112337 0.248617 0.381057 0.506942 0.623598 0.728445 0.819060 0.893239 0.949059 0.984933 0.999660 0.992481 0.963107 0.911755 0.839166 0.746609 0.635877 0.509264 0.369532 0.219863 0.063790 0.094874 0.252124 0.403867 0.546028 0.674656 0.786049 0.876860 0.944215 0.985808 1.000000 0.985891 0.943378 0.873194 0.776918 0.656966 0.516544 0.359585 0.190654 0.014825 0.162463 0.335568 0.498820 0.646719 0.774118 0.876419 0.949751 0.991131 0.998607 0.971365 0.909805 0.815567 0.691522 0.541710 0.371235 0.186107 0.006950 0.200735 0.387829 0.560881 0.712905 0.837572 0.929489 0.984453 0.999671 0.973921 0.907662 0.803074 0.664021 0.495946 0.305682 0.101205 0.108694 0.314759 0.507694 0.678573 0.819272 0.922870 0.984024 0.999265 0.967230 0.888802 0.767127 0.607549 0.417401 0.205706 0.017221 0.240263 0.452048 0.641529 0.798579 0.914544 0.982759 0.998965 0.961611 0.872029 0.734440 0.555813 0.345556 0.115057 0.122901 0.354844 0.567355 0.747867 0.885423 0.971379 0.999989 0.968829 0.879049 0.735402 0.546056 0.322177 0.077322 0.173357 0.414036 0.629212 0.804718 0.928693 0.992415 0.990976 0.923710 0.794356 0.610927 0.385278 0.132390 0.130587 0.385462 0.614275 0.800562 0.930586 0.994386 0.986617 0.907045 0.760708 0.557676 0.312440 0.042910 0.230818 0.487976 0.708685 0.875514 0.974923 0.998406 0.943300 0.813144 0.617548 0.371572 0.094633 0.190982 0.461878 0.695463 0.871879 0.975723 0.997468 0.934419 0.791115 0.579099 0.316091 0.024584 0.270049 0.541723 0.765961 0.922145 0.995478 0.978459 0.871757 0.684333 0.432791 0.140018 0.166853 0.458907 0.708168 0.890317 0.987131 0.988386 0.893047 0.709574 0.455299 0.154890 0.161970 0.463464 0.718830 0.901553 0.992171 0.980455 0.866680 0.661821 0.386629 0.069639 0.255721 0.554606 0.794508 0.948830 0.999939 0.941289 0.778385 0.528421 0.218603 0.116715 0.439783 0.713681 0.906590 0.995560 0.969370 0.830073 0.593028 0.285356 0.057035 0.393574 0.683814 0.892314 0.993061 0.972837 0.833102 0.590105 0.273161 0.078759 0.421746 0.712396 0.913355 0.998213 0.955108 0.788552 0.519163 0.181277 0.181300
1.000000 1.000000 1.000000 1.000000 1.000000 1.000000 1.000000 1.000000 1.000000 1.000000 1.000000 1.000000 1.000000 1.000000 1.000000 1.000000 1.000000 1.000000 1.000000 1.000000 1.000000 1.000000 1.000000 1.000000 1.000000 1.000000 1.000000 1.000000 1.000000 1.000000 1.000000 1.000000 1.000000 1.000000 1.000000 1.000000 1.000000 1.000000 1.000000 1.000000 1.000000 1.000000 1.000000 1.000000 1.000000 1.000000 1.000000 1.000000 1.000000 1.000000 1.000000 1.000000 0.918850 0.918850 0.918850 0.912128 0.912128 0.912128 0.912128 0.912128 0.912128 0.912128 0.912128 0.912128 0.912128 0.912128 0.912128 0.912128 0.912128 0.912128 0.912128 0.912128 0.912128 0.912128 0.912128 0.912128 0.912128 0.912128 0.912128 0.912128 0.912128 0.912128 0.912128 0.912128 0.912128 0.912128 0.912128 0.912128 0.912128 0.912128 0.912128 0.912128 0.912128 0.912128 0.912128 0.912128 0.940926 0.942342 0.950632 0.950188 0.949599 0.947597 0.946370 0.946027 0.945936 0.946278 0.946998 0.947973 0.954195 0.955112 0.959530 0.962226 0.962411 0.964156 0.964875 0.964505 0.956096 0.955866 0.954454 0.953926 0.956452 0.955564 0.954829 0.955802 0.955709 0.956028 0.956025 0.955377 0.954346 0.953299 0.952398 0.952006 0.951815 0.952534 0.952943 0.954380 0.957621 0.958218 0.958356 0.956774 0.955545 0.956815 0.956056 0.955363 0.943627 0.943123 0.941788 0.941835 0.944936 0.945016 0.945607 0.946224 0.947999 0.948362 0.943346 0.943061 0.935684 0.932721 0.930601 0.924915 0.920128 0.922007 0.924040 0.924566 0.924772 0.919131 0.919084 0.917010 0.913039 0.915455 0.915707 0.917056 0.918443 0.914037 0.913420 0.912155 0.910532 0.902979 0.890954 0.889732 0.884812 0.889825 0.889723 0.888642 0.891646 0.881006 0.866068 0.835323 0.837737 0.841152 0.832167 0.827814 0.827908 0.828722 0.833082 0.826172 0.824429 0.819017 0.807100 0.802083 0.795494 0.781358 0.783246 0.774753 0.764652 0.760209 0.784266 0.778256 0.789245 0.793594 0.793327 0.790216 0.782342 0.772251 0.771276 0.766898 0.763609 0.741825 0.733441 0.733660 0.730560 0.719609 0.723402 0.710855 0.710886 0.699164 0.703691 0.708619 0.711566 0.706918 0.701862 0.693993 0.691250 0.703502 0.717518 0.714061 0.711092 0.713982 0.704122 0.694077 0.691288 0.695063 0.689509 0.669493 0.676961 0.702329 0.669319 0.658986 0.665207 0.670059 0.660299 0.662332 0.642365 0.636257 0.614870 0.632223 0.637074 0.653201 0.651903 0.651788 0.662464 0.668418 0.679275 0.683878 0.683965 0.643984 0.646983 0.667611 0.674797 0.661290 0.650194 0.650893 0.647608 0.682861 0.672424 0.628290 0.624905 0.622005 0.581980 0.559159 0.558121 0.562308 0.588377 0.582791 0.562441 0.540784 0.545224 0.549522 0.551208 0.549571 0.536241 0.542855 0.529129 0.505685 0.514230 0.520212 0.517682 0.503361 0.499520 0.509914 0.485496 0.519532 0.493318 0.469788 0.489527 0.486826 0.475042 0.400749 0.416286 0.403457 0.395706 0.350333 0.360230 0.368927 0.353004 0.278068 0.269839 0.270837 0.268565 0.250331 0.231896 0.218477 0.206139 0.184928 0.124604 0.084637 0.084821 0.087393 0.111948 0.071792 0.121320 0.185974 0.186192 0.186192 0.186192 0.186192 0.186192 0.186192 0.186192 0.186192 0.161591 0.161591 0.161591 0.161591 0.161591 0.161591 0.161591 0.161591 0.161591 0.186192 0.186192 0.186192 0.186192 0.186192 0.186192 0.186192 0.186192 0.186192 0.186192 0.186192 0.186192 0.186192 0.186192
0.000000 0.000000 0.000000 0.000000 0.000000 0.000000 0.000000 0.000000 0.000000 0.000000 0.000000 0.000000 0.000000 0.000000 0.000000 0.000000 0.000000 0.000000 0.000000 0.000000 0.000000 0.000000 0.000000 0.000000 0.000000 0.000000 0.000000 0.000000 0.000000 0.000000 0.000000 0.000000 0.000000 0.000000 0.000000 0.000000 0.000000 0.000000 0.000000 0.000000 0.000000 0.000000 0.000000 0.000000 0.000000 0.000000 0.000000 0.000000 0.000000 0.000000 0.000000 0.000000 0.180334 0.180334 0.180334 0.199007 0.199007 0.199007 0.199007 0.199007 0.199007 0.199007 0.199007 0.199007 0.199007 0.199007 0.199007 0.199007 0.199007 0.199007 0.199007 0.199007 0.199007 0.199007 0.199007 0.199007 0.199007 0.199007 0.199007 0.199007 0.199007 0.199007 0.199007 0.199007 0.199007 0.199007 0.199007 0.199007 0.199007 0.199007 0.199007 0.199007 0.199007 0.199007 0.199007 0.199007 0.225018 0.225018 0.225018 0.225018 0.225018 0.225018 0.225018 0.225018 0.225018 0.225018 0.225018 0.225018 0.225018 0.225018 0.225018 0.225018 0.225018 0.225018 0.225018 0.225018 0.225018 0.225018 0.225018 0.225018 0.225018 0.225018 0.225018 0.225018 0.225018 0.244339 0.244339 0.244339 0.244339 0.244339 0.244339 0.244339 0.244339 0.244339 0.244339 0.244339 0.244339 0.244339 0.244339 0.244339 0.244339 0.244339 0.244339 0.244339 0.244339 0.244339 0.244339 0.244339 0.251976 0.251976 0.251976 0.251976 0.251976 0.251976 0.251976 0.251976 0.251976 0.251976 0.251976 0.251976 0.251976 0.251976 0.251976 0.251976 0.251976 0.251976 0.251976 0.251976 0.264906 0.264906 0.264906 0.264906 0.264906 0.264906 0.264906 0.264906 0.264906 0.264906 0.264906 0.264906 0.264906 0.264906 0.264906 0.264906 0.264906 0.264906 0.264906 0.264906 0.264906 0.264906 0.264906 0.264906 0.264906 0.264906 0.264906 0.264906 0.264906 0.264906 0.264906 0.264906 0.264906 0.264906 0.264906 0.264906 0.264906 0.264906 0.264906 0.264906 0.264906 0.264906 0.264906 0.264906 0.264906 0.264906 0.264906 0.264906 0.264906 0.264906 0.264906 0.264906 0.264906 0.264906 0.264906 0.264906 0.264906 0.264906 0.264906 0.264906 0.264906 0.264906 0.264906 0.264906 0.264906 0.264906 0.264906 0.264906 0.264906 0.264906 0.264906 0.264906 0.264906 0.264906 0.264906 0.260378 0.260378 0.260378 0.260378 0.260378 0.260378 0.260378 0.260378 0.260378 0.260378 0.260378 0.260378 0.260378 0.264906 0.264906 0.264906 0.264906 0.264906 0.264906 0.264906 0.264906 0.264906 0.264906 0.264906 0.264906 0.269680 0.269680 0.269680 0.269680 0.269680 0.269680 0.269680 0.269680 0.269680 0.269680 0.269680 0.264906 0.264906 0.264906 0.264906 0.264906 0.264906 0.264906 0.264906 0.264906 0.264906 0.264906 0.256074 0.256074 0.256074 0.256074 0.256074 0.256074 0.256074 0.256074 0.256074 0.256074 0.256074 0.264906 0.264906 0.264906 0.264906 0.264906 0.264906 0.264906 0.264906 0.264906 0.264906 0.260378 0.260378 0.260378 0.260378 0.260378 0.260378 0.260378 0.260378 0.260378 0.260378 0.264906 0.264906 0.264906 0.264906 0.264906 0.264906 0.264906 0.264906 0.264906 0.251976 0.251976 0.251976 0.251976 0.251976 0.251976 0.251976 0.251976 0.251976 0.251976 0.256074 0.256074 0.256074 0.256074 0.256074 0.256074 0.256074 0.256074 0.256074 0.251976 0.251976 0.251976 0.251976 0.251976 0.251976 0.251976 0.251976 0.251976 0.251976 0.251976 0.251976 0.251976 0.251976
