# Output from CTFFind version 4.1.9, run on 2019-11-03 19:42:44
# Input file: stack1_bm3d_averaged_1_4.75_0_2500_half.mrc ; Number of micrographs: 1
# Pixel size: 3.000 Angstroms ; acceleration voltage: 300.0 keV ; spherical aberration: 0.00 mm ; amplitude contrast: 0.07
# Box size: 512 pixels ; min. res.: 30.0 Angstroms ; max. res.: 5.0 Angstroms ; min. def.: 5000.0 um; max. def. 50000.0 um; num. frames averaged: 1
# 6 lines per micrograph: #1 - spatial frequency (1/Angstroms); #2 - 1D rotational average of spectrum (assuming no astigmatism); #3 - 1D rotational average of spectrum; #4 - CTF fit; #5 - cross-correlation between spectrum and CTF fit; #6 - 2sigma of expected cross correlation of noise
0.000000 0.000651 0.001302 0.001953 0.002604 0.003255 0.003906 0.004557 0.005208 0.005859 0.006510 0.007161 0.007812 0.008464 0.009115 0.009766 0.010417 0.011068 0.011719 0.012370 0.013021 0.013672 0.014323 0.014974 0.015625 0.016276 0.016927 0.017578 0.018229 0.018880 0.019531 0.020182 0.020833 0.021484 0.022135 0.022786 0.023438 0.024089 0.024740 0.025391 0.026042 0.026693 0.027344 0.027995 0.028646 0.029297 0.029948 0.030599 0.031250 0.031901 0.032552 0.033203 0.033854 0.034505 0.035156 0.035807 0.036458 0.037109 0.037760 0.038411 0.039062 0.039714 0.040365 0.041016 0.041667 0.042318 0.042969 0.043620 0.044271 0.044922 0.045573 0.046224 0.046875 0.047526 0.048177 0.048828 0.049479 0.050130 0.050781 0.051432 0.052083 0.052734 0.053385 0.054036 0.054688 0.055339 0.055990 0.056641 0.057292 0.057943 0.058594 0.059245 0.059896 0.060547 0.061198 0.061849 0.062500 0.063151 0.063802 0.064453 0.065104 0.065755 0.066406 0.067057 0.067708 0.068359 0.069010 0.069661 0.070312 0.070964 0.071615 0.072266 0.072917 0.073568 0.074219 0.074870 0.075521 0.076172 0.076823 0.077474 0.078125 0.078776 0.079427 0.080078 0.080729 0.081380 0.082031 0.082682 0.083333 0.083984 0.084635 0.085286 0.085938 0.086589 0.087240 0.087891 0.088542 0.089193 0.089844 0.090495 0.091146 0.091797 0.092448 0.093099 0.093750 0.094401 0.095052 0.095703 0.096354 0.097005 0.097656 0.098307 0.098958 0.099609 0.100260 0.100911 0.101562 0.102214 0.102865 0.103516 0.104167 0.104818 0.105469 0.106120 0.106771 0.107422 0.108073 0.108724 0.109375 0.110026 0.110677 0.111328 0.111979 0.112630 0.113281 0.113932 0.114583 0.115234 0.115885 0.116536 0.117188 0.117839 0.118490 0.119141 0.119792 0.120443 0.121094 0.121745 0.122396 0.123047 0.123698 0.124349 0.125000 0.125651 0.126302 0.126953 0.127604 0.128255 0.128906 0.129557 0.130208 0.130859 0.131510 0.132161 0.132812 0.133464 0.134115 0.134766 0.135417 0.136068 0.136719 0.137370 0.138021 0.138672 0.139323 0.139974 0.140625 0.141276 0.141927 0.142578 0.143229 0.143880 0.144531 0.145182 0.145833 0.146484 0.147135 0.147786 0.148438 0.149089 0.149740 0.150391 0.151042 0.151693 0.152344 0.152995 0.153646 0.154297 0.154948 0.155599 0.156250 0.156901 0.157552 0.158203 0.158854 0.159505 0.160156 0.160807 0.161458 0.162109 0.162760 0.163411 0.164062 0.164714 0.165365 0.166016 0.166667 0.167318 0.167969 0.168620 0.169271 0.169922 0.170573 0.171224 0.171875 0.172526 0.173177 0.173828 0.174479 0.175130 0.175781 0.176432 0.177083 0.177734 0.178385 0.179036 0.179688 0.180339 0.180990 0.181641 0.182292 0.182943 0.183594 0.184245 0.184896 0.185547 0.186198 0.186849 0.187500 0.188151 0.188802 0.189453 0.190104 0.190755 0.191406 0.192057 0.192708 0.193359 0.194010 0.194661 0.195312 0.195964 0.196615 0.197266 0.197917 0.198568 0.199219 0.199870 0.200521 0.201172 0.201823 0.202474 0.203125 0.203776 0.204427 0.205078 0.205729 0.206380 0.207031 0.207682 0.208333 0.208984 0.209635 0.210286 0.210938 0.211589 0.212240 0.212891 0.213542 0.214193 0.214844 0.215495 0.216146 0.216797 0.217448 0.218099 0.218750 0.219401 0.220052 0.220703 0.221354 0.222005 0.222656 0.223307 0.223958 0.224609 0.225260 0.225911 0.226562 0.227214 0.227865 0.228516 0.229167 0.229818 0.230469 0.231120 0.231771 0.232422 0.233073 0.233724 0.234375 0.235026 0.235677
       0.35741        0.35741        0.35741        0.35741        0.35741        0.35741        0.35741        0.35741        0.35741        0.35741        0.35741        0.35741        0.35741        0.35741        0.35741        0.35741        0.35741        0.35741        0.35741        0.35741        0.35741        0.35741        0.35741        0.35741        0.35741        0.35741        0.35741        0.35741        0.35741        0.35741        0.35741        0.35741        0.35741        0.35741        0.35741        0.35741        0.35741        0.35741        0.35741        0.35741        0.35741        0.35741        0.35741        0.35741        0.35741        0.35741        0.35741        0.35741        0.35741        0.35741        0.35741        0.43692        0.63636        0.31654        0.15618       -0.01532       -0.25891       -0.07653       -0.15755       -0.17062        0.02398       -0.11151       -0.11069       -0.04542       -0.02388       -0.11959       -0.15060       -0.29672       -0.42212       -0.51247       -0.46596       -0.37200       -0.28035       -0.41773       -0.32674       -0.43779       -0.35441       -0.40341       -0.23333       -0.22075       -0.26121       -0.11419       -0.06792       -0.04537        0.08575        0.03923        0.20472        0.20596        0.33025        0.37771        0.48349        0.51307        0.55964        0.61169        0.70612        0.60281        0.56137        0.51465        0.50809        0.59365        0.49923        0.46020        0.41723        0.32940        0.28940        0.30846        0.30015        0.20611        0.19244        0.07379        0.13143        0.12720        0.13219        0.11746        0.16875        0.23185        0.30001        0.30043        0.32699        0.46945        0.46078        0.49938        0.64375        0.64079        0.57612        0.57771        0.58658        0.45321        0.48411        0.37546        0.33581        0.29863        0.23638        0.24213        0.20467        0.16918        0.18488        0.24079        0.24653        0.28024        0.33843        0.35592        0.39812        0.47852        0.49057        0.47109        0.47781        0.57265        0.50080        0.50283        0.45101        0.37763        0.35042        0.26741        0.29990        0.23614        0.22922        0.28179        0.22750        0.24867        0.32429        0.39481        0.42332        0.47102        0.44807        0.51222        0.49332        0.46514        0.42377        0.40795        0.38143        0.38515        0.40423        0.38292        0.28343        0.32490        0.29287        0.29379        0.30221        0.35642        0.38788        0.41630        0.46592        0.50040        0.44725        0.43478        0.45384        0.40101        0.35835        0.37821        0.33101        0.33794        0.31891        0.33214        0.30522        0.34417        0.35664        0.39488        0.43728        0.43971        0.41881        0.39968        0.38676        0.38780        0.30399        0.32441        0.35346        0.28395        0.33742        0.32401        0.34188        0.35454        0.35370        0.38051        0.38886        0.46103        0.39166        0.35989        0.37406        0.32668        0.32948        0.34207        0.33035        0.36205        0.33714        0.36311        0.35101        0.40458        0.37964        0.39112        0.41520        0.39837        0.36002        0.34318        0.34712        0.32109        0.36581        0.33163        0.34257        0.35489        0.37819        0.34372        0.35494        0.34035        0.29971        0.29776        0.28541        0.31377        0.35307        0.35535        0.34532        0.31557        0.36340        0.34782        0.34563        0.31817        0.33300        0.35077        0.33180        0.30852        0.35732        0.33969        0.33950        0.31676        0.33219        0.35561        0.33425        0.31441        0.33818        0.30266        0.30980        0.36260        0.33175        0.32839        0.36523        0.32976        0.33059        0.37249        0.34599        0.29151        0.29640        0.27796        0.33909        0.34500        0.35729        0.32373        0.29978        0.34166        0.32411        0.28702        0.32421        0.33196        0.33213        0.35479        0.31936        0.28907        0.32865        0.31967        0.35401        0.33014        0.29960        0.35518        0.38858        0.39560        0.31904        0.34800        0.31886        0.33397        0.29410        0.35161        0.33779        0.25710        0.28792        0.36450        0.33494        0.32676        0.30576        0.34033        0.31961        0.29944        0.29526        0.32380        0.30736        0.26450        0.26677        0.29798        0.32892        0.28471        0.29061        0.31130        0.33011        0.28699        0.34906        0.31555        0.30692        0.30501        0.25367        0.31530        0.28258        0.24479        0.21153        0.21013        0.22110        0.24521        0.30103        0.26091        0.34530        0.28688        0.30506        0.28781        0.23530        0.27226        0.29377        0.23316        0.16779        0.23061        0.31204        0.44203        0.35595       -0.04327        0.03158       -0.41757       -0.73398
3.094185 3.060260 3.026523 2.992974 2.959613 2.926440 2.893455 2.860657 2.828047 2.795626 2.763392 2.731346 2.699489 2.667819 2.636336 2.605042 2.573936 2.543018 2.512287 2.481745 2.451390 2.421223 2.391244 2.361453 2.331850 2.302435 2.273208 2.244169 2.215317 2.186654 2.158178 2.129891 2.101791 2.073879 2.046155 2.018619 1.991271 1.964111 1.937138 1.910354 1.883757 1.857349 1.831128 1.805095 1.779250 1.753593 1.728124 1.702843 1.677750 1.652845 1.628127 1.611421 1.984910 1.484489 1.305334 1.037022 0.490052 0.954392 0.575579 0.731133 0.924026 0.726551 0.612965 0.800887 0.752803 0.643628 0.570127 0.350849 0.087823 -0.002470 -0.013686 -0.017154 0.391936 -0.037786 0.104044 -0.032596 0.038826 -0.054271 0.167756 0.165593 0.085411 0.249214 0.349657 0.297433 0.489462 0.405644 0.677303 0.554394 0.810158 0.763035 0.921781 1.061765 0.964634 1.127236 1.215560 1.027991 0.975691 0.894587 0.896341 0.961010 0.859923 0.791315 0.679695 0.585334 0.497249 0.480583 0.488769 0.310881 0.326654 0.147408 0.115624 0.172255 0.141796 0.088853 0.149501 0.204535 0.329393 0.322873 0.374754 0.387876 0.590074 0.386536 0.758177 0.756104 0.601021 0.633941 0.663044 0.463401 0.411329 0.380531 0.211303 0.231206 0.037042 0.122138 -0.012905 -0.005502 -0.070282 -0.016847 0.077153 0.027588 0.093369 0.177126 0.216165 0.254027 0.353177 0.328461 0.304496 0.411049 0.370713 0.344573 0.294468 0.217923 0.123695 0.047848 -0.028255 -0.015021 -0.133468 -0.002476 -0.026417 -0.106625 -0.072069 0.070181 0.207305 0.200017 0.255473 0.187445 0.334659 0.222479 0.216841 0.239477 0.111483 0.081423 0.225546 0.086288 0.047803 -0.001230 0.049928 -0.047745 0.031514 -0.018786 0.152279 0.073442 0.166492 0.281236 0.264183 0.105573 0.194804 0.149775 0.110313 0.055739 0.056277 0.028350 -0.004511 0.019975 -0.025826 -0.050076 0.085898 0.022699 0.145306 0.124454 0.136635 0.061183 0.071363 0.084957 0.004976 -0.079153 -0.011907 -0.012030 -0.075763 -0.012013 -0.035987 0.029331 -0.022844 0.054905 0.095348 0.114104 0.206451 0.022536 0.098851 0.064196 -0.031297 0.039297 0.021412 0.023254 0.088901 0.025626 0.046281 0.005453 0.114178 0.087897 0.099322 0.159009 0.054374 0.058885 0.027173 0.027992 0.004457 0.075736 0.020103 0.048214 0.016586 0.088627 0.016624 0.051255 0.017429 -0.034693 -0.038109 -0.046816 0.006142 0.066673 0.067890 0.040273 0.016098 0.102044 0.000576 0.071945 0.011302 0.025935 0.065395 0.011228 0.029454 0.072426 0.034195 0.022043 0.062347 0.065326 0.062567 0.060666 0.037669 0.057746 -0.031693 0.035667 0.104162 0.047434 0.035777 0.110007 0.004958 -0.003038 0.090892 0.013146 -0.010687 -0.054787 -0.064117 0.063775 0.050474 0.037466 0.007578 -0.047054 0.089674 -0.043351 -0.021658 0.012349 0.035110 0.048749 0.046252 -0.006227 -0.007620 0.022924 0.037395 0.014522 0.044298 -0.009184 0.092287 0.128798 0.091689 -0.012808 0.022336 0.043767 -0.009112 -0.037190 0.032718 0.032351 -0.096886 -0.025000 0.087266 0.002147 0.028475 -0.061516 0.156599 -0.013970 0.039616 -0.038512 0.080640 -0.018944 -0.026746 -0.051723 0.002740 0.076623 0.000218 0.050659 0.006011 0.136869 -0.046235 0.129617 0.050314 0.001854 0.046372 -0.069170 0.107921 -0.052124 -0.068514 -0.119636 -0.112402 -0.105023 -0.211592 0.023113 -0.075372 0.065328 -0.139243 0.004323 -0.091473 -0.246917 -0.060968 0.367196 0.289121 0.155466 0.317397 0.552815 0.674439 0.541185 -0.317427 0.050548 -1.038282
0.072396 0.072911 0.074456 0.077030 0.080632 0.085263 0.090920 0.097601 0.105305 0.114029 0.123768 0.134519 0.146276 0.159031 0.172777 0.187504 0.203200 0.219851 0.237442 0.255953 0.275364 0.295649 0.316782 0.338730 0.361458 0.384927 0.409092 0.433904 0.459308 0.485245 0.511649 0.538449 0.565567 0.592919 0.620412 0.647951 0.675429 0.702735 0.729749 0.756345 0.782389 0.807741 0.832254 0.855773 0.878140 0.899187 0.918744 0.936636 0.952684 0.966705 0.978516 0.987932 0.994768 0.998842 0.999975 0.997992 0.992726 0.984017 0.971718 0.955690 0.935813 0.911982 0.884111 0.852137 0.816018 0.775742 0.731322 0.682804 0.630267 0.573825 0.513627 0.449863 0.382763 0.312597 0.239678 0.164361 0.087043 0.008164 0.071796 0.152317 0.232843 0.312781 0.391509 0.468380 0.542721 0.613846 0.681057 0.743654 0.800942 0.852237 0.896878 0.934234 0.963714 0.984778 0.996947 0.999812 0.993044 0.976405 0.949758 0.913073 0.866436 0.810056 0.744273 0.669555 0.586509 0.495874 0.398525 0.295465 0.187822 0.076837 0.036142 0.149681 0.262271 0.372346 0.478309 0.578554 0.671486 0.755557 0.829285 0.891291 0.940321 0.975282 0.995265 0.999576 0.987754 0.959603 0.915200 0.854915 0.779419 0.689687 0.586996 0.472915 0.349294 0.218235 0.082069 0.056685 0.195360 0.331192 0.461372 0.583107 0.693681 0.790522 0.871260 0.933804 0.976391 0.997653 0.996663 0.972983 0.926693 0.858422 0.769348 0.661204 0.536253 0.397261 0.247438 0.090384 0.069996 0.229580 0.384135 0.529431 0.661352 0.776027 0.869949 0.940087 0.984006 0.999957 0.986963 0.944881 0.874439 0.777258 0.655829 0.513477 0.354286 0.183000 0.004892 0.174391 0.348994 0.513056 0.660900 0.787244 0.887397 0.957452 0.994456 0.996550 0.963085 0.894687 0.793291 0.662106 0.505554 0.329138 0.139269 0.056946 0.251962 0.438089 0.607785 0.753978 0.870373 0.951739 0.994172 0.995305 0.954465 0.872764 0.753111 0.600150 0.420111 0.220584 0.010224 0.201603 0.405245 0.591188 0.750521 0.875370 0.959319 0.997770 0.988219 0.930461 0.826665 0.681354 0.501240 0.294968 0.072714 0.154278 0.374266 0.575606 0.747386 0.880029 0.965865 0.999603 0.978706 0.903609 0.777797 0.607693 0.402384 0.173176 0.066995 0.304273 0.524680 0.714938 0.863297 0.960286 0.999371 0.977433 0.895070 0.756665 0.570220 0.346950 0.100658 0.153089 0.397919 0.617715 0.797688 0.925405 0.991690 0.991339 0.923589 0.792292 0.605778 0.376389 0.119727 0.146367 0.403043 0.631757 0.815637 0.940762 0.997274 0.980214 0.890025 0.732664 0.519294 0.265562 0.009483 0.284787 0.538893 0.751602 0.905641 0.988092 0.991563 0.914920 0.763540 0.549042 0.288462 0.002993 0.283717 0.547490 0.765673 0.919122 0.993938 0.982814 0.885829 0.710629 0.471924 0.190349 0.109251 0.399972 0.655268 0.851386 0.969636 0.998255 0.933669 0.781029 0.553921 0.273266 0.034516 0.339953 0.613310 0.827508 0.960862 0.999360 0.938243 0.782691 0.547526 0.255924 0.062792 0.376025 0.651232 0.859321 0.977803 0.993313 0.903238 0.716234 0.451544 0.137129 0.193178 0.503282 0.758767 0.930757 0.999270 0.955661 0.803849 0.560134 0.251593 0.086820 0.416157 0.697955 0.898741 0.994117 0.971836 0.833522 0.594762 0.283513 0.063051 0.402892 0.694187 0.900507 0.995473 0.966254 0.815462 0.561133 0.234733 0.122588 0.465121 0.748419 0.935126 0.999998 0.933483 0.743287 0.453686 0.102621 0.263193 0.594386 0.845607 0.981841 0.983412
1.000000 1.000000 1.000000 1.000000 1.000000 1.000000 1.000000 1.000000 1.000000 1.000000 1.000000 1.000000 1.000000 1.000000 1.000000 1.000000 1.000000 1.000000 1.000000 1.000000 1.000000 1.000000 1.000000 1.000000 1.000000 1.000000 1.000000 1.000000 1.000000 1.000000 1.000000 1.000000 1.000000 1.000000 1.000000 1.000000 1.000000 1.000000 1.000000 1.000000 1.000000 1.000000 1.000000 1.000000 1.000000 1.000000 1.000000 1.000000 1.000000 1.000000 1.000000 1.000000 0.845759 0.845759 0.873832 0.873832 0.873832 0.873832 0.873832 0.873832 0.873832 0.873832 0.873832 0.873832 0.873832 0.873832 0.873832 0.873832 0.873832 0.873832 0.873832 0.873832 0.873832 0.873832 0.873832 0.873832 0.873832 0.873832 0.873832 0.873832 0.873832 0.873832 0.873832 0.873832 0.873832 0.873832 0.873832 0.873832 0.873832 0.873832 0.873832 0.873832 0.873832 0.873832 0.873832 0.862615 0.869791 0.875567 0.878014 0.879823 0.881511 0.879467 0.877685 0.877684 0.878156 0.879947 0.890653 0.913700 0.928155 0.932166 0.939356 0.940469 0.945412 0.945148 0.951606 0.959674 0.959205 0.959744 0.958216 0.959742 0.949023 0.948321 0.940962 0.963037 0.950315 0.949141 0.939390 0.930892 0.929593 0.928489 0.927661 0.929835 0.919609 0.920434 0.920342 0.919823 0.917026 0.915488 0.909367 0.883974 0.885720 0.890292 0.879700 0.858438 0.844273 0.844950 0.841166 0.841038 0.828348 0.829703 0.830982 0.819438 0.820341 0.820096 0.802080 0.798231 0.795544 0.792689 0.792795 0.793514 0.797551 0.801738 0.801417 0.785127 0.747810 0.736038 0.745834 0.709316 0.697571 0.664699 0.670214 0.673487 0.674477 0.666480 0.660625 0.655566 0.649635 0.656318 0.651940 0.653716 0.653573 0.651729 0.635961 0.622610 0.592753 0.550194 0.562716 0.564882 0.564484 0.560544 0.557707 0.553997 0.570454 0.563162 0.567373 0.551444 0.540267 0.514771 0.496567 0.452306 0.460329 0.501022 0.503097 0.455210 0.477357 0.509855 0.521321 0.533456 0.535132 0.527532 0.489976 0.467147 0.446767 0.448594 0.450251 0.448335 0.447840 0.460254 0.476577 0.498470 0.495315 0.476055 0.475628 0.483454 0.474461 0.492411 0.474510 0.461223 0.441249 0.428261 0.383854 0.396343 0.406032 0.404462 0.381315 0.368870 0.381998 0.382501 0.389096 0.395641 0.390403 0.414443 0.386475 0.411349 0.392840 0.373871 0.380761 0.385416 0.376607 0.367131 0.353396 0.350926 0.349073 0.382373 0.413445 0.414556 0.460014 0.455704 0.444730 0.397578 0.423261 0.407118 0.412671 0.392298 0.358439 0.356364 0.367851 0.387119 0.376567 0.311240 0.287341 0.271798 0.261253 0.247777 0.242241 0.165317 0.127079 0.103969 0.114172 0.124989 0.120355 0.139016 0.102669 0.111836 0.148386 0.152251 0.143452 0.132420 0.125475 0.129349 0.098953 0.136827 0.122376 0.111565 0.134672 0.116044 0.121414 0.084618 0.084069 0.047769 0.045098 0.057664 0.066297 0.003905 -0.011160 -0.004683 0.003275 0.021673 -0.000424 -0.003280 0.001085 -0.018213 -0.027434 -0.024915 -0.045398 -0.080746 -0.057902 -0.061743 -0.031543 -0.090056 -0.087429 -0.101894 -0.087749 -0.061972 -0.044572 -0.044058 -0.044086 -0.005437 -0.035237 -0.057392 -0.059365 -0.105776 -0.107615 -0.135279 -0.156329 -0.156329 -0.147442 -0.147442 -0.147442 -0.147442 -0.147442 -0.147442 -0.147442 -0.147442 -0.147442 -0.132839 -0.132839 -0.132839 -0.132839 -0.132839 -0.132839 -0.132839 -0.132839 -0.165638 -0.165638 -0.165638 -0.165638 -0.165638 -0.165638 -0.165638 -0.165638 -0.165638 -0.165638
0.000000 0.000000 0.000000 0.000000 0.000000 0.000000 0.000000 0.000000 0.000000 0.000000 0.000000 0.000000 0.000000 0.000000 0.000000 0.000000 0.000000 0.000000 0.000000 0.000000 0.000000 0.000000 0.000000 0.000000 0.000000 0.000000 0.000000 0.000000 0.000000 0.000000 0.000000 0.000000 0.000000 0.000000 0.000000 0.000000 0.000000 0.000000 0.000000 0.000000 0.000000 0.000000 0.000000 0.000000 0.000000 0.000000 0.000000 0.000000 0.000000 0.000000 0.000000 0.000000 0.181818 0.181818 0.199007 0.199007 0.199007 0.199007 0.199007 0.199007 0.199007 0.199007 0.199007 0.199007 0.199007 0.199007 0.199007 0.199007 0.199007 0.199007 0.199007 0.199007 0.199007 0.199007 0.199007 0.199007 0.199007 0.199007 0.199007 0.199007 0.199007 0.199007 0.199007 0.199007 0.199007 0.199007 0.199007 0.199007 0.199007 0.199007 0.199007 0.199007 0.199007 0.199007 0.199007 0.230940 0.230940 0.230940 0.230940 0.230940 0.230940 0.230940 0.230940 0.230940 0.230940 0.230940 0.230940 0.230940 0.230940 0.230940 0.230940 0.230940 0.230940 0.230940 0.230940 0.230940 0.230940 0.230940 0.230940 0.230940 0.230940 0.230940 0.230940 0.244339 0.244339 0.244339 0.244339 0.244339 0.244339 0.244339 0.244339 0.244339 0.244339 0.244339 0.244339 0.244339 0.244339 0.244339 0.244339 0.244339 0.244339 0.244339 0.244339 0.244339 0.244339 0.244339 0.251976 0.251976 0.251976 0.251976 0.251976 0.251976 0.251976 0.251976 0.251976 0.251976 0.251976 0.251976 0.251976 0.251976 0.251976 0.251976 0.251976 0.251976 0.251976 0.251976 0.264906 0.264906 0.264906 0.264906 0.264906 0.264906 0.264906 0.264906 0.264906 0.264906 0.264906 0.264906 0.264906 0.264906 0.264906 0.264906 0.264906 0.264906 0.264906 0.264906 0.264906 0.264906 0.264906 0.264906 0.264906 0.264906 0.264906 0.264906 0.264906 0.264906 0.264906 0.264906 0.264906 0.264906 0.264906 0.264906 0.264906 0.264906 0.264906 0.264906 0.264906 0.264906 0.264906 0.264906 0.264906 0.264906 0.264906 0.264906 0.264906 0.264906 0.264906 0.264906 0.264906 0.264906 0.264906 0.264906 0.264906 0.264906 0.264906 0.264906 0.264906 0.264906 0.264906 0.264906 0.264906 0.264906 0.264906 0.264906 0.264906 0.264906 0.264906 0.264906 0.264906 0.264906 0.264906 0.269680 0.269680 0.269680 0.269680 0.269680 0.269680 0.269680 0.269680 0.269680 0.269680 0.269680 0.269680 0.264906 0.264906 0.264906 0.264906 0.264906 0.264906 0.264906 0.264906 0.264906 0.264906 0.264906 0.264906 0.269680 0.269680 0.269680 0.269680 0.269680 0.269680 0.269680 0.269680 0.269680 0.269680 0.269680 0.264906 0.264906 0.264906 0.264906 0.264906 0.264906 0.264906 0.264906 0.264906 0.264906 0.264906 0.269680 0.269680 0.269680 0.269680 0.269680 0.269680 0.269680 0.269680 0.269680 0.269680 0.264906 0.264906 0.264906 0.264906 0.264906 0.264906 0.264906 0.264906 0.264906 0.264906 0.260378 0.260378 0.260378 0.260378 0.260378 0.260378 0.260378 0.260378 0.260378 0.260378 0.256074 0.256074 0.256074 0.256074 0.256074 0.256074 0.256074 0.256074 0.256074 0.256074 0.260378 0.260378 0.260378 0.260378 0.260378 0.260378 0.260378 0.260378 0.260378 0.256074 0.256074 0.256074 0.256074 0.256074 0.256074 0.256074 0.256074 0.256074 0.269680 0.269680 0.269680 0.269680 0.269680 0.269680 0.269680 0.269680 0.248069 0.248069 0.248069 0.248069 0.248069 0.248069 0.248069 0.248069 0.248069 0.248069
