# Output from CTFFind version 4.1.9, run on 2019-11-03 19:00:07
# Input file: stack1_bm3d_averaged_1_2.75_0_2500_half.mrc ; Number of micrographs: 1
# Pixel size: 3.000 Angstroms ; acceleration voltage: 300.0 keV ; spherical aberration: 0.00 mm ; amplitude contrast: 0.07
# Box size: 512 pixels ; min. res.: 30.0 Angstroms ; max. res.: 5.0 Angstroms ; min. def.: 5000.0 um; max. def. 50000.0 um; num. frames averaged: 1
# 6 lines per micrograph: #1 - spatial frequency (1/Angstroms); #2 - 1D rotational average of spectrum (assuming no astigmatism); #3 - 1D rotational average of spectrum; #4 - CTF fit; #5 - cross-correlation between spectrum and CTF fit; #6 - 2sigma of expected cross correlation of noise
0.000000 0.000651 0.001302 0.001953 0.002604 0.003255 0.003906 0.004557 0.005208 0.005859 0.006510 0.007161 0.007812 0.008464 0.009115 0.009766 0.010417 0.011068 0.011719 0.012370 0.013021 0.013672 0.014323 0.014974 0.015625 0.016276 0.016927 0.017578 0.018229 0.018880 0.019531 0.020182 0.020833 0.021484 0.022135 0.022786 0.023438 0.024089 0.024740 0.025391 0.026042 0.026693 0.027344 0.027995 0.028646 0.029297 0.029948 0.030599 0.031250 0.031901 0.032552 0.033203 0.033854 0.034505 0.035156 0.035807 0.036458 0.037109 0.037760 0.038411 0.039062 0.039714 0.040365 0.041016 0.041667 0.042318 0.042969 0.043620 0.044271 0.044922 0.045573 0.046224 0.046875 0.047526 0.048177 0.048828 0.049479 0.050130 0.050781 0.051432 0.052083 0.052734 0.053385 0.054036 0.054688 0.055339 0.055990 0.056641 0.057292 0.057943 0.058594 0.059245 0.059896 0.060547 0.061198 0.061849 0.062500 0.063151 0.063802 0.064453 0.065104 0.065755 0.066406 0.067057 0.067708 0.068359 0.069010 0.069661 0.070312 0.070964 0.071615 0.072266 0.072917 0.073568 0.074219 0.074870 0.075521 0.076172 0.076823 0.077474 0.078125 0.078776 0.079427 0.080078 0.080729 0.081380 0.082031 0.082682 0.083333 0.083984 0.084635 0.085286 0.085938 0.086589 0.087240 0.087891 0.088542 0.089193 0.089844 0.090495 0.091146 0.091797 0.092448 0.093099 0.093750 0.094401 0.095052 0.095703 0.096354 0.097005 0.097656 0.098307 0.098958 0.099609 0.100260 0.100911 0.101562 0.102214 0.102865 0.103516 0.104167 0.104818 0.105469 0.106120 0.106771 0.107422 0.108073 0.108724 0.109375 0.110026 0.110677 0.111328 0.111979 0.112630 0.113281 0.113932 0.114583 0.115234 0.115885 0.116536 0.117188 0.117839 0.118490 0.119141 0.119792 0.120443 0.121094 0.121745 0.122396 0.123047 0.123698 0.124349 0.125000 0.125651 0.126302 0.126953 0.127604 0.128255 0.128906 0.129557 0.130208 0.130859 0.131510 0.132161 0.132812 0.133464 0.134115 0.134766 0.135417 0.136068 0.136719 0.137370 0.138021 0.138672 0.139323 0.139974 0.140625 0.141276 0.141927 0.142578 0.143229 0.143880 0.144531 0.145182 0.145833 0.146484 0.147135 0.147786 0.148438 0.149089 0.149740 0.150391 0.151042 0.151693 0.152344 0.152995 0.153646 0.154297 0.154948 0.155599 0.156250 0.156901 0.157552 0.158203 0.158854 0.159505 0.160156 0.160807 0.161458 0.162109 0.162760 0.163411 0.164062 0.164714 0.165365 0.166016 0.166667 0.167318 0.167969 0.168620 0.169271 0.169922 0.170573 0.171224 0.171875 0.172526 0.173177 0.173828 0.174479 0.175130 0.175781 0.176432 0.177083 0.177734 0.178385 0.179036 0.179688 0.180339 0.180990 0.181641 0.182292 0.182943 0.183594 0.184245 0.184896 0.185547 0.186198 0.186849 0.187500 0.188151 0.188802 0.189453 0.190104 0.190755 0.191406 0.192057 0.192708 0.193359 0.194010 0.194661 0.195312 0.195964 0.196615 0.197266 0.197917 0.198568 0.199219 0.199870 0.200521 0.201172 0.201823 0.202474 0.203125 0.203776 0.204427 0.205078 0.205729 0.206380 0.207031 0.207682 0.208333 0.208984 0.209635 0.210286 0.210938 0.211589 0.212240 0.212891 0.213542 0.214193 0.214844 0.215495 0.216146 0.216797 0.217448 0.218099 0.218750 0.219401 0.220052 0.220703 0.221354 0.222005 0.222656 0.223307 0.223958 0.224609 0.225260 0.225911 0.226562 0.227214 0.227865 0.228516 0.229167 0.229818 0.230469 0.231120 0.231771 0.232422 0.233073 0.233724 0.234375 0.235026 0.235677
       0.35136        0.35136        0.35136        0.35136        0.35136        0.35136        0.35136        0.35136        0.35136        0.35136        0.35136        0.35136        0.35136        0.35136        0.35136        0.35136        0.35136        0.35136        0.35136        0.35136        0.35136        0.35136        0.35136        0.35136        0.35136        0.35136        0.35136        0.35136        0.35136        0.35136        0.35136        0.35136        0.35136        0.35136        0.35136        0.35136        0.35136        0.35136        0.35136        0.35136        0.35136        0.35136        0.35136        0.35136        0.35136        0.35136        0.35136        0.35136        0.35136        0.35136        0.35136        0.50358        0.71596        0.42794        0.21824       -0.04252       -0.23011       -0.04466       -0.10275       -0.06138        0.02087       -0.11422       -0.09098       -0.02967       -0.00915       -0.12522       -0.15527       -0.28592       -0.45870       -0.56598       -0.49983       -0.44802       -0.35316       -0.55186       -0.41224       -0.55765       -0.45667       -0.46543       -0.36388       -0.33472       -0.29740       -0.20800       -0.12022       -0.11985        0.02745        0.00756        0.15960        0.19742        0.33732        0.43417        0.51406        0.55810        0.56950        0.59130        0.71347        0.66383        0.68815        0.59051        0.55513        0.64513        0.51502        0.46973        0.42549        0.31755        0.27839        0.30712        0.26864        0.11797        0.09865       -0.00451        0.02142        0.05378        0.01546        0.10593        0.13664        0.22113        0.29441        0.30567        0.43036        0.57266        0.57121        0.57427        0.67010        0.65210        0.63217        0.68619        0.65467        0.55115        0.55782        0.41891        0.36269        0.27615        0.19109        0.11803        0.15564        0.13226        0.14725        0.14383        0.23178        0.23784        0.32332        0.36843        0.42220        0.51749        0.53596        0.56187        0.57480        0.60728        0.56467        0.49769        0.49336        0.35781        0.28690        0.28084        0.26382        0.18692        0.17592        0.19440        0.24339        0.28190        0.36577        0.40229        0.42378        0.45673        0.46236        0.48425        0.44952        0.49599        0.45085        0.39267        0.35966        0.36471        0.33583        0.30776        0.23262        0.24786        0.23964        0.28332        0.28795        0.36991        0.41041        0.39051        0.43214        0.45473        0.45603        0.44814        0.45416        0.36891        0.37082        0.30348        0.26188        0.30276        0.29545        0.32783        0.34203        0.37403        0.36050        0.43397        0.41956        0.45664        0.40944        0.44360        0.39639        0.37299        0.32279        0.30313        0.30298        0.29048        0.30284        0.35962        0.36910        0.36445        0.37430        0.36709        0.36891        0.43268        0.41802        0.37687        0.35946        0.31956        0.30606        0.35133        0.32328        0.34731        0.31245        0.33568        0.36419        0.39590        0.37034        0.34413        0.34623        0.35861        0.33225        0.31433        0.34764        0.33436        0.35046        0.34313        0.35560        0.38600        0.33659        0.32899        0.35244        0.32050        0.29466        0.28837        0.29732        0.32343        0.34455        0.37215        0.32060        0.32090        0.34615        0.31723        0.34084        0.31437        0.31903        0.31142        0.30417        0.30255        0.34159        0.33716        0.34799        0.33862        0.37576        0.35975        0.33169        0.34374        0.34221        0.26409        0.29026        0.34966        0.29045        0.31382        0.36973        0.33848        0.33937        0.36425        0.33705        0.28234        0.27536        0.31517        0.35468        0.38228        0.36554        0.32218        0.31298        0.29912        0.31136        0.28253        0.31905        0.31167        0.34696        0.33967        0.32363        0.29834        0.34848        0.34435        0.34037        0.29849        0.30231        0.35530        0.40215        0.36507        0.36245        0.34941        0.31294        0.31564        0.30916        0.30807        0.30586        0.22139        0.27207        0.33300        0.31481        0.31163        0.31249        0.26221        0.23638        0.24967        0.30224        0.33250        0.30238        0.29746        0.31803        0.39295        0.31535        0.24228        0.33228        0.29620        0.26987        0.30043        0.36325        0.32411        0.32764        0.29755        0.26520        0.29760        0.30755        0.24156        0.19995        0.26728        0.27871        0.22049        0.31508        0.26895        0.36121        0.31249        0.25098        0.26339        0.24233        0.29803        0.32646        0.25705        0.14175        0.18307        0.28739        0.25789        0.29483        0.16003        0.15517       -0.54841       -1.15145
2.680884 2.652528 2.624324 2.596275 2.568379 2.540636 2.513047 2.485611 2.458329 2.431200 2.404225 2.377403 2.350734 2.324220 2.297858 2.271650 2.245596 2.219695 2.193947 2.168353 2.142913 2.117626 2.092492 2.067512 2.042686 2.018012 1.993493 1.969127 1.944914 1.920855 1.896949 1.873197 1.849598 1.826153 1.802861 1.779723 1.756738 1.733906 1.711228 1.688704 1.666333 1.644116 1.622052 1.600141 1.578384 1.556781 1.535331 1.514034 1.492891 1.471901 1.451065 1.497083 1.810393 1.484742 1.228816 0.951749 0.554356 0.914533 0.661146 0.839547 0.902657 0.635822 0.672434 0.792786 0.787305 0.618414 0.596760 0.410069 0.106391 0.049827 0.052189 0.050203 0.310601 -0.037519 0.069300 -0.059996 0.019644 -0.016901 0.093801 0.098775 0.145184 0.189824 0.321654 0.269869 0.455161 0.374545 0.578435 0.553753 0.773962 0.795035 0.901266 0.986418 0.942129 0.968126 1.100379 0.990209 1.116515 0.907179 0.856249 0.964295 0.812444 0.768409 0.667144 0.547055 0.488737 0.475022 0.494286 0.259829 0.212241 0.144005 0.022804 0.198018 0.011410 0.131642 0.215347 0.240130 0.310282 0.345145 0.456587 0.553848 0.683023 0.517389 0.712283 0.789848 0.589509 0.737730 0.686042 0.589814 0.492535 0.466614 0.299583 0.224370 0.096453 0.006670 -0.003380 0.028196 -0.045957 -0.022579 0.083958 0.056248 0.116039 0.203254 0.247827 0.344536 0.407025 0.403556 0.457525 0.418316 0.466861 0.339574 0.326712 0.243558 0.080796 0.064891 0.037547 -0.035652 -0.065314 -0.075668 -0.007604 -0.025602 0.100428 0.143020 0.159462 0.232994 0.224514 0.272238 0.249142 0.219411 0.236548 0.200822 0.112116 0.095905 0.091248 0.037952 0.009147 -0.088659 -0.017560 0.001011 0.017679 0.009735 0.126311 0.114285 0.134878 0.199467 0.253148 0.164213 0.229774 0.102035 0.156234 0.042032 -0.032370 0.022419 0.000305 0.026930 0.027025 0.088439 0.079132 0.095073 0.168164 0.160352 0.150068 0.113109 0.165425 0.067851 0.066459 -0.008032 -0.015217 -0.009159 -0.034559 0.005468 0.070098 0.084885 0.033931 0.091846 0.086086 0.069785 0.171430 0.087277 0.092312 0.065416 -0.024924 0.039918 0.045673 0.007390 0.062704 0.018095 0.043615 0.053051 0.077322 0.066471 0.043348 0.003746 0.075434 -0.005721 0.026182 0.043826 0.013938 0.069351 0.047627 0.063509 0.071487 0.024123 0.023153 0.036628 0.001309 -0.036574 -0.010948 -0.003829 0.004920 0.044294 0.091440 -0.006685 0.028098 0.085074 -0.017303 0.065985 0.035834 0.022014 0.016501 0.031852 0.019190 0.062402 0.031644 0.094007 0.050329 0.132452 0.093142 0.079068 0.113258 0.054500 -0.019935 0.046648 0.095141 0.019296 0.071625 0.097901 0.036575 0.070960 0.073916 0.030065 -0.006130 -0.058386 0.052775 0.083559 0.111846 0.069447 0.024120 0.017447 0.017206 0.025533 -0.037767 0.049066 0.037467 0.063382 0.094377 0.001354 0.049158 0.001199 0.045855 0.014404 -0.019516 -0.028820 0.092758 0.103094 0.053553 0.039765 0.028336 0.021331 -0.040259 0.004694 -0.039770 0.000787 -0.142646 -0.025865 0.018888 0.020993 -0.025195 0.003794 -0.027365 -0.071956 -0.019518 -0.020232 0.074039 0.012660 0.030501 0.028642 0.119962 0.071244 -0.017042 0.096016 0.034713 0.021937 0.038390 0.142473 0.077739 0.071180 0.046842 0.018341 0.036742 0.076709 -0.024967 -0.112063 0.018139 0.033595 -0.074600 0.060070 -0.036330 0.163189 0.016151 -0.016291 0.000475 -0.019648 -0.000037 0.377611 0.303196 0.156444 0.224556 0.353067 0.289945 0.345496 0.078516 0.186292 -1.338486
0.072396 0.072911 0.074454 0.077026 0.080626 0.085253 0.090906 0.097583 0.105282 0.113999 0.123732 0.134475 0.146223 0.158969 0.172706 0.187422 0.203107 0.219747 0.237325 0.255824 0.275221 0.295493 0.316612 0.338546 0.361260 0.384714 0.408863 0.433660 0.459050 0.484973 0.511363 0.538149 0.565255 0.592594 0.620077 0.647605 0.675075 0.702374 0.729383 0.755976 0.782020 0.807374 0.831892 0.855419 0.877797 0.898859 0.918435 0.936350 0.952424 0.966477 0.978325 0.987782 0.994665 0.998791 0.999982 0.998062 0.992865 0.984231 0.972011 0.956068 0.936282 0.912546 0.884775 0.852904 0.816893 0.776727 0.732420 0.684017 0.631595 0.575267 0.515182 0.451529 0.384535 0.314471 0.241646 0.166415 0.089173 0.010358 0.069550 0.150034 0.230538 0.310473 0.389218 0.466125 0.540525 0.611732 0.679050 0.741779 0.799223 0.850700 0.895548 0.933136 0.962873 0.984217 0.996686 0.999871 0.993439 0.977151 0.950865 0.914546 0.868278 0.812265 0.746839 0.672467 0.589747 0.499414 0.402336 0.299511 0.192061 0.081221 0.031666 0.145171 0.257787 0.367955 0.474079 0.574554 0.667787 0.752228 0.826394 0.888902 0.938494 0.974070 0.994715 0.999723 0.988626 0.961214 0.917552 0.857997 0.783204 0.694134 0.592048 0.478503 0.355330 0.224620 0.088691 0.049949 0.188641 0.324629 0.455107 0.577282 0.688438 0.785993 0.867573 0.931069 0.974705 0.997090 0.997276 0.974798 0.929710 0.862608 0.774642 0.667512 0.543453 0.405197 0.255933 0.099236 0.061007 0.220690 0.375588 0.521469 0.654215 0.769941 0.865117 0.936689 0.982184 0.999813 0.988553 0.948210 0.879460 0.783866 0.663867 0.522734 0.364504 0.193880 0.016097 0.163218 0.338227 0.503069 0.652053 0.779876 0.881804 0.953883 0.993092 0.997502 0.966382 0.900274 0.801022 0.671750 0.516798 0.341593 0.152488 0.043459 0.238734 0.425654 0.596664 0.744659 0.863284 0.947233 0.992503 0.996616 0.958777 0.879965 0.762962 0.612281 0.434039 0.235728 0.025930 0.186045 0.390554 0.578073 0.739634 0.867284 0.954490 0.996508 0.990671 0.936593 0.836259 0.694007 0.516384 0.311883 0.090569 0.136392 0.357288 0.560458 0.734918 0.870976 0.960795 0.998884 0.982474 0.911753 0.789954 0.623259 0.420541 0.192930 0.046761 0.284739 0.507021 0.700248 0.852525 0.954172 0.998387 0.981748 0.904525 0.770773 0.588182 0.367700 0.122915 0.130735 0.376932 0.599507 0.783525 0.916317 0.988392 0.994172 0.932480 0.806745 0.624898 0.398922 0.144151 0.121762 0.380021 0.612012 0.800674 0.931773 0.995039 0.985027 0.901660 0.750367 0.541827 0.291285 0.017501 0.258627 0.515625 0.733123 0.893509 0.983399 0.994824 0.926013 0.781698 0.572892 0.316122 0.032212 0.255373 0.522447 0.746132 0.906862 0.990155 0.987985 0.899656 0.732036 0.499134 0.221019 0.077831 0.370651 0.630769 0.834051 0.961197 0.999650 0.944935 0.801262 0.581342 0.305365 0.000767 0.307805 0.585939 0.807688 0.950685 1.000000 0.949811 0.804196 0.576940 0.290361 0.026800 0.342184 0.623109 0.839962 0.969392 0.996920 0.918664 0.742005 0.485027 0.174800 0.155388 0.469546 0.732891 0.915754 0.996994 0.966564 0.826893 0.592866 0.290391 0.046359 0.378723 0.667980 0.879874 0.988762 0.980833 0.856003 0.628214 0.324033 0.020306 0.363137 0.662381 0.880723 0.990357 0.976662 0.840301 0.597453 0.278056 0.077733 0.424515 0.717408 0.917899 0.999017 0.949108 0.773672 0.494979 0.149413 0.217155 0.555359 0.819036 0.971550 0.991049
1.000000 1.000000 1.000000 1.000000 1.000000 1.000000 1.000000 1.000000 1.000000 1.000000 1.000000 1.000000 1.000000 1.000000 1.000000 1.000000 1.000000 1.000000 1.000000 1.000000 1.000000 1.000000 1.000000 1.000000 1.000000 1.000000 1.000000 1.000000 1.000000 1.000000 1.000000 1.000000 1.000000 1.000000 1.000000 1.000000 1.000000 1.000000 1.000000 1.000000 1.000000 1.000000 1.000000 1.000000 1.000000 1.000000 1.000000 1.000000 1.000000 1.000000 1.000000 1.000000 0.921326 0.921326 0.907528 0.907528 0.907528 0.907528 0.907528 0.907528 0.907528 0.907528 0.907528 0.907528 0.907528 0.907528 0.907528 0.907528 0.907528 0.907528 0.907528 0.907528 0.907528 0.907528 0.907528 0.907528 0.907528 0.907528 0.907528 0.907528 0.907528 0.907528 0.907528 0.907528 0.907528 0.907528 0.907528 0.907528 0.907528 0.907528 0.907528 0.907528 0.907528 0.907528 0.907528 0.899364 0.906193 0.909390 0.908056 0.911501 0.911851 0.909928 0.909329 0.909238 0.909620 0.910642 0.918303 0.932546 0.939802 0.943377 0.946932 0.953652 0.957057 0.956684 0.963285 0.971583 0.970404 0.970014 0.970591 0.971730 0.973630 0.972569 0.971794 0.975175 0.975672 0.974412 0.971895 0.971339 0.970805 0.970607 0.970290 0.970401 0.971028 0.971497 0.971228 0.971268 0.971408 0.971476 0.972464 0.973583 0.976078 0.976998 0.976930 0.976066 0.974521 0.976268 0.979716 0.977147 0.976858 0.976476 0.976682 0.966268 0.963518 0.963556 0.959806 0.957605 0.956082 0.952904 0.952943 0.953364 0.952452 0.953005 0.951137 0.942638 0.937292 0.923647 0.936605 0.933201 0.919827 0.905361 0.907213 0.908508 0.908759 0.906486 0.899011 0.896304 0.893213 0.895194 0.898349 0.901088 0.894255 0.887437 0.886114 0.883048 0.857900 0.840972 0.826433 0.818568 0.815217 0.815766 0.813086 0.808203 0.816365 0.809320 0.804815 0.793117 0.785720 0.758466 0.738520 0.742165 0.749666 0.752418 0.746387 0.721236 0.675146 0.689682 0.683655 0.677435 0.676681 0.668947 0.661693 0.667544 0.670142 0.655210 0.648217 0.649647 0.649262 0.661962 0.664265 0.652983 0.649780 0.637383 0.629624 0.604597 0.602825 0.618731 0.578291 0.569258 0.556411 0.547221 0.544455 0.537146 0.539972 0.539333 0.524093 0.515331 0.503279 0.508150 0.513863 0.514678 0.496172 0.513494 0.513518 0.551505 0.543879 0.533597 0.526994 0.531755 0.512381 0.504612 0.507235 0.509261 0.511083 0.549918 0.554231 0.561122 0.555781 0.546785 0.529247 0.511522 0.508900 0.538129 0.513077 0.491617 0.481994 0.481800 0.462432 0.442573 0.411822 0.402810 0.370733 0.366792 0.356403 0.336892 0.337100 0.249163 0.209941 0.199106 0.220831 0.236717 0.262415 0.272218 0.251756 0.272414 0.315123 0.306686 0.296772 0.271467 0.271176 0.264454 0.265955 0.232057 0.211032 0.192789 0.199764 0.151416 0.157227 0.162470 0.184798 0.125740 0.094606 0.099072 0.120320 0.150032 0.149121 0.150977 0.139874 0.176531 0.175488 0.174209 0.134886 0.089072 0.119604 0.126035 0.127990 0.081645 0.084650 0.065587 0.084898 0.115972 0.123701 0.110448 0.107256 0.134328 0.152820 0.149738 0.159595 0.196465 0.164653 0.162406 0.158614 0.106977 0.120763 0.035462 0.013525 0.013525 0.005437 0.005437 0.005437 0.005437 0.005437 0.005437 0.005437 0.005437 0.005437 0.003334 0.003334 0.003334 0.003334 0.003334 0.003334 0.003334 0.003334 0.003334 0.037228 0.037228 0.037228 0.037228 0.037228 0.037228 0.037228 0.037228 0.037228
0.000000 0.000000 0.000000 0.000000 0.000000 0.000000 0.000000 0.000000 0.000000 0.000000 0.000000 0.000000 0.000000 0.000000 0.000000 0.000000 0.000000 0.000000 0.000000 0.000000 0.000000 0.000000 0.000000 0.000000 0.000000 0.000000 0.000000 0.000000 0.000000 0.000000 0.000000 0.000000 0.000000 0.000000 0.000000 0.000000 0.000000 0.000000 0.000000 0.000000 0.000000 0.000000 0.000000 0.000000 0.000000 0.000000 0.000000 0.000000 0.000000 0.000000 0.000000 0.000000 0.181818 0.181818 0.199007 0.199007 0.199007 0.199007 0.199007 0.199007 0.199007 0.199007 0.199007 0.199007 0.199007 0.199007 0.199007 0.199007 0.199007 0.199007 0.199007 0.199007 0.199007 0.199007 0.199007 0.199007 0.199007 0.199007 0.199007 0.199007 0.199007 0.199007 0.199007 0.199007 0.199007 0.199007 0.199007 0.199007 0.199007 0.199007 0.199007 0.199007 0.199007 0.199007 0.199007 0.230940 0.230940 0.230940 0.230940 0.230940 0.230940 0.230940 0.230940 0.230940 0.230940 0.230940 0.230940 0.230940 0.230940 0.230940 0.230940 0.230940 0.230940 0.230940 0.230940 0.230940 0.230940 0.230940 0.230940 0.230940 0.230940 0.230940 0.230940 0.244339 0.244339 0.244339 0.244339 0.244339 0.244339 0.244339 0.244339 0.244339 0.244339 0.244339 0.244339 0.244339 0.244339 0.244339 0.244339 0.244339 0.244339 0.244339 0.244339 0.244339 0.244339 0.244339 0.251976 0.251976 0.251976 0.251976 0.251976 0.251976 0.251976 0.251976 0.251976 0.251976 0.251976 0.251976 0.251976 0.251976 0.251976 0.251976 0.251976 0.251976 0.251976 0.251976 0.264906 0.264906 0.264906 0.264906 0.264906 0.264906 0.264906 0.264906 0.264906 0.264906 0.264906 0.264906 0.264906 0.264906 0.264906 0.264906 0.264906 0.264906 0.264906 0.264906 0.264906 0.264906 0.264906 0.264906 0.264906 0.264906 0.264906 0.264906 0.264906 0.264906 0.264906 0.264906 0.264906 0.264906 0.264906 0.264906 0.264906 0.264906 0.264906 0.264906 0.264906 0.264906 0.264906 0.264906 0.264906 0.264906 0.264906 0.264906 0.264906 0.264906 0.264906 0.264906 0.264906 0.264906 0.264906 0.264906 0.264906 0.264906 0.264906 0.264906 0.264906 0.264906 0.264906 0.264906 0.264906 0.264906 0.264906 0.264906 0.264906 0.264906 0.264906 0.264906 0.264906 0.264906 0.264906 0.269680 0.269680 0.269680 0.269680 0.269680 0.269680 0.269680 0.269680 0.269680 0.269680 0.269680 0.269680 0.264906 0.264906 0.264906 0.264906 0.264906 0.264906 0.264906 0.264906 0.264906 0.264906 0.264906 0.264906 0.269680 0.269680 0.269680 0.269680 0.269680 0.269680 0.269680 0.269680 0.269680 0.269680 0.269680 0.264906 0.264906 0.264906 0.264906 0.264906 0.264906 0.264906 0.264906 0.264906 0.264906 0.264906 0.269680 0.269680 0.269680 0.269680 0.269680 0.269680 0.269680 0.269680 0.269680 0.269680 0.264906 0.264906 0.264906 0.264906 0.264906 0.264906 0.264906 0.264906 0.264906 0.264906 0.260378 0.260378 0.260378 0.260378 0.260378 0.260378 0.260378 0.260378 0.260378 0.260378 0.256074 0.256074 0.256074 0.256074 0.256074 0.256074 0.256074 0.256074 0.256074 0.256074 0.260378 0.260378 0.260378 0.260378 0.260378 0.260378 0.260378 0.260378 0.260378 0.256074 0.256074 0.256074 0.256074 0.256074 0.256074 0.256074 0.256074 0.256074 0.251976 0.251976 0.251976 0.251976 0.251976 0.251976 0.251976 0.251976 0.251976 0.264906 0.264906 0.264906 0.264906 0.264906 0.264906 0.264906 0.264906 0.264906
