# Output from CTFFind version 4.1.9, run on 2019-11-03 19:00:53
# Input file: stack6_bm3d_averaged_1_2.75_0_2000_half.mrc ; Number of micrographs: 1
# Pixel size: 3.000 Angstroms ; acceleration voltage: 300.0 keV ; spherical aberration: 0.00 mm ; amplitude contrast: 0.07
# Box size: 512 pixels ; min. res.: 30.0 Angstroms ; max. res.: 5.0 Angstroms ; min. def.: 5000.0 um; max. def. 50000.0 um; num. frames averaged: 1
# 6 lines per micrograph: #1 - spatial frequency (1/Angstroms); #2 - 1D rotational average of spectrum (assuming no astigmatism); #3 - 1D rotational average of spectrum; #4 - CTF fit; #5 - cross-correlation between spectrum and CTF fit; #6 - 2sigma of expected cross correlation of noise
0.000000 0.000651 0.001302 0.001953 0.002604 0.003255 0.003906 0.004557 0.005208 0.005859 0.006510 0.007161 0.007812 0.008464 0.009115 0.009766 0.010417 0.011068 0.011719 0.012370 0.013021 0.013672 0.014323 0.014974 0.015625 0.016276 0.016927 0.017578 0.018229 0.018880 0.019531 0.020182 0.020833 0.021484 0.022135 0.022786 0.023438 0.024089 0.024740 0.025391 0.026042 0.026693 0.027344 0.027995 0.028646 0.029297 0.029948 0.030599 0.031250 0.031901 0.032552 0.033203 0.033854 0.034505 0.035156 0.035807 0.036458 0.037109 0.037760 0.038411 0.039062 0.039714 0.040365 0.041016 0.041667 0.042318 0.042969 0.043620 0.044271 0.044922 0.045573 0.046224 0.046875 0.047526 0.048177 0.048828 0.049479 0.050130 0.050781 0.051432 0.052083 0.052734 0.053385 0.054036 0.054688 0.055339 0.055990 0.056641 0.057292 0.057943 0.058594 0.059245 0.059896 0.060547 0.061198 0.061849 0.062500 0.063151 0.063802 0.064453 0.065104 0.065755 0.066406 0.067057 0.067708 0.068359 0.069010 0.069661 0.070312 0.070964 0.071615 0.072266 0.072917 0.073568 0.074219 0.074870 0.075521 0.076172 0.076823 0.077474 0.078125 0.078776 0.079427 0.080078 0.080729 0.081380 0.082031 0.082682 0.083333 0.083984 0.084635 0.085286 0.085938 0.086589 0.087240 0.087891 0.088542 0.089193 0.089844 0.090495 0.091146 0.091797 0.092448 0.093099 0.093750 0.094401 0.095052 0.095703 0.096354 0.097005 0.097656 0.098307 0.098958 0.099609 0.100260 0.100911 0.101562 0.102214 0.102865 0.103516 0.104167 0.104818 0.105469 0.106120 0.106771 0.107422 0.108073 0.108724 0.109375 0.110026 0.110677 0.111328 0.111979 0.112630 0.113281 0.113932 0.114583 0.115234 0.115885 0.116536 0.117188 0.117839 0.118490 0.119141 0.119792 0.120443 0.121094 0.121745 0.122396 0.123047 0.123698 0.124349 0.125000 0.125651 0.126302 0.126953 0.127604 0.128255 0.128906 0.129557 0.130208 0.130859 0.131510 0.132161 0.132812 0.133464 0.134115 0.134766 0.135417 0.136068 0.136719 0.137370 0.138021 0.138672 0.139323 0.139974 0.140625 0.141276 0.141927 0.142578 0.143229 0.143880 0.144531 0.145182 0.145833 0.146484 0.147135 0.147786 0.148438 0.149089 0.149740 0.150391 0.151042 0.151693 0.152344 0.152995 0.153646 0.154297 0.154948 0.155599 0.156250 0.156901 0.157552 0.158203 0.158854 0.159505 0.160156 0.160807 0.161458 0.162109 0.162760 0.163411 0.164062 0.164714 0.165365 0.166016 0.166667 0.167318 0.167969 0.168620 0.169271 0.169922 0.170573 0.171224 0.171875 0.172526 0.173177 0.173828 0.174479 0.175130 0.175781 0.176432 0.177083 0.177734 0.178385 0.179036 0.179688 0.180339 0.180990 0.181641 0.182292 0.182943 0.183594 0.184245 0.184896 0.185547 0.186198 0.186849 0.187500 0.188151 0.188802 0.189453 0.190104 0.190755 0.191406 0.192057 0.192708 0.193359 0.194010 0.194661 0.195312 0.195964 0.196615 0.197266 0.197917 0.198568 0.199219 0.199870 0.200521 0.201172 0.201823 0.202474 0.203125 0.203776 0.204427 0.205078 0.205729 0.206380 0.207031 0.207682 0.208333 0.208984 0.209635 0.210286 0.210938 0.211589 0.212240 0.212891 0.213542 0.214193 0.214844 0.215495 0.216146 0.216797 0.217448 0.218099 0.218750 0.219401 0.220052 0.220703 0.221354 0.222005 0.222656 0.223307 0.223958 0.224609 0.225260 0.225911 0.226562 0.227214 0.227865 0.228516 0.229167 0.229818 0.230469 0.231120 0.231771 0.232422 0.233073 0.233724 0.234375 0.235026 0.235677
       0.30418        0.30418        0.30418        0.30418        0.30418        0.30418        0.30418        0.30418        0.30418        0.30418        0.30418        0.30418        0.30418        0.30418        0.30418        0.30418        0.30418        0.30418        0.30418        0.30418        0.30418        0.30418        0.30418        0.30418        0.30418        0.30418        0.30418        0.30418        0.30418        0.30418        0.30418        0.30418        0.30418        0.30418        0.30418        0.30418        0.30418        0.30418        0.30418        0.30418        0.30418        0.30418        0.30418        0.30418        0.30418        0.30418        0.30418        0.30418        0.30418        0.30418        0.30418        0.62264        0.78254        0.38545        0.26854        0.16321       -0.12038        0.12137        0.02354        0.03741        0.10902        0.34765        0.40605        0.36008        0.20840       -0.01880        0.03212        0.06754       -0.17070       -0.17678       -0.08629       -0.11264       -0.29110       -0.18271       -0.31301       -0.27348       -0.28992       -0.39384       -0.45881       -0.45124       -0.39014       -0.33549       -0.41410       -0.32279       -0.39494       -0.33307       -0.26414       -0.19916       -0.17819       -0.09271       -0.05331        0.05208        0.08911        0.23171        0.31682        0.38028        0.39152        0.50380        0.56936        0.60182        0.69256        0.66608        0.73159        0.62534        0.65582        0.66794        0.60977        0.60688        0.61645        0.40654        0.37103        0.36048        0.33438        0.20000        0.13060        0.06001        0.07443        0.02283       -0.06837       -0.00179       -0.03462       -0.07493        0.05824        0.16642        0.26612        0.31903        0.32016        0.39787        0.50888        0.54046        0.50214        0.65530        0.53854        0.51793        0.57728        0.58701        0.53136        0.48491        0.41647        0.37062        0.23388        0.18869        0.12667        0.13741        0.10859        0.06065        0.08307        0.14758        0.14144        0.15589        0.21168        0.24478        0.33959        0.44472        0.45743        0.46047        0.51411        0.57124        0.53574        0.51026        0.39640        0.40837        0.35886        0.28225        0.23599        0.21569        0.16480        0.18419        0.17755        0.17321        0.13835        0.20464        0.24488        0.34709        0.38511        0.40426        0.46597        0.49645        0.43915        0.45517        0.41264        0.40605        0.40609        0.34961        0.27633        0.26780        0.19734        0.21787        0.22081        0.19631        0.21716        0.21927        0.25426        0.32414        0.38510        0.37871        0.37463        0.37888        0.44137        0.43226        0.41180        0.33518        0.31629        0.28206        0.29548        0.24462        0.20764        0.26821        0.29979        0.28006        0.28944        0.33125        0.32261        0.38038        0.34504        0.34619        0.36156        0.33639        0.32529        0.30133        0.27683        0.28569        0.25961        0.22261        0.26509        0.26190        0.30701        0.30809        0.34209        0.36307        0.32350        0.30830        0.35101        0.34390        0.26036        0.28668        0.28841        0.25568        0.23902        0.28517        0.27834        0.27583        0.30833        0.30493        0.31876        0.32396        0.34365        0.28276        0.29497        0.31576        0.27723        0.25646        0.24916        0.24305        0.25341        0.27306        0.28112        0.27582        0.27527        0.31805        0.34396        0.27937        0.30096        0.25717        0.24850        0.24648        0.24707        0.24001        0.23994        0.28340        0.25878        0.29679        0.28371        0.28166        0.31820        0.26473        0.29977        0.29055        0.29790        0.25704        0.25030        0.23817        0.24829        0.30816        0.30185        0.32800        0.31921        0.31818        0.28658        0.32458        0.26163        0.18694        0.27777        0.27883        0.26459        0.27962        0.30166        0.29818        0.35913        0.28561        0.22254        0.22290        0.24091        0.27953        0.30359        0.29036        0.25982        0.27268        0.25688        0.28418        0.27647        0.25738        0.25453        0.24282        0.29708        0.24757        0.26179        0.31394        0.28536        0.24784        0.27982        0.27742        0.28806        0.20569        0.24943        0.25657        0.29603        0.28510        0.31457        0.26744        0.25250        0.26927        0.23308        0.20676        0.18843        0.22903        0.21283        0.22261        0.22260        0.21771        0.26918        0.24417        0.27584        0.22744        0.17290        0.18379        0.18517        0.16402        0.21014        0.17571        0.19272        0.19158        0.07284        0.22123        0.14550        0.04545        0.17715        0.11351        0.09219        0.13782       -0.22052       -0.50883       -0.80646
2.843131 2.815309 2.787629 2.760091 2.732695 2.705441 2.678329 2.651359 2.624532 2.597846 2.571303 2.544902 2.518643 2.492526 2.466551 2.440718 2.415028 2.389479 2.364072 2.338808 2.313686 2.288706 2.263868 2.239172 2.214618 2.190207 2.165937 2.141809 2.117824 2.093981 2.070280 2.046721 2.023304 2.000029 1.976896 1.953906 1.931057 1.908351 1.885787 1.863364 1.841084 1.818946 1.796951 1.775097 1.753385 1.731816 1.710388 1.689103 1.667960 1.646959 1.626100 1.942645 2.268387 1.676005 1.684741 1.354917 0.889490 1.198178 1.059921 1.095818 0.992001 1.538689 1.504942 1.512252 1.249432 0.933306 0.788432 1.011478 0.721164 0.447139 0.587413 0.664884 0.399537 0.467855 0.294162 0.303474 0.214177 0.172256 -0.065135 -0.006918 0.039299 0.047461 0.037691 0.132731 -0.052249 0.014665 0.110675 0.214607 0.252258 0.284298 0.341419 0.595678 0.461039 0.684762 0.878062 0.906345 0.906506 1.145921 1.137018 1.215049 1.313672 1.193712 1.411781 1.163698 1.152327 1.319123 1.128941 1.070792 1.185467 0.880348 0.712190 0.683784 0.708637 0.455125 0.402697 0.251866 0.223397 0.141202 -0.005726 0.127238 0.009443 -0.063701 0.103829 0.236136 0.355089 0.471823 0.489455 0.531846 0.711282 0.765999 0.616531 0.965190 0.803483 0.677133 0.759742 0.760366 0.723041 0.711163 0.472074 0.536345 0.252814 0.194783 0.116873 -0.006681 0.055203 -0.060568 -0.049104 -0.013777 0.078485 -0.062775 0.217317 0.133263 0.207047 0.395888 0.449208 0.474743 0.403097 0.616245 0.621046 0.487815 0.373955 0.350515 0.322965 0.169281 0.104359 0.042772 0.035602 -0.024023 -0.016540 -0.027460 -0.101270 -0.009876 0.019302 0.127403 0.277816 0.230125 0.374801 0.360832 0.395226 0.359333 0.427521 0.360458 0.252520 0.345929 0.136102 0.190015 0.023712 0.055596 0.036666 0.022002 -0.019121 0.021233 0.071861 0.122059 0.240686 0.296324 0.216598 0.242196 0.354356 0.333269 0.341627 0.203958 0.145030 0.151252 0.097277 0.103171 -0.009706 -0.011018 0.138186 0.060118 0.097841 0.101153 0.140781 0.215735 0.212910 0.171872 0.190742 0.202272 0.149240 0.143053 0.076211 0.078327 0.115918 -0.032297 0.037150 0.076517 0.027123 0.162117 0.105323 0.200782 0.198999 0.132982 0.114612 0.207878 0.124893 0.038801 0.095561 0.055705 0.019898 0.032099 0.088151 0.059440 0.040147 0.150205 0.088824 0.120211 0.133764 0.130816 0.099353 0.057028 0.115893 0.053419 0.013586 0.002640 0.001728 0.012454 0.036376 0.066018 0.062872 0.013192 0.106971 0.135414 -0.012002 0.083029 -0.003511 -0.017799 -0.017723 -0.025816 -0.041386 0.013765 0.030764 -0.044404 0.073655 0.027003 0.029709 0.068145 -0.008549 0.024653 0.057438 -0.002730 -0.003997 -0.049823 -0.040436 -0.031518 0.056629 0.060147 0.055323 0.038703 0.121996 0.001539 0.098280 -0.068666 -0.124336 0.031545 -0.005651 -0.001487 -0.014381 0.063639 0.033763 0.093940 -0.043566 -0.126987 -0.080504 -0.090498 0.047805 0.006685 0.005164 -0.043608 -0.040413 -0.048428 0.008382 -0.043375 -0.046459 -0.049601 -0.115752 0.030828 -0.076390 -0.007972 0.042671 -0.023738 -0.049537 0.040713 0.007789 0.010052 -0.116696 -0.007151 -0.042205 0.089851 0.074554 0.075087 0.018424 -0.010180 0.040165 0.012757 -0.090560 -0.002697 -0.027071 -0.003050 0.007176 0.011582 0.001723 0.108101 0.057963 0.154256 0.019127 0.005311 -0.018215 0.035182 -0.059855 0.069537 -0.039055 0.098803 0.056866 -0.023190 0.327228 0.222608 0.073208 0.314801 0.212320 0.108115 0.325924 -0.321376 -1.180718
0.072396 0.072835 0.074150 0.076342 0.079410 0.083353 0.088171 0.093862 0.100426 0.107858 0.116159 0.125323 0.135348 0.146229 0.157960 0.170536 0.183948 0.198188 0.213246 0.229109 0.245763 0.263194 0.281383 0.300310 0.319953 0.340286 0.361281 0.382907 0.405129 0.427910 0.451206 0.474973 0.499160 0.523713 0.548575 0.573680 0.598963 0.624349 0.649760 0.675114 0.700323 0.725292 0.749924 0.774114 0.797754 0.820730 0.842923 0.864209 0.884462 0.903550 0.921337 0.937685 0.952453 0.965498 0.976675 0.985839 0.992845 0.997550 0.999811 0.999489 0.996450 0.990564 0.981709 0.969770 0.954642 0.936231 0.914453 0.889242 0.860544 0.828324 0.792564 0.753268 0.710459 0.664187 0.614524 0.561568 0.505444 0.446308 0.384341 0.319758 0.252801 0.183746 0.112897 0.040590 0.032809 0.106906 0.181278 0.255475 0.329027 0.401437 0.472193 0.540766 0.606617 0.669197 0.727956 0.782346 0.831827 0.875871 0.913970 0.945644 0.970441 0.987953 0.997814 0.999712 0.993397 0.978680 0.955447 0.923664 0.883375 0.834717 0.777915 0.713293 0.641269 0.562360 0.477180 0.386442 0.290949 0.191596 0.089358 0.014712 0.119494 0.223817 0.326460 0.426177 0.521705 0.611784 0.695171 0.770663 0.837113 0.893449 0.938696 0.971993 0.992615 0.999987 0.993705 0.973547 0.939489 0.891714 0.830622 0.756830 0.671177 0.574721 0.468728 0.354668 0.234194 0.109121 0.018589 0.146865 0.273553 0.396455 0.513362 0.622101 0.720572 0.806797 0.878959 0.935445 0.974893 0.996222 0.998673 0.981837 0.945679 0.890553 0.817215 0.726824 0.620932 0.501470 0.370719 0.231277 0.086012 0.061993 0.209500 0.353185 0.489715 0.615824 0.728397 0.824550 0.901711 0.957699 0.990789 0.999777 0.984034 0.943541 0.878914 0.791415 0.682939 0.555995 0.413652 0.259480 0.097472 0.068057 0.232575 0.391461 0.540132 0.674174 0.789491 0.882424 0.949889 0.989485 0.999594 0.979460 0.929242 0.850044 0.743909 0.613793 0.463492 0.297552 0.121146 0.060082 0.240188 0.413123 0.572934 0.713976 0.831120 0.919951 0.976950 0.999648 0.986753 0.938234 0.855367 0.740722 0.598119 0.432516 0.249854 0.056870 0.139157 0.330657 0.510070 0.670153 0.804266 0.906680 0.972824 0.999519 0.985151 0.929786 0.835219 0.704948 0.544077 0.359142 0.157867 0.051145 0.258766 0.455739 0.633090 0.782551 0.896961 0.970626 0.999632 0.982078 0.918225 0.810548 0.663672 0.484217 0.280524 0.062292 0.159866 0.374928 0.572019 0.740954 0.872791 0.960328 0.998518 0.984799 0.919298 0.804892 0.647130 0.454006 0.235583 0.003502 0.229625 0.450896 0.647824 0.809063 0.925088 0.988781 0.995904 0.945429 0.839672 0.684248 0.487814 0.261634 0.018967 0.225698 0.457485 0.662048 0.826472 0.940111 0.995316 0.987999 0.917971 0.789059 0.608949 0.388787 0.142533 0.113911 0.363680 0.590073 0.777678 0.913440 0.987612 0.994505 0.932970 0.806595 0.623552 0.396140 0.139998 0.126924 0.385616 0.617343 0.805031 0.934543 0.995798 0.983610 0.898181 0.745212 0.535593 0.284697 0.011292 0.263829 0.519397 0.735349 0.894406 0.983502 0.994927 0.927051 0.784592 0.578367 0.324546 0.043447 0.242059 0.508393 0.733206 0.897300 0.986301 0.991993 0.913147 0.755773 0.532753 0.262861 0.030751 0.322508 0.586619 0.799378 0.941319 0.999070 0.966678 0.846312 0.648219 0.389962 0.094913 0.209790 0.495710 0.735786 0.906905 0.992199 0.982785 0.878772 0.689440 0.432505 0.132551 0.181259 0.477979 0.727942 0.905756
1.000000 1.000000 1.000000 1.000000 1.000000 1.000000 1.000000 1.000000 1.000000 1.000000 1.000000 1.000000 1.000000 1.000000 1.000000 1.000000 1.000000 1.000000 1.000000 1.000000 1.000000 1.000000 1.000000 1.000000 1.000000 1.000000 1.000000 1.000000 1.000000 1.000000 1.000000 1.000000 1.000000 1.000000 1.000000 1.000000 1.000000 1.000000 1.000000 1.000000 1.000000 1.000000 1.000000 1.000000 1.000000 1.000000 1.000000 1.000000 1.000000 1.000000 1.000000 1.000000 0.831250 0.831250 0.831250 0.831250 0.831250 0.831250 0.831250 0.809332 0.809332 0.809332 0.809332 0.809332 0.809332 0.809332 0.809332 0.809332 0.809332 0.809332 0.809332 0.809332 0.809332 0.809332 0.809332 0.809332 0.809332 0.809332 0.809332 0.809332 0.809332 0.809332 0.809332 0.809332 0.809332 0.809332 0.809332 0.809332 0.809332 0.809332 0.809332 0.809332 0.809332 0.809332 0.809332 0.809332 0.809332 0.809332 0.809332 0.809332 0.809332 0.809332 0.809332 0.949179 0.949968 0.950281 0.949284 0.947696 0.944190 0.942472 0.941685 0.944373 0.944591 0.944834 0.945742 0.946313 0.947891 0.948872 0.950039 0.950826 0.958928 0.962634 0.962368 0.961529 0.962379 0.973085 0.970145 0.967707 0.967738 0.967894 0.967868 0.967757 0.967652 0.967210 0.966626 0.967102 0.966977 0.966433 0.965665 0.964664 0.964233 0.963618 0.963542 0.964377 0.964473 0.965081 0.966362 0.966306 0.966962 0.965602 0.964835 0.954141 0.951987 0.949751 0.949519 0.950581 0.950305 0.949536 0.948242 0.948307 0.948230 0.947155 0.947032 0.945915 0.937865 0.938021 0.937830 0.938697 0.932300 0.923443 0.920514 0.918701 0.919844 0.922969 0.926557 0.924045 0.922517 0.918809 0.910831 0.904335 0.895228 0.893847 0.889617 0.892190 0.893719 0.895361 0.895335 0.895379 0.893879 0.892349 0.876676 0.880836 0.878120 0.874232 0.869843 0.865966 0.863945 0.865449 0.868411 0.858426 0.841310 0.841570 0.831283 0.802918 0.800953 0.804713 0.814836 0.825274 0.823482 0.822426 0.807934 0.804140 0.788227 0.778597 0.780301 0.783333 0.780886 0.788935 0.793558 0.787426 0.772400 0.767572 0.773839 0.787364 0.797782 0.802509 0.801399 0.797975 0.796869 0.757227 0.756485 0.758793 0.727351 0.730933 0.725284 0.725047 0.731023 0.727362 0.724287 0.732891 0.730259 0.702845 0.709041 0.709618 0.708825 0.711502 0.698264 0.690434 0.659527 0.651518 0.636696 0.646659 0.649507 0.662627 0.651616 0.661396 0.672031 0.672280 0.682142 0.681011 0.664160 0.657485 0.666172 0.671385 0.636291 0.642977 0.642360 0.637480 0.630515 0.620169 0.633323 0.620025 0.599853 0.596938 0.557415 0.539792 0.531745 0.516952 0.497990 0.479857 0.494444 0.498475 0.496942 0.484814 0.460246 0.389386 0.390198 0.388314 0.368797 0.376174 0.363168 0.331485 0.375304 0.377257 0.386535 0.357786 0.339451 0.312841 0.214752 0.203201 0.164981 0.177211 0.182674 0.171775 0.164304 0.167790 0.166440 0.146590 0.157331 0.156609 0.178775 0.163254 0.133376 0.145055 0.138541 0.120383 0.100164 0.094688 0.136184 0.114508 0.122830 0.125859 0.078437 0.049690 -0.008392 0.003376 0.014923 0.045476 0.075776 0.067404 0.042963 -0.045264 -0.012075 0.013560 0.013560 0.013560 0.013560 0.013560 0.013560 0.013560 0.013560 0.013560 0.013560 0.013560 -0.042869 -0.042869 -0.042869 -0.042869 -0.042869 -0.042869 -0.042869 -0.042869 -0.042869 -0.042869 -0.042869 -0.042869 -0.042869 -0.042869 -0.042869 -0.042869 -0.042869 -0.042869 -0.042869
0.000000 0.000000 0.000000 0.000000 0.000000 0.000000 0.000000 0.000000 0.000000 0.000000 0.000000 0.000000 0.000000 0.000000 0.000000 0.000000 0.000000 0.000000 0.000000 0.000000 0.000000 0.000000 0.000000 0.000000 0.000000 0.000000 0.000000 0.000000 0.000000 0.000000 0.000000 0.000000 0.000000 0.000000 0.000000 0.000000 0.000000 0.000000 0.000000 0.000000 0.000000 0.000000 0.000000 0.000000 0.000000 0.000000 0.000000 0.000000 0.000000 0.000000 0.000000 0.000000 0.173422 0.173422 0.173422 0.173422 0.173422 0.173422 0.173422 0.191565 0.191565 0.191565 0.191565 0.191565 0.191565 0.191565 0.191565 0.191565 0.191565 0.191565 0.191565 0.191565 0.191565 0.191565 0.191565 0.191565 0.191565 0.191565 0.191565 0.191565 0.191565 0.191565 0.191565 0.191565 0.191565 0.191565 0.191565 0.191565 0.191565 0.191565 0.191565 0.191565 0.191565 0.191565 0.191565 0.191565 0.191565 0.191565 0.191565 0.191565 0.191565 0.191565 0.191565 0.219529 0.219529 0.219529 0.219529 0.219529 0.219529 0.219529 0.219529 0.219529 0.219529 0.219529 0.219529 0.219529 0.219529 0.219529 0.219529 0.219529 0.219529 0.219529 0.219529 0.219529 0.219529 0.219529 0.219529 0.219529 0.219529 0.219529 0.219529 0.219529 0.219529 0.219529 0.237356 0.237356 0.237356 0.237356 0.237356 0.237356 0.237356 0.237356 0.237356 0.237356 0.237356 0.237356 0.237356 0.237356 0.237356 0.237356 0.237356 0.237356 0.237356 0.237356 0.237356 0.237356 0.237356 0.237356 0.244339 0.244339 0.244339 0.244339 0.244339 0.244339 0.244339 0.244339 0.244339 0.244339 0.244339 0.244339 0.244339 0.244339 0.244339 0.244339 0.244339 0.244339 0.244339 0.244339 0.244339 0.248069 0.248069 0.248069 0.248069 0.248069 0.248069 0.248069 0.248069 0.248069 0.248069 0.248069 0.248069 0.248069 0.248069 0.248069 0.248069 0.248069 0.248069 0.248069 0.248069 0.248069 0.248069 0.248069 0.248069 0.248069 0.248069 0.248069 0.248069 0.248069 0.248069 0.248069 0.248069 0.248069 0.248069 0.248069 0.248069 0.248069 0.256074 0.256074 0.256074 0.256074 0.256074 0.256074 0.256074 0.256074 0.256074 0.256074 0.256074 0.256074 0.256074 0.256074 0.256074 0.256074 0.256074 0.256074 0.256074 0.256074 0.256074 0.256074 0.256074 0.256074 0.256074 0.256074 0.256074 0.256074 0.256074 0.256074 0.256074 0.256074 0.256074 0.256074 0.256074 0.256074 0.256074 0.256074 0.256074 0.256074 0.256074 0.256074 0.256074 0.256074 0.256074 0.260378 0.260378 0.260378 0.260378 0.260378 0.260378 0.260378 0.260378 0.260378 0.260378 0.260378 0.260378 0.260378 0.256074 0.256074 0.256074 0.256074 0.256074 0.256074 0.256074 0.256074 0.256074 0.256074 0.256074 0.256074 0.256074 0.260378 0.260378 0.260378 0.260378 0.260378 0.260378 0.260378 0.260378 0.260378 0.260378 0.260378 0.260378 0.251976 0.251976 0.251976 0.251976 0.251976 0.251976 0.251976 0.251976 0.251976 0.251976 0.251976 0.251976 0.256074 0.256074 0.256074 0.256074 0.256074 0.256074 0.256074 0.256074 0.256074 0.256074 0.256074 0.251976 0.251976 0.251976 0.251976 0.251976 0.251976 0.251976 0.251976 0.251976 0.251976 0.251976 0.248069 0.248069 0.248069 0.248069 0.248069 0.248069 0.248069 0.248069 0.248069 0.248069 0.248069 0.256074 0.256074 0.256074 0.256074 0.256074 0.256074 0.256074 0.256074 0.256074 0.256074 0.256074 0.256074 0.256074 0.256074 0.256074 0.256074 0.256074 0.256074 0.256074
