# Output from CTFFind version 4.1.9, run on 2019-11-02 17:45:47
# Input file: stack6_bm3d_averaged_1_1.25_0_1000_half.mrc ; Number of micrographs: 1
# Pixel size: 3.000 Angstroms ; acceleration voltage: 300.0 keV ; spherical aberration: 0.00 mm ; amplitude contrast: 0.07
# Box size: 512 pixels ; min. res.: 30.0 Angstroms ; max. res.: 5.0 Angstroms ; min. def.: 5000.0 um; max. def. 50000.0 um; num. frames averaged: 1
# 6 lines per micrograph: #1 - spatial frequency (1/Angstroms); #2 - 1D rotational average of spectrum (assuming no astigmatism); #3 - 1D rotational average of spectrum; #4 - CTF fit; #5 - cross-correlation between spectrum and CTF fit; #6 - 2sigma of expected cross correlation of noise
0.000000 0.000651 0.001302 0.001953 0.002604 0.003255 0.003906 0.004557 0.005208 0.005859 0.006510 0.007161 0.007812 0.008464 0.009115 0.009766 0.010417 0.011068 0.011719 0.012370 0.013021 0.013672 0.014323 0.014974 0.015625 0.016276 0.016927 0.017578 0.018229 0.018880 0.019531 0.020182 0.020833 0.021484 0.022135 0.022786 0.023438 0.024089 0.024740 0.025391 0.026042 0.026693 0.027344 0.027995 0.028646 0.029297 0.029948 0.030599 0.031250 0.031901 0.032552 0.033203 0.033854 0.034505 0.035156 0.035807 0.036458 0.037109 0.037760 0.038411 0.039062 0.039714 0.040365 0.041016 0.041667 0.042318 0.042969 0.043620 0.044271 0.044922 0.045573 0.046224 0.046875 0.047526 0.048177 0.048828 0.049479 0.050130 0.050781 0.051432 0.052083 0.052734 0.053385 0.054036 0.054688 0.055339 0.055990 0.056641 0.057292 0.057943 0.058594 0.059245 0.059896 0.060547 0.061198 0.061849 0.062500 0.063151 0.063802 0.064453 0.065104 0.065755 0.066406 0.067057 0.067708 0.068359 0.069010 0.069661 0.070312 0.070964 0.071615 0.072266 0.072917 0.073568 0.074219 0.074870 0.075521 0.076172 0.076823 0.077474 0.078125 0.078776 0.079427 0.080078 0.080729 0.081380 0.082031 0.082682 0.083333 0.083984 0.084635 0.085286 0.085938 0.086589 0.087240 0.087891 0.088542 0.089193 0.089844 0.090495 0.091146 0.091797 0.092448 0.093099 0.093750 0.094401 0.095052 0.095703 0.096354 0.097005 0.097656 0.098307 0.098958 0.099609 0.100260 0.100911 0.101562 0.102214 0.102865 0.103516 0.104167 0.104818 0.105469 0.106120 0.106771 0.107422 0.108073 0.108724 0.109375 0.110026 0.110677 0.111328 0.111979 0.112630 0.113281 0.113932 0.114583 0.115234 0.115885 0.116536 0.117188 0.117839 0.118490 0.119141 0.119792 0.120443 0.121094 0.121745 0.122396 0.123047 0.123698 0.124349 0.125000 0.125651 0.126302 0.126953 0.127604 0.128255 0.128906 0.129557 0.130208 0.130859 0.131510 0.132161 0.132812 0.133464 0.134115 0.134766 0.135417 0.136068 0.136719 0.137370 0.138021 0.138672 0.139323 0.139974 0.140625 0.141276 0.141927 0.142578 0.143229 0.143880 0.144531 0.145182 0.145833 0.146484 0.147135 0.147786 0.148438 0.149089 0.149740 0.150391 0.151042 0.151693 0.152344 0.152995 0.153646 0.154297 0.154948 0.155599 0.156250 0.156901 0.157552 0.158203 0.158854 0.159505 0.160156 0.160807 0.161458 0.162109 0.162760 0.163411 0.164062 0.164714 0.165365 0.166016 0.166667 0.167318 0.167969 0.168620 0.169271 0.169922 0.170573 0.171224 0.171875 0.172526 0.173177 0.173828 0.174479 0.175130 0.175781 0.176432 0.177083 0.177734 0.178385 0.179036 0.179688 0.180339 0.180990 0.181641 0.182292 0.182943 0.183594 0.184245 0.184896 0.185547 0.186198 0.186849 0.187500 0.188151 0.188802 0.189453 0.190104 0.190755 0.191406 0.192057 0.192708 0.193359 0.194010 0.194661 0.195312 0.195964 0.196615 0.197266 0.197917 0.198568 0.199219 0.199870 0.200521 0.201172 0.201823 0.202474 0.203125 0.203776 0.204427 0.205078 0.205729 0.206380 0.207031 0.207682 0.208333 0.208984 0.209635 0.210286 0.210938 0.211589 0.212240 0.212891 0.213542 0.214193 0.214844 0.215495 0.216146 0.216797 0.217448 0.218099 0.218750 0.219401 0.220052 0.220703 0.221354 0.222005 0.222656 0.223307 0.223958 0.224609 0.225260 0.225911 0.226562 0.227214 0.227865 0.228516 0.229167 0.229818 0.230469 0.231120 0.231771 0.232422 0.233073 0.233724 0.234375 0.235026 0.235677
       0.30988        0.30988        0.30988        0.30988        0.30988        0.30988        0.30988        0.30988        0.30988        0.30988        0.30988        0.30988        0.30988        0.30988        0.30988        0.30988        0.30988        0.30988        0.30988        0.30988        0.30988        0.30988        0.30988        0.30988        0.30988        0.30988        0.30988        0.30988        0.30988        0.30988        0.30988        0.30988        0.30988        0.30988        0.30988        0.30988        0.30988        0.30988        0.30988        0.30988        0.30988        0.30988        0.30988        0.30988        0.30988        0.30988        0.30988        0.30988        0.30988        0.30988        0.30988        0.63313        0.81368        0.41476        0.30936        0.18616       -0.10753        0.11121       -0.00192        0.03270        0.11526        0.33578        0.42164        0.40174        0.22407       -0.01377        0.04599        0.07007       -0.17289       -0.18067       -0.08633       -0.10995       -0.29536       -0.19072       -0.30337       -0.25905       -0.28683       -0.40628       -0.47533       -0.47769       -0.42263       -0.34166       -0.43850       -0.36745       -0.41184       -0.35183       -0.27684       -0.20153       -0.19549       -0.13680       -0.09221        0.03907        0.08043        0.25144        0.28180        0.36997        0.40289        0.51755        0.58983        0.60904        0.73852        0.69816        0.74044        0.65170        0.66334        0.69334        0.63191        0.61575        0.60783        0.43451        0.39449        0.35334        0.32446        0.22389        0.12936        0.05923        0.05414        0.00093       -0.08086       -0.02889       -0.03298       -0.07187        0.06425        0.16290        0.25414        0.31819        0.33524        0.42737        0.54502        0.59159        0.54008        0.67263        0.56411        0.53911        0.59860        0.63560        0.53021        0.45926        0.40208        0.37641        0.24611        0.20829        0.13236        0.11623        0.05364        0.05381        0.10265        0.16271        0.14698        0.17916        0.22044        0.23921        0.32844        0.45223        0.48878        0.49497        0.51947        0.57930        0.57103        0.52155        0.42122        0.38243        0.36376        0.26710        0.24251        0.21184        0.20566        0.19777        0.17827        0.15831        0.12572        0.18915        0.24511        0.34227        0.38010        0.40760        0.46313        0.53385        0.47179        0.48462        0.42612        0.40228        0.38006        0.36142        0.28678        0.25402        0.19790        0.23523        0.21586        0.19242        0.21624        0.22327        0.24001        0.30258        0.39950        0.39788        0.37618        0.39095        0.45299        0.48046        0.42986        0.35276        0.32141        0.27470        0.26211        0.24998        0.21473        0.28187        0.29250        0.29482        0.31263        0.30622        0.34177        0.37547        0.36993        0.36811        0.35397        0.31715        0.32996        0.31894        0.29343        0.28663        0.27187        0.21500        0.26859        0.27117        0.29976        0.31824        0.34099        0.37508        0.33585        0.31477        0.35980        0.36493        0.26108        0.29287        0.30654        0.24208        0.20696        0.26147        0.27518        0.27674        0.29817        0.30413        0.33371        0.33207        0.35628        0.32318        0.32006        0.30734        0.29472        0.26911        0.24523        0.25365        0.25632        0.27874        0.29964        0.29637        0.29582        0.31684        0.32920        0.26505        0.30427        0.26694        0.25727        0.26978        0.25997        0.25882        0.26142        0.30967        0.28198        0.31289        0.28748        0.27306        0.31095        0.30819        0.33040        0.31420        0.29215        0.24873        0.25314        0.26499        0.25942        0.31017        0.31467        0.33280        0.32049        0.31171        0.25201        0.28235        0.21171        0.20035        0.25571        0.26187        0.25710        0.28375        0.31411        0.29663        0.35643        0.30278        0.25291        0.22661        0.23903        0.29305        0.30994        0.30297        0.27121        0.28099        0.26132        0.31496        0.27648        0.25233        0.26864        0.25263        0.28667        0.25012        0.28095        0.32700        0.28936        0.21187        0.23670        0.28016        0.31651        0.25419        0.26033        0.23851        0.28685        0.29167        0.38274        0.28591        0.26603        0.26009        0.24977        0.21713        0.18567        0.24388        0.20933        0.20157        0.17888        0.19350        0.24054        0.21761        0.23713        0.20115        0.24993        0.22650        0.21232        0.18072        0.15489        0.19211        0.24663        0.14065        0.06403        0.21031        0.18158        0.13484        0.23993        0.15742        0.22457        0.18779       -0.06410       -0.51673       -0.99494
2.856288 2.828170 2.800196 2.772366 2.744682 2.717142 2.689747 2.662497 2.635391 2.608431 2.581614 2.554943 2.528417 2.502035 2.475798 2.449705 2.423758 2.397955 2.372297 2.346784 2.321415 2.296191 2.271112 2.246178 2.221388 2.196743 2.172243 2.147888 2.123677 2.099611 2.075690 2.051914 2.028282 2.004795 1.981453 1.958256 1.935203 1.912295 1.889532 1.866913 1.844440 1.822111 1.799927 1.777887 1.755992 1.734243 1.712637 1.691177 1.669861 1.648690 1.627664 1.924387 2.273321 1.702136 1.742973 1.383565 0.942470 1.202035 1.029144 1.078716 1.030738 1.497368 1.519122 1.542622 1.282887 0.946080 0.825459 1.014815 0.714084 0.490557 0.594122 0.679994 0.422427 0.489841 0.329286 0.368521 0.250637 0.158864 -0.034014 0.006527 0.028276 0.080895 0.041683 0.081995 -0.042277 0.030453 0.110869 0.226835 0.284479 0.212880 0.324481 0.558952 0.447722 0.731306 0.800946 0.880236 0.910937 1.123674 1.146912 1.180305 1.328526 1.235658 1.379962 1.195749 1.113369 1.315558 1.129869 1.057084 1.131138 0.890123 0.737205 0.676506 0.672045 0.468407 0.394351 0.263409 0.222699 0.097245 -0.006844 0.094528 0.026388 -0.064116 0.114356 0.259050 0.309174 0.463703 0.487297 0.553865 0.722239 0.824204 0.659972 0.963445 0.808471 0.654884 0.770059 0.794807 0.714220 0.640120 0.443613 0.502430 0.285184 0.183563 0.141783 0.009220 -0.016295 -0.111476 -0.019198 0.021486 0.087949 -0.045724 0.254041 0.098726 0.209750 0.374526 0.431607 0.531082 0.432596 0.562617 0.664413 0.506748 0.388714 0.335186 0.320654 0.146582 0.133534 0.010334 0.096460 0.019294 0.002580 -0.029561 -0.117778 -0.010666 0.018991 0.105139 0.291016 0.206697 0.356036 0.373399 0.424560 0.415644 0.404641 0.336826 0.227624 0.305321 0.165879 0.161398 0.001211 0.054287 0.068866 -0.021424 -0.003231 0.017109 0.062165 0.076609 0.224251 0.304449 0.247726 0.214359 0.374981 0.399850 0.355082 0.246791 0.173461 0.143183 0.084164 0.073717 0.031803 0.022402 0.133178 0.055874 0.185081 0.090008 0.133808 0.229122 0.216755 0.234799 0.194286 0.200171 0.115365 0.165407 0.124155 0.096872 0.119413 -0.004348 0.031959 0.085163 0.047266 0.151855 0.115390 0.212757 0.202392 0.134078 0.135588 0.222652 0.119321 0.066026 0.091810 0.065796 -0.004738 -0.025382 0.056946 0.076605 0.038957 0.116812 0.112518 0.127138 0.139645 0.171787 0.125189 0.088491 0.106431 0.089185 0.024801 0.013717 0.039732 0.005651 0.078522 0.109025 0.074073 0.067583 0.128494 0.109815 0.018875 0.119003 0.024185 0.022695 0.051237 0.016765 0.013468 0.061444 0.086843 0.017302 0.105070 0.065620 0.025355 0.115802 0.072163 0.090249 0.087363 0.021299 -0.014717 -0.015675 0.036265 -0.003014 0.068118 0.092013 0.086790 0.057982 0.139268 -0.027610 0.042119 -0.100449 -0.026090 -0.021880 0.005163 0.017140 0.021338 0.092687 0.057502 0.116512 -0.006440 -0.040827 -0.082937 -0.077994 0.066773 0.035755 0.039655 -0.018496 -0.009209 -0.031941 0.048638 0.000124 -0.078338 -0.012506 -0.086459 0.017707 -0.048863 0.008176 0.058239 -0.020556 -0.088292 -0.048196 0.066990 0.036260 -0.025711 0.000431 -0.064985 0.093933 0.075047 0.176444 0.031196 0.009858 0.018146 0.051626 -0.051890 -0.032870 0.050055 -0.013286 -0.037098 -0.047272 -0.038213 0.087649 -0.059766 0.093584 -0.008361 0.112661 -0.005931 0.067934 -0.074869 -0.041792 -0.049573 0.128825 -0.039460 -0.243287 0.294185 0.251979 0.191334 0.406204 0.215131 0.288758 0.283709 -0.087358 -1.391516
0.072396 0.072834 0.074149 0.076339 0.079405 0.083346 0.088161 0.093848 0.100407 0.107835 0.116130 0.125288 0.135307 0.146181 0.157905 0.170472 0.183876 0.198107 0.213154 0.229007 0.245651 0.263071 0.281249 0.300165 0.319796 0.340117 0.361100 0.382713 0.404923 0.427690 0.450974 0.474729 0.498904 0.523446 0.548296 0.573391 0.598663 0.624040 0.649443 0.674791 0.699993 0.724958 0.749587 0.773776 0.797417 0.820396 0.842594 0.863889 0.884152 0.903253 0.921057 0.937424 0.952215 0.965286 0.976494 0.985692 0.992737 0.997484 0.999791 0.999520 0.996537 0.990710 0.981919 0.970049 0.954993 0.936658 0.914961 0.889833 0.861223 0.829092 0.793425 0.754223 0.711510 0.665335 0.615769 0.562909 0.506880 0.447837 0.385960 0.321462 0.254586 0.185605 0.114823 0.042575 0.030776 0.104835 0.179180 0.253365 0.326917 0.399344 0.470133 0.538756 0.604675 0.667342 0.726207 0.780723 0.830349 0.874558 0.912843 0.944721 0.969741 0.987493 0.997611 0.999781 0.993749 0.979328 0.956399 0.924924 0.884946 0.836598 0.780103 0.715779 0.644040 0.565400 0.480470 0.389956 0.294659 0.195468 0.093356 0.010629 0.115371 0.219700 0.322401 0.422227 0.517918 0.608214 0.691873 0.767692 0.834519 0.891284 0.937005 0.970818 0.991993 0.999948 0.994271 0.974734 0.941302 0.894150 0.833667 0.760459 0.675355 0.579402 0.473856 0.360175 0.240002 0.115145 0.012443 0.140699 0.267474 0.390570 0.507784 0.616941 0.715938 0.802791 0.875677 0.932974 0.973306 0.995579 0.999018 0.983194 0.948053 0.893928 0.821553 0.732065 0.626992 0.508246 0.378086 0.239093 0.094117 0.053772 0.201346 0.345286 0.482261 0.609002 0.722388 0.819521 0.897814 0.955061 0.989510 0.999930 0.985654 0.946628 0.883429 0.797280 0.690037 0.564171 0.422713 0.269204 0.107609 0.057777 0.222440 0.381762 0.531156 0.666203 0.782784 0.877213 0.946369 0.987805 0.999852 0.981698 0.933442 0.856122 0.751721 0.623131 0.474090 0.309099 0.133282 0.047744 0.228061 0.401621 0.562465 0.704928 0.823843 0.914744 0.974046 0.999206 0.988846 0.942846 0.862385 0.749941 0.609245 0.445169 0.263588 0.071178 0.124816 0.316846 0.497348 0.659051 0.795270 0.900199 0.969179 0.998924 0.987697 0.935434 0.843796 0.716151 0.557481 0.374210 0.173973 0.034690 0.242689 0.440768 0.619928 0.771837 0.889240 0.966317 0.999007 0.985241 0.925104 0.820887 0.677044 0.500030 0.298051 0.080702 0.141476 0.357482 0.556418 0.728031 0.863264 0.954755 0.997267 0.988021 0.926907 0.816566 0.662319 0.471953 0.255361 0.024056 0.209423 0.432176 0.631667 0.796437 0.916778 0.985343 0.997628 0.952308 0.851397 0.700211 0.507142 0.283230 0.041562 0.203459 0.436977 0.644565 0.813158 0.931870 0.992760 0.991388 0.927194 0.803622 0.628004 0.411166 0.166819 0.089286 0.340351 0.569631 0.761549 0.902795 0.983271 0.996872 0.941996 0.821759 0.643893 0.420303 0.166329 0.100277 0.360566 0.595739 0.788504 0.924393 0.992879 0.988255 0.910165 0.763748 0.559382 0.312003 0.040071 0.235772 0.494265 0.715151 0.880812 0.977693 0.997489 0.937909 0.802995 0.602938 0.353374 0.074227 0.211849 0.481276 0.711497 0.882910 0.980561 0.995523 0.925784 0.776564 0.560013 0.294312 0.002184 0.290969 0.559304 0.778786 0.929403 0.997032 0.974848 0.864090 0.674112 0.421689 0.129606 0.175331 0.464732 0.711268 0.891275 0.987081 0.988818 0.895531 0.715445 0.465338 0.169079 0.144595 0.444829 0.701671 0.889100
1.000000 1.000000 1.000000 1.000000 1.000000 1.000000 1.000000 1.000000 1.000000 1.000000 1.000000 1.000000 1.000000 1.000000 1.000000 1.000000 1.000000 1.000000 1.000000 1.000000 1.000000 1.000000 1.000000 1.000000 1.000000 1.000000 1.000000 1.000000 1.000000 1.000000 1.000000 1.000000 1.000000 1.000000 1.000000 1.000000 1.000000 1.000000 1.000000 1.000000 1.000000 1.000000 1.000000 1.000000 1.000000 1.000000 1.000000 1.000000 1.000000 1.000000 1.000000 1.000000 0.834346 0.834346 0.834346 0.834346 0.834346 0.834346 0.834346 0.816620 0.816620 0.816620 0.816620 0.816620 0.816620 0.816620 0.816620 0.816620 0.816620 0.816620 0.816620 0.816620 0.816620 0.816620 0.816620 0.816620 0.816620 0.816620 0.816620 0.816620 0.816620 0.816620 0.816620 0.816620 0.816620 0.816620 0.816620 0.816620 0.816620 0.816620 0.816620 0.816620 0.816620 0.816620 0.816620 0.816620 0.816620 0.816620 0.816620 0.816620 0.816620 0.816620 0.816620 0.955172 0.955764 0.952810 0.951704 0.950028 0.946702 0.942413 0.941983 0.943341 0.943540 0.944146 0.945473 0.946439 0.948033 0.949012 0.949813 0.950613 0.958746 0.962473 0.962209 0.961919 0.952719 0.959546 0.957573 0.955302 0.956074 0.956364 0.957067 0.956951 0.956789 0.956286 0.954961 0.955678 0.955515 0.954776 0.953734 0.951458 0.951410 0.950962 0.951094 0.952061 0.952770 0.953423 0.953950 0.953932 0.954111 0.954100 0.954003 0.949148 0.949171 0.942464 0.943049 0.944145 0.943780 0.942712 0.941252 0.941315 0.941198 0.941133 0.940966 0.941183 0.923287 0.922856 0.922880 0.923388 0.916793 0.905984 0.898345 0.892244 0.893156 0.897324 0.902150 0.902673 0.899458 0.898568 0.882049 0.879050 0.864301 0.860988 0.850578 0.860953 0.861693 0.863090 0.856638 0.855918 0.854468 0.852310 0.840826 0.845309 0.845703 0.842096 0.838264 0.836235 0.833785 0.836008 0.844677 0.841896 0.839703 0.841737 0.830756 0.820706 0.819449 0.821203 0.829557 0.841704 0.840194 0.838968 0.832516 0.828818 0.822594 0.817279 0.817081 0.818900 0.816507 0.820259 0.820153 0.828668 0.818435 0.812614 0.817728 0.828474 0.832987 0.834856 0.836707 0.834336 0.836162 0.818358 0.819106 0.820618 0.770842 0.770727 0.758709 0.756966 0.750187 0.750521 0.747212 0.745024 0.737797 0.714977 0.727474 0.730907 0.707754 0.715436 0.709848 0.699961 0.679507 0.685136 0.698589 0.708289 0.708477 0.711224 0.701227 0.701414 0.710108 0.709289 0.715286 0.707414 0.703495 0.697031 0.698985 0.689681 0.681076 0.679010 0.678561 0.679287 0.675552 0.657985 0.668416 0.658211 0.645616 0.634053 0.598789 0.571535 0.558072 0.548867 0.530139 0.506436 0.520127 0.526255 0.508798 0.500660 0.481349 0.445128 0.432512 0.431446 0.412347 0.399163 0.379103 0.334291 0.344714 0.340460 0.344412 0.326686 0.322984 0.306511 0.249342 0.241382 0.203222 0.221318 0.242250 0.239509 0.220927 0.212822 0.231843 0.229254 0.237821 0.236121 0.253018 0.208635 0.148229 0.170327 0.165507 0.175075 0.159229 0.129740 0.157490 0.155188 0.168564 0.173132 0.123691 0.094269 0.073387 0.061431 0.067495 0.089615 0.103972 0.094146 0.079298 -0.013327 0.019163 0.043363 0.043363 0.043363 0.043363 0.043363 0.043363 0.043363 0.043363 0.043363 0.043363 0.043363 -0.012914 -0.012914 -0.012914 -0.012914 -0.012914 -0.012914 -0.012914 -0.012914 -0.012914 -0.012914 -0.012914 -0.012914 -0.012914 -0.012914 -0.012914 -0.012914 -0.012914 -0.012914 -0.012914
0.000000 0.000000 0.000000 0.000000 0.000000 0.000000 0.000000 0.000000 0.000000 0.000000 0.000000 0.000000 0.000000 0.000000 0.000000 0.000000 0.000000 0.000000 0.000000 0.000000 0.000000 0.000000 0.000000 0.000000 0.000000 0.000000 0.000000 0.000000 0.000000 0.000000 0.000000 0.000000 0.000000 0.000000 0.000000 0.000000 0.000000 0.000000 0.000000 0.000000 0.000000 0.000000 0.000000 0.000000 0.000000 0.000000 0.000000 0.000000 0.000000 0.000000 0.000000 0.000000 0.173422 0.173422 0.173422 0.173422 0.173422 0.173422 0.173422 0.191565 0.191565 0.191565 0.191565 0.191565 0.191565 0.191565 0.191565 0.191565 0.191565 0.191565 0.191565 0.191565 0.191565 0.191565 0.191565 0.191565 0.191565 0.191565 0.191565 0.191565 0.191565 0.191565 0.191565 0.191565 0.191565 0.191565 0.191565 0.191565 0.191565 0.191565 0.191565 0.191565 0.191565 0.191565 0.191565 0.191565 0.191565 0.191565 0.191565 0.191565 0.191565 0.191565 0.191565 0.219529 0.219529 0.219529 0.219529 0.219529 0.219529 0.219529 0.219529 0.219529 0.219529 0.219529 0.219529 0.219529 0.219529 0.219529 0.219529 0.219529 0.219529 0.219529 0.219529 0.219529 0.219529 0.219529 0.219529 0.219529 0.219529 0.219529 0.219529 0.219529 0.219529 0.219529 0.237356 0.237356 0.237356 0.237356 0.237356 0.237356 0.237356 0.237356 0.237356 0.237356 0.237356 0.237356 0.237356 0.237356 0.237356 0.237356 0.237356 0.237356 0.237356 0.237356 0.237356 0.237356 0.237356 0.237356 0.244339 0.244339 0.244339 0.244339 0.244339 0.244339 0.244339 0.244339 0.244339 0.244339 0.244339 0.244339 0.244339 0.244339 0.244339 0.244339 0.244339 0.244339 0.244339 0.244339 0.244339 0.248069 0.248069 0.248069 0.248069 0.248069 0.248069 0.248069 0.248069 0.248069 0.248069 0.248069 0.248069 0.248069 0.248069 0.248069 0.248069 0.248069 0.248069 0.248069 0.248069 0.248069 0.248069 0.248069 0.248069 0.248069 0.248069 0.248069 0.248069 0.248069 0.248069 0.248069 0.248069 0.248069 0.248069 0.248069 0.248069 0.248069 0.256074 0.256074 0.256074 0.256074 0.256074 0.256074 0.256074 0.256074 0.256074 0.256074 0.256074 0.256074 0.256074 0.256074 0.256074 0.256074 0.256074 0.256074 0.256074 0.256074 0.256074 0.256074 0.256074 0.256074 0.256074 0.256074 0.256074 0.256074 0.256074 0.256074 0.256074 0.256074 0.256074 0.256074 0.256074 0.256074 0.256074 0.256074 0.256074 0.256074 0.256074 0.256074 0.256074 0.256074 0.256074 0.260378 0.260378 0.260378 0.260378 0.260378 0.260378 0.260378 0.260378 0.260378 0.260378 0.260378 0.260378 0.260378 0.256074 0.256074 0.256074 0.256074 0.256074 0.256074 0.256074 0.256074 0.256074 0.256074 0.256074 0.256074 0.256074 0.260378 0.260378 0.260378 0.260378 0.260378 0.260378 0.260378 0.260378 0.260378 0.260378 0.260378 0.260378 0.251976 0.251976 0.251976 0.251976 0.251976 0.251976 0.251976 0.251976 0.251976 0.251976 0.251976 0.251976 0.256074 0.256074 0.256074 0.256074 0.256074 0.256074 0.256074 0.256074 0.256074 0.256074 0.256074 0.251976 0.251976 0.251976 0.251976 0.251976 0.251976 0.251976 0.251976 0.251976 0.251976 0.251976 0.248069 0.248069 0.248069 0.248069 0.248069 0.248069 0.248069 0.248069 0.248069 0.248069 0.248069 0.256074 0.256074 0.256074 0.256074 0.256074 0.256074 0.256074 0.256074 0.256074 0.256074 0.256074 0.256074 0.256074 0.256074 0.256074 0.256074 0.256074 0.256074 0.256074
