# Output from CTFFind version 4.1.9, run on 2019-11-03 19:24:09
# Input file: stack11_bm3d_averaged_1_3.75_0_50_half.mrc ; Number of micrographs: 1
# Pixel size: 3.000 Angstroms ; acceleration voltage: 300.0 keV ; spherical aberration: 0.00 mm ; amplitude contrast: 0.07
# Box size: 512 pixels ; min. res.: 30.0 Angstroms ; max. res.: 5.0 Angstroms ; min. def.: 5000.0 um; max. def. 50000.0 um; num. frames averaged: 1
# 6 lines per micrograph: #1 - spatial frequency (1/Angstroms); #2 - 1D rotational average of spectrum (assuming no astigmatism); #3 - 1D rotational average of spectrum; #4 - CTF fit; #5 - cross-correlation between spectrum and CTF fit; #6 - 2sigma of expected cross correlation of noise
0.000000 0.000651 0.001302 0.001953 0.002604 0.003255 0.003906 0.004557 0.005208 0.005859 0.006510 0.007161 0.007812 0.008464 0.009115 0.009766 0.010417 0.011068 0.011719 0.012370 0.013021 0.013672 0.014323 0.014974 0.015625 0.016276 0.016927 0.017578 0.018229 0.018880 0.019531 0.020182 0.020833 0.021484 0.022135 0.022786 0.023438 0.024089 0.024740 0.025391 0.026042 0.026693 0.027344 0.027995 0.028646 0.029297 0.029948 0.030599 0.031250 0.031901 0.032552 0.033203 0.033854 0.034505 0.035156 0.035807 0.036458 0.037109 0.037760 0.038411 0.039062 0.039714 0.040365 0.041016 0.041667 0.042318 0.042969 0.043620 0.044271 0.044922 0.045573 0.046224 0.046875 0.047526 0.048177 0.048828 0.049479 0.050130 0.050781 0.051432 0.052083 0.052734 0.053385 0.054036 0.054688 0.055339 0.055990 0.056641 0.057292 0.057943 0.058594 0.059245 0.059896 0.060547 0.061198 0.061849 0.062500 0.063151 0.063802 0.064453 0.065104 0.065755 0.066406 0.067057 0.067708 0.068359 0.069010 0.069661 0.070312 0.070964 0.071615 0.072266 0.072917 0.073568 0.074219 0.074870 0.075521 0.076172 0.076823 0.077474 0.078125 0.078776 0.079427 0.080078 0.080729 0.081380 0.082031 0.082682 0.083333 0.083984 0.084635 0.085286 0.085938 0.086589 0.087240 0.087891 0.088542 0.089193 0.089844 0.090495 0.091146 0.091797 0.092448 0.093099 0.093750 0.094401 0.095052 0.095703 0.096354 0.097005 0.097656 0.098307 0.098958 0.099609 0.100260 0.100911 0.101562 0.102214 0.102865 0.103516 0.104167 0.104818 0.105469 0.106120 0.106771 0.107422 0.108073 0.108724 0.109375 0.110026 0.110677 0.111328 0.111979 0.112630 0.113281 0.113932 0.114583 0.115234 0.115885 0.116536 0.117188 0.117839 0.118490 0.119141 0.119792 0.120443 0.121094 0.121745 0.122396 0.123047 0.123698 0.124349 0.125000 0.125651 0.126302 0.126953 0.127604 0.128255 0.128906 0.129557 0.130208 0.130859 0.131510 0.132161 0.132812 0.133464 0.134115 0.134766 0.135417 0.136068 0.136719 0.137370 0.138021 0.138672 0.139323 0.139974 0.140625 0.141276 0.141927 0.142578 0.143229 0.143880 0.144531 0.145182 0.145833 0.146484 0.147135 0.147786 0.148438 0.149089 0.149740 0.150391 0.151042 0.151693 0.152344 0.152995 0.153646 0.154297 0.154948 0.155599 0.156250 0.156901 0.157552 0.158203 0.158854 0.159505 0.160156 0.160807 0.161458 0.162109 0.162760 0.163411 0.164062 0.164714 0.165365 0.166016 0.166667 0.167318 0.167969 0.168620 0.169271 0.169922 0.170573 0.171224 0.171875 0.172526 0.173177 0.173828 0.174479 0.175130 0.175781 0.176432 0.177083 0.177734 0.178385 0.179036 0.179688 0.180339 0.180990 0.181641 0.182292 0.182943 0.183594 0.184245 0.184896 0.185547 0.186198 0.186849 0.187500 0.188151 0.188802 0.189453 0.190104 0.190755 0.191406 0.192057 0.192708 0.193359 0.194010 0.194661 0.195312 0.195964 0.196615 0.197266 0.197917 0.198568 0.199219 0.199870 0.200521 0.201172 0.201823 0.202474 0.203125 0.203776 0.204427 0.205078 0.205729 0.206380 0.207031 0.207682 0.208333 0.208984 0.209635 0.210286 0.210938 0.211589 0.212240 0.212891 0.213542 0.214193 0.214844 0.215495 0.216146 0.216797 0.217448 0.218099 0.218750 0.219401 0.220052 0.220703 0.221354 0.222005 0.222656 0.223307 0.223958 0.224609 0.225260 0.225911 0.226562 0.227214 0.227865 0.228516 0.229167 0.229818 0.230469 0.231120 0.231771 0.232422 0.233073 0.233724 0.234375 0.235026 0.235677
       0.33437        0.33437        0.33437        0.33437        0.33437        0.33437        0.33437        0.33437        0.33437        0.33437        0.33437        0.33437        0.33437        0.33437        0.33437        0.33437        0.33437        0.33437        0.33437        0.33437        0.33437        0.33437        0.33437        0.33437        0.33437        0.33437        0.33437        0.33437        0.33437        0.33437        0.33437        0.33437        0.33437        0.33437        0.33437        0.33437        0.33437        0.33437        0.33437        0.33437        0.33437        0.33437        0.33437        0.33437        0.33437        0.33437        0.33437        0.33437        0.33437        0.33437        0.33437        0.69152        0.86087        0.53255        0.10251       -0.03715       -0.39957       -0.18531       -0.28887       -0.11157       -0.05816       -0.11088       -0.05502       -0.17765       -0.21197       -0.22658       -0.31359       -0.32526       -0.45533       -0.36726       -0.43672       -0.42910       -0.40366       -0.42959       -0.47514       -0.52536       -0.56577       -0.57492       -0.54481       -0.37384       -0.34710       -0.30601       -0.28397       -0.19316       -0.18544        0.04663        0.12375        0.15429        0.25140        0.37692        0.45404        0.51796        0.58603        0.58312        0.57230        0.69470        0.80482        0.71069        0.73748        0.63029        0.56674        0.48308        0.42619        0.50768        0.39138        0.24910        0.10280        0.08824        0.06785       -0.03169        0.01609        0.03074       -0.01679        0.01598        0.01095        0.23414        0.26414        0.29278        0.43008        0.45119        0.40956        0.57940        0.62460        0.65683        0.73455        0.67946        0.64943        0.67231        0.56539        0.47116        0.41858        0.29926        0.24399        0.17086        0.12618        0.05160        0.04296        0.04526        0.08653        0.14168        0.22872        0.28162        0.40532        0.45505        0.48482        0.58475        0.61373        0.63821        0.61972        0.56215        0.45661        0.46559        0.37403        0.25673        0.19842        0.15493        0.15399        0.14199        0.13422        0.15963        0.29491        0.30536        0.38476        0.42240        0.43087        0.49593        0.55416        0.55457        0.49280        0.45390        0.40392        0.35393        0.32454        0.29002        0.23501        0.23045        0.22102        0.23643        0.21265        0.29951        0.35819        0.38451        0.43927        0.45247        0.47146        0.42236        0.40111        0.40255        0.35987        0.30793        0.26924        0.25332        0.25129        0.22172        0.27107        0.26989        0.33928        0.37230        0.40779        0.47580        0.41851        0.42692        0.43198        0.40633        0.34473        0.31920        0.29035        0.30539        0.26510        0.30519        0.29846        0.31735        0.32877        0.34958        0.31915        0.39961        0.41755        0.38149        0.34643        0.37114        0.30713        0.28891        0.28586        0.31092        0.29516        0.30768        0.32337        0.33677        0.33941        0.36621        0.36779        0.39289        0.37401        0.32562        0.33286        0.29045        0.27428        0.32061        0.31290        0.32252        0.32961        0.32618        0.36718        0.32818        0.32787        0.32018        0.33004        0.29496        0.30381        0.27263        0.29855        0.31569        0.29661        0.31746        0.34167        0.34735        0.28217        0.31840        0.28555        0.30097        0.27745        0.23869        0.29293        0.29448        0.34051        0.33125        0.32875        0.32173        0.33836        0.29938        0.33665        0.32039        0.29830        0.27615        0.31990        0.30796        0.35426        0.32563        0.32696        0.33479        0.29006        0.27535        0.30564        0.24737        0.22113        0.32444        0.31959        0.33664        0.32955        0.34288        0.31331        0.33969        0.33919        0.26313        0.24246        0.30796        0.29482        0.30334        0.32025        0.33767        0.33818        0.30243        0.28662        0.33420        0.31575        0.29499        0.27633        0.31922        0.35054        0.39303        0.32989        0.29772        0.27608        0.30649        0.27137        0.28947        0.26530        0.24637        0.30717        0.32753        0.33582        0.34102        0.30814        0.27423        0.28327        0.25564        0.25434        0.24784        0.32092        0.28539        0.22648        0.32262        0.31407        0.26058        0.28019        0.20655        0.21391        0.25582        0.18643        0.25392        0.30455        0.23050        0.21477        0.30582        0.32338        0.33238        0.32578        0.25269        0.22032        0.17349        0.21298        0.18973        0.19467        0.20439        0.25062        0.28920        0.26327        0.20479        0.12029        0.08974       -0.02277       -0.11226       -0.62890
2.703061 2.674486 2.646067 2.617804 2.589696 2.561745 2.533950 2.506311 2.478827 2.451500 2.424329 2.397314 2.370454 2.343751 2.317204 2.290812 2.264577 2.238498 2.212575 2.186807 2.161196 2.135741 2.110441 2.085298 2.060311 2.035479 2.010804 1.986285 1.961921 1.937714 1.913663 1.889767 1.866028 1.842445 1.819017 1.795746 1.772631 1.749671 1.726868 1.704221 1.681729 1.659394 1.637214 1.615191 1.593324 1.571612 1.550057 1.528658 1.507414 1.486327 1.465396 1.679994 2.097587 1.663115 1.164350 1.027946 0.439638 0.836437 0.560791 0.842232 0.799143 0.809408 0.753849 0.737410 0.587042 0.546028 0.494968 0.430026 0.239264 0.371637 0.203505 0.324615 0.226032 0.199115 0.169273 0.033143 0.022069 0.010132 -0.066081 0.126906 0.223044 0.188456 0.171130 0.331246 0.183567 0.505883 0.611448 0.607478 0.625525 0.868911 0.824318 0.935598 0.912051 1.009940 0.970661 1.069379 1.154260 1.040748 1.140809 0.911226 0.922511 0.785742 0.652174 0.790926 0.699062 0.479040 0.325462 0.247443 0.254427 0.147797 0.119453 0.154682 0.099573 0.131382 0.071728 0.257230 0.362007 0.343564 0.475532 0.548064 0.425728 0.579996 0.717436 0.682512 0.743818 0.703658 0.720168 0.665894 0.601888 0.515890 0.385242 0.279501 0.222080 0.083356 0.120843 -0.081882 -0.043965 -0.064167 -0.069731 -0.022345 0.139827 0.068301 0.246422 0.303929 0.341139 0.407206 0.505755 0.489658 0.483902 0.496909 0.313511 0.294514 0.284034 0.089334 0.043472 -0.058444 -0.012873 -0.057004 -0.086314 -0.087583 0.033879 0.078870 0.119575 0.205906 0.230154 0.253078 0.301128 0.427046 0.396157 0.272194 0.243324 0.218216 0.156119 0.140374 0.110453 0.000353 0.018687 0.059176 -0.004755 0.066451 0.147218 0.145337 0.238749 0.246682 0.289047 0.184210 0.219333 0.145944 0.177138 0.115182 0.051511 -0.004328 0.009047 -0.005001 -0.042037 0.056379 0.021104 0.129139 0.148167 0.188122 0.202083 0.163097 0.162705 0.182520 0.135046 0.061575 0.007791 0.057342 0.020056 -0.012538 0.034579 0.041198 0.059295 0.056024 0.063831 0.084881 0.133054 0.159247 0.061226 0.063289 0.058391 0.017012 -0.021848 0.012690 0.016057 0.008110 0.014568 0.040208 0.056164 0.057842 0.093010 0.059593 0.134504 0.060901 0.025152 0.039194 -0.034439 0.000901 0.045971 0.001284 0.041401 0.050483 0.018597 0.112945 0.038271 0.010340 0.050335 0.008088 0.013146 0.007569 -0.019250 0.035813 0.005363 0.006374 0.056289 0.057751 0.051859 0.029836 0.035488 0.034157 0.025434 -0.013671 -0.022951 0.033450 0.052278 0.084535 0.086263 0.058805 0.083068 0.106313 0.056513 0.110540 0.094184 0.032219 0.041289 0.095289 0.076768 0.117908 0.097056 0.061732 0.134255 0.060077 0.023582 0.094761 -0.022198 -0.000547 0.108647 0.068870 0.132187 0.088366 0.103934 0.043770 0.103274 0.089960 -0.007474 -0.030607 0.064490 0.061508 0.040797 0.051294 0.106536 0.082433 0.010763 0.045797 0.070654 0.059223 0.047420 -0.014444 0.077674 0.093743 0.138945 0.024664 0.015663 -0.015029 0.029725 -0.022212 0.005872 -0.032807 -0.038283 0.014256 0.051196 0.015006 0.036374 -0.011680 -0.037465 -0.049264 -0.026122 -0.071950 -0.062355 0.009409 0.044412 -0.090518 0.034424 -0.016264 -0.065279 0.011952 -0.123621 -0.069990 -0.065223 -0.161429 -0.021585 0.037472 -0.031734 -0.139474 0.048177 0.101995 -0.012218 0.100069 -0.031099 0.238142 0.138346 0.222429 0.242037 0.219019 0.215473 0.282039 0.278820 0.299108 0.186523 0.211489 0.133485 -0.028752 -0.676364
0.072396 0.072899 0.074407 0.076919 0.080436 0.084956 0.090479 0.097001 0.104523 0.113039 0.122548 0.133045 0.144524 0.156979 0.170403 0.184785 0.200116 0.216383 0.233569 0.251659 0.270631 0.290464 0.311131 0.332602 0.354845 0.377822 0.401492 0.425809 0.450723 0.476176 0.502109 0.528454 0.555138 0.582082 0.609201 0.636404 0.663591 0.690659 0.717493 0.743977 0.769985 0.795383 0.820033 0.843790 0.866502 0.888013 0.908160 0.926776 0.943691 0.958730 0.971716 0.982473 0.990821 0.996584 0.999587 0.999657 0.996630 0.990345 0.980652 0.967412 0.950496 0.929792 0.905204 0.876654 0.844086 0.807467 0.766790 0.722074 0.673372 0.620763 0.564364 0.504327 0.440840 0.374130 0.304463 0.232145 0.157524 0.080986 0.002959 0.076091 0.155661 0.235212 0.314172 0.391940 0.467892 0.541378 0.611737 0.678297 0.740381 0.797319 0.848451 0.893136 0.930764 0.960761 0.982600 0.995811 0.999989 0.994807 0.980021 0.955480 0.921137 0.877053 0.823405 0.760493 0.688740 0.608698 0.521050 0.426603 0.326293 0.221173 0.112409 0.001269 0.110889 0.222630 0.332462 0.438854 0.540256 0.635122 0.721939 0.799248 0.865672 0.919949 0.960950 0.987715 0.999474 0.995673 0.975993 0.940375 0.889028 0.822445 0.741409 0.646990 0.540545 0.423706 0.298357 0.166621 0.030821 0.106556 0.242898 0.375515 0.501699 0.618771 0.724151 0.815408 0.890333 0.946987 0.983769 0.999464 0.993289 0.964935 0.914596 0.842988 0.751352 0.641457 0.515574 0.376438 0.227212 0.071409 0.087171 0.244536 0.396599 0.539282 0.668632 0.780934 0.872824 0.941403 0.984338 0.999956 0.987316 0.946276 0.877523 0.782591 0.663849 0.524461 0.368323 0.199960 0.024420 0.152878 0.326304 0.490191 0.639030 0.767653 0.871431 0.946452 0.989682 0.999110 0.973856 0.914248 0.821855 0.699475 0.551077 0.381706 0.197316 0.004589 0.189300 0.376943 0.550988 0.704422 0.830875 0.924894 0.982201 0.999914 0.976711 0.912947 0.810690 0.673701 0.507321 0.318296 0.114531 0.095230 0.301761 0.495762 0.668279 0.811131 0.917313 0.981373 0.999714 0.970832 0.895453 0.776575 0.619392 0.431102 0.220625 0.001813 0.225143 0.438001 0.629310 0.788868 0.907911 0.979626 0.999576 0.966016 0.880069 0.745750 0.569834 0.361561 0.132182 0.105613 0.338383 0.552693 0.735901 0.876915 0.966910 0.999908 0.973233 0.887762 0.747977 0.561792 0.340158 0.096459 0.154254 0.396190 0.613799 0.792787 0.921095 0.989737 0.993493 0.931355 0.806716 0.627251 0.404521 0.153279 0.109474 0.365600 0.597093 0.787335 0.922337 0.991807 0.990001 0.916255 0.775173 0.576418 0.334131 0.065969 0.208123 0.467393 0.691835 0.863780 0.969315 0.999477 0.951085 0.827139 0.636738 0.394493 0.119479 0.166222 0.439253 0.676900 0.859007 0.969730 0.998982 0.943441 0.806995 0.600578 0.341385 0.051526 0.243816 0.518553 0.747984 0.911078 0.992442 0.983868 0.885252 0.704793 0.458422 0.168492 0.138183 0.432770 0.687113 0.876459 0.981933 0.992495 0.906211 0.730634 0.482281 0.185184 0.131369 0.435654 0.696701 0.887466 0.987710 0.986236 0.882256 0.685704 0.416414 0.102243 0.223754 0.526738 0.773829 0.937707 0.999742 0.952205 0.799366 0.557274 0.252195 0.082118 0.408104 0.688597 0.891086 0.991578 0.977543 0.849620 0.621808 0.320096 0.020397 0.359413 0.656284 0.874855 0.987950 0.980878 0.853491 0.620486 0.309882 0.040222 0.386230 0.684458 0.896668 0.995076 0.966116 0.812474 0.553054 0.220825 0.141239
1.000000 1.000000 1.000000 1.000000 1.000000 1.000000 1.000000 1.000000 1.000000 1.000000 1.000000 1.000000 1.000000 1.000000 1.000000 1.000000 1.000000 1.000000 1.000000 1.000000 1.000000 1.000000 1.000000 1.000000 1.000000 1.000000 1.000000 1.000000 1.000000 1.000000 1.000000 1.000000 1.000000 1.000000 1.000000 1.000000 1.000000 1.000000 1.000000 1.000000 1.000000 1.000000 1.000000 1.000000 1.000000 1.000000 1.000000 1.000000 1.000000 1.000000 1.000000 1.000000 0.920033 0.920033 0.920033 0.912159 0.912159 0.912159 0.912159 0.912159 0.912159 0.912159 0.912159 0.912159 0.912159 0.912159 0.912159 0.912159 0.912159 0.912159 0.912159 0.912159 0.912159 0.912159 0.912159 0.912159 0.912159 0.912159 0.912159 0.912159 0.912159 0.912159 0.912159 0.912159 0.912159 0.912159 0.912159 0.912159 0.912159 0.912159 0.912159 0.912159 0.912159 0.912159 0.912159 0.912159 0.938766 0.940289 0.950758 0.950625 0.950022 0.947922 0.946755 0.946392 0.946284 0.946610 0.947315 0.948278 0.957326 0.958276 0.961090 0.962737 0.963479 0.964123 0.964778 0.965387 0.956285 0.956107 0.954772 0.954192 0.956725 0.956001 0.955981 0.956962 0.956843 0.957784 0.957665 0.956984 0.955932 0.954874 0.953968 0.953570 0.953369 0.954081 0.954474 0.955918 0.959199 0.959762 0.959881 0.960037 0.960139 0.961435 0.960243 0.959737 0.955860 0.956133 0.955800 0.956116 0.959772 0.959729 0.960284 0.960833 0.962381 0.962647 0.954797 0.952727 0.943226 0.941204 0.936979 0.931203 0.926758 0.928606 0.930270 0.930964 0.931479 0.926173 0.926120 0.923256 0.918536 0.921248 0.920186 0.920700 0.922099 0.920254 0.918743 0.918064 0.915945 0.907011 0.895213 0.894415 0.896384 0.901046 0.902531 0.901155 0.902373 0.890776 0.873152 0.859253 0.861166 0.864878 0.856597 0.854798 0.855406 0.856295 0.859923 0.854316 0.852906 0.849092 0.838985 0.829393 0.821216 0.817385 0.822218 0.818994 0.809309 0.808780 0.819380 0.811465 0.825644 0.829845 0.826075 0.825548 0.823994 0.819750 0.797029 0.795652 0.787462 0.768277 0.768648 0.767317 0.766285 0.762312 0.767989 0.756204 0.751541 0.735256 0.735201 0.738701 0.741059 0.738839 0.733357 0.737352 0.741824 0.723472 0.712027 0.699373 0.703909 0.706260 0.709787 0.707406 0.686418 0.657275 0.626529 0.646248 0.661591 0.622310 0.646239 0.656959 0.641472 0.639204 0.629469 0.631005 0.619281 0.622813 0.625287 0.629577 0.629001 0.646948 0.629383 0.623812 0.632077 0.632508 0.643926 0.639870 0.640444 0.610816 0.609103 0.633818 0.636740 0.616761 0.635100 0.623038 0.636848 0.672466 0.677542 0.649371 0.641674 0.622105 0.582602 0.575860 0.571765 0.584882 0.618420 0.599243 0.565794 0.540886 0.548182 0.566502 0.575376 0.576970 0.553553 0.559357 0.550021 0.526393 0.533142 0.547411 0.546244 0.534385 0.519970 0.524766 0.529953 0.550960 0.540946 0.500575 0.512771 0.510582 0.508453 0.462772 0.476132 0.457496 0.444296 0.398245 0.405723 0.418928 0.407612 0.345230 0.329287 0.328981 0.329318 0.329654 0.316460 0.290978 0.276761 0.254909 0.256717 0.245948 0.223510 0.222885 0.206597 0.196170 0.195490 0.158187 0.202339 0.261168 0.261793 0.261793 0.261793 0.261793 0.261793 0.261793 0.260134 0.260134 0.260134 0.260134 0.260134 0.260134 0.260134 0.260134 0.260134 0.284317 0.284317 0.284317 0.284317 0.284317 0.284317 0.284317 0.284317 0.284317 0.284317 0.284317 0.284317 0.284317 0.284317
0.000000 0.000000 0.000000 0.000000 0.000000 0.000000 0.000000 0.000000 0.000000 0.000000 0.000000 0.000000 0.000000 0.000000 0.000000 0.000000 0.000000 0.000000 0.000000 0.000000 0.000000 0.000000 0.000000 0.000000 0.000000 0.000000 0.000000 0.000000 0.000000 0.000000 0.000000 0.000000 0.000000 0.000000 0.000000 0.000000 0.000000 0.000000 0.000000 0.000000 0.000000 0.000000 0.000000 0.000000 0.000000 0.000000 0.000000 0.000000 0.000000 0.000000 0.000000 0.000000 0.180334 0.180334 0.180334 0.199007 0.199007 0.199007 0.199007 0.199007 0.199007 0.199007 0.199007 0.199007 0.199007 0.199007 0.199007 0.199007 0.199007 0.199007 0.199007 0.199007 0.199007 0.199007 0.199007 0.199007 0.199007 0.199007 0.199007 0.199007 0.199007 0.199007 0.199007 0.199007 0.199007 0.199007 0.199007 0.199007 0.199007 0.199007 0.199007 0.199007 0.199007 0.199007 0.199007 0.199007 0.225018 0.225018 0.225018 0.225018 0.225018 0.225018 0.225018 0.225018 0.225018 0.225018 0.225018 0.225018 0.225018 0.225018 0.225018 0.225018 0.225018 0.225018 0.225018 0.225018 0.225018 0.225018 0.225018 0.225018 0.225018 0.225018 0.225018 0.225018 0.225018 0.244339 0.244339 0.244339 0.244339 0.244339 0.244339 0.244339 0.244339 0.244339 0.244339 0.244339 0.244339 0.244339 0.244339 0.244339 0.244339 0.244339 0.244339 0.244339 0.244339 0.244339 0.244339 0.244339 0.251976 0.251976 0.251976 0.251976 0.251976 0.251976 0.251976 0.251976 0.251976 0.251976 0.251976 0.251976 0.251976 0.251976 0.251976 0.251976 0.251976 0.251976 0.251976 0.251976 0.264906 0.264906 0.264906 0.264906 0.264906 0.264906 0.264906 0.264906 0.264906 0.264906 0.264906 0.264906 0.264906 0.264906 0.264906 0.264906 0.264906 0.264906 0.264906 0.264906 0.264906 0.264906 0.264906 0.264906 0.264906 0.264906 0.264906 0.264906 0.264906 0.264906 0.264906 0.264906 0.264906 0.264906 0.264906 0.264906 0.264906 0.264906 0.264906 0.264906 0.264906 0.264906 0.264906 0.264906 0.264906 0.264906 0.264906 0.264906 0.264906 0.264906 0.264906 0.264906 0.264906 0.264906 0.264906 0.264906 0.264906 0.264906 0.264906 0.264906 0.264906 0.264906 0.256074 0.256074 0.256074 0.256074 0.256074 0.256074 0.256074 0.256074 0.256074 0.256074 0.256074 0.256074 0.256074 0.256074 0.269680 0.269680 0.269680 0.269680 0.269680 0.269680 0.269680 0.269680 0.269680 0.269680 0.269680 0.269680 0.264906 0.264906 0.264906 0.264906 0.264906 0.264906 0.264906 0.264906 0.264906 0.264906 0.264906 0.264906 0.269680 0.269680 0.269680 0.269680 0.269680 0.269680 0.269680 0.269680 0.269680 0.269680 0.269680 0.264906 0.264906 0.264906 0.264906 0.264906 0.264906 0.264906 0.264906 0.264906 0.264906 0.264906 0.256074 0.256074 0.256074 0.256074 0.256074 0.256074 0.256074 0.256074 0.256074 0.256074 0.256074 0.264906 0.264906 0.264906 0.264906 0.264906 0.264906 0.264906 0.264906 0.264906 0.264906 0.260378 0.260378 0.260378 0.260378 0.260378 0.260378 0.260378 0.260378 0.260378 0.260378 0.256074 0.256074 0.256074 0.256074 0.256074 0.256074 0.256074 0.256074 0.256074 0.256074 0.260378 0.260378 0.260378 0.260378 0.260378 0.260378 0.260378 0.260378 0.260378 0.256074 0.256074 0.256074 0.256074 0.256074 0.256074 0.256074 0.256074 0.256074 0.251976 0.251976 0.251976 0.251976 0.251976 0.251976 0.251976 0.251976 0.251976 0.251976 0.251976 0.251976 0.251976 0.251976
