# Output from CTFFind version 4.1.9, run on 2019-11-03 19:00:05
# Input file: stack1_bm3d_averaged_1_3.25_0_2000_half.mrc ; Number of micrographs: 1
# Pixel size: 3.000 Angstroms ; acceleration voltage: 300.0 keV ; spherical aberration: 0.00 mm ; amplitude contrast: 0.07
# Box size: 512 pixels ; min. res.: 30.0 Angstroms ; max. res.: 5.0 Angstroms ; min. def.: 5000.0 um; max. def. 50000.0 um; num. frames averaged: 1
# 6 lines per micrograph: #1 - spatial frequency (1/Angstroms); #2 - 1D rotational average of spectrum (assuming no astigmatism); #3 - 1D rotational average of spectrum; #4 - CTF fit; #5 - cross-correlation between spectrum and CTF fit; #6 - 2sigma of expected cross correlation of noise
0.000000 0.000651 0.001302 0.001953 0.002604 0.003255 0.003906 0.004557 0.005208 0.005859 0.006510 0.007161 0.007812 0.008464 0.009115 0.009766 0.010417 0.011068 0.011719 0.012370 0.013021 0.013672 0.014323 0.014974 0.015625 0.016276 0.016927 0.017578 0.018229 0.018880 0.019531 0.020182 0.020833 0.021484 0.022135 0.022786 0.023438 0.024089 0.024740 0.025391 0.026042 0.026693 0.027344 0.027995 0.028646 0.029297 0.029948 0.030599 0.031250 0.031901 0.032552 0.033203 0.033854 0.034505 0.035156 0.035807 0.036458 0.037109 0.037760 0.038411 0.039062 0.039714 0.040365 0.041016 0.041667 0.042318 0.042969 0.043620 0.044271 0.044922 0.045573 0.046224 0.046875 0.047526 0.048177 0.048828 0.049479 0.050130 0.050781 0.051432 0.052083 0.052734 0.053385 0.054036 0.054688 0.055339 0.055990 0.056641 0.057292 0.057943 0.058594 0.059245 0.059896 0.060547 0.061198 0.061849 0.062500 0.063151 0.063802 0.064453 0.065104 0.065755 0.066406 0.067057 0.067708 0.068359 0.069010 0.069661 0.070312 0.070964 0.071615 0.072266 0.072917 0.073568 0.074219 0.074870 0.075521 0.076172 0.076823 0.077474 0.078125 0.078776 0.079427 0.080078 0.080729 0.081380 0.082031 0.082682 0.083333 0.083984 0.084635 0.085286 0.085938 0.086589 0.087240 0.087891 0.088542 0.089193 0.089844 0.090495 0.091146 0.091797 0.092448 0.093099 0.093750 0.094401 0.095052 0.095703 0.096354 0.097005 0.097656 0.098307 0.098958 0.099609 0.100260 0.100911 0.101562 0.102214 0.102865 0.103516 0.104167 0.104818 0.105469 0.106120 0.106771 0.107422 0.108073 0.108724 0.109375 0.110026 0.110677 0.111328 0.111979 0.112630 0.113281 0.113932 0.114583 0.115234 0.115885 0.116536 0.117188 0.117839 0.118490 0.119141 0.119792 0.120443 0.121094 0.121745 0.122396 0.123047 0.123698 0.124349 0.125000 0.125651 0.126302 0.126953 0.127604 0.128255 0.128906 0.129557 0.130208 0.130859 0.131510 0.132161 0.132812 0.133464 0.134115 0.134766 0.135417 0.136068 0.136719 0.137370 0.138021 0.138672 0.139323 0.139974 0.140625 0.141276 0.141927 0.142578 0.143229 0.143880 0.144531 0.145182 0.145833 0.146484 0.147135 0.147786 0.148438 0.149089 0.149740 0.150391 0.151042 0.151693 0.152344 0.152995 0.153646 0.154297 0.154948 0.155599 0.156250 0.156901 0.157552 0.158203 0.158854 0.159505 0.160156 0.160807 0.161458 0.162109 0.162760 0.163411 0.164062 0.164714 0.165365 0.166016 0.166667 0.167318 0.167969 0.168620 0.169271 0.169922 0.170573 0.171224 0.171875 0.172526 0.173177 0.173828 0.174479 0.175130 0.175781 0.176432 0.177083 0.177734 0.178385 0.179036 0.179688 0.180339 0.180990 0.181641 0.182292 0.182943 0.183594 0.184245 0.184896 0.185547 0.186198 0.186849 0.187500 0.188151 0.188802 0.189453 0.190104 0.190755 0.191406 0.192057 0.192708 0.193359 0.194010 0.194661 0.195312 0.195964 0.196615 0.197266 0.197917 0.198568 0.199219 0.199870 0.200521 0.201172 0.201823 0.202474 0.203125 0.203776 0.204427 0.205078 0.205729 0.206380 0.207031 0.207682 0.208333 0.208984 0.209635 0.210286 0.210938 0.211589 0.212240 0.212891 0.213542 0.214193 0.214844 0.215495 0.216146 0.216797 0.217448 0.218099 0.218750 0.219401 0.220052 0.220703 0.221354 0.222005 0.222656 0.223307 0.223958 0.224609 0.225260 0.225911 0.226562 0.227214 0.227865 0.228516 0.229167 0.229818 0.230469 0.231120 0.231771 0.232422 0.233073 0.233724 0.234375 0.235026 0.235677
       0.35518        0.35518        0.35518        0.35518        0.35518        0.35518        0.35518        0.35518        0.35518        0.35518        0.35518        0.35518        0.35518        0.35518        0.35518        0.35518        0.35518        0.35518        0.35518        0.35518        0.35518        0.35518        0.35518        0.35518        0.35518        0.35518        0.35518        0.35518        0.35518        0.35518        0.35518        0.35518        0.35518        0.35518        0.35518        0.35518        0.35518        0.35518        0.35518        0.35518        0.35518        0.35518        0.35518        0.35518        0.35518        0.35518        0.35518        0.35518        0.35518        0.35518        0.35518        0.49519        0.70749        0.40344        0.21121       -0.03674       -0.22769       -0.04093       -0.11473       -0.08093        0.02291       -0.10325       -0.10074       -0.03348       -0.01522       -0.12446       -0.15621       -0.29018       -0.46119       -0.55816       -0.50744       -0.43819       -0.33947       -0.53377       -0.39537       -0.52909       -0.43554       -0.44980       -0.34109       -0.31828       -0.28715       -0.18991       -0.10379       -0.10321        0.04296        0.02323        0.17794        0.18453        0.33322        0.42294        0.52242        0.55795        0.56913        0.59442        0.73566        0.66272        0.67204        0.57771        0.54894        0.63494        0.51918        0.48930        0.42732        0.32235        0.29087        0.30980        0.25803        0.12518        0.11561       -0.00289        0.04660        0.05765        0.02826        0.10024        0.13855        0.22529        0.29074        0.30077        0.40144        0.54153        0.55684        0.56691        0.67508        0.64217        0.63142        0.67234        0.64799        0.53639        0.53340        0.41841        0.36584        0.28322        0.21025        0.15431        0.15865        0.13987        0.17964        0.17369        0.24417        0.25464        0.33080        0.37770        0.40223        0.51345        0.55205        0.57331        0.56183        0.60794        0.54931        0.49695        0.50775        0.37927        0.30482        0.28756        0.27942        0.20827        0.20970        0.20949        0.23835        0.26841        0.35299        0.39189        0.41873        0.44775        0.45315        0.47651        0.44578        0.49970        0.44178        0.38983        0.35845        0.38890        0.34011        0.32058        0.25620        0.29476        0.26155        0.27721        0.29067        0.37151        0.39400        0.40779        0.44173        0.46153        0.44521        0.44249        0.46835        0.36601        0.36885        0.32919        0.27674        0.33326        0.29456        0.32936        0.34701        0.34362        0.35419        0.43136        0.40115        0.44088        0.40441        0.42420        0.39541        0.39667        0.31954        0.30398        0.29475        0.27967        0.30873        0.36436        0.37960        0.37236        0.38663        0.38990        0.37043        0.44056        0.41408        0.38374        0.37253        0.32788        0.30720        0.33973        0.31870        0.36447        0.32645        0.35034        0.36119        0.38893        0.39347        0.36625        0.37354        0.37002        0.34598        0.32283        0.35608        0.34391        0.35484        0.33309        0.35938        0.37862        0.33680        0.34199        0.36901        0.32599        0.29732        0.30979        0.32067        0.31944        0.31856        0.36183        0.32696        0.32920        0.33014        0.32720        0.33667        0.32228        0.32790        0.31489        0.31342        0.31425        0.33149        0.32624        0.34548        0.33678        0.39482        0.38394        0.32355        0.36724        0.35053        0.26479        0.29123        0.33622        0.30679        0.31140        0.34816        0.33535        0.32892        0.37008        0.37276        0.31309        0.29104        0.31469        0.35009        0.37434        0.39091        0.33212        0.32282        0.30148        0.30020        0.28014        0.31461        0.30353        0.32885        0.33826        0.32271        0.28649        0.33851        0.34366        0.35862        0.29880        0.31513        0.34220        0.38926        0.38698        0.35258        0.34703        0.32771        0.31040        0.30939        0.32255        0.31331        0.25506        0.26132        0.31404        0.31521        0.32160        0.31433        0.27347        0.25524        0.27606        0.28731        0.35053        0.30855        0.31502        0.35338        0.38938        0.35451        0.26950        0.30363        0.25813        0.29743        0.34282        0.36120        0.30568        0.30109        0.30051        0.29023        0.32319        0.25000        0.22335        0.21740        0.27937        0.27763        0.22929        0.30544        0.26397        0.33570        0.29936        0.27987        0.23919        0.20508        0.29729        0.37479        0.33483        0.11592        0.18130        0.28696        0.18141        0.20026        0.00015        0.07950       -0.60958       -1.17421
2.746436 2.717398 2.688517 2.659793 2.631224 2.602812 2.574556 2.546456 2.518513 2.490726 2.463095 2.435620 2.408302 2.381140 2.354134 2.327284 2.300591 2.274053 2.247673 2.221448 2.195380 2.169468 2.143712 2.118112 2.092669 2.067382 2.042251 2.017276 1.992458 1.967796 1.943290 1.918940 1.894747 1.870710 1.846829 1.823105 1.799536 1.776124 1.752869 1.729769 1.706826 1.684039 1.661408 1.638933 1.616615 1.594453 1.572447 1.550598 1.528905 1.507368 1.485987 1.521423 1.862903 1.491211 1.226922 0.963249 0.536185 0.932020 0.637419 0.816433 0.901550 0.660451 0.643850 0.792194 0.775346 0.610030 0.590538 0.387279 0.074791 0.028670 0.017271 0.002977 0.318360 -0.059293 0.053855 -0.057369 0.004354 -0.021357 0.087126 0.093664 0.129309 0.192393 0.326077 0.279825 0.452621 0.386941 0.608935 0.539691 0.776365 0.793316 0.929034 1.018808 0.954867 0.998180 1.132775 1.023247 1.136388 0.905892 0.874720 0.978497 0.829263 0.809525 0.681851 0.556384 0.502654 0.490124 0.475531 0.248025 0.234305 0.123659 0.038366 0.175749 0.022151 0.102394 0.198457 0.231835 0.312989 0.338048 0.439879 0.522524 0.663991 0.515120 0.745432 0.757195 0.605350 0.749993 0.699405 0.587087 0.466427 0.455074 0.300488 0.230664 0.096433 0.038863 -0.012502 0.012689 -0.045143 0.013837 0.072529 0.077283 0.105686 0.215692 0.237788 0.323173 0.420607 0.414856 0.459982 0.427371 0.442691 0.330449 0.322776 0.277301 0.069954 0.065657 0.023191 -0.035363 -0.048822 -0.080354 -0.039765 -0.042534 0.051708 0.107188 0.156104 0.214538 0.184123 0.257745 0.237468 0.233718 0.219973 0.207472 0.097161 0.095814 0.103790 0.025532 0.004593 -0.047111 0.001691 -0.014400 -0.009424 0.020970 0.098656 0.097150 0.142398 0.185086 0.256254 0.116415 0.223693 0.112157 0.110531 0.040801 -0.036673 0.024181 -0.015266 0.005227 0.003267 0.064672 0.014490 0.073460 0.139928 0.126844 0.122973 0.092025 0.107143 0.084919 0.063561 -0.044690 -0.034458 -0.047138 -0.072101 0.001985 0.061090 0.072336 0.013920 0.066056 0.096096 0.060538 0.151235 0.058518 0.088916 0.059616 -0.050562 0.002333 0.009180 -0.013556 0.058583 0.005035 0.024596 0.038787 0.060285 0.055678 0.058203 -0.004661 0.053471 -0.018501 0.012783 0.020246 0.003608 0.046081 0.003418 0.034916 0.054069 -0.014503 0.024572 0.044914 -0.032174 -0.057145 -0.001805 -0.011357 -0.036384 -0.004617 0.056291 -0.003798 0.011995 0.059927 -0.018174 0.056334 0.037694 0.018739 0.012883 0.047620 0.009705 0.045739 0.018262 0.087103 0.055800 0.163266 0.115664 0.054812 0.114914 0.064619 -0.045694 0.050369 0.067401 0.028287 0.065961 0.084497 0.018936 0.032831 0.111214 0.073030 0.030650 -0.044690 0.047236 0.082740 0.104403 0.110600 0.034638 0.017476 0.018883 -0.002504 -0.023327 0.021854 0.048402 0.022826 0.099646 0.007253 -0.027006 0.045231 0.043130 0.008659 -0.004342 -0.034677 0.061660 0.093672 0.073761 0.013029 0.015963 -0.013734 -0.032140 -0.007457 -0.054690 -0.008055 -0.123894 -0.078409 -0.021978 0.001246 -0.021292 -0.012032 -0.043394 -0.035540 -0.024801 -0.058525 0.076428 -0.009011 0.016149 0.068159 0.131498 0.009209 -0.037205 0.001294 -0.061714 0.018956 0.054041 0.084363 0.010691 0.002438 0.032342 0.014847 0.101963 -0.036616 -0.055473 -0.093265 0.060639 0.046984 -0.004566 0.031203 0.015337 0.180397 0.039710 0.102899 -0.024932 0.023106 0.079881 0.214003 0.413825 0.074973 0.227542 0.429713 0.151144 0.268692 -0.144810 0.103929 -1.438716
0.072396 0.072910 0.074450 0.077017 0.080610 0.085228 0.090870 0.097534 0.105218 0.113918 0.123632 0.134354 0.146079 0.158801 0.172511 0.187199 0.202854 0.219462 0.237008 0.255472 0.274833 0.295068 0.316149 0.338044 0.360718 0.384131 0.408241 0.432998 0.458347 0.484231 0.510583 0.537332 0.564402 0.591709 0.619161 0.646663 0.674110 0.701390 0.728386 0.754971 0.781013 0.806373 0.830903 0.854452 0.876859 0.897962 0.917588 0.935565 0.951714 0.965853 0.977799 0.987370 0.994380 0.998648 0.999995 0.998248 0.993237 0.984805 0.972803 0.957092 0.937551 0.914075 0.886576 0.854988 0.819270 0.779405 0.735405 0.687314 0.635205 0.579189 0.519413 0.456061 0.389358 0.319569 0.247003 0.172007 0.094975 0.016339 0.063426 0.143806 0.224251 0.304175 0.382961 0.459965 0.534523 0.605950 0.673554 0.736636 0.794503 0.846472 0.891882 0.930100 0.960533 0.982635 0.995922 0.999976 0.994460 0.979125 0.953820 0.918501 0.873238 0.818224 0.753778 0.680349 0.598523 0.509018 0.412687 0.310510 0.203595 0.093162 0.019463 0.132862 0.245540 0.355947 0.462495 0.563584 0.657622 0.743058 0.818404 0.882267 0.933379 0.970623 0.993061 0.999966 0.990840 0.965442 0.923803 0.866241 0.793374 0.706120 0.605701 0.493632 0.371704 0.241972 0.106719 0.031579 0.170286 0.306663 0.437917 0.561258 0.673963 0.773437 0.857278 0.923345 0.969817 0.995249 0.998632 0.979430 0.937621 0.873720 0.788795 0.684461 0.562868 0.426672 0.278986 0.123322 0.036487 0.196372 0.352131 0.499540 0.634467 0.752993 0.851536 0.926968 0.976724 0.998906 0.992365 0.956770 0.892654 0.801429 0.685385 0.547651 0.392130 0.223406 0.046624 0.132664 0.308660 0.475508 0.627491 0.759239 0.865922 0.943443 0.988617 0.999319 0.974598 0.914765 0.821423 0.697460 0.546988 0.375232 0.188372 0.006670 0.202463 0.391358 0.565773 0.718513 0.843080 0.933960 0.986894 0.999104 0.969460 0.898591 0.788917 0.644611 0.471467 0.276703 0.068687 0.143413 0.350017 0.541565 0.708971 0.844059 0.939992 0.991645 0.995908 0.951910 0.861132 0.727413 0.556831 0.357470 0.139068 0.087434 0.310429 0.518221 0.699665 0.844759 0.945240 0.995082 0.990894 0.932197 0.821536 0.664432 0.469161 0.246352 0.008461 0.230920 0.457817 0.658694 0.821283 0.935354 0.993406 0.991201 0.928125 0.807336 0.635665 0.423304 0.183236 0.069508 0.318774 0.548306 0.742818 0.889032 0.976639 0.999056 0.953999 0.843746 0.675109 0.459091 0.210225 0.054370 0.316107 0.556262 0.757302 0.904194 0.985591 0.994760 0.930204 0.795924 0.601251 0.360280 0.090916 0.186418 0.450297 0.679965 0.856970 0.966709 0.999689 0.952431 0.827897 0.635422 0.390089 0.111643 0.177068 0.451926 0.689549 0.869327 0.975248 0.997404 0.932997 0.786771 0.570766 0.303429 0.008107 0.288926 0.560796 0.782468 0.933092 0.998045 0.970424 0.851894 0.652721 0.391004 0.091113 0.218492 0.507953 0.748883 0.917193 0.995567 0.975356 0.857629 0.653292 0.382200 0.071338 0.247801 0.542363 0.781528 0.939788 0.999739 0.954118 0.806799 0.572622 0.276022 0.051398 0.374195 0.656872 0.867834 0.982978 0.988553 0.882942 0.677096 0.393555 0.064108 0.273685 0.580730 0.820942 0.965543 0.996622 0.909491 0.713517 0.431293 0.096163 0.251594 0.569585 0.818445 0.966809 0.995358 0.899495 0.690220 0.393044 0.045045 0.309673 0.625512 0.861266 0.985577 0.981244 0.847763 0.601729 0.274957 0.089484 0.442857 0.737245 0.932120 0.999999
1.000000 1.000000 1.000000 1.000000 1.000000 1.000000 1.000000 1.000000 1.000000 1.000000 1.000000 1.000000 1.000000 1.000000 1.000000 1.000000 1.000000 1.000000 1.000000 1.000000 1.000000 1.000000 1.000000 1.000000 1.000000 1.000000 1.000000 1.000000 1.000000 1.000000 1.000000 1.000000 1.000000 1.000000 1.000000 1.000000 1.000000 1.000000 1.000000 1.000000 1.000000 1.000000 1.000000 1.000000 1.000000 1.000000 1.000000 1.000000 1.000000 1.000000 1.000000 1.000000 0.911350 0.911350 0.901916 0.901916 0.901916 0.901916 0.901916 0.901916 0.901916 0.901916 0.901916 0.901916 0.901916 0.901916 0.901916 0.901916 0.901916 0.901916 0.901916 0.901916 0.901916 0.901916 0.901916 0.901916 0.901916 0.901916 0.901916 0.901916 0.901916 0.901916 0.901916 0.901916 0.901916 0.901916 0.901916 0.901916 0.901916 0.901916 0.901916 0.901916 0.901916 0.901916 0.901916 0.888693 0.895478 0.898696 0.900500 0.904219 0.905175 0.904476 0.904203 0.903967 0.904521 0.905952 0.913830 0.932483 0.943259 0.949248 0.954025 0.961789 0.964852 0.964086 0.970438 0.976873 0.974905 0.974591 0.975160 0.976393 0.978451 0.978622 0.980072 0.980430 0.980986 0.981188 0.980930 0.980553 0.980158 0.980021 0.979642 0.979784 0.980359 0.980743 0.981007 0.981206 0.981312 0.972853 0.973812 0.969024 0.969538 0.970575 0.970335 0.957464 0.954560 0.958322 0.958096 0.957855 0.957785 0.958061 0.958561 0.948081 0.942976 0.942968 0.929487 0.927781 0.926310 0.925080 0.924502 0.925027 0.923163 0.924858 0.922966 0.913237 0.906139 0.879125 0.898750 0.891108 0.862888 0.846429 0.849730 0.851904 0.852652 0.850839 0.847578 0.841243 0.832160 0.833515 0.835329 0.839980 0.837761 0.837700 0.840390 0.839646 0.820586 0.803617 0.796265 0.785805 0.785620 0.785636 0.781435 0.774335 0.782957 0.779031 0.775358 0.766004 0.759922 0.737968 0.719852 0.720913 0.729251 0.744672 0.737296 0.712322 0.681025 0.715164 0.702830 0.697459 0.699919 0.694511 0.669231 0.667801 0.673406 0.650982 0.660465 0.658644 0.654485 0.656828 0.641408 0.619523 0.621422 0.609126 0.599722 0.592362 0.592867 0.618699 0.578439 0.570369 0.558296 0.549289 0.548883 0.514805 0.524210 0.529866 0.510848 0.507003 0.488290 0.490766 0.495628 0.493262 0.483405 0.491754 0.482006 0.514041 0.501069 0.498531 0.499120 0.504165 0.484836 0.459796 0.446926 0.447212 0.443357 0.474670 0.474249 0.473699 0.472802 0.465230 0.444575 0.413330 0.403238 0.404415 0.376280 0.378498 0.356493 0.351313 0.372982 0.356758 0.323086 0.291424 0.279488 0.270520 0.261641 0.244427 0.266474 0.224877 0.162928 0.140438 0.133003 0.151629 0.171609 0.183623 0.167788 0.182281 0.221870 0.229850 0.219907 0.230725 0.198626 0.170473 0.188023 0.201802 0.146256 0.158726 0.141085 0.151888 0.151062 0.132863 0.144951 0.091516 0.070189 0.070355 0.093747 0.100953 0.086758 0.092670 0.086237 0.075453 0.091437 0.096550 0.101803 0.085389 0.123021 0.131084 0.132115 0.101050 0.094380 0.097657 0.118020 0.117388 0.116070 0.115126 0.134845 0.144315 0.146053 0.201831 0.221716 0.213943 0.180725 0.189198 0.187070 0.155789 0.152888 0.071698 0.039919 0.039919 0.036065 0.036065 0.036065 0.036065 0.036065 0.036065 0.036065 0.036065 0.036065 0.029485 0.029485 0.029485 0.029485 0.029485 0.029485 0.029485 0.029485 0.029485 0.080854 0.080854 0.080854 0.080854 0.080854 0.080854 0.080854 0.080854 0.080854
0.000000 0.000000 0.000000 0.000000 0.000000 0.000000 0.000000 0.000000 0.000000 0.000000 0.000000 0.000000 0.000000 0.000000 0.000000 0.000000 0.000000 0.000000 0.000000 0.000000 0.000000 0.000000 0.000000 0.000000 0.000000 0.000000 0.000000 0.000000 0.000000 0.000000 0.000000 0.000000 0.000000 0.000000 0.000000 0.000000 0.000000 0.000000 0.000000 0.000000 0.000000 0.000000 0.000000 0.000000 0.000000 0.000000 0.000000 0.000000 0.000000 0.000000 0.000000 0.000000 0.181818 0.181818 0.199007 0.199007 0.199007 0.199007 0.199007 0.199007 0.199007 0.199007 0.199007 0.199007 0.199007 0.199007 0.199007 0.199007 0.199007 0.199007 0.199007 0.199007 0.199007 0.199007 0.199007 0.199007 0.199007 0.199007 0.199007 0.199007 0.199007 0.199007 0.199007 0.199007 0.199007 0.199007 0.199007 0.199007 0.199007 0.199007 0.199007 0.199007 0.199007 0.199007 0.199007 0.230940 0.230940 0.230940 0.230940 0.230940 0.230940 0.230940 0.230940 0.230940 0.230940 0.230940 0.230940 0.230940 0.230940 0.230940 0.230940 0.230940 0.230940 0.230940 0.230940 0.230940 0.230940 0.230940 0.230940 0.230940 0.230940 0.230940 0.230940 0.244339 0.244339 0.244339 0.244339 0.244339 0.244339 0.244339 0.244339 0.244339 0.244339 0.244339 0.244339 0.244339 0.244339 0.244339 0.244339 0.244339 0.244339 0.244339 0.244339 0.244339 0.244339 0.244339 0.251976 0.251976 0.251976 0.251976 0.251976 0.251976 0.251976 0.251976 0.251976 0.251976 0.251976 0.251976 0.251976 0.251976 0.251976 0.251976 0.251976 0.251976 0.251976 0.251976 0.264906 0.264906 0.264906 0.264906 0.264906 0.264906 0.264906 0.264906 0.264906 0.264906 0.264906 0.264906 0.264906 0.264906 0.264906 0.264906 0.264906 0.264906 0.264906 0.264906 0.264906 0.264906 0.264906 0.264906 0.264906 0.264906 0.264906 0.264906 0.264906 0.264906 0.264906 0.264906 0.264906 0.264906 0.264906 0.264906 0.264906 0.264906 0.264906 0.264906 0.264906 0.264906 0.264906 0.264906 0.264906 0.264906 0.264906 0.264906 0.264906 0.264906 0.264906 0.264906 0.264906 0.264906 0.264906 0.264906 0.264906 0.264906 0.264906 0.264906 0.264906 0.264906 0.264906 0.264906 0.264906 0.264906 0.264906 0.264906 0.264906 0.264906 0.264906 0.264906 0.264906 0.264906 0.264906 0.269680 0.269680 0.269680 0.269680 0.269680 0.269680 0.269680 0.269680 0.269680 0.269680 0.269680 0.269680 0.264906 0.264906 0.264906 0.264906 0.264906 0.264906 0.264906 0.264906 0.264906 0.264906 0.264906 0.264906 0.269680 0.269680 0.269680 0.269680 0.269680 0.269680 0.269680 0.269680 0.269680 0.269680 0.269680 0.264906 0.264906 0.264906 0.264906 0.264906 0.264906 0.264906 0.264906 0.264906 0.264906 0.264906 0.256074 0.256074 0.256074 0.256074 0.256074 0.256074 0.256074 0.256074 0.256074 0.256074 0.256074 0.264906 0.264906 0.264906 0.264906 0.264906 0.264906 0.264906 0.264906 0.264906 0.264906 0.260378 0.260378 0.260378 0.260378 0.260378 0.260378 0.260378 0.260378 0.260378 0.260378 0.264906 0.264906 0.264906 0.264906 0.264906 0.264906 0.264906 0.264906 0.264906 0.260378 0.260378 0.260378 0.260378 0.260378 0.260378 0.260378 0.260378 0.260378 0.256074 0.256074 0.256074 0.256074 0.256074 0.256074 0.256074 0.256074 0.256074 0.251976 0.251976 0.251976 0.251976 0.251976 0.251976 0.251976 0.251976 0.251976 0.264906 0.264906 0.264906 0.264906 0.264906 0.264906 0.264906 0.264906 0.264906
