# Output from CTFFind version 4.1.9, run on 2019-11-03 19:01:37
# Input file: stack11_bm3d_averaged_1_3.25_0_2000_half.mrc ; Number of micrographs: 1
# Pixel size: 3.000 Angstroms ; acceleration voltage: 300.0 keV ; spherical aberration: 0.00 mm ; amplitude contrast: 0.07
# Box size: 512 pixels ; min. res.: 30.0 Angstroms ; max. res.: 5.0 Angstroms ; min. def.: 5000.0 um; max. def. 50000.0 um; num. frames averaged: 1
# 6 lines per micrograph: #1 - spatial frequency (1/Angstroms); #2 - 1D rotational average of spectrum (assuming no astigmatism); #3 - 1D rotational average of spectrum; #4 - CTF fit; #5 - cross-correlation between spectrum and CTF fit; #6 - 2sigma of expected cross correlation of noise
0.000000 0.000651 0.001302 0.001953 0.002604 0.003255 0.003906 0.004557 0.005208 0.005859 0.006510 0.007161 0.007812 0.008464 0.009115 0.009766 0.010417 0.011068 0.011719 0.012370 0.013021 0.013672 0.014323 0.014974 0.015625 0.016276 0.016927 0.017578 0.018229 0.018880 0.019531 0.020182 0.020833 0.021484 0.022135 0.022786 0.023438 0.024089 0.024740 0.025391 0.026042 0.026693 0.027344 0.027995 0.028646 0.029297 0.029948 0.030599 0.031250 0.031901 0.032552 0.033203 0.033854 0.034505 0.035156 0.035807 0.036458 0.037109 0.037760 0.038411 0.039062 0.039714 0.040365 0.041016 0.041667 0.042318 0.042969 0.043620 0.044271 0.044922 0.045573 0.046224 0.046875 0.047526 0.048177 0.048828 0.049479 0.050130 0.050781 0.051432 0.052083 0.052734 0.053385 0.054036 0.054688 0.055339 0.055990 0.056641 0.057292 0.057943 0.058594 0.059245 0.059896 0.060547 0.061198 0.061849 0.062500 0.063151 0.063802 0.064453 0.065104 0.065755 0.066406 0.067057 0.067708 0.068359 0.069010 0.069661 0.070312 0.070964 0.071615 0.072266 0.072917 0.073568 0.074219 0.074870 0.075521 0.076172 0.076823 0.077474 0.078125 0.078776 0.079427 0.080078 0.080729 0.081380 0.082031 0.082682 0.083333 0.083984 0.084635 0.085286 0.085938 0.086589 0.087240 0.087891 0.088542 0.089193 0.089844 0.090495 0.091146 0.091797 0.092448 0.093099 0.093750 0.094401 0.095052 0.095703 0.096354 0.097005 0.097656 0.098307 0.098958 0.099609 0.100260 0.100911 0.101562 0.102214 0.102865 0.103516 0.104167 0.104818 0.105469 0.106120 0.106771 0.107422 0.108073 0.108724 0.109375 0.110026 0.110677 0.111328 0.111979 0.112630 0.113281 0.113932 0.114583 0.115234 0.115885 0.116536 0.117188 0.117839 0.118490 0.119141 0.119792 0.120443 0.121094 0.121745 0.122396 0.123047 0.123698 0.124349 0.125000 0.125651 0.126302 0.126953 0.127604 0.128255 0.128906 0.129557 0.130208 0.130859 0.131510 0.132161 0.132812 0.133464 0.134115 0.134766 0.135417 0.136068 0.136719 0.137370 0.138021 0.138672 0.139323 0.139974 0.140625 0.141276 0.141927 0.142578 0.143229 0.143880 0.144531 0.145182 0.145833 0.146484 0.147135 0.147786 0.148438 0.149089 0.149740 0.150391 0.151042 0.151693 0.152344 0.152995 0.153646 0.154297 0.154948 0.155599 0.156250 0.156901 0.157552 0.158203 0.158854 0.159505 0.160156 0.160807 0.161458 0.162109 0.162760 0.163411 0.164062 0.164714 0.165365 0.166016 0.166667 0.167318 0.167969 0.168620 0.169271 0.169922 0.170573 0.171224 0.171875 0.172526 0.173177 0.173828 0.174479 0.175130 0.175781 0.176432 0.177083 0.177734 0.178385 0.179036 0.179688 0.180339 0.180990 0.181641 0.182292 0.182943 0.183594 0.184245 0.184896 0.185547 0.186198 0.186849 0.187500 0.188151 0.188802 0.189453 0.190104 0.190755 0.191406 0.192057 0.192708 0.193359 0.194010 0.194661 0.195312 0.195964 0.196615 0.197266 0.197917 0.198568 0.199219 0.199870 0.200521 0.201172 0.201823 0.202474 0.203125 0.203776 0.204427 0.205078 0.205729 0.206380 0.207031 0.207682 0.208333 0.208984 0.209635 0.210286 0.210938 0.211589 0.212240 0.212891 0.213542 0.214193 0.214844 0.215495 0.216146 0.216797 0.217448 0.218099 0.218750 0.219401 0.220052 0.220703 0.221354 0.222005 0.222656 0.223307 0.223958 0.224609 0.225260 0.225911 0.226562 0.227214 0.227865 0.228516 0.229167 0.229818 0.230469 0.231120 0.231771 0.232422 0.233073 0.233724 0.234375 0.235026 0.235677
       0.32379        0.32379        0.32379        0.32379        0.32379        0.32379        0.32379        0.32379        0.32379        0.32379        0.32379        0.32379        0.32379        0.32379        0.32379        0.32379        0.32379        0.32379        0.32379        0.32379        0.32379        0.32379        0.32379        0.32379        0.32379        0.32379        0.32379        0.32379        0.32379        0.32379        0.32379        0.32379        0.32379        0.32379        0.32379        0.32379        0.32379        0.32379        0.32379        0.32379        0.32379        0.32379        0.32379        0.32379        0.32379        0.32379        0.32379        0.32379        0.32379        0.32379        0.32379        0.68583        0.86212        0.52619        0.09637       -0.04811       -0.41704       -0.19500       -0.29536       -0.11530       -0.06666       -0.11421       -0.06294       -0.19637       -0.22378       -0.24233       -0.32495       -0.33409       -0.47107       -0.37568       -0.45078       -0.44328       -0.41421       -0.44904       -0.50535       -0.54239       -0.57625       -0.59743       -0.56215       -0.39376       -0.36662       -0.32278       -0.30317       -0.20244       -0.19368        0.03196        0.09969        0.13278        0.23917        0.37423        0.44726        0.51115        0.56648        0.56465        0.56837        0.69151        0.80627        0.72356        0.73373        0.64607        0.56888        0.48330        0.41248        0.50060        0.38512        0.22424        0.08714        0.06605        0.03912       -0.05053       -0.01185        0.00938       -0.04237       -0.00176       -0.01121        0.22701        0.25825        0.28711        0.42039        0.44624        0.40483        0.55734        0.62610        0.67278        0.74554        0.68464        0.65068        0.67984        0.57000        0.47995        0.41638        0.29055        0.21848        0.16142        0.11771        0.04755        0.02440        0.02283        0.07963        0.13338        0.21690        0.27214        0.39637        0.43666        0.49090        0.59256        0.62187        0.62991        0.62196        0.55673        0.44916        0.45982        0.36097        0.23777        0.18886        0.14933        0.13604        0.13590        0.10664        0.13410        0.26322        0.28033        0.36157        0.38850        0.43656        0.50592        0.54294        0.54709        0.47698        0.44347        0.39071        0.34798        0.30877        0.26906        0.21970        0.21101        0.19065        0.21559        0.19717        0.28828        0.34541        0.37751        0.43257        0.45618        0.47686        0.42007        0.38875        0.40769        0.36336        0.28278        0.26270        0.22923        0.23246        0.20483        0.24204        0.24591        0.33074        0.37097        0.38692        0.47153        0.42639        0.43313        0.43141        0.39989        0.34348        0.31917        0.28541        0.27729        0.25279        0.28355        0.28560        0.31166        0.31447        0.33240        0.31961        0.40452        0.41809        0.37998        0.34607        0.36848        0.28847        0.28295        0.26990        0.29605        0.27582        0.28924        0.30210        0.31853        0.34150        0.36450        0.37187        0.36667        0.36160        0.30493        0.32699        0.27880        0.25156        0.30357        0.29873        0.31512        0.31225        0.31951        0.34340        0.32110        0.32075        0.29780        0.30864        0.27989        0.29283        0.26416        0.29274        0.29529        0.28612        0.30757        0.32081        0.32812        0.27297        0.30662        0.27782        0.28403        0.26730        0.22452        0.28204        0.28546        0.34079        0.31451        0.31891        0.31662        0.32154        0.28332        0.31708        0.32732        0.27523        0.26456        0.30611        0.29196        0.34194        0.33092        0.33539        0.33346        0.29216        0.27490        0.29377        0.24491        0.22162        0.29803        0.31455        0.30896        0.29542        0.31027        0.28660        0.33985        0.33471        0.26067        0.23456        0.28867        0.31167        0.28792        0.31458        0.33198        0.33041        0.30702        0.30041        0.33623        0.30859        0.27499        0.25551        0.30811        0.35092        0.38065        0.29043        0.26732        0.26632        0.29823        0.23633        0.28855        0.25934        0.25090        0.32364        0.33249        0.34571        0.31637        0.26185        0.25561        0.26370        0.24983        0.23049        0.23649        0.31002        0.29530        0.21907        0.32513        0.32310        0.25605        0.26266        0.20151        0.19049        0.24174        0.19426        0.22232        0.23687        0.22294        0.18905        0.26910        0.35881        0.32990        0.34200        0.24212        0.19684        0.17991        0.24456        0.25087        0.14006        0.20168        0.24678        0.16097        0.18442        0.14153        0.11175        0.17005        0.09578       -0.10043       -0.60807
2.502200 2.476092 2.450124 2.424298 2.398613 2.373070 2.347668 2.322407 2.297288 2.272310 2.247474 2.222778 2.198225 2.173812 2.149541 2.125411 2.101423 2.077576 2.053871 2.030307 2.006884 1.983602 1.960462 1.937463 1.914606 1.891890 1.869316 1.846882 1.824591 1.802440 1.780431 1.758563 1.736837 1.715252 1.693808 1.672506 1.651345 1.630326 1.609447 1.588711 1.568115 1.547661 1.527349 1.507177 1.487147 1.467259 1.447512 1.427906 1.408441 1.389118 1.369937 1.579305 1.976226 1.561375 1.092039 0.961782 0.396815 0.785285 0.525315 0.796408 0.746163 0.761925 0.714587 0.683110 0.545237 0.503857 0.461396 0.409926 0.210071 0.354232 0.190952 0.296116 0.216068 0.177787 0.143493 0.018105 0.025874 -0.000834 -0.061871 0.109216 0.202857 0.176817 0.149979 0.318188 0.181023 0.477975 0.572623 0.558723 0.587368 0.838237 0.787578 0.897371 0.858631 0.949780 0.917856 0.900199 1.193371 1.045167 1.095576 0.892892 0.893246 0.758410 0.624284 0.752115 0.681961 0.452113 0.305981 0.240322 0.232181 0.141780 0.103035 0.141151 0.093842 0.134746 0.059121 0.253726 0.363340 0.342679 0.454601 0.537313 0.426391 0.550566 0.685616 0.694354 0.753679 0.682170 0.692709 0.661512 0.592478 0.524434 0.395816 0.272161 0.216460 0.082624 0.127204 -0.048325 -0.032408 -0.057309 -0.045092 -0.009815 0.150087 0.071260 0.266176 0.289775 0.338212 0.420161 0.501223 0.487220 0.488704 0.499524 0.320537 0.304325 0.281291 0.097656 0.055227 -0.025714 -0.006652 -0.033081 -0.067705 -0.080852 0.031174 0.070061 0.131288 0.177674 0.228268 0.289784 0.314043 0.399091 0.384288 0.282885 0.236781 0.222492 0.173019 0.125366 0.106416 0.020086 0.018735 0.043468 0.002776 0.074762 0.155099 0.144129 0.244570 0.248086 0.304333 0.187984 0.214806 0.152921 0.204401 0.115000 0.046569 0.013028 0.001638 -0.002572 -0.033166 0.038291 0.025243 0.140571 0.145763 0.170644 0.246691 0.177590 0.171522 0.175866 0.131782 0.070174 0.030803 0.052904 -0.008367 -0.006205 0.018327 0.047991 0.055780 0.052693 0.063785 0.059530 0.151965 0.156307 0.076299 0.082999 0.062974 0.009624 -0.005699 0.013172 0.014683 0.012821 0.011767 0.031663 0.057122 0.076081 0.080005 0.091995 0.123752 0.065534 0.025383 0.057276 -0.025313 -0.001625 0.047566 0.010573 0.057247 0.053112 0.036017 0.086720 0.062387 0.036274 0.050224 0.020924 0.033480 0.020627 -0.000609 0.058450 0.006713 0.030967 0.062121 0.069465 0.036163 0.047946 0.042258 0.036680 0.023010 -0.006067 -0.015067 0.033923 0.058711 0.094206 0.068492 0.078219 0.071728 0.084604 0.037713 0.093787 0.092319 0.015460 0.030316 0.074820 0.065581 0.093565 0.088759 0.135978 0.095101 0.062878 0.019617 0.073838 -0.024055 0.005763 0.078373 0.072893 0.066916 0.040286 0.068987 0.036394 0.118787 0.071186 -0.018089 -0.033556 0.039636 0.078537 0.025183 0.029504 0.085083 0.079983 0.015669 0.045806 0.068893 0.037412 0.016663 -0.034229 0.052480 0.095987 0.082152 -0.005795 -0.029072 -0.030701 0.037135 -0.083620 0.022064 -0.047180 -0.032482 0.028164 0.061661 0.003348 -0.010158 -0.061559 -0.047897 -0.074728 -0.038483 -0.092123 -0.085910 0.021863 0.034163 -0.090558 0.055260 0.006842 -0.054932 0.023075 -0.102558 -0.078320 -0.042604 -0.057470 -0.027983 -0.013926 -0.005307 -0.079028 0.036893 0.200184 0.006889 0.153089 0.039230 0.194820 0.171344 0.265065 0.257779 0.121742 0.196190 0.280988 0.137257 0.201640 0.131027 0.128771 0.231180 0.094852 -0.616144
0.072396 0.072898 0.074404 0.076914 0.080427 0.084942 0.090458 0.096973 0.104485 0.112992 0.122490 0.132974 0.144440 0.156881 0.170290 0.184656 0.199970 0.216217 0.233385 0.251454 0.270406 0.290217 0.310861 0.332310 0.354530 0.377483 0.401130 0.425423 0.450313 0.475743 0.501653 0.527976 0.554639 0.581563 0.608664 0.635850 0.663023 0.690078 0.716904 0.743382 0.769386 0.794786 0.819441 0.843208 0.865936 0.887467 0.907640 0.926289 0.943243 0.958329 0.971370 0.982188 0.990606 0.996447 0.999536 0.999702 0.996779 0.990607 0.981036 0.967926 0.951149 0.930592 0.906158 0.877770 0.845370 0.808924 0.768425 0.723891 0.675371 0.622947 0.566731 0.506875 0.443564 0.377023 0.307516 0.235348 0.160863 0.084447 0.006522 0.072446 0.151957 0.231475 0.310431 0.388225 0.464235 0.537815 0.608305 0.675033 0.737325 0.794511 0.845931 0.890945 0.928940 0.959344 0.981625 0.995313 1.000000 0.995353 0.981124 0.957158 0.923401 0.879907 0.826848 0.764513 0.693319 0.613809 0.526655 0.432659 0.332743 0.227954 0.119448 0.008485 0.103584 0.215332 0.325274 0.431881 0.533607 0.628909 0.716272 0.794235 0.861419 0.916553 0.958501 0.986292 0.999142 0.996482 0.977976 0.943546 0.893380 0.827950 0.748014 0.654621 0.549103 0.433067 0.308378 0.177137 0.041646 0.095620 0.232063 0.365003 0.491735 0.609582 0.715955 0.808417 0.884737 0.942959 0.981452 0.998969 0.994691 0.968267 0.919846 0.850096 0.760213 0.651915 0.527425 0.389437 0.241069 0.085801 0.072597 0.230152 0.382791 0.526436 0.657124 0.771119 0.865028 0.935905 0.981365 0.999669 0.989806 0.951553 0.885514 0.793137 0.676707 0.539305 0.384749 0.217501 0.042552 0.134720 0.308708 0.473749 0.624319 0.755215 0.861752 0.939938 0.986646 0.999755 0.978259 0.922354 0.833471 0.714272 0.568597 0.401366 0.218436 0.026404 0.167611 0.356224 0.532073 0.688108 0.817880 0.915827 0.977531 0.999945 0.981559 0.922529 0.824718 0.691685 0.528580 0.341985 0.139664 0.069735 0.277038 0.472951 0.648468 0.795304 0.906304 0.975813 0.999994 0.977074 0.907495 0.793964 0.641395 0.456734 0.248682 0.027309 0.196416 0.411156 0.605783 0.769964 0.894730 0.972996 0.999998 0.973622 0.894599 0.766553 0.595891 0.391523 0.164439 0.072848 0.306983 0.524508 0.712644 0.860061 0.957592 0.998842 0.980654 0.903393 0.771028 0.590989 0.373804 0.132533 0.117991 0.362048 0.584018 0.769385 0.905729 0.983579 0.997132 0.944741 0.829135 0.657357 0.440404 0.192573 0.069431 0.327603 0.563859 0.761318 0.905537 0.985611 0.995058 0.932405 0.801433 0.611023 0.374645 0.109449 0.164931 0.427791 0.658944 0.840274 0.957199 0.999912 0.964262 0.852237 0.671949 0.437148 0.166227 0.119141 0.395726 0.640615 0.833132 0.956629 0.999991 0.958718 0.835468 0.640005 0.388511 0.102338 0.193750 0.473703 0.712468 0.888255 0.984598 0.991972 0.908823 0.741902 0.505835 0.221922 0.083688 0.382371 0.645705 0.848177 0.969732 0.997827 0.928831 0.768586 0.532036 0.241951 0.073197 0.381953 0.653017 0.858438 0.976566 0.994413 0.909202 0.728873 0.471493 0.163547 0.162694 0.472507 0.732408 0.913814 0.996262 0.969833 0.836464 0.609987 0.314838 0.016479 0.346893 0.638875 0.858748 0.980623 0.989561 0.883541 0.673961 0.384564 0.048887 0.293538 0.601809 0.838549 0.974497 0.992256 0.888651 0.675410 0.378004 0.032744 0.317551 0.628831 0.861367 0.984913 0.982752 0.854126 0.614646 0.294557 0.064915
1.000000 1.000000 1.000000 1.000000 1.000000 1.000000 1.000000 1.000000 1.000000 1.000000 1.000000 1.000000 1.000000 1.000000 1.000000 1.000000 1.000000 1.000000 1.000000 1.000000 1.000000 1.000000 1.000000 1.000000 1.000000 1.000000 1.000000 1.000000 1.000000 1.000000 1.000000 1.000000 1.000000 1.000000 1.000000 1.000000 1.000000 1.000000 1.000000 1.000000 1.000000 1.000000 1.000000 1.000000 1.000000 1.000000 1.000000 1.000000 1.000000 1.000000 1.000000 1.000000 0.924642 0.924642 0.924642 0.915196 0.915196 0.915196 0.915196 0.915196 0.915196 0.915196 0.915196 0.915196 0.915196 0.915196 0.915196 0.915196 0.915196 0.915196 0.915196 0.915196 0.915196 0.915196 0.915196 0.915196 0.915196 0.915196 0.915196 0.915196 0.915196 0.915196 0.915196 0.915196 0.915196 0.915196 0.915196 0.915196 0.915196 0.915196 0.915196 0.915196 0.915196 0.915196 0.915196 0.915196 0.915196 0.950557 0.949925 0.950587 0.951472 0.951560 0.951199 0.949097 0.948486 0.948432 0.957537 0.958446 0.961571 0.962901 0.964100 0.965509 0.966886 0.968205 0.967538 0.966402 0.964324 0.962555 0.960780 0.957967 0.956816 0.959414 0.960262 0.960660 0.960796 0.959221 0.959806 0.959555 0.958830 0.958079 0.957268 0.956783 0.956553 0.956940 0.957292 0.958256 0.960747 0.961600 0.961818 0.961785 0.961719 0.962724 0.961156 0.960973 0.956622 0.957541 0.957206 0.954753 0.961321 0.958123 0.958771 0.959300 0.960750 0.961030 0.951478 0.947336 0.936390 0.934909 0.928599 0.919720 0.915643 0.917444 0.920289 0.922188 0.922706 0.917857 0.917893 0.913923 0.909940 0.913365 0.911323 0.909815 0.911510 0.912763 0.913201 0.912011 0.910462 0.904319 0.897799 0.896965 0.900726 0.905136 0.907208 0.907856 0.905919 0.868961 0.872042 0.878785 0.875464 0.867211 0.862923 0.860419 0.865719 0.867711 0.871109 0.870520 0.860353 0.845836 0.832368 0.821823 0.819416 0.820775 0.818962 0.822714 0.815959 0.817298 0.829889 0.817212 0.830511 0.840633 0.831231 0.832031 0.830938 0.826657 0.814703 0.814961 0.817716 0.808818 0.809531 0.808866 0.805207 0.798870 0.803610 0.779561 0.769718 0.763798 0.765979 0.770347 0.762892 0.759730 0.755085 0.749792 0.749381 0.755847 0.766816 0.759187 0.751443 0.727355 0.719198 0.720842 0.724912 0.729225 0.724431 0.703684 0.705435 0.644949 0.664878 0.670288 0.652208 0.651271 0.642202 0.638661 0.638174 0.636734 0.641232 0.648817 0.659459 0.679120 0.675902 0.673906 0.668590 0.650193 0.649694 0.639124 0.645494 0.626207 0.618509 0.644281 0.622367 0.619048 0.611333 0.621913 0.642545 0.615901 0.614541 0.616918 0.609451 0.612175 0.612589 0.602730 0.588567 0.601363 0.622306 0.611103 0.583861 0.584966 0.577565 0.595471 0.562296 0.565042 0.545371 0.514750 0.521136 0.534161 0.534261 0.523848 0.510369 0.504244 0.536265 0.549164 0.582615 0.564185 0.552888 0.505186 0.523798 0.521345 0.523167 0.464493 0.459123 0.442661 0.428935 0.377933 0.369206 0.373775 0.359770 0.339760 0.306242 0.306754 0.310744 0.326405 0.314743 0.302383 0.286525 0.310544 0.309151 0.293626 0.241134 0.224100 0.209940 0.196223 0.198694 0.163664 0.188349 0.257468 0.259915 0.259915 0.259915 0.259915 0.259915 0.259915 0.268966 0.268966 0.268966 0.268966 0.268966 0.268966 0.268966 0.268966 0.268966 0.282663 0.282663 0.282663 0.282663 0.282663 0.282663 0.282663 0.282663 0.282663 0.282663 0.282663 0.282663 0.282663 0.282663
0.000000 0.000000 0.000000 0.000000 0.000000 0.000000 0.000000 0.000000 0.000000 0.000000 0.000000 0.000000 0.000000 0.000000 0.000000 0.000000 0.000000 0.000000 0.000000 0.000000 0.000000 0.000000 0.000000 0.000000 0.000000 7.000000 4.000000 0.000000 0.000000 0.000000 0.000000 0.000000 0.000000 0.000000 0.000000 0.000000 0.000000 0.000000 0.000000 0.000000 0.000000 0.000000 0.000000 0.000000 0.000000 0.000000 0.000000 0.000000 0.000000 0.000000 0.000000 0.000000 0.180334 0.180334 0.180334 0.197066 0.197066 0.197066 0.197066 0.197066 0.197066 0.197066 0.197066 0.197066 0.197066 0.197066 0.197066 0.197066 0.197066 0.197066 0.197066 0.197066 0.197066 0.197066 0.197066 0.197066 0.197066 0.197066 0.197066 0.197066 0.197066 0.197066 0.197066 0.197066 0.197066 0.197066 0.197066 0.197066 0.197066 0.197066 0.197066 0.197066 0.197066 0.197066 0.197066 0.197066 0.197066 0.230940 0.230940 0.230940 0.230940 0.230940 0.230940 0.230940 0.230940 0.230940 0.230940 0.230940 0.230940 0.230940 0.230940 0.230940 0.230940 0.230940 0.230940 0.230940 0.230940 0.230940 0.230940 0.230940 0.230940 0.230940 0.230940 0.230940 0.230940 0.244339 0.244339 0.244339 0.244339 0.244339 0.244339 0.244339 0.244339 0.244339 0.244339 0.244339 0.244339 0.244339 0.244339 0.244339 0.244339 0.244339 0.244339 0.244339 0.244339 0.244339 0.244339 0.244339 0.251976 0.251976 0.251976 0.251976 0.251976 0.251976 0.251976 0.251976 0.251976 0.251976 0.251976 0.251976 0.251976 0.251976 0.251976 0.251976 0.251976 0.251976 0.251976 0.251976 0.264906 0.264906 0.264906 0.264906 0.264906 0.264906 0.264906 0.264906 0.264906 0.264906 0.264906 0.264906 0.264906 0.264906 0.264906 0.264906 0.264906 0.256074 0.256074 0.256074 0.256074 0.256074 0.256074 0.256074 0.256074 0.256074 0.256074 0.256074 0.256074 0.256074 0.256074 0.256074 0.256074 0.256074 0.264906 0.264906 0.264906 0.264906 0.264906 0.264906 0.264906 0.264906 0.264906 0.264906 0.264906 0.264906 0.264906 0.264906 0.264906 0.264906 0.264906 0.264906 0.264906 0.264906 0.264906 0.264906 0.264906 0.264906 0.264906 0.264906 0.264906 0.264906 0.264906 0.264906 0.264906 0.264906 0.264906 0.264906 0.264906 0.264906 0.264906 0.264906 0.264906 0.264906 0.264906 0.264906 0.269680 0.269680 0.269680 0.269680 0.269680 0.269680 0.269680 0.269680 0.269680 0.269680 0.269680 0.269680 0.264906 0.264906 0.264906 0.264906 0.264906 0.264906 0.264906 0.264906 0.264906 0.264906 0.264906 0.264906 0.260378 0.260378 0.260378 0.260378 0.260378 0.260378 0.260378 0.260378 0.260378 0.260378 0.260378 0.260378 0.264906 0.264906 0.264906 0.264906 0.264906 0.264906 0.264906 0.264906 0.264906 0.264906 0.264906 0.269680 0.269680 0.269680 0.269680 0.269680 0.269680 0.269680 0.269680 0.269680 0.269680 0.264906 0.264906 0.264906 0.264906 0.264906 0.264906 0.264906 0.264906 0.264906 0.264906 0.260378 0.260378 0.260378 0.260378 0.260378 0.260378 0.260378 0.260378 0.260378 0.260378 0.256074 0.256074 0.256074 0.256074 0.256074 0.256074 0.256074 0.256074 0.256074 0.256074 0.260378 0.260378 0.260378 0.260378 0.260378 0.260378 0.260378 0.260378 0.260378 0.256074 0.256074 0.256074 0.256074 0.256074 0.256074 0.256074 0.256074 0.256074 0.251976 0.251976 0.251976 0.251976 0.251976 0.251976 0.251976 0.251976 0.251976 0.251976 0.251976 0.251976 0.251976 0.251976
