# Output from CTFFind version 4.1.9, run on 2019-11-02 17:46:14
# Input file: stack16_bm3d_averaged_1_0.75_0_1000_half.mrc ; Number of micrographs: 1
# Pixel size: 3.000 Angstroms ; acceleration voltage: 300.0 keV ; spherical aberration: 0.00 mm ; amplitude contrast: 0.07
# Box size: 512 pixels ; min. res.: 30.0 Angstroms ; max. res.: 5.0 Angstroms ; min. def.: 5000.0 um; max. def. 50000.0 um; num. frames averaged: 1
# 6 lines per micrograph: #1 - spatial frequency (1/Angstroms); #2 - 1D rotational average of spectrum (assuming no astigmatism); #3 - 1D rotational average of spectrum; #4 - CTF fit; #5 - cross-correlation between spectrum and CTF fit; #6 - 2sigma of expected cross correlation of noise
0.000000 0.000651 0.001302 0.001953 0.002604 0.003255 0.003906 0.004557 0.005208 0.005859 0.006510 0.007161 0.007812 0.008464 0.009115 0.009766 0.010417 0.011068 0.011719 0.012370 0.013021 0.013672 0.014323 0.014974 0.015625 0.016276 0.016927 0.017578 0.018229 0.018880 0.019531 0.020182 0.020833 0.021484 0.022135 0.022786 0.023438 0.024089 0.024740 0.025391 0.026042 0.026693 0.027344 0.027995 0.028646 0.029297 0.029948 0.030599 0.031250 0.031901 0.032552 0.033203 0.033854 0.034505 0.035156 0.035807 0.036458 0.037109 0.037760 0.038411 0.039062 0.039714 0.040365 0.041016 0.041667 0.042318 0.042969 0.043620 0.044271 0.044922 0.045573 0.046224 0.046875 0.047526 0.048177 0.048828 0.049479 0.050130 0.050781 0.051432 0.052083 0.052734 0.053385 0.054036 0.054688 0.055339 0.055990 0.056641 0.057292 0.057943 0.058594 0.059245 0.059896 0.060547 0.061198 0.061849 0.062500 0.063151 0.063802 0.064453 0.065104 0.065755 0.066406 0.067057 0.067708 0.068359 0.069010 0.069661 0.070312 0.070964 0.071615 0.072266 0.072917 0.073568 0.074219 0.074870 0.075521 0.076172 0.076823 0.077474 0.078125 0.078776 0.079427 0.080078 0.080729 0.081380 0.082031 0.082682 0.083333 0.083984 0.084635 0.085286 0.085938 0.086589 0.087240 0.087891 0.088542 0.089193 0.089844 0.090495 0.091146 0.091797 0.092448 0.093099 0.093750 0.094401 0.095052 0.095703 0.096354 0.097005 0.097656 0.098307 0.098958 0.099609 0.100260 0.100911 0.101562 0.102214 0.102865 0.103516 0.104167 0.104818 0.105469 0.106120 0.106771 0.107422 0.108073 0.108724 0.109375 0.110026 0.110677 0.111328 0.111979 0.112630 0.113281 0.113932 0.114583 0.115234 0.115885 0.116536 0.117188 0.117839 0.118490 0.119141 0.119792 0.120443 0.121094 0.121745 0.122396 0.123047 0.123698 0.124349 0.125000 0.125651 0.126302 0.126953 0.127604 0.128255 0.128906 0.129557 0.130208 0.130859 0.131510 0.132161 0.132812 0.133464 0.134115 0.134766 0.135417 0.136068 0.136719 0.137370 0.138021 0.138672 0.139323 0.139974 0.140625 0.141276 0.141927 0.142578 0.143229 0.143880 0.144531 0.145182 0.145833 0.146484 0.147135 0.147786 0.148438 0.149089 0.149740 0.150391 0.151042 0.151693 0.152344 0.152995 0.153646 0.154297 0.154948 0.155599 0.156250 0.156901 0.157552 0.158203 0.158854 0.159505 0.160156 0.160807 0.161458 0.162109 0.162760 0.163411 0.164062 0.164714 0.165365 0.166016 0.166667 0.167318 0.167969 0.168620 0.169271 0.169922 0.170573 0.171224 0.171875 0.172526 0.173177 0.173828 0.174479 0.175130 0.175781 0.176432 0.177083 0.177734 0.178385 0.179036 0.179688 0.180339 0.180990 0.181641 0.182292 0.182943 0.183594 0.184245 0.184896 0.185547 0.186198 0.186849 0.187500 0.188151 0.188802 0.189453 0.190104 0.190755 0.191406 0.192057 0.192708 0.193359 0.194010 0.194661 0.195312 0.195964 0.196615 0.197266 0.197917 0.198568 0.199219 0.199870 0.200521 0.201172 0.201823 0.202474 0.203125 0.203776 0.204427 0.205078 0.205729 0.206380 0.207031 0.207682 0.208333 0.208984 0.209635 0.210286 0.210938 0.211589 0.212240 0.212891 0.213542 0.214193 0.214844 0.215495 0.216146 0.216797 0.217448 0.218099 0.218750 0.219401 0.220052 0.220703 0.221354 0.222005 0.222656 0.223307 0.223958 0.224609 0.225260 0.225911 0.226562 0.227214 0.227865 0.228516 0.229167 0.229818 0.230469 0.231120 0.231771 0.232422 0.233073 0.233724 0.234375 0.235026 0.235677
       0.34270        0.34270        0.34270        0.34270        0.34270        0.34270        0.34270        0.34270        0.34270        0.34270        0.34270        0.34270        0.34270        0.34270        0.34270        0.34270        0.34270        0.34270        0.34270        0.34270        0.34270        0.34270        0.34270        0.34270        0.34270        0.34270        0.34270        0.34270        0.34270        0.34270        0.34270        0.34270        0.34270        0.34270        0.34270        0.34270        0.34270        0.34270        0.34270        0.34270        0.34270        0.34270        0.34270        0.34270        0.34270        0.34270        0.34270        0.34270        0.34270        0.34270        0.34270        0.48890        0.70244        0.45541       -0.11161       -0.41311       -0.57182       -0.66194       -0.74603       -0.76307       -0.86928       -0.91447       -0.75971       -0.92532       -0.87222       -1.02478       -1.09722       -0.98932       -0.96237       -0.88411       -0.86199       -0.75150       -0.64133       -0.50062       -0.42396       -0.21875       -0.11797       -0.02270        0.20308        0.24360        0.30842        0.38512        0.43856        0.51567        0.58029        0.59555        0.59144        0.50178        0.54598        0.48643        0.39133        0.32366        0.20652        0.17228        0.10240       -0.06128       -0.11136       -0.09251        0.00976       -0.01764        0.01167        0.02871        0.20969        0.21901        0.39064        0.45655        0.56088        0.69959        0.76025        0.72990        0.70606        0.70198        0.58383        0.54286        0.39991        0.27269        0.19334        0.14466        0.06662        0.02338        0.02249        0.06150        0.07776        0.27069        0.41793        0.50585        0.58833        0.63862        0.70461        0.66062        0.65140        0.67110        0.60924        0.48026        0.28427        0.23450        0.20559        0.12982        0.04522        0.09198        0.12171        0.25016        0.34020        0.41477        0.50049        0.53862        0.66170        0.60993        0.55541        0.50934        0.36523        0.20934        0.21174        0.15206        0.11344        0.12061        0.21565        0.25276        0.35919        0.44242        0.43954        0.56529        0.51085        0.44816        0.45384        0.38296        0.32351        0.27646        0.21774        0.23670        0.21033        0.21059        0.32373        0.44935        0.48600        0.48015        0.55081        0.49605        0.45565        0.39492        0.29384        0.22449        0.23202        0.24588        0.26691        0.27332        0.32463        0.44244        0.49934        0.48655        0.45959        0.41741        0.38736        0.36228        0.24867        0.22592        0.24652        0.29304        0.35398        0.36229        0.39124        0.40950        0.44333        0.37069        0.34809        0.31349        0.30445        0.26609        0.25861        0.30934        0.34548        0.41593        0.41652        0.39734        0.39386        0.40699        0.34911        0.28727        0.29093        0.27681        0.31028        0.35934        0.36691        0.41537        0.35941        0.36725        0.38993        0.34614        0.31600        0.28017        0.29535        0.34011        0.33066        0.32564        0.37579        0.39496        0.33368        0.35190        0.29562        0.30786        0.28759        0.28239        0.30090        0.33125        0.38326        0.36592        0.34708        0.32725        0.28472        0.27700        0.29667        0.28208        0.31340        0.36797        0.39403        0.33741        0.31699        0.31045        0.29811        0.28220        0.27818        0.29899        0.34067        0.33564        0.34321        0.31682        0.34780        0.32340        0.28725        0.31595        0.32241        0.33349        0.33774        0.31981        0.31584        0.30570        0.32737        0.31285        0.33624        0.38838        0.33492        0.36183        0.32073        0.31344        0.28957        0.30984        0.29056        0.30987        0.31666        0.35149        0.36188        0.31631        0.32266        0.31572        0.29336        0.29183        0.28962        0.33269        0.34287        0.35648        0.33444        0.32398        0.25961        0.26630        0.31337        0.34870        0.31838        0.29793        0.28428        0.28740        0.32547        0.30789        0.30824        0.33404        0.34342        0.31171        0.24184        0.28816        0.28332        0.28666        0.32191        0.32155        0.34459        0.34205        0.27978        0.26692        0.29423        0.26913        0.28911        0.27543        0.24655        0.26386        0.24980        0.27924        0.28087        0.27609        0.26588        0.31712        0.32645        0.31406        0.28568        0.30469        0.24378        0.26975        0.25552        0.33556        0.34602        0.23162        0.25641        0.27186        0.24648        0.25084        0.30071        0.23071        0.14231        0.17368        0.24714        0.27644        0.22987        0.13977        0.02760       -0.42354       -0.75913
3.044746 3.006921 2.969338 2.931998 2.894902 2.858048 2.821437 2.785069 2.748944 2.713062 2.677423 2.642027 2.606874 2.571964 2.537296 2.502872 2.468690 2.434752 2.401056 2.367604 2.334394 2.301427 2.268703 2.236222 2.203984 2.171989 2.140237 2.108728 2.077462 2.046439 2.015658 1.985121 1.954827 1.924775 1.894967 1.865401 1.836078 1.806999 1.778162 1.749568 1.721217 1.693109 1.665244 1.637622 1.610243 1.583106 1.556213 1.529563 1.503155 1.476991 1.451069 1.508158 1.696138 1.608456 0.963030 0.681303 0.475394 0.429975 0.320452 0.263700 0.199820 0.021153 0.197402 0.081177 -0.006620 -0.057950 -0.197905 -0.150922 -0.090671 -0.091234 -0.097350 0.010457 0.031679 0.233871 0.149361 0.364373 0.444971 0.477121 0.714240 0.698443 0.707219 0.836666 0.820421 0.851664 0.920207 0.890597 0.937444 0.750603 0.834944 0.838937 0.620650 0.606348 0.456770 0.435706 0.386189 0.209921 0.121159 0.100805 0.205833 0.146202 0.194727 0.111933 0.312570 0.288033 0.457549 0.414529 0.579273 0.641969 0.762840 0.703558 0.653809 0.666374 0.530811 0.505208 0.368624 0.293007 0.118103 0.146483 0.003205 -0.012148 -0.037645 -0.027690 -0.000820 0.032919 0.274897 0.332252 0.387346 0.395724 0.467511 0.520673 0.468717 0.504788 0.400492 0.389131 0.155169 0.068716 0.073732 -0.000440 -0.123226 -0.042309 -0.108681 0.018029 0.136365 0.156772 0.253534 0.256464 0.381858 0.462467 0.354604 0.389665 0.282992 0.127015 0.050704 0.051962 0.013379 0.003172 0.008368 0.108296 0.128357 0.263194 0.236693 0.305834 0.368172 0.240114 0.243465 0.218763 0.132082 0.082130 0.052634 0.027232 0.039117 -0.012940 0.028691 0.185889 0.217841 0.251234 0.280931 0.230150 0.239614 0.146864 0.106373 -0.021411 -0.017296 -0.004573 0.017076 0.009820 0.027984 0.104436 0.188969 0.201624 0.219004 0.137782 0.145529 0.079615 0.057027 -0.059488 -0.015141 -0.006567 0.054417 0.066138 0.076768 0.153931 0.090189 0.162560 0.068998 0.053815 0.045882 0.027778 0.002464 0.008962 0.054466 0.084410 0.132943 0.140656 0.070513 0.131404 0.100994 0.018199 0.008676 0.006573 -0.003730 0.058630 0.061726 0.100089 0.099141 0.070112 0.071208 0.081874 0.035721 0.014782 -0.012664 0.012912 0.060738 0.026028 0.040925 0.081007 0.085722 0.055280 0.033417 0.008914 0.015357 -0.006151 -0.010665 0.015108 0.054368 0.102205 0.062715 0.057749 0.039743 -0.013812 -0.000445 0.015327 0.011539 0.028341 0.104818 0.061524 0.024287 0.043594 0.002897 0.027129 -0.011475 -0.002680 0.023078 0.065378 0.032456 0.046088 0.030707 0.055831 0.026818 -0.004617 0.031145 0.043622 0.042111 0.038916 0.026680 0.004662 -0.007013 0.028882 0.009534 0.047034 0.076755 0.045707 0.025859 0.016251 0.002504 -0.005008 0.008884 0.004061 0.014602 -0.004174 0.083284 0.055448 0.036263 0.045505 0.003152 0.011200 0.010549 -0.003663 0.050388 0.068944 0.087522 0.049099 0.051590 -0.022841 0.015918 0.038302 0.075299 0.035863 0.034639 0.008369 0.002507 0.056011 0.048854 0.039125 0.060878 0.074245 0.056305 -0.022193 0.019579 0.042752 0.023818 0.043170 0.076775 0.075557 0.070234 0.016803 0.005819 0.017293 0.000483 0.021143 -0.017406 -0.028976 -0.011912 -0.047196 0.000239 -0.006464 0.006882 -0.074214 0.003896 0.012024 -0.001725 -0.038985 0.025958 -0.093803 -0.022033 -0.042740 0.034319 0.068289 -0.106467 -0.019436 0.035208 0.015223 -0.037467 0.046462 0.031842 -0.002687 -0.044129 0.076892 0.239520 0.200660 0.098516 0.027326 -0.664410
0.072396 0.073046 0.074995 0.078243 0.082788 0.088630 0.095765 0.104192 0.113905 0.124901 0.137172 0.150710 0.165505 0.181544 0.198812 0.217291 0.236958 0.257788 0.279749 0.302807 0.326921 0.352044 0.378122 0.405095 0.432894 0.461444 0.490660 0.520447 0.550702 0.581310 0.612148 0.643080 0.673960 0.704629 0.734920 0.764651 0.793630 0.821656 0.848513 0.873979 0.897821 0.919798 0.939660 0.957155 0.972021 0.983999 0.992827 0.998245 0.999997 0.997835 0.991521 0.980831 0.965559 0.945517 0.920545 0.890510 0.855312 0.814888 0.769219 0.718329 0.662292 0.601236 0.535346 0.464867 0.390108 0.311443 0.229311 0.144221 0.056748 0.032466 0.122715 0.213231 0.303191 0.391722 0.477904 0.560785 0.639390 0.712727 0.779805 0.839648 0.891305 0.933876 0.966517 0.988468 0.999066 0.997765 0.984151 0.957964 0.919109 0.867674 0.803941 0.728396 0.641737 0.544876 0.438939 0.325265 0.205390 0.081041 0.045888 0.173362 0.299227 0.421253 0.537166 0.644694 0.741615 0.825806 0.895293 0.948304 0.983324 0.999138 0.994888 0.970106 0.924756 0.859256 0.774505 0.671883 0.553250 0.420931 0.277680 0.126640 0.028714 0.184655 0.337279 0.482610 0.616700 0.735739 0.836177 0.914833 0.969016 0.996627 0.996255 0.967257 0.909823 0.825010 0.714759 0.581879 0.429998 0.263494 0.087379 0.092831 0.271279 0.441960 0.598915 0.736453 0.849365 0.933141 0.984170 0.999919 0.979083 0.921692 0.829177 0.704377 0.551492 0.375982 0.184396 0.015842 0.216714 0.409909 0.587176 0.740678 0.863361 0.949304 0.994026 0.994765 0.950675 0.862948 0.734847 0.571642 0.380433 0.169895 0.050102 0.268919 0.475667 0.659743 0.811394 0.922262 0.985881 0.998096 0.957384 0.865041 0.725222 0.544825 0.333204 0.101740 0.136740 0.368653 0.580425 0.759305 0.894157 0.976191 0.999601 0.962028 0.864838 0.713174 0.515765 0.284497 0.033755 0.220437 0.461416 0.672972 0.840471 0.951903 0.998806 0.976982 0.886941 0.734026 0.528201 0.283487 0.017070 0.251846 0.503418 0.718620 0.880721 0.976646 0.998101 0.942385 0.812780 0.618496 0.374113 0.098593 0.186146 0.456923 0.691188 0.868927 0.974444 0.997827 0.935985 0.793131 0.580644 0.316276 0.022777 0.273995 0.547329 0.772074 0.926999 0.996887 0.974141 0.859734 0.663363 0.402782 0.102329 0.209287 0.501647 0.745618 0.916292 0.995631 0.974490 0.853814 0.644827 0.368152 0.051916 0.271010 0.566395 0.802284 0.952519 0.999754 0.937613 0.771692 0.519269 0.207669 0.128560 0.451396 0.723627 0.913195 0.997082 0.964249 0.817274 0.572405 0.257956 0.088811 0.426000 0.712116 0.911226 0.997586 0.959140 0.799399 0.537390 0.205606 0.153864 0.494573 0.771700 0.948027 0.999078 0.916711 0.710626 0.407492 0.047705 0.319843 0.644337 0.880089 0.993098 0.966147 0.801650 0.521789 0.165769 0.215472 0.566447 0.835203 0.981111 0.981193 0.834003 0.560338 0.200594 0.190990 0.554370 0.832910 0.982303 0.977835 0.818739 0.528862 0.153396 0.247939 0.610279 0.874097 0.995128 0.952024 0.750430 0.422622 0.022653 0.382336 0.723325 0.941209 0.997242 0.880217 0.609021 0.229951 0.190896 0.578984 0.864516 0.995143 0.945811 0.723918 0.368643 0.055642 0.470798 0.799237 0.978519 0.973485 0.783494 0.443257 0.016890 0.413922 0.765427 0.968206 0.981103 0.799960 0.459173 0.025600 0.414284 0.771520 0.972700 0.975353 0.777286 0.417839 0.029517 0.471865 0.816078 0.988514 0.951079 0.710083 0.315721 0.147942 0.580625
1.000000 1.000000 1.000000 1.000000 1.000000 1.000000 1.000000 1.000000 1.000000 1.000000 1.000000 1.000000 1.000000 1.000000 1.000000 1.000000 1.000000 1.000000 1.000000 1.000000 1.000000 1.000000 1.000000 1.000000 1.000000 1.000000 1.000000 1.000000 1.000000 1.000000 1.000000 1.000000 1.000000 1.000000 1.000000 1.000000 1.000000 1.000000 1.000000 1.000000 1.000000 1.000000 1.000000 1.000000 1.000000 1.000000 1.000000 1.000000 1.000000 1.000000 1.000000 1.000000 0.933139 0.933139 0.933139 0.933139 0.933139 0.933139 0.933139 0.933139 0.933139 0.933139 0.933139 0.933139 0.933139 0.933139 0.933139 0.933139 0.933139 0.933139 0.933139 0.933139 0.933139 0.933139 0.933139 0.933139 0.933139 0.933139 0.933139 0.933139 0.933139 0.933139 0.933139 0.933139 0.933139 0.922439 0.923926 0.926895 0.927966 0.927925 0.927469 0.927154 0.927374 0.929090 0.931410 0.948017 0.950198 0.950769 0.952057 0.952297 0.954813 0.953065 0.952907 0.963456 0.962282 0.962999 0.956074 0.957642 0.956738 0.955818 0.956316 0.956551 0.954630 0.952494 0.950815 0.950183 0.949812 0.951577 0.952052 0.952022 0.953489 0.953459 0.953186 0.949847 0.948408 0.949874 0.951900 0.951044 0.956751 0.956585 0.964628 0.965427 0.964029 0.963929 0.964127 0.964323 0.954849 0.948601 0.943277 0.931642 0.922469 0.920366 0.923233 0.925134 0.924030 0.919392 0.918349 0.915685 0.910686 0.909841 0.909504 0.911072 0.907021 0.903374 0.887035 0.886292 0.888758 0.888326 0.886176 0.877699 0.872819 0.873525 0.876670 0.874148 0.870752 0.886777 0.881992 0.887022 0.890157 0.893262 0.897159 0.893218 0.892145 0.888380 0.884838 0.879594 0.881066 0.871568 0.874348 0.869741 0.861056 0.854165 0.857204 0.866269 0.874140 0.882124 0.881180 0.881026 0.880246 0.872333 0.873102 0.865113 0.866106 0.871229 0.877109 0.873221 0.870647 0.874861 0.873097 0.875263 0.877880 0.873974 0.872089 0.863305 0.863676 0.865413 0.882230 0.882066 0.870238 0.862249 0.853277 0.860687 0.864122 0.863211 0.864854 0.856484 0.858104 0.847471 0.835370 0.837008 0.841752 0.837607 0.839321 0.837341 0.840872 0.842563 0.840847 0.836456 0.835277 0.839757 0.817146 0.823836 0.826634 0.821167 0.825234 0.817628 0.811362 0.806086 0.805941 0.800219 0.811081 0.809258 0.776644 0.767245 0.775089 0.756963 0.748082 0.744391 0.745439 0.722338 0.703521 0.675877 0.670809 0.658631 0.660608 0.659655 0.653827 0.641163 0.627742 0.619609 0.634339 0.637417 0.603154 0.603352 0.597454 0.592989 0.588216 0.584145 0.582592 0.590705 0.596128 0.559945 0.554051 0.560295 0.533876 0.533295 0.530766 0.522779 0.494479 0.501005 0.497370 0.515183 0.547884 0.505081 0.499621 0.512280 0.526133 0.537675 0.537474 0.523027 0.503864 0.517118 0.492567 0.477869 0.494131 0.502462 0.493644 0.509152 0.497557 0.529420 0.521875 0.501250 0.526400 0.539681 0.537726 0.530233 0.543407 0.528652 0.531653 0.518981 0.473686 0.482249 0.465271 0.412343 0.409297 0.428656 0.416188 0.415564 0.387877 0.390323 0.364439 0.329846 0.339637 0.335885 0.298746 0.259334 0.261875 0.263764 0.234024 0.204330 0.224949 0.174828 0.167577 0.187918 0.197930 0.187840 0.186718 0.207961 0.207961 0.207961 0.207961 0.207961 0.207961 0.207961 0.207961 0.207961 0.207961 0.207961 0.207961 0.207961 0.207961 0.233475 0.233475 0.233475 0.233475 0.233475 0.233475 0.233475 0.233475 0.233475 0.233475 0.233475 0.233475
0.000000 0.000000 0.000000 0.000000 0.000000 0.000000 0.000000 0.000000 0.000000 0.000000 0.000000 0.000000 0.000000 0.000000 0.000000 0.000000 0.000000 0.000000 0.000000 0.000000 0.000000 0.000000 0.000000 0.000000 0.000000 7.000000 4.000000 0.000000 0.000000 0.000000 0.000000 0.000000 0.000000 0.000000 0.000000 0.000000 0.000000 0.000000 0.000000 0.000000 0.000000 0.000000 0.000000 0.000000 0.000000 0.000000 0.000000 0.000000 0.000000 0.000000 0.000000 0.000000 0.209657 0.209657 0.209657 0.209657 0.209657 0.209657 0.209657 0.209657 0.209657 0.209657 0.209657 0.209657 0.209657 0.209657 0.209657 0.209657 0.209657 0.209657 0.209657 0.209657 0.209657 0.209657 0.209657 0.209657 0.209657 0.209657 0.209657 0.209657 0.209657 0.209657 0.209657 0.209657 0.209657 0.244339 0.244339 0.244339 0.244339 0.244339 0.244339 0.244339 0.244339 0.244339 0.244339 0.244339 0.244339 0.244339 0.244339 0.244339 0.244339 0.244339 0.244339 0.244339 0.244339 0.244339 0.244339 0.244339 0.244339 0.244339 0.260378 0.260378 0.260378 0.260378 0.260378 0.260378 0.260378 0.260378 0.260378 0.260378 0.260378 0.260378 0.260378 0.260378 0.260378 0.260378 0.260378 0.260378 0.260378 0.260378 0.269680 0.269680 0.269680 0.269680 0.269680 0.269680 0.269680 0.269680 0.269680 0.269680 0.269680 0.269680 0.269680 0.269680 0.269680 0.269680 0.269680 0.269680 0.269680 0.269680 0.269680 0.269680 0.269680 0.269680 0.269680 0.269680 0.269680 0.269680 0.269680 0.269680 0.269680 0.269680 0.269680 0.280056 0.280056 0.280056 0.280056 0.280056 0.280056 0.280056 0.280056 0.280056 0.280056 0.280056 0.280056 0.280056 0.280056 0.280056 0.280056 0.280056 0.280056 0.280056 0.280056 0.280056 0.280056 0.280056 0.280056 0.280056 0.280056 0.280056 0.274721 0.274721 0.274721 0.274721 0.274721 0.274721 0.274721 0.274721 0.274721 0.274721 0.274721 0.274721 0.274721 0.285714 0.285714 0.285714 0.285714 0.285714 0.285714 0.285714 0.285714 0.285714 0.285714 0.285714 0.280056 0.280056 0.280056 0.280056 0.280056 0.280056 0.280056 0.280056 0.280056 0.280056 0.280056 0.274721 0.274721 0.274721 0.274721 0.274721 0.274721 0.274721 0.274721 0.274721 0.274721 0.274721 0.280056 0.280056 0.280056 0.280056 0.280056 0.280056 0.280056 0.280056 0.280056 0.280056 0.285714 0.285714 0.285714 0.285714 0.285714 0.285714 0.285714 0.285714 0.285714 0.269680 0.269680 0.269680 0.269680 0.269680 0.269680 0.269680 0.269680 0.269680 0.269680 0.274721 0.274721 0.274721 0.274721 0.274721 0.274721 0.274721 0.274721 0.274721 0.285714 0.285714 0.285714 0.285714 0.285714 0.285714 0.285714 0.285714 0.264906 0.264906 0.264906 0.264906 0.264906 0.264906 0.264906 0.264906 0.264906 0.274721 0.274721 0.274721 0.274721 0.274721 0.274721 0.274721 0.274721 0.269680 0.269680 0.269680 0.269680 0.269680 0.269680 0.269680 0.269680 0.269680 0.269680 0.269680 0.269680 0.269680 0.269680 0.269680 0.269680 0.280056 0.280056 0.280056 0.280056 0.280056 0.280056 0.280056 0.260378 0.260378 0.260378 0.260378 0.260378 0.260378 0.260378 0.260378 0.269680 0.269680 0.269680 0.269680 0.269680 0.269680 0.269680 0.264906 0.264906 0.264906 0.264906 0.264906 0.264906 0.264906 0.264906 0.264906 0.264906 0.264906 0.264906 0.264906 0.264906 0.260378 0.260378 0.260378 0.260378 0.260378 0.260378 0.260378 0.260378 0.260378 0.260378 0.260378 0.260378
