# Output from CTFFind version 4.1.9, run on 2019-11-03 20:05:12
# Input file: stack6_bm3d_averaged_1_10_0_750_half.mrc ; Number of micrographs: 1
# Pixel size: 3.000 Angstroms ; acceleration voltage: 300.0 keV ; spherical aberration: 0.00 mm ; amplitude contrast: 0.07
# Box size: 512 pixels ; min. res.: 30.0 Angstroms ; max. res.: 5.0 Angstroms ; min. def.: 5000.0 um; max. def. 50000.0 um; num. frames averaged: 1
# 6 lines per micrograph: #1 - spatial frequency (1/Angstroms); #2 - 1D rotational average of spectrum (assuming no astigmatism); #3 - 1D rotational average of spectrum; #4 - CTF fit; #5 - cross-correlation between spectrum and CTF fit; #6 - 2sigma of expected cross correlation of noise
0.000000 0.000651 0.001302 0.001953 0.002604 0.003255 0.003906 0.004557 0.005208 0.005859 0.006510 0.007161 0.007812 0.008464 0.009115 0.009766 0.010417 0.011068 0.011719 0.012370 0.013021 0.013672 0.014323 0.014974 0.015625 0.016276 0.016927 0.017578 0.018229 0.018880 0.019531 0.020182 0.020833 0.021484 0.022135 0.022786 0.023438 0.024089 0.024740 0.025391 0.026042 0.026693 0.027344 0.027995 0.028646 0.029297 0.029948 0.030599 0.031250 0.031901 0.032552 0.033203 0.033854 0.034505 0.035156 0.035807 0.036458 0.037109 0.037760 0.038411 0.039062 0.039714 0.040365 0.041016 0.041667 0.042318 0.042969 0.043620 0.044271 0.044922 0.045573 0.046224 0.046875 0.047526 0.048177 0.048828 0.049479 0.050130 0.050781 0.051432 0.052083 0.052734 0.053385 0.054036 0.054688 0.055339 0.055990 0.056641 0.057292 0.057943 0.058594 0.059245 0.059896 0.060547 0.061198 0.061849 0.062500 0.063151 0.063802 0.064453 0.065104 0.065755 0.066406 0.067057 0.067708 0.068359 0.069010 0.069661 0.070312 0.070964 0.071615 0.072266 0.072917 0.073568 0.074219 0.074870 0.075521 0.076172 0.076823 0.077474 0.078125 0.078776 0.079427 0.080078 0.080729 0.081380 0.082031 0.082682 0.083333 0.083984 0.084635 0.085286 0.085938 0.086589 0.087240 0.087891 0.088542 0.089193 0.089844 0.090495 0.091146 0.091797 0.092448 0.093099 0.093750 0.094401 0.095052 0.095703 0.096354 0.097005 0.097656 0.098307 0.098958 0.099609 0.100260 0.100911 0.101562 0.102214 0.102865 0.103516 0.104167 0.104818 0.105469 0.106120 0.106771 0.107422 0.108073 0.108724 0.109375 0.110026 0.110677 0.111328 0.111979 0.112630 0.113281 0.113932 0.114583 0.115234 0.115885 0.116536 0.117188 0.117839 0.118490 0.119141 0.119792 0.120443 0.121094 0.121745 0.122396 0.123047 0.123698 0.124349 0.125000 0.125651 0.126302 0.126953 0.127604 0.128255 0.128906 0.129557 0.130208 0.130859 0.131510 0.132161 0.132812 0.133464 0.134115 0.134766 0.135417 0.136068 0.136719 0.137370 0.138021 0.138672 0.139323 0.139974 0.140625 0.141276 0.141927 0.142578 0.143229 0.143880 0.144531 0.145182 0.145833 0.146484 0.147135 0.147786 0.148438 0.149089 0.149740 0.150391 0.151042 0.151693 0.152344 0.152995 0.153646 0.154297 0.154948 0.155599 0.156250 0.156901 0.157552 0.158203 0.158854 0.159505 0.160156 0.160807 0.161458 0.162109 0.162760 0.163411 0.164062 0.164714 0.165365 0.166016 0.166667 0.167318 0.167969 0.168620 0.169271 0.169922 0.170573 0.171224 0.171875 0.172526 0.173177 0.173828 0.174479 0.175130 0.175781 0.176432 0.177083 0.177734 0.178385 0.179036 0.179688 0.180339 0.180990 0.181641 0.182292 0.182943 0.183594 0.184245 0.184896 0.185547 0.186198 0.186849 0.187500 0.188151 0.188802 0.189453 0.190104 0.190755 0.191406 0.192057 0.192708 0.193359 0.194010 0.194661 0.195312 0.195964 0.196615 0.197266 0.197917 0.198568 0.199219 0.199870 0.200521 0.201172 0.201823 0.202474 0.203125 0.203776 0.204427 0.205078 0.205729 0.206380 0.207031 0.207682 0.208333 0.208984 0.209635 0.210286 0.210938 0.211589 0.212240 0.212891 0.213542 0.214193 0.214844 0.215495 0.216146 0.216797 0.217448 0.218099 0.218750 0.219401 0.220052 0.220703 0.221354 0.222005 0.222656 0.223307 0.223958 0.224609 0.225260 0.225911 0.226562 0.227214 0.227865 0.228516 0.229167 0.229818 0.230469 0.231120 0.231771 0.232422 0.233073 0.233724 0.234375 0.235026 0.235677
       0.34236        0.34236        0.34236        0.34236        0.34236        0.34236        0.34236        0.34236        0.34236        0.34236        0.34236        0.34236        0.34236        0.34236        0.34236        0.34236        0.34236        0.34236        0.34236        0.34236        0.34236        0.34236        0.34236        0.34236        0.34236        0.34236        0.34236        0.34236        0.34236        0.34236        0.34236        0.34236        0.34236        0.34236        0.34236        0.34236        0.34236        0.34236        0.34236        0.34236        0.34236        0.34236        0.34236        0.34236        0.34236        0.34236        0.34236        0.34236        0.34236        0.34236        0.34236        0.58860        0.69395        0.36668        0.16024        0.14326       -0.12113        0.10989        0.04277        0.04432        0.08946        0.30746        0.29179        0.22782        0.13480       -0.04132       -0.00899        0.05497       -0.06867       -0.07713       -0.06510       -0.06319       -0.14688       -0.08700       -0.19748       -0.21592       -0.21974       -0.27430       -0.33812       -0.26262       -0.17571       -0.13257       -0.24537       -0.17827       -0.20538       -0.14401       -0.10089       -0.03787       -0.01671        0.03110        0.09062        0.16397        0.20448        0.24771        0.34987        0.41318        0.36721        0.49942        0.54687        0.55089        0.62258        0.54304        0.57635        0.60996        0.59614        0.56890        0.55893        0.60599        0.53386        0.40546        0.37032        0.38142        0.34043        0.22386        0.23129        0.19204        0.13727        0.12749        0.06420        0.14364        0.11376        0.09444        0.16575        0.21696        0.29450        0.33944        0.38050        0.42055        0.44945        0.47825        0.42568        0.61764        0.55153        0.47652        0.56216        0.50579        0.56728        0.51592        0.40231        0.34308        0.33239        0.29326        0.27926        0.22336        0.21034        0.19923        0.29251        0.27605        0.27820        0.25214        0.27585        0.34709        0.33540        0.45285        0.44647        0.44797        0.42514        0.48873        0.44291        0.41085        0.41633        0.38467        0.33583        0.28262        0.31819        0.28751        0.28284        0.23101        0.23820        0.26823        0.28749        0.29891        0.34604        0.39548        0.42521        0.42615        0.42815        0.51022        0.49251        0.42904        0.37695        0.42048        0.39767        0.33601        0.34740        0.33974        0.29174        0.29283        0.28389        0.27055        0.32745        0.31612        0.33450        0.35682        0.40483        0.43086        0.41457        0.44644        0.40673        0.44616        0.42523        0.36226        0.31153        0.30875        0.30943        0.28575        0.24737        0.31725        0.38969        0.34690        0.31932        0.38004        0.32076        0.36969        0.41701        0.40137        0.37092        0.36869        0.35683        0.36548        0.33277        0.32154        0.29625        0.29365        0.33524        0.34837        0.37502        0.38564        0.40021        0.37813        0.35428        0.33316        0.37083        0.37768        0.35713        0.33584        0.28625        0.29402        0.28598        0.33945        0.33803        0.36317        0.33449        0.35673        0.39820        0.34260        0.35937        0.35978        0.32411        0.32754        0.31066        0.30031        0.29299        0.28029        0.26464        0.28872        0.27970        0.29632        0.26821        0.31378        0.38076        0.27644        0.29983        0.28600        0.28440        0.33321        0.31824        0.31766        0.34055        0.33351        0.34369        0.32645        0.32272        0.32738        0.40495        0.36945        0.30287        0.32704        0.31648        0.36685        0.28619        0.29036        0.32101        0.31444        0.34243        0.38375        0.35043        0.29682        0.23712        0.30212        0.28386        0.27117        0.26865        0.30030        0.33038        0.26710        0.32280        0.34280        0.37925        0.29512        0.33649        0.30953        0.29653        0.29099        0.30010        0.31665        0.27286        0.26947        0.34875        0.35742        0.29312        0.35210        0.31905        0.26257        0.23884        0.21237        0.33837        0.31653        0.36389        0.36402        0.28581        0.23812        0.22765        0.31297        0.28204        0.27569        0.32830        0.30025        0.26061        0.29824        0.30821        0.30124        0.29940        0.29357        0.27781        0.23468        0.28128        0.32414        0.26218        0.21802        0.24056        0.27245        0.26349        0.21578        0.21220        0.27811        0.34550        0.30973        0.23843        0.17646        0.25444        0.18954        0.27415        0.26719        0.17652        0.17140        0.24557        0.22315        0.31781        0.03606       -0.19094       -0.68238       -0.96132
3.521914 3.484026 3.446347 3.408877 3.371614 3.334561 3.297715 3.261078 3.224649 3.188429 3.152417 3.116614 3.081019 3.045632 3.010454 2.975483 2.940722 2.906169 2.871824 2.837687 2.803759 2.770040 2.736528 2.703225 2.670131 2.637245 2.604567 2.572098 2.539837 2.507784 2.475940 2.444304 2.412876 2.381657 2.350647 2.319844 2.289251 2.258865 2.228688 2.198719 2.168959 2.139407 2.110063 2.080928 2.052001 2.023282 1.994772 1.966471 1.938377 1.910493 1.882816 2.241359 2.600705 1.866754 1.586683 1.364145 0.705699 1.166117 0.947703 1.070549 0.860212 1.672847 1.365092 1.384874 1.150084 0.676427 0.560384 0.857802 0.730701 0.380900 0.302885 0.557269 0.310038 0.329990 0.131468 0.008829 -0.021379 -0.021675 -0.370123 -0.142780 -0.009517 0.021255 -0.113511 -0.062248 -0.143217 -0.108177 0.010860 0.166831 0.212645 0.213691 0.352448 0.605775 0.516406 0.645308 0.777557 1.046839 0.764030 1.281741 1.181781 1.257330 1.360705 1.211299 1.157116 1.379549 1.148423 1.252626 1.134074 1.192397 1.159352 0.852452 0.642836 0.627969 0.681180 0.316553 0.340615 0.211475 0.097247 0.017554 -0.163268 0.103362 -0.001772 -0.095160 -0.012150 0.079978 0.211069 0.422543 0.441466 0.519353 0.524574 0.716242 0.427012 0.864938 0.850350 0.624701 0.768274 0.599723 0.764363 0.778151 0.473620 0.236915 0.260522 0.206683 0.020899 0.080447 -0.075705 -0.234845 0.061160 0.082399 0.060865 -0.023231 0.015810 0.135767 0.054418 0.315473 0.423545 0.406494 0.206884 0.494452 0.429114 0.225794 0.419844 0.263690 0.110459 0.107687 0.014502 0.081442 -0.129781 0.078909 -0.186925 -0.076364 -0.069788 0.125517 -0.117003 0.274504 0.248521 0.297256 0.259742 0.325749 0.618568 0.347661 0.283946 0.379847 0.194526 0.380875 0.056142 0.258056 0.050298 0.069172 0.051332 0.045310 0.031566 0.166235 0.050180 0.184392 0.261854 0.306006 0.306132 0.468609 0.335975 0.348438 0.380872 0.296227 0.176589 0.088472 0.095194 0.087260 0.024789 -0.022438 0.211932 0.296826 0.096415 0.170604 0.240909 0.135592 0.283461 0.324447 0.249972 0.187074 0.140310 0.245128 0.118962 0.128710 0.092456 -0.061399 0.072132 0.151798 0.140801 0.230452 0.207860 0.295998 0.112963 0.169350 0.185661 0.253301 0.140192 0.220228 0.118742 0.004886 0.036983 0.007318 0.150288 0.141300 0.206040 0.096813 0.201881 0.233412 0.024291 0.193734 0.096271 0.009335 0.054834 0.020943 -0.022054 -0.031742 -0.114815 -0.030401 -0.016111 -0.125175 -0.017762 -0.073197 0.069321 0.124254 -0.138435 -0.023179 -0.075682 -0.065370 0.066790 0.004990 -0.057799 0.030983 0.089299 0.008711 -0.039809 0.042239 -0.014987 0.284090 -0.003030 -0.120347 0.035968 0.004183 0.073572 -0.161336 -0.066165 0.013416 0.006399 0.075100 0.099913 0.080223 -0.106603 -0.144227 -0.029577 -0.078635 -0.072342 -0.080973 -0.039641 0.055405 -0.178828 0.135881 0.019117 0.177990 -0.033562 0.068350 0.025604 -0.057419 0.059674 0.009055 -0.033001 -0.052381 -0.055879 0.116071 0.177824 -0.131383 0.154059 0.053330 -0.129221 -0.100017 -0.210663 0.177063 -0.001371 0.180508 0.184776 0.069518 -0.207214 -0.171600 0.019870 -0.047176 -0.122701 0.054789 -0.036248 -0.152199 -0.009873 -0.019395 0.096008 -0.015126 -0.072582 -0.000428 -0.252855 0.042872 0.065790 -0.113548 -0.168083 -0.163163 -0.031757 -0.048031 -0.151374 -0.199763 0.065029 0.141195 0.014812 -0.088935 -0.338475 0.077693 -0.203398 0.646056 0.578208 0.304381 0.371887 0.681859 0.543570 0.658992 -0.192402 -0.407668 -2.111995
0.072396 0.072836 0.074156 0.076356 0.079434 0.083392 0.088227 0.093938 0.100524 0.107983 0.116312 0.125508 0.135568 0.146487 0.158259 0.170879 0.184337 0.198626 0.213735 0.229651 0.246362 0.263851 0.282100 0.301090 0.320796 0.341194 0.362255 0.383948 0.406237 0.429084 0.452446 0.476279 0.500530 0.525146 0.550067 0.575230 0.600565 0.625999 0.651454 0.676846 0.702085 0.727077 0.751724 0.775919 0.799554 0.822513 0.844677 0.865921 0.886118 0.905133 0.922832 0.939074 0.953718 0.966619 0.977632 0.986612 0.993412 0.997888 0.999898 0.999302 0.995966 0.989760 0.980561 0.968256 0.952739 0.933917 0.911709 0.886048 0.856883 0.824181 0.787925 0.748123 0.704800 0.658010 0.607828 0.554356 0.497724 0.438092 0.375647 0.310607 0.243223 0.173773 0.102569 0.029953 0.043702 0.117997 0.192503 0.266763 0.340301 0.412615 0.483187 0.551484 0.616960 0.679066 0.737247 0.790954 0.839645 0.882793 0.919890 0.950459 0.974054 0.990269 0.998747 0.999185 0.991341 0.975039 0.950180 0.916741 0.874787 0.824469 0.766033 0.699824 0.626279 0.545939 0.459441 0.367518 0.270998 0.170798 0.067913 0.036582 0.141551 0.245803 0.348107 0.447203 0.541822 0.630699 0.712592 0.786301 0.850690 0.904700 0.947376 0.977881 0.995520 0.999753 0.990215 0.966728 0.929317 0.878217 0.813882 0.736985 0.648426 0.549318 0.440987 0.324958 0.202933 0.076781 0.051499 0.179800 0.305941 0.427705 0.542877 0.649289 0.744858 0.827633 0.895838 0.947918 0.982574 0.998806 0.995945 0.973680 0.932085 0.871628 0.793182 0.698027 0.587834 0.464647 0.330856 0.189157 0.042501 0.105959 0.252935 0.395076 0.529040 0.651584 0.759637 0.850387 0.921361 0.970501 0.996228 0.997508 0.973896 0.925574 0.853364 0.758742 0.643815 0.511289 0.364423 0.206952 0.043009 0.122984 0.286429 0.442676 0.587161 0.715538 0.823824 0.908524 0.966758 0.996374 0.996036 0.965298 0.904650 0.815534 0.700331 0.562322 0.405602 0.234984 0.055854 0.125980 0.304488 0.473592 0.627403 0.760409 0.867699 0.945148 0.989597 0.998993 0.972507 0.910603 0.815062 0.688957 0.536578 0.363316 0.175475 0.019928 0.215426 0.403384 0.576286 0.727055 0.849350 0.937844 0.988480 0.998677 0.967487 0.895680 0.785767 0.641942 0.469957 0.276904 0.070958 0.138965 0.343587 0.533669 0.700441 0.836015 0.933777 0.988735 0.997798 0.959980 0.876506 0.750817 0.588464 0.396898 0.185155 0.036550 0.257300 0.466013 0.651997 0.805507 0.918287 0.984025 0.998751 0.961104 0.872474 0.737007 0.561451 0.354859 0.128151 0.106434 0.335992 0.547658 0.729335 0.870403 0.962364 0.999395 0.978749 0.901001 0.770096 0.593199 0.380358 0.143950 0.101979 0.342569 0.563011 0.749483 0.890035 0.975382 0.999563 0.960407 0.859755 0.703449 0.501043 0.265276 0.011291 0.244294 0.484466 0.692969 0.855401 0.960261 0.999793 0.970618 0.874077 0.716235 0.507580 0.262360 0.002317 0.267682 0.514596 0.724957 0.883032 0.976696 0.998389 0.945806 0.822176 0.636146 0.401253 0.134979 0.142495 0.409801 0.646033 0.832385 0.953698 0.999742 0.966143 0.854863 0.674179 0.438151 0.165574 0.121438 0.399253 0.644635 0.836723 0.958837 0.999990 0.955941 0.829711 0.631473 0.377811 0.090405 0.205777 0.484617 0.721160 0.893870 0.986651 0.990408 0.904025 0.734640 0.497133 0.212920 0.091914 0.388990 0.650245 0.850621 0.970502 0.997721 0.928877 0.769835 0.535344 0.247759 0.065022 0.372204 0.643129 0.850353 0.972473
1.000000 1.000000 1.000000 1.000000 1.000000 1.000000 1.000000 1.000000 1.000000 1.000000 1.000000 1.000000 1.000000 1.000000 1.000000 1.000000 1.000000 1.000000 1.000000 1.000000 1.000000 1.000000 1.000000 1.000000 1.000000 1.000000 1.000000 1.000000 1.000000 1.000000 1.000000 1.000000 1.000000 1.000000 1.000000 1.000000 1.000000 1.000000 1.000000 1.000000 1.000000 1.000000 1.000000 1.000000 1.000000 1.000000 1.000000 1.000000 1.000000 1.000000 1.000000 1.000000 0.748618 0.748618 0.748618 0.748618 0.748618 0.748618 0.748618 0.748231 0.748231 0.748231 0.748231 0.748231 0.748231 0.748231 0.748231 0.748231 0.748231 0.748231 0.748231 0.748231 0.748231 0.748231 0.748231 0.748231 0.748231 0.748231 0.748231 0.748231 0.748231 0.748231 0.748231 0.748231 0.748231 0.748231 0.748231 0.748231 0.748231 0.748231 0.748231 0.748231 0.748231 0.748231 0.748231 0.748231 0.748231 0.748231 0.748231 0.748231 0.748231 0.748231 0.748231 0.899380 0.900425 0.903122 0.895276 0.888521 0.887361 0.882646 0.879782 0.881646 0.881143 0.882216 0.883795 0.887639 0.895059 0.904601 0.907713 0.915124 0.919081 0.919027 0.923709 0.923675 0.928596 0.925466 0.922413 0.912679 0.916166 0.915025 0.913245 0.911276 0.904493 0.915853 0.913767 0.910658 0.901269 0.895866 0.894255 0.894941 0.892751 0.893819 0.893975 0.893190 0.891078 0.891776 0.886775 0.885735 0.871199 0.869311 0.865409 0.862511 0.859912 0.857116 0.855074 0.845976 0.844511 0.840931 0.833924 0.833774 0.833728 0.834417 0.835308 0.836233 0.838979 0.832236 0.827237 0.826164 0.821727 0.814665 0.805868 0.805428 0.808928 0.817208 0.824462 0.822456 0.820382 0.810619 0.797921 0.795685 0.800228 0.776581 0.778020 0.784077 0.786734 0.783795 0.779174 0.775656 0.772873 0.768862 0.761631 0.770280 0.767867 0.760047 0.756763 0.756627 0.758438 0.767802 0.768504 0.758715 0.744946 0.741419 0.745411 0.751468 0.756155 0.748454 0.748982 0.753284 0.758520 0.763463 0.748800 0.743584 0.735299 0.728669 0.737359 0.758385 0.745598 0.751922 0.755729 0.748822 0.748311 0.741248 0.751361 0.753204 0.760897 0.761171 0.754402 0.708363 0.683730 0.642645 0.643882 0.646964 0.604388 0.604660 0.605233 0.604919 0.551890 0.513666 0.493830 0.491872 0.497072 0.500855 0.493431 0.482179 0.479704 0.478591 0.457244 0.443306 0.441032 0.444900 0.433589 0.444160 0.445440 0.442497 0.400585 0.411261 0.431657 0.442509 0.428455 0.415250 0.420104 0.408543 0.413875 0.409130 0.401351 0.357014 0.375158 0.366030 0.384979 0.346582 0.326282 0.299596 0.335042 0.324799 0.281205 0.310112 0.269649 0.267689 0.271582 0.258005 0.232965 0.251068 0.272345 0.233950 0.239062 0.236659 0.275238 0.266518 0.281805 0.302124 0.288720 0.281510 0.299534 0.283578 0.271711 0.250074 0.245754 0.241806 0.241529 0.291621 0.280747 0.283393 0.294932 0.316085 0.322995 0.333794 0.335049 0.333605 0.345154 0.314848 0.262725 0.267622 0.260076 0.266566 0.237223 0.193722 0.172875 0.179411 0.158749 0.149679 0.116341 0.113509 0.110828 0.118965 0.097212 0.102872 0.067005 0.069551 0.048408 0.076540 0.096230 0.100863 0.026065 0.026065 0.026065 0.026065 0.026065 0.026065 0.026065 0.026065 0.026065 0.026065 0.026065 -0.005584 -0.005584 -0.005584 -0.005584 -0.005584 -0.005584 -0.005584 -0.005584 -0.005584 -0.005584 -0.005584 -0.005584 -0.005584 -0.005584 -0.005584 -0.005584 -0.005584 -0.005584 -0.005584 -0.005584
0.000000 0.000000 0.000000 0.000000 0.000000 0.000000 0.000000 0.000000 0.000000 0.000000 0.000000 0.000000 0.000000 0.000000 0.000000 0.000000 0.000000 0.000000 2.000000 0.000000 0.000000 0.000000 0.000000 0.000000 0.000000 0.000000 0.000000 0.000000 0.000000 0.000000 0.000000 0.000000 0.000000 0.000000 0.000000 0.000000 0.000000 0.000000 0.000000 0.000000 0.000000 0.000000 0.000000 0.000000 0.000000 0.000000 0.000000 0.000000 0.000000 0.000000 0.000000 0.000000 0.173422 0.173422 0.173422 0.173422 0.173422 0.173422 0.173422 0.191565 0.191565 0.191565 0.191565 0.191565 0.191565 0.191565 0.191565 0.191565 0.191565 0.191565 0.191565 0.191565 0.191565 0.191565 0.191565 0.191565 0.191565 0.191565 0.191565 0.191565 0.191565 0.191565 0.191565 0.191565 0.191565 0.191565 0.191565 0.191565 0.191565 0.191565 0.191565 0.191565 0.191565 0.191565 0.191565 0.191565 0.191565 0.191565 0.191565 0.191565 0.191565 0.191565 0.191565 0.222222 0.222222 0.222222 0.222222 0.222222 0.222222 0.222222 0.222222 0.222222 0.222222 0.222222 0.222222 0.222222 0.222222 0.222222 0.222222 0.222222 0.222222 0.222222 0.222222 0.222222 0.222222 0.222222 0.222222 0.222222 0.222222 0.222222 0.222222 0.222222 0.222222 0.234082 0.234082 0.234082 0.234082 0.234082 0.234082 0.234082 0.234082 0.234082 0.234082 0.234082 0.234082 0.234082 0.234082 0.234082 0.234082 0.234082 0.234082 0.234082 0.234082 0.234082 0.234082 0.234082 0.234082 0.234082 0.244339 0.244339 0.244339 0.244339 0.244339 0.244339 0.244339 0.244339 0.244339 0.244339 0.244339 0.244339 0.244339 0.244339 0.244339 0.244339 0.244339 0.244339 0.244339 0.244339 0.244339 0.248069 0.248069 0.248069 0.248069 0.248069 0.248069 0.248069 0.248069 0.248069 0.248069 0.248069 0.248069 0.248069 0.248069 0.248069 0.248069 0.248069 0.248069 0.248069 0.256074 0.256074 0.256074 0.256074 0.256074 0.256074 0.256074 0.256074 0.256074 0.256074 0.256074 0.256074 0.256074 0.256074 0.256074 0.256074 0.256074 0.256074 0.256074 0.256074 0.256074 0.256074 0.256074 0.256074 0.256074 0.256074 0.256074 0.256074 0.256074 0.256074 0.256074 0.256074 0.256074 0.256074 0.256074 0.256074 0.256074 0.256074 0.256074 0.256074 0.256074 0.256074 0.256074 0.256074 0.256074 0.256074 0.256074 0.256074 0.256074 0.256074 0.256074 0.256074 0.256074 0.256074 0.256074 0.256074 0.256074 0.256074 0.256074 0.256074 0.256074 0.256074 0.251976 0.251976 0.251976 0.251976 0.251976 0.251976 0.251976 0.251976 0.251976 0.251976 0.251976 0.251976 0.251976 0.251976 0.264906 0.264906 0.264906 0.264906 0.264906 0.264906 0.264906 0.264906 0.264906 0.264906 0.264906 0.264906 0.248069 0.248069 0.248069 0.248069 0.248069 0.248069 0.248069 0.248069 0.248069 0.248069 0.248069 0.248069 0.248069 0.264906 0.264906 0.264906 0.264906 0.264906 0.264906 0.264906 0.264906 0.264906 0.264906 0.264906 0.248069 0.248069 0.248069 0.248069 0.248069 0.248069 0.248069 0.248069 0.248069 0.248069 0.248069 0.248069 0.264906 0.264906 0.264906 0.264906 0.264906 0.264906 0.264906 0.264906 0.264906 0.264906 0.248069 0.248069 0.248069 0.248069 0.248069 0.248069 0.248069 0.248069 0.248069 0.248069 0.248069 0.256074 0.256074 0.256074 0.256074 0.256074 0.256074 0.256074 0.256074 0.256074 0.256074 0.256074 0.256074 0.256074 0.256074 0.256074 0.256074 0.256074 0.256074 0.256074 0.256074
