# Output from CTFFind version 4.1.9, run on 2019-11-03 19:34:48
# Input file: stack16_bm3d_averaged_1_4.25_0_1250_half.mrc ; Number of micrographs: 1
# Pixel size: 3.000 Angstroms ; acceleration voltage: 300.0 keV ; spherical aberration: 0.00 mm ; amplitude contrast: 0.07
# Box size: 512 pixels ; min. res.: 30.0 Angstroms ; max. res.: 5.0 Angstroms ; min. def.: 5000.0 um; max. def. 50000.0 um; num. frames averaged: 1
# 6 lines per micrograph: #1 - spatial frequency (1/Angstroms); #2 - 1D rotational average of spectrum (assuming no astigmatism); #3 - 1D rotational average of spectrum; #4 - CTF fit; #5 - cross-correlation between spectrum and CTF fit; #6 - 2sigma of expected cross correlation of noise
0.000000 0.000651 0.001302 0.001953 0.002604 0.003255 0.003906 0.004557 0.005208 0.005859 0.006510 0.007161 0.007812 0.008464 0.009115 0.009766 0.010417 0.011068 0.011719 0.012370 0.013021 0.013672 0.014323 0.014974 0.015625 0.016276 0.016927 0.017578 0.018229 0.018880 0.019531 0.020182 0.020833 0.021484 0.022135 0.022786 0.023438 0.024089 0.024740 0.025391 0.026042 0.026693 0.027344 0.027995 0.028646 0.029297 0.029948 0.030599 0.031250 0.031901 0.032552 0.033203 0.033854 0.034505 0.035156 0.035807 0.036458 0.037109 0.037760 0.038411 0.039062 0.039714 0.040365 0.041016 0.041667 0.042318 0.042969 0.043620 0.044271 0.044922 0.045573 0.046224 0.046875 0.047526 0.048177 0.048828 0.049479 0.050130 0.050781 0.051432 0.052083 0.052734 0.053385 0.054036 0.054688 0.055339 0.055990 0.056641 0.057292 0.057943 0.058594 0.059245 0.059896 0.060547 0.061198 0.061849 0.062500 0.063151 0.063802 0.064453 0.065104 0.065755 0.066406 0.067057 0.067708 0.068359 0.069010 0.069661 0.070312 0.070964 0.071615 0.072266 0.072917 0.073568 0.074219 0.074870 0.075521 0.076172 0.076823 0.077474 0.078125 0.078776 0.079427 0.080078 0.080729 0.081380 0.082031 0.082682 0.083333 0.083984 0.084635 0.085286 0.085938 0.086589 0.087240 0.087891 0.088542 0.089193 0.089844 0.090495 0.091146 0.091797 0.092448 0.093099 0.093750 0.094401 0.095052 0.095703 0.096354 0.097005 0.097656 0.098307 0.098958 0.099609 0.100260 0.100911 0.101562 0.102214 0.102865 0.103516 0.104167 0.104818 0.105469 0.106120 0.106771 0.107422 0.108073 0.108724 0.109375 0.110026 0.110677 0.111328 0.111979 0.112630 0.113281 0.113932 0.114583 0.115234 0.115885 0.116536 0.117188 0.117839 0.118490 0.119141 0.119792 0.120443 0.121094 0.121745 0.122396 0.123047 0.123698 0.124349 0.125000 0.125651 0.126302 0.126953 0.127604 0.128255 0.128906 0.129557 0.130208 0.130859 0.131510 0.132161 0.132812 0.133464 0.134115 0.134766 0.135417 0.136068 0.136719 0.137370 0.138021 0.138672 0.139323 0.139974 0.140625 0.141276 0.141927 0.142578 0.143229 0.143880 0.144531 0.145182 0.145833 0.146484 0.147135 0.147786 0.148438 0.149089 0.149740 0.150391 0.151042 0.151693 0.152344 0.152995 0.153646 0.154297 0.154948 0.155599 0.156250 0.156901 0.157552 0.158203 0.158854 0.159505 0.160156 0.160807 0.161458 0.162109 0.162760 0.163411 0.164062 0.164714 0.165365 0.166016 0.166667 0.167318 0.167969 0.168620 0.169271 0.169922 0.170573 0.171224 0.171875 0.172526 0.173177 0.173828 0.174479 0.175130 0.175781 0.176432 0.177083 0.177734 0.178385 0.179036 0.179688 0.180339 0.180990 0.181641 0.182292 0.182943 0.183594 0.184245 0.184896 0.185547 0.186198 0.186849 0.187500 0.188151 0.188802 0.189453 0.190104 0.190755 0.191406 0.192057 0.192708 0.193359 0.194010 0.194661 0.195312 0.195964 0.196615 0.197266 0.197917 0.198568 0.199219 0.199870 0.200521 0.201172 0.201823 0.202474 0.203125 0.203776 0.204427 0.205078 0.205729 0.206380 0.207031 0.207682 0.208333 0.208984 0.209635 0.210286 0.210938 0.211589 0.212240 0.212891 0.213542 0.214193 0.214844 0.215495 0.216146 0.216797 0.217448 0.218099 0.218750 0.219401 0.220052 0.220703 0.221354 0.222005 0.222656 0.223307 0.223958 0.224609 0.225260 0.225911 0.226562 0.227214 0.227865 0.228516 0.229167 0.229818 0.230469 0.231120 0.231771 0.232422 0.233073 0.233724 0.234375 0.235026 0.235677
       0.33176        0.33176        0.33176        0.33176        0.33176        0.33176        0.33176        0.33176        0.33176        0.33176        0.33176        0.33176        0.33176        0.33176        0.33176        0.33176        0.33176        0.33176        0.33176        0.33176        0.33176        0.33176        0.33176        0.33176        0.33176        0.33176        0.33176        0.33176        0.33176        0.33176        0.33176        0.33176        0.33176        0.33176        0.33176        0.33176        0.33176        0.33176        0.33176        0.33176        0.33176        0.33176        0.33176        0.33176        0.33176        0.33176        0.33176        0.33176        0.33176        0.33176        0.33176        0.42060        0.56735        0.35524       -0.18947       -0.45464       -0.56077       -0.65658       -0.73027       -0.75029       -0.85908       -0.91589       -0.71554       -0.87951       -0.84934       -1.00083       -1.03829       -0.92225       -0.88052       -0.82193       -0.75445       -0.67556       -0.58919       -0.49686       -0.42423       -0.20122       -0.09059        0.00150        0.23050        0.24051        0.30079        0.36660        0.39270        0.49613        0.53912        0.57285        0.53617        0.47470        0.51273        0.49857        0.42031        0.31663        0.18598        0.16499        0.10126       -0.03355       -0.04707       -0.05003        0.02817       -0.01044        0.04626        0.02636        0.14059        0.18517        0.40197        0.45752        0.55389        0.65771        0.70151        0.71881        0.64269        0.62066        0.52818        0.43902        0.37745        0.25698        0.20253        0.18934        0.07752        0.06592        0.04698        0.05983        0.08033        0.29150        0.40467        0.50482        0.54287        0.58260        0.62169        0.59617        0.59378        0.59001        0.56386        0.46475        0.28367        0.24593        0.21656        0.11714        0.06411        0.12327        0.14624        0.26279        0.34857        0.40671        0.47202        0.53728        0.60947        0.55573        0.51214        0.48938        0.35534        0.23189        0.22482        0.15548        0.13794        0.18639        0.23588        0.26296        0.30814        0.41346        0.43520        0.50905        0.46160        0.45275        0.46904        0.37134        0.31514        0.27010        0.22753        0.20701        0.21791        0.22863        0.31884        0.42190        0.41667        0.48453        0.54280        0.44928        0.41704        0.35458        0.29250        0.23989        0.24451        0.26435        0.27782        0.30596        0.32351        0.40840        0.46590        0.43714        0.44634        0.34920        0.36468        0.34853        0.23184        0.22562        0.23341        0.28685        0.35398        0.36590        0.38969        0.43440        0.43320        0.36167        0.33974        0.30767        0.32696        0.28886        0.26766        0.26649        0.32263        0.35983        0.37068        0.39601        0.37425        0.39922        0.37003        0.28625        0.27498        0.30202        0.33012        0.35342        0.35123        0.40432        0.33656        0.36822        0.37810        0.31818        0.33636        0.28879        0.28632        0.33486        0.32043        0.31654        0.32787        0.35039        0.31354        0.33326        0.29457        0.30447        0.27375        0.29147        0.28899        0.33439        0.37056        0.35262        0.33495        0.28892        0.27200        0.27552        0.31259        0.28346        0.30078        0.35407        0.36931        0.32998        0.30329        0.30438        0.29816        0.26750        0.27698        0.28156        0.31183        0.34141        0.31393        0.27708        0.32486        0.30127        0.29572        0.34142        0.33123        0.30817        0.33006        0.28988        0.31647        0.27410        0.29684        0.29547        0.30863        0.38321        0.32171        0.33996        0.30006        0.30298        0.30758        0.31226        0.28600        0.28124        0.31035        0.30735        0.31637        0.29945        0.30751        0.28799        0.29212        0.31132        0.32651        0.31928        0.32882        0.32579        0.29330        0.26990        0.27410        0.25833        0.33954        0.31417        0.34762        0.29512        0.26762        0.29594        0.33966        0.30257        0.28653        0.26641        0.30360        0.27838        0.25626        0.30390        0.27218        0.27065        0.30552        0.29867        0.32981        0.33824        0.29324        0.26014        0.24436        0.25508        0.27011        0.27172        0.30822        0.26921        0.22168        0.28326        0.26784        0.27834        0.23054        0.30702        0.29301        0.28198        0.25771        0.25499        0.26892        0.22503        0.27514        0.32307        0.36241        0.25733        0.26504        0.24004        0.23921        0.20057        0.31180        0.22647        0.22552        0.14954        0.24309        0.23053        0.22676        0.08996        0.04522       -0.59463       -1.00381
3.014945 2.977360 2.940018 2.902918 2.866059 2.829442 2.793068 2.756935 2.721045 2.685396 2.649990 2.614825 2.579902 2.545221 2.510783 2.476586 2.442631 2.408918 2.375447 2.342219 2.309232 2.276487 2.243984 2.211723 2.179704 2.147927 2.116392 2.085099 2.054048 2.023239 1.992671 1.962346 1.932263 1.902422 1.872823 1.843466 1.814350 1.785477 1.756846 1.728456 1.700309 1.672404 1.644740 1.617319 1.590139 1.563202 1.536506 1.510053 1.483841 1.457872 1.432144 1.466831 1.572643 1.513694 0.852254 0.580908 0.433992 0.367876 0.278008 0.193316 0.147081 -0.064382 0.178679 0.042025 -0.050567 -0.129538 -0.248777 -0.163799 -0.081696 -0.095615 -0.095087 0.024180 0.017651 0.205359 0.097383 0.336993 0.449331 0.465642 0.740519 0.683886 0.676946 0.827500 0.795603 0.819298 0.916351 0.868341 0.897806 0.729743 0.812336 0.840347 0.665220 0.596984 0.442628 0.417128 0.366164 0.177429 0.171574 0.117973 0.214578 0.120252 0.215423 0.105286 0.238319 0.239170 0.470480 0.419530 0.600923 0.634457 0.676225 0.734656 0.651068 0.624627 0.479462 0.431832 0.317192 0.284538 0.116262 0.180105 -0.009468 0.031920 -0.036790 -0.036322 -0.022135 0.047041 0.297714 0.317450 0.398598 0.348275 0.429094 0.471385 0.442830 0.451352 0.380078 0.375653 0.150065 0.103910 0.070327 0.007356 -0.145209 -0.030414 -0.078213 0.045247 0.116756 0.181430 0.258736 0.260472 0.353297 0.449557 0.339960 0.392108 0.284078 0.147953 0.065868 0.067120 0.013176 0.035422 0.076286 0.113502 0.125064 0.215932 0.256643 0.302808 0.341026 0.250035 0.275573 0.239998 0.116659 0.101240 0.041389 0.041964 0.012084 0.017321 0.050814 0.176450 0.198133 0.197579 0.331957 0.201093 0.233750 0.104631 0.090031 -0.010270 -0.006397 0.006173 0.018917 0.040081 0.041176 0.089191 0.161754 0.172631 0.206476 0.115739 0.078413 0.105012 0.039189 -0.079595 -0.022511 0.008324 0.043803 0.063791 0.092836 0.161224 0.127550 0.162902 0.044500 0.062047 0.042940 0.047363 0.018013 -0.012538 0.026249 0.044110 0.085059 0.113195 0.103209 0.106619 0.123594 0.058250 -0.001479 0.005798 0.024963 0.079769 0.056688 0.107133 0.116359 0.048482 0.102058 0.067583 0.036708 0.063886 -0.030963 0.027855 0.060995 0.029585 0.027054 0.104287 0.040757 0.047210 0.043414 0.008491 0.024472 -0.021605 0.014924 0.003121 0.078612 0.074487 0.051976 0.036798 -0.015828 -0.016517 -0.007297 0.022951 -0.005020 0.016057 0.077855 0.069834 -0.007073 0.023562 -0.002726 0.006207 -0.032040 -0.021029 -0.010925 0.036608 0.004485 0.017420 -0.014447 0.019395 -0.010395 0.003565 0.043545 0.026134 0.033812 -0.029267 0.004834 0.006340 -0.043065 -0.003975 -0.005422 0.037162 0.080249 0.011351 0.021114 0.005880 0.019060 -0.005068 0.032562 -0.012995 -0.015632 0.019071 0.008410 0.028021 0.004088 0.056201 -0.028506 -0.001778 0.030165 0.030447 0.026820 0.056897 0.016914 0.018716 -0.000741 -0.026040 -0.003199 0.057849 0.041355 0.050996 0.004072 -0.014639 0.001152 0.070314 0.002892 0.016469 -0.019105 0.017494 -0.015658 -0.020296 0.007852 0.002416 -0.026186 0.025590 0.023661 0.077652 0.049860 0.018955 -0.002500 -0.041176 -0.015892 0.008428 -0.012556 0.068794 -0.025668 -0.077478 0.035857 -0.017285 -0.084619 -0.067558 -0.000459 -0.037770 -0.054093 -0.071865 -0.056607 -0.032294 -0.097440 -0.023030 0.011550 0.058325 -0.098156 -0.010876 0.017241 -0.031191 -0.091668 0.112239 0.018039 0.074397 -0.027164 0.272853 0.207455 0.232803 0.003533 0.047569 -0.934706
0.072396 0.073048 0.075002 0.078258 0.082815 0.088671 0.095825 0.104273 0.114011 0.125035 0.137337 0.150909 0.165741 0.181821 0.199132 0.217657 0.237372 0.258253 0.280267 0.303380 0.327551 0.352731 0.378868 0.405900 0.433759 0.462367 0.491640 0.521483 0.551791 0.582449 0.613332 0.644304 0.675218 0.705915 0.736224 0.765963 0.794941 0.822953 0.849783 0.875207 0.898991 0.920893 0.940661 0.958041 0.972773 0.984594 0.993242 0.998456 0.999979 0.997564 0.990971 0.979978 0.964378 0.943984 0.918638 0.888207 0.852595 0.811741 0.765629 0.714285 0.657789 0.596274 0.529929 0.459007 0.383820 0.304750 0.222245 0.136821 0.049059 0.040388 0.130808 0.221424 0.311405 0.399870 0.485893 0.568515 0.646755 0.719617 0.786107 0.845246 0.896086 0.937726 0.969329 0.990140 0.999505 0.996889 0.981893 0.954272 0.913952 0.861042 0.795848 0.718881 0.630866 0.532745 0.425673 0.311019 0.190349 0.065418 0.061856 0.189409 0.315072 0.436596 0.551695 0.658095 0.753575 0.836019 0.903470 0.954181 0.986670 0.999764 0.992652 0.964924 0.916606 0.848188 0.760638 0.655413 0.534450 0.400148 0.255335 0.103219 0.052669 0.208555 0.360503 0.504517 0.636649 0.753107 0.850380 0.925347 0.975393 0.998518 0.993428 0.959612 0.897402 0.808011 0.693534 0.556936 0.401995 0.233224 0.055753 0.124808 0.302539 0.471406 0.625458 0.759055 0.867078 0.945152 0.989839 0.998815 0.971013 0.906727 0.807660 0.676928 0.519003 0.339590 0.145453 0.055816 0.256082 0.446988 0.620303 0.768294 0.884078 0.961983 0.997845 0.989273 0.935836 0.839164 0.702967 0.532938 0.336571 0.122858 0.098082 0.315475 0.518400 0.696356 0.839815 0.940766 0.993202 0.993522 0.940822 0.837058 0.687042 0.498297 0.280724 0.046140 0.192334 0.420996 0.626343 0.795886 0.918943 0.987358 0.996099 0.943685 0.832415 0.668357 0.461103 0.223273 0.030197 0.282960 0.518301 0.720245 0.874669 0.970345 0.999818 0.960058 0.852834 0.684750 0.466939 0.214408 0.054935 0.321503 0.565447 0.768147 0.913666 0.990075 0.990509 0.913873 0.765120 0.555050 0.299639 0.018897 0.264633 0.527668 0.748094 0.906883 0.989790 0.988736 0.902700 0.738024 0.508088 0.232344 0.065252 0.358246 0.620035 0.826291 0.957296 0.999915 0.949034 0.808281 0.589947 0.314045 0.006603 0.302723 0.583481 0.807427 0.951430 0.999979 0.946973 0.796625 0.563314 0.270383 0.052098 0.370306 0.650210 0.861231 0.979672 0.991501 0.894173 0.697231 0.421561 0.097347 0.239129 0.549485 0.797617 0.953975 0.999215 0.926751 0.743879 0.471280 0.140849 0.207881 0.532409 0.792431 0.954932 0.998510 0.916382 0.717620 0.426399 0.079246 0.279386 0.602753 0.847917 0.981558 0.984664 0.855449 0.610030 0.280646 0.088350 0.446372 0.743478 0.937408 0.999748 0.920304 0.709005 0.394943 0.022619 0.354209 0.680222 0.906690 0.998904 0.941717 0.742285 0.429506 0.050091 0.338224 0.675380 0.908312 0.999472 0.933099 0.718235 0.387836 0.005999 0.400070 0.730113 0.941379 0.997862 0.888731 0.630699 0.265790 0.145195 0.532673 0.829995 0.985066 0.969670 0.784949 0.461811 0.056133 0.360705 0.714224 0.940232 0.996671 0.871750 0.586761 0.192809 0.237996 0.625625 0.896974 0.999807 0.913138 0.651873 0.264698 0.174682 0.581329 0.875488 0.998378 0.924245 0.666166 0.274182 0.173985 0.588169 0.883847 0.999543 0.909962 0.631930 0.221734 0.235924 0.645162 0.919028 0.998171 0.864082 0.543861 0.105239 0.357393 0.743093
1.000000 1.000000 1.000000 1.000000 1.000000 1.000000 1.000000 1.000000 1.000000 1.000000 1.000000 1.000000 1.000000 1.000000 1.000000 1.000000 1.000000 1.000000 1.000000 1.000000 1.000000 1.000000 1.000000 1.000000 1.000000 1.000000 1.000000 1.000000 1.000000 1.000000 1.000000 1.000000 1.000000 1.000000 1.000000 1.000000 1.000000 1.000000 1.000000 1.000000 1.000000 1.000000 1.000000 1.000000 1.000000 1.000000 1.000000 1.000000 1.000000 1.000000 1.000000 1.000000 0.934649 0.934649 0.934649 0.934649 0.934649 0.934649 0.934649 0.934649 0.934649 0.934649 0.934649 0.934649 0.934649 0.934649 0.934649 0.934649 0.934649 0.934649 0.934649 0.934649 0.934649 0.934649 0.934649 0.934649 0.934649 0.934649 0.934649 0.934649 0.934649 0.934649 0.934649 0.934649 0.934649 0.922775 0.920731 0.923518 0.924471 0.924366 0.923901 0.923631 0.923932 0.925402 0.927198 0.948519 0.950794 0.951388 0.952527 0.952593 0.955218 0.953569 0.958289 0.968975 0.968340 0.969261 0.963750 0.964511 0.964187 0.963649 0.965492 0.965131 0.963900 0.962432 0.961315 0.961015 0.960808 0.962342 0.962785 0.963101 0.963446 0.963422 0.963339 0.961019 0.958701 0.961153 0.960591 0.959492 0.964947 0.963653 0.965663 0.965664 0.966341 0.967158 0.967374 0.967545 0.961966 0.960916 0.959330 0.945431 0.939808 0.936514 0.939181 0.942141 0.939496 0.934505 0.932703 0.935029 0.927158 0.926669 0.917513 0.916501 0.901201 0.894192 0.884467 0.886008 0.887347 0.887808 0.885066 0.874334 0.863545 0.860264 0.863909 0.857300 0.854000 0.870112 0.866015 0.868196 0.871057 0.872902 0.878690 0.870981 0.866152 0.861864 0.857793 0.856512 0.858780 0.862199 0.864224 0.858641 0.850684 0.854186 0.846679 0.846603 0.852007 0.851878 0.845661 0.842625 0.843440 0.844411 0.839964 0.845790 0.833121 0.828693 0.828697 0.824444 0.821938 0.814872 0.814104 0.814948 0.818059 0.806444 0.811974 0.777422 0.789263 0.783260 0.791865 0.791279 0.784939 0.786068 0.767190 0.757053 0.753394 0.765321 0.776432 0.758321 0.755178 0.751032 0.730079 0.737408 0.745768 0.739508 0.735083 0.721570 0.731855 0.731537 0.733797 0.725425 0.706216 0.711553 0.722619 0.729758 0.705884 0.700327 0.694623 0.698821 0.696581 0.688202 0.696321 0.666042 0.656470 0.625147 0.622794 0.636669 0.627045 0.602178 0.586166 0.539427 0.539460 0.538533 0.537066 0.517556 0.519492 0.504796 0.509686 0.539853 0.525441 0.540237 0.543568 0.537666 0.551455 0.441106 0.448619 0.426807 0.427388 0.435742 0.428429 0.395484 0.408396 0.411185 0.422484 0.412009 0.397154 0.414642 0.399206 0.399445 0.415359 0.394873 0.387740 0.398011 0.412135 0.412381 0.400595 0.393500 0.400396 0.417371 0.358003 0.347709 0.371495 0.325864 0.319055 0.294308 0.311203 0.296631 0.315425 0.304231 0.312129 0.320181 0.281162 0.297203 0.280252 0.305371 0.313785 0.310518 0.288720 0.285351 0.302511 0.232359 0.242584 0.271984 0.258336 0.325334 0.268966 0.265052 0.182244 0.242408 0.216812 0.228808 0.200002 0.155915 0.147821 0.147641 0.123175 0.120543 0.124675 0.109662 0.081213 0.036170 0.040914 0.033143 0.044167 0.058755 0.030407 0.027401 0.027401 0.027401 0.027401 0.005403 0.005403 0.005403 0.005403 0.005403 0.005403 0.005403 0.005403 0.005403 0.005403 0.005403 0.005403 0.005403 0.005403 -0.096889 -0.096889 -0.096889 -0.096889 -0.096889 -0.096889 -0.096889 -0.096889 -0.096889 -0.096889 -0.096889 -0.096889
0.000000 0.000000 0.000000 0.000000 0.000000 0.000000 0.000000 0.000000 0.000000 0.000000 0.000000 0.000000 0.000000 0.000000 0.000000 0.000000 0.000000 0.000000 0.000000 0.000000 0.000000 0.000000 0.000000 0.000000 0.000000 7.000000 4.000000 0.000000 0.000000 0.000000 0.000000 0.000000 0.000000 0.000000 0.000000 0.000000 0.000000 0.000000 0.000000 0.000000 0.000000 0.000000 0.000000 0.000000 0.000000 0.000000 0.000000 0.000000 0.000000 0.000000 0.000000 0.000000 0.209657 0.209657 0.209657 0.209657 0.209657 0.209657 0.209657 0.209657 0.209657 0.209657 0.209657 0.209657 0.209657 0.209657 0.209657 0.209657 0.209657 0.209657 0.209657 0.209657 0.209657 0.209657 0.209657 0.209657 0.209657 0.209657 0.209657 0.209657 0.209657 0.209657 0.209657 0.209657 0.209657 0.244339 0.244339 0.244339 0.244339 0.244339 0.244339 0.244339 0.244339 0.244339 0.244339 0.244339 0.244339 0.244339 0.244339 0.244339 0.244339 0.244339 0.244339 0.244339 0.244339 0.244339 0.244339 0.244339 0.244339 0.244339 0.260378 0.260378 0.260378 0.260378 0.260378 0.260378 0.260378 0.260378 0.260378 0.260378 0.260378 0.260378 0.260378 0.260378 0.260378 0.260378 0.260378 0.260378 0.260378 0.260378 0.269680 0.269680 0.269680 0.269680 0.269680 0.269680 0.269680 0.269680 0.269680 0.269680 0.269680 0.269680 0.269680 0.269680 0.269680 0.269680 0.269680 0.269680 0.269680 0.269680 0.269680 0.269680 0.269680 0.269680 0.269680 0.269680 0.269680 0.269680 0.269680 0.269680 0.269680 0.269680 0.269680 0.280056 0.280056 0.280056 0.280056 0.280056 0.280056 0.280056 0.280056 0.280056 0.280056 0.280056 0.280056 0.280056 0.280056 0.280056 0.280056 0.280056 0.280056 0.280056 0.280056 0.280056 0.280056 0.280056 0.280056 0.280056 0.280056 0.280056 0.285714 0.285714 0.285714 0.285714 0.285714 0.285714 0.285714 0.285714 0.285714 0.285714 0.285714 0.285714 0.274721 0.274721 0.274721 0.274721 0.274721 0.274721 0.274721 0.274721 0.274721 0.274721 0.274721 0.274721 0.280056 0.280056 0.280056 0.280056 0.280056 0.280056 0.280056 0.280056 0.280056 0.280056 0.280056 0.285714 0.285714 0.285714 0.285714 0.285714 0.285714 0.285714 0.285714 0.285714 0.285714 0.280056 0.280056 0.280056 0.280056 0.280056 0.280056 0.280056 0.280056 0.280056 0.280056 0.274721 0.274721 0.274721 0.274721 0.274721 0.274721 0.274721 0.274721 0.274721 0.274721 0.280056 0.280056 0.280056 0.280056 0.280056 0.280056 0.280056 0.280056 0.280056 0.274721 0.274721 0.274721 0.274721 0.274721 0.274721 0.274721 0.274721 0.274721 0.269680 0.269680 0.269680 0.269680 0.269680 0.269680 0.269680 0.269680 0.269680 0.280056 0.280056 0.280056 0.280056 0.280056 0.280056 0.280056 0.280056 0.260378 0.260378 0.260378 0.260378 0.260378 0.260378 0.260378 0.260378 0.260378 0.269680 0.269680 0.269680 0.269680 0.269680 0.269680 0.269680 0.269680 0.285714 0.285714 0.285714 0.285714 0.285714 0.285714 0.285714 0.264906 0.264906 0.264906 0.264906 0.264906 0.264906 0.264906 0.264906 0.274721 0.274721 0.274721 0.274721 0.274721 0.274721 0.274721 0.256074 0.256074 0.256074 0.256074 0.256074 0.256074 0.256074 0.256074 0.264906 0.264906 0.264906 0.264906 0.264906 0.264906 0.264906 0.264906 0.264906 0.264906 0.264906 0.264906 0.264906 0.264906 0.280056 0.280056 0.280056 0.280056 0.280056 0.280056 0.280056 0.280056 0.280056 0.280056 0.280056 0.280056
