# Output from CTFFind version 4.1.9, run on 2019-11-03 20:09:34
# Input file: stack6_bm3d_averaged_1_7.5_0_2500_half.mrc ; Number of micrographs: 1
# Pixel size: 3.000 Angstroms ; acceleration voltage: 300.0 keV ; spherical aberration: 0.00 mm ; amplitude contrast: 0.07
# Box size: 512 pixels ; min. res.: 30.0 Angstroms ; max. res.: 5.0 Angstroms ; min. def.: 5000.0 um; max. def. 50000.0 um; num. frames averaged: 1
# 6 lines per micrograph: #1 - spatial frequency (1/Angstroms); #2 - 1D rotational average of spectrum (assuming no astigmatism); #3 - 1D rotational average of spectrum; #4 - CTF fit; #5 - cross-correlation between spectrum and CTF fit; #6 - 2sigma of expected cross correlation of noise
0.000000 0.000651 0.001302 0.001953 0.002604 0.003255 0.003906 0.004557 0.005208 0.005859 0.006510 0.007161 0.007812 0.008464 0.009115 0.009766 0.010417 0.011068 0.011719 0.012370 0.013021 0.013672 0.014323 0.014974 0.015625 0.016276 0.016927 0.017578 0.018229 0.018880 0.019531 0.020182 0.020833 0.021484 0.022135 0.022786 0.023438 0.024089 0.024740 0.025391 0.026042 0.026693 0.027344 0.027995 0.028646 0.029297 0.029948 0.030599 0.031250 0.031901 0.032552 0.033203 0.033854 0.034505 0.035156 0.035807 0.036458 0.037109 0.037760 0.038411 0.039062 0.039714 0.040365 0.041016 0.041667 0.042318 0.042969 0.043620 0.044271 0.044922 0.045573 0.046224 0.046875 0.047526 0.048177 0.048828 0.049479 0.050130 0.050781 0.051432 0.052083 0.052734 0.053385 0.054036 0.054688 0.055339 0.055990 0.056641 0.057292 0.057943 0.058594 0.059245 0.059896 0.060547 0.061198 0.061849 0.062500 0.063151 0.063802 0.064453 0.065104 0.065755 0.066406 0.067057 0.067708 0.068359 0.069010 0.069661 0.070312 0.070964 0.071615 0.072266 0.072917 0.073568 0.074219 0.074870 0.075521 0.076172 0.076823 0.077474 0.078125 0.078776 0.079427 0.080078 0.080729 0.081380 0.082031 0.082682 0.083333 0.083984 0.084635 0.085286 0.085938 0.086589 0.087240 0.087891 0.088542 0.089193 0.089844 0.090495 0.091146 0.091797 0.092448 0.093099 0.093750 0.094401 0.095052 0.095703 0.096354 0.097005 0.097656 0.098307 0.098958 0.099609 0.100260 0.100911 0.101562 0.102214 0.102865 0.103516 0.104167 0.104818 0.105469 0.106120 0.106771 0.107422 0.108073 0.108724 0.109375 0.110026 0.110677 0.111328 0.111979 0.112630 0.113281 0.113932 0.114583 0.115234 0.115885 0.116536 0.117188 0.117839 0.118490 0.119141 0.119792 0.120443 0.121094 0.121745 0.122396 0.123047 0.123698 0.124349 0.125000 0.125651 0.126302 0.126953 0.127604 0.128255 0.128906 0.129557 0.130208 0.130859 0.131510 0.132161 0.132812 0.133464 0.134115 0.134766 0.135417 0.136068 0.136719 0.137370 0.138021 0.138672 0.139323 0.139974 0.140625 0.141276 0.141927 0.142578 0.143229 0.143880 0.144531 0.145182 0.145833 0.146484 0.147135 0.147786 0.148438 0.149089 0.149740 0.150391 0.151042 0.151693 0.152344 0.152995 0.153646 0.154297 0.154948 0.155599 0.156250 0.156901 0.157552 0.158203 0.158854 0.159505 0.160156 0.160807 0.161458 0.162109 0.162760 0.163411 0.164062 0.164714 0.165365 0.166016 0.166667 0.167318 0.167969 0.168620 0.169271 0.169922 0.170573 0.171224 0.171875 0.172526 0.173177 0.173828 0.174479 0.175130 0.175781 0.176432 0.177083 0.177734 0.178385 0.179036 0.179688 0.180339 0.180990 0.181641 0.182292 0.182943 0.183594 0.184245 0.184896 0.185547 0.186198 0.186849 0.187500 0.188151 0.188802 0.189453 0.190104 0.190755 0.191406 0.192057 0.192708 0.193359 0.194010 0.194661 0.195312 0.195964 0.196615 0.197266 0.197917 0.198568 0.199219 0.199870 0.200521 0.201172 0.201823 0.202474 0.203125 0.203776 0.204427 0.205078 0.205729 0.206380 0.207031 0.207682 0.208333 0.208984 0.209635 0.210286 0.210938 0.211589 0.212240 0.212891 0.213542 0.214193 0.214844 0.215495 0.216146 0.216797 0.217448 0.218099 0.218750 0.219401 0.220052 0.220703 0.221354 0.222005 0.222656 0.223307 0.223958 0.224609 0.225260 0.225911 0.226562 0.227214 0.227865 0.228516 0.229167 0.229818 0.230469 0.231120 0.231771 0.232422 0.233073 0.233724 0.234375 0.235026 0.235677
       0.33300        0.33300        0.33300        0.33300        0.33300        0.33300        0.33300        0.33300        0.33300        0.33300        0.33300        0.33300        0.33300        0.33300        0.33300        0.33300        0.33300        0.33300        0.33300        0.33300        0.33300        0.33300        0.33300        0.33300        0.33300        0.33300        0.33300        0.33300        0.33300        0.33300        0.33300        0.33300        0.33300        0.33300        0.33300        0.33300        0.33300        0.33300        0.33300        0.33300        0.33300        0.33300        0.33300        0.33300        0.33300        0.33300        0.33300        0.33300        0.33300        0.33300        0.33300        0.59607        0.70878        0.36602        0.17272        0.13983       -0.12809        0.11318        0.04174        0.04408        0.09410        0.30990        0.30707        0.23621        0.14211       -0.03703       -0.00941        0.05248       -0.08864       -0.09518       -0.06813       -0.07434       -0.17244       -0.10944       -0.21859       -0.23781       -0.23610       -0.29426       -0.36484       -0.29372       -0.20278       -0.16706       -0.27443       -0.19969       -0.23922       -0.18049       -0.12128       -0.06267       -0.03476        0.02046        0.06922        0.15204        0.19305        0.23542        0.34721        0.41209        0.36211        0.48417        0.54584        0.55427        0.63006        0.55430        0.58436        0.60460        0.60481        0.59431        0.56024        0.59691        0.54180        0.39946        0.35542        0.37825        0.34454        0.21329        0.20486        0.17470        0.11808        0.11567        0.04390        0.11132        0.08901        0.05656        0.13728        0.19185        0.27856        0.34941        0.36696        0.39923        0.44909        0.48188        0.42318        0.63757        0.55076        0.48234        0.56980        0.50403        0.55925        0.51771        0.39153        0.32948        0.31551        0.26990        0.25984        0.21645        0.19859        0.17697        0.26869        0.24669        0.26571        0.23650        0.27587        0.33939        0.33884        0.45086        0.44635        0.43305        0.41863        0.48251        0.43659        0.41710        0.40849        0.39765        0.33698        0.28412        0.28387        0.27244        0.27097        0.21629        0.20564        0.25363        0.27051        0.29106        0.35198        0.38715        0.42799        0.41785        0.42983        0.49160        0.47555        0.43086        0.38342        0.41889        0.38290        0.33169        0.34139        0.33252        0.27449        0.28541        0.28189        0.25821        0.32201        0.30113        0.32024        0.34017        0.40013        0.42350        0.41342        0.44229        0.39178        0.43453        0.40759        0.33618        0.30209        0.27719        0.28773        0.26003        0.22902        0.31539        0.37805        0.33973        0.31208        0.36793        0.29435        0.35285        0.40425        0.38932        0.36660        0.38055        0.34929        0.36403        0.33630        0.30832        0.28965        0.27148        0.32307        0.33457        0.35432        0.36874        0.39084        0.37304        0.36925        0.32805        0.35800        0.36618        0.34673        0.33079        0.29188        0.29013        0.27253        0.34204        0.33795        0.35082        0.31971        0.35108        0.37375        0.34035        0.35811        0.35081        0.31651        0.31344        0.31087        0.28377        0.27429        0.26473        0.25589        0.27653        0.26926        0.30543        0.27677        0.31836        0.36204        0.26521        0.29701        0.28392        0.25061        0.30542        0.28795        0.28901        0.31545        0.33023        0.33102        0.31835        0.31731        0.31431        0.36346        0.36074        0.30410        0.32841        0.32048        0.37070        0.28117        0.27989        0.29710        0.30826        0.33379        0.36785        0.35907        0.29820        0.23406        0.29908        0.26942        0.26057        0.26197        0.27765        0.31064        0.24022        0.30755        0.33376        0.36872        0.31160        0.31782        0.28546        0.29586        0.29213        0.26831        0.29088        0.27148        0.28641        0.35340        0.34984        0.28596        0.32643        0.33098        0.26294        0.23190        0.18954        0.33347        0.32939        0.36165        0.34698        0.29427        0.23233        0.22155        0.27853        0.27260        0.27196        0.29449        0.29370        0.24759        0.28339        0.28441        0.31019        0.28299        0.28077        0.27567        0.24768        0.23318        0.28968        0.25184        0.21705        0.26197        0.25857        0.26394        0.22654        0.20617        0.27306        0.30382        0.27984        0.20350        0.14723        0.28974        0.22717        0.26007        0.27483        0.16774        0.16267        0.20335        0.24297        0.30196        0.09422       -0.11570       -0.60931       -0.96945
2.427647 2.407084 2.386612 2.366231 2.345941 2.325742 2.305633 2.285616 2.265690 2.245855 2.226111 2.206458 2.186896 2.167425 2.148045 2.128756 2.109557 2.090450 2.071434 2.052509 2.033675 2.014931 1.996279 1.977718 1.959248 1.940869 1.922580 1.904383 1.886277 1.868262 1.850337 1.832504 1.814762 1.797111 1.779550 1.762081 1.744703 1.727415 1.710219 1.693113 1.676099 1.659176 1.642343 1.625602 1.608952 1.592392 1.575924 1.559546 1.543260 1.527064 1.510960 1.868766 2.210925 1.535327 1.331479 1.106405 0.519524 0.936347 0.804130 0.847467 0.701314 1.427425 1.195638 1.212709 0.988432 0.596038 0.470125 0.748583 0.604540 0.284384 0.271498 0.488529 0.248807 0.266580 0.110551 -0.002029 -0.016468 -0.009143 -0.320885 -0.142663 0.013359 0.011097 -0.080803 -0.013578 -0.103784 -0.082695 0.069377 0.199017 0.261321 0.281894 0.388292 0.633950 0.564727 0.671475 0.830463 1.065823 0.807332 1.272804 1.197710 1.274656 1.374198 1.265243 1.163806 1.378358 1.241844 1.348836 1.208913 1.209598 1.224530 0.966510 0.718454 0.751384 0.798329 0.483846 0.450307 0.373717 0.241941 0.198450 0.035154 0.236725 0.175829 0.062097 0.142977 0.240169 0.365944 0.608471 0.611643 0.631962 0.698152 0.881890 0.595479 1.030026 1.056383 0.776845 0.928263 0.772253 0.891098 0.921692 0.653781 0.409530 0.440240 0.388666 0.223344 0.246291 0.162665 -0.014933 0.254671 0.234946 0.262898 0.158595 0.249224 0.334977 0.277178 0.502548 0.604496 0.557170 0.367445 0.650771 0.562538 0.418111 0.542949 0.434948 0.267490 0.311999 0.139533 0.216276 0.025482 0.216051 -0.054114 0.057651 0.067010 0.259836 0.048418 0.400106 0.351152 0.405882 0.380480 0.419686 0.591839 0.410459 0.345388 0.399722 0.197326 0.363391 0.107445 0.268706 0.065000 0.090563 0.080845 0.062028 0.046056 0.158247 0.057585 0.159014 0.242251 0.287364 0.329806 0.264120 0.345422 0.264016 0.293756 0.187698 0.104693 0.019496 -0.006993 0.017557 -0.063724 -0.071681 0.127203 0.219428 0.053230 0.108631 0.130464 0.007984 0.191486 0.259896 0.188679 0.180454 0.129938 0.169624 0.105241 0.096848 0.046115 -0.086998 -0.001392 0.133344 0.054863 0.155193 0.136172 0.222120 0.179162 0.153407 0.107504 0.187909 0.101069 0.145176 0.091714 0.008332 -0.011715 -0.012170 0.129392 0.122336 0.132321 0.060491 0.152474 0.163564 0.044599 0.145484 0.054379 -0.008611 0.028252 0.008564 -0.059900 -0.061110 -0.116965 -0.048748 -0.052768 -0.097770 0.010448 -0.049224 0.045098 0.104212 -0.114313 0.022483 -0.052101 -0.096469 0.050014 -0.023532 -0.060943 0.044270 0.100213 0.031112 0.058523 -0.044857 0.026893 0.205190 0.010673 -0.048359 0.080228 0.041131 0.112443 -0.111234 -0.047804 -0.005659 0.044822 0.060264 0.102148 0.131818 -0.050212 -0.110316 0.008936 -0.062282 -0.065589 -0.047025 -0.044975 0.053688 -0.176164 0.128164 0.132157 0.185014 0.037893 0.057055 0.034273 0.030548 0.095029 -0.024375 0.040925 0.010637 0.053189 0.144307 0.192077 0.043791 0.168007 0.169997 -0.039756 -0.009900 -0.160404 0.238542 0.135051 0.215452 0.174253 0.029426 -0.061651 -0.091348 0.018762 0.011410 -0.018612 0.049349 0.049531 -0.079809 0.017386 0.112110 0.069392 0.036944 0.007404 0.057277 -0.107540 -0.015084 0.058509 -0.032323 -0.121169 0.038872 -0.011010 -0.040799 -0.037606 -0.117659 0.082236 0.122022 -0.002627 -0.092825 -0.347745 0.183179 0.511830 0.453430 0.576216 0.263704 0.323871 0.411574 0.511802 0.580095 0.043693 0.018762 -0.932668
0.072396 0.072838 0.074163 0.076371 0.079462 0.083435 0.088289 0.094022 0.100634 0.108122 0.116484 0.125716 0.135815 0.146776 0.158594 0.171262 0.184772 0.199116 0.214282 0.230259 0.247032 0.264586 0.282903 0.301961 0.321739 0.342209 0.363344 0.385111 0.407474 0.430396 0.453833 0.477738 0.502061 0.526747 0.551735 0.576960 0.602354 0.627843 0.653346 0.678779 0.704051 0.729069 0.753731 0.777931 0.801559 0.824499 0.846629 0.867825 0.887956 0.906890 0.924488 0.940610 0.955112 0.967851 0.978680 0.987451 0.994019 0.998237 0.999964 0.999060 0.995388 0.988821 0.979236 0.966518 0.950564 0.931282 0.908590 0.882425 0.852736 0.819493 0.782682 0.742313 0.698416 0.651047 0.600285 0.546238 0.489041 0.428857 0.365881 0.300336 0.232478 0.162594 0.091002 0.018050 0.055883 0.130388 0.205031 0.279348 0.352856 0.425047 0.495396 0.563366 0.628407 0.689964 0.747479 0.800402 0.848190 0.890315 0.926273 0.955588 0.977820 0.992569 0.999485 0.998277 0.988713 0.970632 0.943948 0.908657 0.864842 0.812675 0.752424 0.684454 0.609231 0.527317 0.439375 0.346165 0.248540 0.147440 0.043885 0.061028 0.166143 0.270251 0.372106 0.470437 0.563965 0.651424 0.731572 0.803218 0.865233 0.916578 0.956321 0.983654 0.997916 0.998607 0.985407 0.958192 0.917039 0.862242 0.794319 0.714007 0.622269 0.520285 0.409446 0.291336 0.167716 0.040506 0.088250 0.216406 0.341757 0.462066 0.575119 0.678750 0.770902 0.849658 0.913296 0.960323 0.989521 0.999980 0.991137 0.962795 0.915150 0.848800 0.764752 0.664419 0.549605 0.422480 0.285552 0.141622 0.006269 0.154897 0.300927 0.440980 0.571721 0.689935 0.792613 0.877034 0.940842 0.982127 0.999484 0.992074 0.959665 0.902665 0.822136 0.719788 0.597962 0.459586 0.308120 0.147478 0.018066 0.183983 0.345614 0.498297 0.637510 0.759000 0.858929 0.934004 0.981593 0.999836 0.987727 0.945176 0.873050 0.773168 0.648289 0.502048 0.338864 0.163824 0.017463 0.199040 0.374797 0.538674 0.684877 0.808085 0.903659 0.967832 0.997874 0.992225 0.950588 0.873990 0.764777 0.626575 0.464192 0.283467 0.091080 0.105682 0.299199 0.481803 0.646095 0.785242 0.893285 0.965408 0.998170 0.989698 0.939809 0.850073 0.723801 0.565943 0.382939 0.182460 0.026882 0.235900 0.435226 0.615737 0.768976 0.887568 0.965597 0.998919 0.985421 0.925170 0.820481 0.675864 0.497862 0.294798 0.076395 0.146661 0.363236 0.562304 0.733521 0.867767 0.957665 0.998014 0.986118 0.922006 0.808499 0.651135 0.457938 0.239048 0.006209 0.227834 0.450029 0.647754 0.809529 0.925727 0.989163 0.995583 0.943987 0.836772 0.679681 0.481538 0.253798 0.009912 0.235431 0.467203 0.670938 0.833664 0.944749 0.996643 0.985427 0.911160 0.777971 0.593885 0.370404 0.121820 0.135662 0.384967 0.609279 0.793179 0.923751 0.991510 0.991152 0.922021 0.788260 0.598637 0.366026 0.106581 0.161341 0.418481 0.646035 0.827068 0.947796 0.998685 0.975268 0.878586 0.715243 0.497021 0.240102 0.036101 0.310362 0.561273 0.768927 0.916516 0.991754 0.987952 0.904681 0.747947 0.529842 0.267673 0.017345 0.301778 0.561874 0.775578 0.924413 0.995148 0.981031 0.882517 0.707374 0.470168 0.191118 0.105567 0.393759 0.647693 0.844311 0.965377 0.999256 0.942097 0.798357 0.580554 0.308267 0.006448 0.296823 0.572914 0.795383 0.942524 0.999570 0.960250 0.827572 0.613716 0.339009 0.030078 0.282680 0.568056 0.797160 0.946401 0.999962
1.000000 1.000000 1.000000 1.000000 1.000000 1.000000 1.000000 1.000000 1.000000 1.000000 1.000000 1.000000 1.000000 1.000000 1.000000 1.000000 1.000000 1.000000 1.000000 1.000000 1.000000 1.000000 1.000000 1.000000 1.000000 1.000000 1.000000 1.000000 1.000000 1.000000 1.000000 1.000000 1.000000 1.000000 1.000000 1.000000 1.000000 1.000000 1.000000 1.000000 1.000000 1.000000 1.000000 1.000000 1.000000 1.000000 1.000000 1.000000 1.000000 1.000000 1.000000 1.000000 0.771325 0.771325 0.771325 0.771325 0.771325 0.771325 0.771325 0.759921 0.759921 0.759921 0.759921 0.759921 0.759921 0.759921 0.759921 0.759921 0.759921 0.759921 0.759921 0.759921 0.759921 0.759921 0.759921 0.759921 0.759921 0.759921 0.759921 0.759921 0.759921 0.759921 0.759921 0.759921 0.759921 0.759921 0.759921 0.759921 0.759921 0.759921 0.759921 0.759921 0.759921 0.759921 0.759921 0.759921 0.759921 0.759921 0.759921 0.759921 0.759921 0.759921 0.759921 0.900294 0.901761 0.904817 0.900235 0.902166 0.900008 0.893575 0.896503 0.897123 0.896935 0.897724 0.899374 0.901375 0.908709 0.917617 0.919502 0.926485 0.929922 0.929907 0.931426 0.930049 0.937530 0.935043 0.933276 0.921372 0.924770 0.926665 0.925672 0.924512 0.921335 0.927103 0.925697 0.923617 0.918331 0.914407 0.912490 0.914130 0.911889 0.912471 0.912652 0.913578 0.911764 0.912563 0.908717 0.909659 0.908558 0.905005 0.901979 0.901689 0.903066 0.901376 0.898006 0.891753 0.897726 0.897892 0.897285 0.896194 0.896404 0.897198 0.897970 0.898635 0.896190 0.896242 0.893700 0.895482 0.892055 0.887394 0.881316 0.881654 0.884097 0.891127 0.893123 0.891752 0.888880 0.880444 0.869872 0.867781 0.856287 0.821602 0.823595 0.827453 0.829493 0.829910 0.828909 0.825114 0.820927 0.812848 0.804023 0.808793 0.809304 0.802037 0.798040 0.798965 0.799776 0.807139 0.810815 0.802658 0.799433 0.801903 0.797888 0.799066 0.803049 0.795958 0.792940 0.799826 0.807953 0.807979 0.792373 0.788122 0.785568 0.773577 0.780740 0.787272 0.786635 0.788069 0.785075 0.773290 0.771913 0.765210 0.776090 0.783197 0.782471 0.777502 0.760632 0.717122 0.702652 0.668570 0.666832 0.668440 0.634668 0.634905 0.636400 0.640543 0.584412 0.561077 0.546945 0.547908 0.557021 0.562112 0.555757 0.529342 0.546945 0.543304 0.528806 0.524746 0.506356 0.492767 0.475246 0.477713 0.476943 0.469442 0.438150 0.439489 0.459432 0.468544 0.463702 0.459853 0.432109 0.411679 0.411243 0.403493 0.403253 0.409523 0.418070 0.360555 0.337351 0.323777 0.352587 0.350596 0.348817 0.367520 0.360376 0.353744 0.328652 0.308011 0.277849 0.290481 0.311119 0.314545 0.318118 0.286583 0.277439 0.262181 0.266259 0.311377 0.300619 0.323597 0.329173 0.334188 0.359034 0.332360 0.308846 0.287032 0.329652 0.337528 0.308097 0.301907 0.316248 0.329330 0.328370 0.324232 0.318961 0.365475 0.369177 0.347438 0.347718 0.314951 0.334952 0.365886 0.363851 0.369931 0.380024 0.386112 0.349252 0.273749 0.244655 0.248107 0.224861 0.224785 0.211032 0.196092 0.188143 0.200489 0.222190 0.228250 0.260340 0.228907 0.183667 0.093276 0.160009 0.076510 0.091239 0.091239 0.091239 0.091239 0.091239 0.091239 0.091239 0.091239 0.127885 0.127885 0.127885 0.127885 0.127885 0.127885 0.127885 0.127885 0.127885 0.127885 0.127885 0.127885 0.127885 0.127885 0.127885 0.127885 0.127885 0.127885 0.127885 0.127885 0.127885
0.000000 0.000000 0.000000 0.000000 0.000000 0.000000 0.000000 0.000000 0.000000 0.000000 0.000000 0.000000 0.000000 0.000000 0.000000 0.000000 0.000000 0.000000 0.000000 0.000000 0.000000 0.000000 0.000000 0.000000 0.000000 0.000000 0.000000 0.000000 0.000000 0.000000 0.000000 0.000000 0.000000 0.000000 0.000000 0.000000 0.000000 0.000000 0.000000 0.000000 0.000000 0.000000 0.000000 0.000000 0.000000 0.000000 0.000000 0.000000 0.000000 0.000000 0.000000 0.000000 0.173422 0.173422 0.173422 0.173422 0.173422 0.173422 0.173422 0.191565 0.191565 0.191565 0.191565 0.191565 0.191565 0.191565 0.191565 0.191565 0.191565 0.191565 0.191565 0.191565 0.191565 0.191565 0.191565 0.191565 0.191565 0.191565 0.191565 0.191565 0.191565 0.191565 0.191565 0.191565 0.191565 0.191565 0.191565 0.191565 0.191565 0.191565 0.191565 0.191565 0.191565 0.191565 0.191565 0.191565 0.191565 0.191565 0.191565 0.191565 0.191565 0.191565 0.191565 0.222222 0.222222 0.222222 0.222222 0.222222 0.222222 0.222222 0.222222 0.222222 0.222222 0.222222 0.222222 0.222222 0.222222 0.222222 0.222222 0.222222 0.222222 0.222222 0.222222 0.222222 0.222222 0.222222 0.222222 0.222222 0.222222 0.222222 0.222222 0.222222 0.222222 0.234082 0.234082 0.234082 0.234082 0.234082 0.234082 0.234082 0.234082 0.234082 0.234082 0.234082 0.234082 0.234082 0.234082 0.234082 0.234082 0.234082 0.234082 0.234082 0.234082 0.234082 0.234082 0.234082 0.234082 0.234082 0.244339 0.244339 0.244339 0.244339 0.244339 0.244339 0.244339 0.244339 0.244339 0.244339 0.244339 0.244339 0.244339 0.244339 0.244339 0.244339 0.244339 0.244339 0.244339 0.244339 0.244339 0.248069 0.248069 0.248069 0.248069 0.248069 0.248069 0.248069 0.248069 0.248069 0.248069 0.248069 0.248069 0.248069 0.248069 0.248069 0.248069 0.248069 0.248069 0.248069 0.256074 0.256074 0.256074 0.256074 0.256074 0.256074 0.256074 0.256074 0.256074 0.256074 0.256074 0.256074 0.256074 0.256074 0.256074 0.256074 0.256074 0.256074 0.256074 0.256074 0.256074 0.256074 0.256074 0.256074 0.256074 0.256074 0.256074 0.256074 0.256074 0.256074 0.256074 0.256074 0.256074 0.256074 0.256074 0.256074 0.256074 0.256074 0.256074 0.256074 0.256074 0.256074 0.256074 0.256074 0.256074 0.256074 0.256074 0.256074 0.256074 0.256074 0.256074 0.256074 0.256074 0.256074 0.256074 0.256074 0.256074 0.256074 0.256074 0.256074 0.256074 0.256074 0.260378 0.260378 0.260378 0.260378 0.260378 0.260378 0.260378 0.260378 0.260378 0.260378 0.260378 0.260378 0.260378 0.256074 0.256074 0.256074 0.256074 0.256074 0.256074 0.256074 0.256074 0.256074 0.256074 0.256074 0.256074 0.256074 0.260378 0.260378 0.260378 0.260378 0.260378 0.260378 0.260378 0.260378 0.260378 0.260378 0.260378 0.260378 0.251976 0.251976 0.251976 0.251976 0.251976 0.251976 0.251976 0.251976 0.251976 0.251976 0.251976 0.251976 0.256074 0.256074 0.256074 0.256074 0.256074 0.256074 0.256074 0.256074 0.256074 0.256074 0.256074 0.251976 0.251976 0.251976 0.251976 0.251976 0.251976 0.251976 0.251976 0.251976 0.251976 0.251976 0.260378 0.260378 0.260378 0.260378 0.260378 0.260378 0.260378 0.260378 0.260378 0.260378 0.244339 0.244339 0.244339 0.244339 0.244339 0.244339 0.244339 0.244339 0.244339 0.244339 0.244339 0.244339 0.244339 0.244339 0.244339 0.244339 0.244339 0.244339 0.244339 0.244339 0.244339
