# Output from CTFFind version 4.1.9, run on 2019-11-03 19:00:07
# Input file: stack1_bm3d_averaged_1_2.25_0_2500_half.mrc ; Number of micrographs: 1
# Pixel size: 3.000 Angstroms ; acceleration voltage: 300.0 keV ; spherical aberration: 0.00 mm ; amplitude contrast: 0.07
# Box size: 512 pixels ; min. res.: 30.0 Angstroms ; max. res.: 5.0 Angstroms ; min. def.: 5000.0 um; max. def. 50000.0 um; num. frames averaged: 1
# 6 lines per micrograph: #1 - spatial frequency (1/Angstroms); #2 - 1D rotational average of spectrum (assuming no astigmatism); #3 - 1D rotational average of spectrum; #4 - CTF fit; #5 - cross-correlation between spectrum and CTF fit; #6 - 2sigma of expected cross correlation of noise
0.000000 0.000651 0.001302 0.001953 0.002604 0.003255 0.003906 0.004557 0.005208 0.005859 0.006510 0.007161 0.007812 0.008464 0.009115 0.009766 0.010417 0.011068 0.011719 0.012370 0.013021 0.013672 0.014323 0.014974 0.015625 0.016276 0.016927 0.017578 0.018229 0.018880 0.019531 0.020182 0.020833 0.021484 0.022135 0.022786 0.023438 0.024089 0.024740 0.025391 0.026042 0.026693 0.027344 0.027995 0.028646 0.029297 0.029948 0.030599 0.031250 0.031901 0.032552 0.033203 0.033854 0.034505 0.035156 0.035807 0.036458 0.037109 0.037760 0.038411 0.039062 0.039714 0.040365 0.041016 0.041667 0.042318 0.042969 0.043620 0.044271 0.044922 0.045573 0.046224 0.046875 0.047526 0.048177 0.048828 0.049479 0.050130 0.050781 0.051432 0.052083 0.052734 0.053385 0.054036 0.054688 0.055339 0.055990 0.056641 0.057292 0.057943 0.058594 0.059245 0.059896 0.060547 0.061198 0.061849 0.062500 0.063151 0.063802 0.064453 0.065104 0.065755 0.066406 0.067057 0.067708 0.068359 0.069010 0.069661 0.070312 0.070964 0.071615 0.072266 0.072917 0.073568 0.074219 0.074870 0.075521 0.076172 0.076823 0.077474 0.078125 0.078776 0.079427 0.080078 0.080729 0.081380 0.082031 0.082682 0.083333 0.083984 0.084635 0.085286 0.085938 0.086589 0.087240 0.087891 0.088542 0.089193 0.089844 0.090495 0.091146 0.091797 0.092448 0.093099 0.093750 0.094401 0.095052 0.095703 0.096354 0.097005 0.097656 0.098307 0.098958 0.099609 0.100260 0.100911 0.101562 0.102214 0.102865 0.103516 0.104167 0.104818 0.105469 0.106120 0.106771 0.107422 0.108073 0.108724 0.109375 0.110026 0.110677 0.111328 0.111979 0.112630 0.113281 0.113932 0.114583 0.115234 0.115885 0.116536 0.117188 0.117839 0.118490 0.119141 0.119792 0.120443 0.121094 0.121745 0.122396 0.123047 0.123698 0.124349 0.125000 0.125651 0.126302 0.126953 0.127604 0.128255 0.128906 0.129557 0.130208 0.130859 0.131510 0.132161 0.132812 0.133464 0.134115 0.134766 0.135417 0.136068 0.136719 0.137370 0.138021 0.138672 0.139323 0.139974 0.140625 0.141276 0.141927 0.142578 0.143229 0.143880 0.144531 0.145182 0.145833 0.146484 0.147135 0.147786 0.148438 0.149089 0.149740 0.150391 0.151042 0.151693 0.152344 0.152995 0.153646 0.154297 0.154948 0.155599 0.156250 0.156901 0.157552 0.158203 0.158854 0.159505 0.160156 0.160807 0.161458 0.162109 0.162760 0.163411 0.164062 0.164714 0.165365 0.166016 0.166667 0.167318 0.167969 0.168620 0.169271 0.169922 0.170573 0.171224 0.171875 0.172526 0.173177 0.173828 0.174479 0.175130 0.175781 0.176432 0.177083 0.177734 0.178385 0.179036 0.179688 0.180339 0.180990 0.181641 0.182292 0.182943 0.183594 0.184245 0.184896 0.185547 0.186198 0.186849 0.187500 0.188151 0.188802 0.189453 0.190104 0.190755 0.191406 0.192057 0.192708 0.193359 0.194010 0.194661 0.195312 0.195964 0.196615 0.197266 0.197917 0.198568 0.199219 0.199870 0.200521 0.201172 0.201823 0.202474 0.203125 0.203776 0.204427 0.205078 0.205729 0.206380 0.207031 0.207682 0.208333 0.208984 0.209635 0.210286 0.210938 0.211589 0.212240 0.212891 0.213542 0.214193 0.214844 0.215495 0.216146 0.216797 0.217448 0.218099 0.218750 0.219401 0.220052 0.220703 0.221354 0.222005 0.222656 0.223307 0.223958 0.224609 0.225260 0.225911 0.226562 0.227214 0.227865 0.228516 0.229167 0.229818 0.230469 0.231120 0.231771 0.232422 0.233073 0.233724 0.234375 0.235026 0.235677
       0.34369        0.34369        0.34369        0.34369        0.34369        0.34369        0.34369        0.34369        0.34369        0.34369        0.34369        0.34369        0.34369        0.34369        0.34369        0.34369        0.34369        0.34369        0.34369        0.34369        0.34369        0.34369        0.34369        0.34369        0.34369        0.34369        0.34369        0.34369        0.34369        0.34369        0.34369        0.34369        0.34369        0.34369        0.34369        0.34369        0.34369        0.34369        0.34369        0.34369        0.34369        0.34369        0.34369        0.34369        0.34369        0.34369        0.34369        0.34369        0.34369        0.34369        0.34369        0.50789        0.72378        0.42711        0.20359       -0.06346       -0.24779       -0.05994       -0.11849       -0.06210        0.00793       -0.13930       -0.10266       -0.03203        0.01226       -0.14449       -0.21635       -0.32547       -0.46326       -0.57501       -0.52415       -0.45970       -0.36544       -0.55411       -0.44366       -0.60839       -0.49492       -0.46998       -0.39525       -0.36483       -0.32065       -0.22940       -0.15866       -0.12994        0.03394       -0.00953        0.12371        0.18494        0.32847        0.43250        0.48923        0.51599        0.55674        0.56762        0.71247        0.66464        0.69115        0.59522        0.56874        0.65755        0.53179        0.45697        0.41945        0.31064        0.25548        0.27898        0.26231        0.10856        0.09369        0.01278        0.00111        0.03339       -0.00821        0.07715        0.09545        0.22679        0.29100        0.30337        0.40990        0.57515        0.55800        0.57810        0.67560        0.68791        0.63919        0.65912        0.65088        0.54159        0.57067        0.39747        0.36843        0.28079        0.19364        0.09108        0.15217        0.12280        0.12550        0.13761        0.21363        0.19525        0.32188        0.35767        0.41245        0.50698        0.55933        0.55435        0.56668        0.61820        0.55163        0.48518        0.48822        0.33323        0.26695        0.26638        0.25891        0.16176        0.15925        0.16457        0.23822        0.27942        0.34673        0.39142        0.41884        0.45837        0.45401        0.48501        0.44691        0.48477        0.45089        0.39564        0.37083        0.38365        0.34836        0.30357        0.22101        0.23099        0.23555        0.28239        0.27075        0.35982        0.39283        0.37174        0.42255        0.45672        0.45029        0.43955        0.44217        0.35766        0.34836        0.29650        0.26347        0.30477        0.27369        0.30484        0.32103        0.35955        0.34079        0.41548        0.40345        0.44445        0.40429        0.46592        0.41952        0.38042        0.29189        0.29020        0.29354        0.28684        0.29022        0.35202        0.37046        0.34052        0.37031        0.38122        0.35865        0.42322        0.41342        0.37183        0.35908        0.30915        0.30772        0.32714        0.32041        0.32070        0.30555        0.34579        0.36750        0.38818        0.35536        0.34118        0.33716        0.35971        0.32637        0.30592        0.33242        0.33198        0.33204        0.33916        0.35033        0.37779        0.34098        0.33014        0.35499        0.32592        0.27857        0.26873        0.28611        0.31204        0.32551        0.36271        0.30248        0.31511        0.34039        0.30807        0.33567        0.30525        0.28935        0.28444        0.28517        0.29342        0.35020        0.32247        0.33575        0.31947        0.35595        0.35691        0.32343        0.33176        0.33782        0.28025        0.31517        0.33081        0.29525        0.34124        0.33351        0.33784        0.32598        0.35946        0.34952        0.29352        0.25354        0.29455        0.35577        0.36661        0.36206        0.31150        0.30895        0.30151        0.31264        0.27149        0.30482        0.31405        0.33977        0.31805        0.30627        0.27617        0.34873        0.33983        0.34203        0.29846        0.31121        0.32119        0.40574        0.35397        0.35235        0.34066        0.30955        0.29668        0.31902        0.32081        0.28863        0.23326        0.27748        0.31219        0.31350        0.30281        0.28537        0.26570        0.24748        0.24046        0.28727        0.32816        0.30963        0.32388        0.32617        0.36705        0.23887        0.20993        0.27344        0.26478        0.29092        0.30357        0.32870        0.27109        0.30059        0.27990        0.23772        0.28250        0.27938        0.23733        0.20251        0.26105        0.26359        0.23887        0.30721        0.28947        0.36148        0.34034        0.28887        0.29350        0.23200        0.27365        0.30440        0.27036        0.17197        0.22163        0.26180        0.20505        0.26465        0.18121        0.13060       -0.50587       -0.84504
2.708788 2.680066 2.651499 2.623089 2.594834 2.566734 2.538790 2.511002 2.483370 2.455893 2.428572 2.401406 2.374397 2.347542 2.320844 2.294301 2.267913 2.241682 2.215606 2.189685 2.163921 2.138312 2.112858 2.087560 2.062418 2.037432 2.012601 1.987926 1.963406 1.939042 1.914834 1.890781 1.866884 1.843143 1.819557 1.796127 1.772852 1.749734 1.726771 1.703963 1.681311 1.658815 1.636474 1.614290 1.592260 1.570387 1.548669 1.527106 1.505700 1.484449 1.463353 1.525001 1.838440 1.514022 1.197412 0.947692 0.549774 0.916182 0.647051 0.850810 0.919136 0.601597 0.679094 0.791496 0.833652 0.617272 0.530225 0.366072 0.093924 0.050762 0.031002 0.041374 0.297109 -0.044999 0.061653 -0.123464 -0.027324 -0.015146 0.052164 0.075897 0.111385 0.184651 0.278561 0.248697 0.469452 0.392137 0.540893 0.538341 0.788180 0.792983 0.895505 0.952494 0.932981 0.965404 1.127887 0.963628 1.146735 0.939162 0.860911 1.013677 0.843897 0.771204 0.664697 0.570521 0.464473 0.435723 0.504893 0.259692 0.204151 0.166336 0.012461 0.187494 -0.021918 0.119493 0.161728 0.241649 0.335487 0.340513 0.442752 0.549680 0.689003 0.527213 0.734590 0.840810 0.624193 0.725079 0.688162 0.575147 0.527495 0.452041 0.316352 0.218697 0.124060 -0.021223 -0.021070 0.044400 -0.066066 -0.039808 0.070900 0.030549 0.095075 0.216113 0.233171 0.319664 0.430023 0.434318 0.452248 0.452607 0.467837 0.339328 0.333677 0.240917 0.054809 0.068686 0.020833 -0.032066 -0.092329 -0.085528 -0.027374 -0.008584 0.087802 0.142367 0.157200 0.249847 0.221962 0.254922 0.269547 0.227430 0.235502 0.218188 0.131288 0.123485 0.133717 0.037237 0.023347 -0.103727 -0.025671 0.004019 0.002022 0.022567 0.116635 0.086210 0.133516 0.207236 0.272974 0.168547 0.212393 0.112918 0.139530 0.039161 -0.024631 0.022566 0.003419 0.014075 0.008536 0.069954 0.072936 0.076954 0.166816 0.139909 0.167452 0.110698 0.206772 0.107333 0.027595 -0.025134 -0.019321 -0.015497 -0.038369 -0.010064 0.087674 0.073403 0.003656 0.116225 0.092584 0.076275 0.168970 0.093453 0.100290 0.069477 -0.015896 0.037150 0.022744 0.025578 0.039203 0.026043 0.063136 0.081599 0.088235 0.055061 0.053786 0.014846 0.094799 0.007731 0.016298 0.039258 0.030363 0.058818 0.059187 0.068146 0.088262 0.044213 0.025308 0.056153 0.014075 -0.050020 -0.022918 -0.006122 0.002262 0.025258 0.103999 -0.023124 0.047664 0.059630 0.007787 0.060722 0.023111 -0.003404 0.005679 0.018990 0.018616 0.086255 0.021632 0.077905 0.049705 0.114857 0.085837 0.079984 0.088021 0.061814 0.000632 0.082938 0.066938 0.034280 0.115015 0.068090 0.045909 0.061562 0.096837 0.051478 0.014751 -0.062827 0.035064 0.113978 0.094159 0.085068 0.025042 0.016959 0.034558 0.029272 -0.037428 0.043677 0.034934 0.073559 0.066335 -0.020325 0.052087 0.013073 0.044868 0.028314 0.008375 -0.021752 0.069138 0.128526 0.040232 0.036046 0.064807 0.000286 -0.046661 0.009985 -0.006893 -0.055351 -0.108224 -0.037499 -0.026627 0.007379 -0.032504 -0.052325 -0.030052 -0.062480 -0.036356 -0.049492 0.053819 0.025783 0.029562 0.042208 0.112177 -0.086809 -0.069666 -0.009063 -0.036884 0.033097 0.010646 0.078753 -0.043511 0.015230 0.012268 -0.042955 0.021841 0.026603 -0.048512 -0.119071 -0.004512 0.025410 -0.040402 0.028668 0.014125 0.155346 0.060575 0.040431 0.048938 -0.038001 0.004773 0.330273 0.323509 0.212810 0.271735 0.288929 0.254998 0.299533 0.101632 0.161798 -0.994481
0.072396 0.072911 0.074453 0.077025 0.080623 0.085249 0.090900 0.097574 0.105270 0.113984 0.123713 0.134453 0.146197 0.158939 0.172670 0.187381 0.203061 0.219695 0.237267 0.255759 0.275150 0.295415 0.316527 0.338454 0.361160 0.384607 0.408749 0.433539 0.458921 0.484837 0.511220 0.538000 0.565098 0.592432 0.619909 0.647433 0.674899 0.702194 0.729201 0.755792 0.781836 0.807191 0.831711 0.855242 0.877625 0.898695 0.918280 0.936206 0.952295 0.966363 0.978229 0.987707 0.994613 0.998766 0.999985 0.998097 0.992934 0.984337 0.972157 0.956257 0.936515 0.912827 0.885106 0.853287 0.817330 0.777219 0.732968 0.684622 0.632258 0.575987 0.515958 0.452360 0.385420 0.315405 0.242628 0.167440 0.090236 0.011454 0.068428 0.148893 0.229387 0.309320 0.388073 0.464998 0.539428 0.610675 0.678046 0.740839 0.798362 0.849929 0.894881 0.932585 0.962449 0.983932 0.996552 0.999896 0.993633 0.977519 0.951413 0.915277 0.869193 0.813363 0.748117 0.673917 0.591360 0.501178 0.404236 0.301529 0.194176 0.083410 0.029431 0.142917 0.255546 0.365759 0.471963 0.572552 0.665934 0.750559 0.824942 0.887700 0.937571 0.973454 0.994429 0.999785 0.989050 0.962007 0.918715 0.859525 0.785084 0.696346 0.594563 0.481286 0.358338 0.227805 0.091997 0.046584 0.185283 0.321346 0.451970 0.574362 0.685805 0.783716 0.865713 0.929684 0.973841 0.996786 0.997559 0.975682 0.931194 0.864676 0.777265 0.670644 0.547032 0.409149 0.260168 0.103654 0.056517 0.216245 0.371307 0.517476 0.650628 0.766875 0.862674 0.934958 0.981238 0.999704 0.989309 0.949835 0.881931 0.787133 0.667852 0.527334 0.369591 0.199304 0.021693 0.157630 0.332833 0.498056 0.647603 0.776155 0.878964 0.952047 0.992355 0.997920 0.967972 0.903010 0.804833 0.676524 0.522379 0.347792 0.159079 0.036722 0.232113 0.419413 0.591067 0.739949 0.859678 0.944909 0.991591 0.997191 0.960851 0.883489 0.767815 0.618286 0.440956 0.243270 0.033769 0.178256 0.383181 0.571466 0.734123 0.863158 0.951980 0.995773 0.991789 0.939553 0.840956 0.700247 0.523885 0.320294 0.099474 0.127444 0.348765 0.552821 0.728597 0.866340 0.958135 0.998389 0.984220 0.915691 0.795911 0.630943 0.429547 0.202768 0.036649 0.274939 0.498120 0.692799 0.847006 0.950960 0.997726 0.983733 0.909089 0.777681 0.597047 0.377995 0.134009 0.119548 0.366378 0.590296 0.776294 0.911593 0.986541 0.995378 0.936721 0.813789 0.634307 0.410089 0.156313 0.109448 0.368436 0.602008 0.793009 0.927056 0.993675 0.987182 0.907237 0.759011 0.552936 0.304053 0.030970 0.245493 0.503859 0.723683 0.887191 0.980767 0.996156 0.931274 0.790527 0.584623 0.329837 0.046799 0.241132 0.509767 0.736124 0.900434 0.987925 0.990223 0.906244 0.742466 0.512543 0.236256 0.062108 0.355870 0.618292 0.825069 0.956603 0.999949 0.950179 0.811039 0.594796 0.321268 0.016090 0.291618 0.572011 0.797432 0.945175 0.999863 0.955150 0.814559 0.591355 0.307419 0.008809 0.325114 0.608751 0.829868 0.964696 0.998204 0.925887 0.754484 0.501493 0.193520 0.136428 0.452434 0.719554 0.907737 0.995279 0.971444 0.837912 0.608859 0.309594 0.026120 0.359789 0.652588 0.869889 0.985448 0.984685 0.866666 0.644503 0.344056 0.001063 0.343030 0.646032 0.870215 0.987090 0.981151 0.852091 0.615150 0.299487 0.055272 0.403909 0.701358 0.908571 0.997732 0.956148 0.788219 0.515193 0.172665 0.193965 0.535395 0.805057 0.965565 0.993992
1.000000 1.000000 1.000000 1.000000 1.000000 1.000000 1.000000 1.000000 1.000000 1.000000 1.000000 1.000000 1.000000 1.000000 1.000000 1.000000 1.000000 1.000000 1.000000 1.000000 1.000000 1.000000 1.000000 1.000000 1.000000 1.000000 1.000000 1.000000 1.000000 1.000000 1.000000 1.000000 1.000000 1.000000 1.000000 1.000000 1.000000 1.000000 1.000000 1.000000 1.000000 1.000000 1.000000 1.000000 1.000000 1.000000 1.000000 1.000000 1.000000 1.000000 1.000000 1.000000 0.913597 0.913597 0.902812 0.902812 0.902812 0.902812 0.902812 0.902812 0.902812 0.902812 0.902812 0.902812 0.902812 0.902812 0.902812 0.902812 0.902812 0.902812 0.902812 0.902812 0.902812 0.902812 0.902812 0.902812 0.902812 0.902812 0.902812 0.902812 0.902812 0.902812 0.902812 0.902812 0.902812 0.902812 0.902812 0.902812 0.902812 0.902812 0.902812 0.902812 0.902812 0.902812 0.902812 0.898329 0.903469 0.906028 0.904661 0.908208 0.908257 0.906359 0.905773 0.905438 0.905807 0.907253 0.917734 0.928711 0.939048 0.941104 0.946333 0.950536 0.953939 0.954742 0.958517 0.968801 0.966138 0.965692 0.966369 0.967753 0.969806 0.969990 0.971346 0.970602 0.971231 0.971319 0.970906 0.970334 0.969778 0.969911 0.969582 0.969461 0.970862 0.971331 0.970912 0.970987 0.971128 0.969210 0.967937 0.962909 0.965601 0.966907 0.966835 0.965617 0.963430 0.967232 0.967728 0.967530 0.967553 0.967238 0.967529 0.953655 0.949727 0.949812 0.944072 0.943112 0.939531 0.938315 0.937589 0.938533 0.938886 0.939725 0.936072 0.923093 0.913471 0.897198 0.917405 0.909778 0.892818 0.871444 0.869890 0.865641 0.865215 0.858997 0.849915 0.846069 0.843495 0.846022 0.850684 0.854854 0.851248 0.842314 0.845624 0.838599 0.800861 0.790946 0.780426 0.771592 0.770169 0.771409 0.766890 0.760505 0.769222 0.762202 0.758655 0.749616 0.736551 0.713312 0.702686 0.711372 0.718884 0.733455 0.728366 0.704617 0.652901 0.668958 0.683622 0.685334 0.687591 0.685991 0.680172 0.684312 0.686395 0.682592 0.678528 0.678583 0.678393 0.687394 0.688159 0.672822 0.668835 0.659390 0.647638 0.623418 0.633592 0.646650 0.627026 0.622077 0.615084 0.610895 0.619174 0.625462 0.630113 0.605836 0.586454 0.581260 0.569932 0.573839 0.579994 0.580572 0.573081 0.595110 0.586779 0.613326 0.581952 0.577608 0.576528 0.588552 0.570337 0.568428 0.565715 0.564608 0.566496 0.590029 0.596777 0.582799 0.572563 0.567644 0.567117 0.557101 0.568227 0.602632 0.580752 0.531834 0.495778 0.492612 0.453973 0.443543 0.408336 0.389217 0.358862 0.344196 0.334092 0.317755 0.315837 0.279726 0.241377 0.228553 0.229619 0.242382 0.264325 0.263544 0.249907 0.284137 0.323509 0.321339 0.310669 0.258019 0.254439 0.254778 0.225304 0.192754 0.175097 0.159000 0.182619 0.130473 0.126166 0.119011 0.113090 0.125209 0.121325 0.124214 0.078559 0.074501 0.098142 0.120039 0.104814 0.099321 0.055022 0.025168 0.026970 0.038623 0.006812 -0.000945 0.022445 0.027860 0.041602 -0.008255 -0.003856 0.002632 0.004119 -0.011210 -0.012940 0.026220 0.069638 0.072176 0.076627 0.106180 0.089711 0.086854 0.081884 0.039328 0.022616 -0.025554 -0.048255 -0.048255 -0.030732 -0.030732 -0.030732 -0.030732 -0.030732 -0.030732 -0.030732 -0.030732 -0.030732 -0.033717 -0.033717 -0.033717 -0.033717 -0.033717 -0.033717 -0.033717 -0.033717 -0.033717 -0.025692 -0.025692 -0.025692 -0.025692 -0.025692 -0.025692 -0.025692 -0.025692 -0.025692
0.000000 0.000000 0.000000 0.000000 0.000000 0.000000 0.000000 0.000000 0.000000 0.000000 0.000000 0.000000 0.000000 0.000000 0.000000 0.000000 0.000000 0.000000 0.000000 0.000000 0.000000 0.000000 0.000000 0.000000 0.000000 0.000000 0.000000 0.000000 0.000000 0.000000 0.000000 0.000000 0.000000 0.000000 0.000000 0.000000 0.000000 0.000000 0.000000 0.000000 0.000000 0.000000 0.000000 0.000000 0.000000 0.000000 0.000000 0.000000 0.000000 0.000000 0.000000 0.000000 0.181818 0.181818 0.199007 0.199007 0.199007 0.199007 0.199007 0.199007 0.199007 0.199007 0.199007 0.199007 0.199007 0.199007 0.199007 0.199007 0.199007 0.199007 0.199007 0.199007 0.199007 0.199007 0.199007 0.199007 0.199007 0.199007 0.199007 0.199007 0.199007 0.199007 0.199007 0.199007 0.199007 0.199007 0.199007 0.199007 0.199007 0.199007 0.199007 0.199007 0.199007 0.199007 0.199007 0.230940 0.230940 0.230940 0.230940 0.230940 0.230940 0.230940 0.230940 0.230940 0.230940 0.230940 0.230940 0.230940 0.230940 0.230940 0.230940 0.230940 0.230940 0.230940 0.230940 0.230940 0.230940 0.230940 0.230940 0.230940 0.230940 0.230940 0.230940 0.244339 0.244339 0.244339 0.244339 0.244339 0.244339 0.244339 0.244339 0.244339 0.244339 0.244339 0.244339 0.244339 0.244339 0.244339 0.244339 0.244339 0.244339 0.244339 0.244339 0.244339 0.244339 0.244339 0.251976 0.251976 0.251976 0.251976 0.251976 0.251976 0.251976 0.251976 0.251976 0.251976 0.251976 0.251976 0.251976 0.251976 0.251976 0.251976 0.251976 0.251976 0.251976 0.251976 0.264906 0.264906 0.264906 0.264906 0.264906 0.264906 0.264906 0.264906 0.264906 0.264906 0.264906 0.264906 0.264906 0.264906 0.264906 0.264906 0.264906 0.264906 0.264906 0.264906 0.264906 0.264906 0.264906 0.264906 0.264906 0.264906 0.264906 0.264906 0.264906 0.264906 0.264906 0.264906 0.264906 0.264906 0.264906 0.264906 0.264906 0.264906 0.264906 0.264906 0.264906 0.264906 0.264906 0.264906 0.264906 0.264906 0.264906 0.264906 0.264906 0.264906 0.264906 0.264906 0.264906 0.264906 0.264906 0.264906 0.264906 0.264906 0.264906 0.264906 0.264906 0.264906 0.264906 0.264906 0.264906 0.264906 0.264906 0.264906 0.264906 0.264906 0.264906 0.264906 0.264906 0.264906 0.264906 0.269680 0.269680 0.269680 0.269680 0.269680 0.269680 0.269680 0.269680 0.269680 0.269680 0.269680 0.269680 0.264906 0.264906 0.264906 0.264906 0.264906 0.264906 0.264906 0.264906 0.264906 0.264906 0.264906 0.264906 0.269680 0.269680 0.269680 0.269680 0.269680 0.269680 0.269680 0.269680 0.269680 0.269680 0.269680 0.264906 0.264906 0.264906 0.264906 0.264906 0.264906 0.264906 0.264906 0.264906 0.264906 0.264906 0.269680 0.269680 0.269680 0.269680 0.269680 0.269680 0.269680 0.269680 0.269680 0.269680 0.251976 0.251976 0.251976 0.251976 0.251976 0.251976 0.251976 0.251976 0.251976 0.251976 0.251976 0.269680 0.269680 0.269680 0.269680 0.269680 0.269680 0.269680 0.269680 0.269680 0.256074 0.256074 0.256074 0.256074 0.256074 0.256074 0.256074 0.256074 0.256074 0.256074 0.260378 0.260378 0.260378 0.260378 0.260378 0.260378 0.260378 0.260378 0.260378 0.256074 0.256074 0.256074 0.256074 0.256074 0.256074 0.256074 0.256074 0.256074 0.251976 0.251976 0.251976 0.251976 0.251976 0.251976 0.251976 0.251976 0.251976 0.264906 0.264906 0.264906 0.264906 0.264906 0.264906 0.264906 0.264906 0.264906
