# Output from CTFFind version 4.1.9, run on 2019-11-03 19:02:27
# Input file: stack16_bm3d_averaged_1_3.25_0_250_half.mrc ; Number of micrographs: 1
# Pixel size: 3.000 Angstroms ; acceleration voltage: 300.0 keV ; spherical aberration: 0.00 mm ; amplitude contrast: 0.07
# Box size: 512 pixels ; min. res.: 30.0 Angstroms ; max. res.: 5.0 Angstroms ; min. def.: 5000.0 um; max. def. 50000.0 um; num. frames averaged: 1
# 6 lines per micrograph: #1 - spatial frequency (1/Angstroms); #2 - 1D rotational average of spectrum (assuming no astigmatism); #3 - 1D rotational average of spectrum; #4 - CTF fit; #5 - cross-correlation between spectrum and CTF fit; #6 - 2sigma of expected cross correlation of noise
0.000000 0.000651 0.001302 0.001953 0.002604 0.003255 0.003906 0.004557 0.005208 0.005859 0.006510 0.007161 0.007812 0.008464 0.009115 0.009766 0.010417 0.011068 0.011719 0.012370 0.013021 0.013672 0.014323 0.014974 0.015625 0.016276 0.016927 0.017578 0.018229 0.018880 0.019531 0.020182 0.020833 0.021484 0.022135 0.022786 0.023438 0.024089 0.024740 0.025391 0.026042 0.026693 0.027344 0.027995 0.028646 0.029297 0.029948 0.030599 0.031250 0.031901 0.032552 0.033203 0.033854 0.034505 0.035156 0.035807 0.036458 0.037109 0.037760 0.038411 0.039062 0.039714 0.040365 0.041016 0.041667 0.042318 0.042969 0.043620 0.044271 0.044922 0.045573 0.046224 0.046875 0.047526 0.048177 0.048828 0.049479 0.050130 0.050781 0.051432 0.052083 0.052734 0.053385 0.054036 0.054688 0.055339 0.055990 0.056641 0.057292 0.057943 0.058594 0.059245 0.059896 0.060547 0.061198 0.061849 0.062500 0.063151 0.063802 0.064453 0.065104 0.065755 0.066406 0.067057 0.067708 0.068359 0.069010 0.069661 0.070312 0.070964 0.071615 0.072266 0.072917 0.073568 0.074219 0.074870 0.075521 0.076172 0.076823 0.077474 0.078125 0.078776 0.079427 0.080078 0.080729 0.081380 0.082031 0.082682 0.083333 0.083984 0.084635 0.085286 0.085938 0.086589 0.087240 0.087891 0.088542 0.089193 0.089844 0.090495 0.091146 0.091797 0.092448 0.093099 0.093750 0.094401 0.095052 0.095703 0.096354 0.097005 0.097656 0.098307 0.098958 0.099609 0.100260 0.100911 0.101562 0.102214 0.102865 0.103516 0.104167 0.104818 0.105469 0.106120 0.106771 0.107422 0.108073 0.108724 0.109375 0.110026 0.110677 0.111328 0.111979 0.112630 0.113281 0.113932 0.114583 0.115234 0.115885 0.116536 0.117188 0.117839 0.118490 0.119141 0.119792 0.120443 0.121094 0.121745 0.122396 0.123047 0.123698 0.124349 0.125000 0.125651 0.126302 0.126953 0.127604 0.128255 0.128906 0.129557 0.130208 0.130859 0.131510 0.132161 0.132812 0.133464 0.134115 0.134766 0.135417 0.136068 0.136719 0.137370 0.138021 0.138672 0.139323 0.139974 0.140625 0.141276 0.141927 0.142578 0.143229 0.143880 0.144531 0.145182 0.145833 0.146484 0.147135 0.147786 0.148438 0.149089 0.149740 0.150391 0.151042 0.151693 0.152344 0.152995 0.153646 0.154297 0.154948 0.155599 0.156250 0.156901 0.157552 0.158203 0.158854 0.159505 0.160156 0.160807 0.161458 0.162109 0.162760 0.163411 0.164062 0.164714 0.165365 0.166016 0.166667 0.167318 0.167969 0.168620 0.169271 0.169922 0.170573 0.171224 0.171875 0.172526 0.173177 0.173828 0.174479 0.175130 0.175781 0.176432 0.177083 0.177734 0.178385 0.179036 0.179688 0.180339 0.180990 0.181641 0.182292 0.182943 0.183594 0.184245 0.184896 0.185547 0.186198 0.186849 0.187500 0.188151 0.188802 0.189453 0.190104 0.190755 0.191406 0.192057 0.192708 0.193359 0.194010 0.194661 0.195312 0.195964 0.196615 0.197266 0.197917 0.198568 0.199219 0.199870 0.200521 0.201172 0.201823 0.202474 0.203125 0.203776 0.204427 0.205078 0.205729 0.206380 0.207031 0.207682 0.208333 0.208984 0.209635 0.210286 0.210938 0.211589 0.212240 0.212891 0.213542 0.214193 0.214844 0.215495 0.216146 0.216797 0.217448 0.218099 0.218750 0.219401 0.220052 0.220703 0.221354 0.222005 0.222656 0.223307 0.223958 0.224609 0.225260 0.225911 0.226562 0.227214 0.227865 0.228516 0.229167 0.229818 0.230469 0.231120 0.231771 0.232422 0.233073 0.233724 0.234375 0.235026 0.235677
       0.33510        0.33510        0.33510        0.33510        0.33510        0.33510        0.33510        0.33510        0.33510        0.33510        0.33510        0.33510        0.33510        0.33510        0.33510        0.33510        0.33510        0.33510        0.33510        0.33510        0.33510        0.33510        0.33510        0.33510        0.33510        0.33510        0.33510        0.33510        0.33510        0.33511        0.33510        0.33510        0.33510        0.33510        0.33510        0.33510        0.33510        0.33510        0.33510        0.33510        0.33511        0.33510        0.33510        0.33510        0.33510        0.33510        0.33510        0.33510        0.33510        0.33511        0.33510        0.42795        0.57816        0.36756       -0.17775       -0.44854       -0.56089       -0.65828       -0.72884       -0.75422       -0.86719       -0.91920       -0.71952       -0.88785       -0.85364       -0.99847       -1.04360       -0.92982       -0.88794       -0.82410       -0.76012       -0.67515       -0.59048       -0.50008       -0.42591       -0.20444       -0.08997        0.00298        0.23164        0.24042        0.30488        0.36875        0.39764        0.49968        0.54834        0.57723        0.54338        0.48480        0.52046        0.50072        0.42477        0.31861        0.18364        0.17071        0.10599       -0.03581       -0.05308       -0.05234        0.03016       -0.00991        0.04448        0.03066        0.14379        0.19004        0.40777        0.46242        0.56126        0.66194        0.70971        0.72602        0.65529        0.62682        0.53497        0.44997        0.38082        0.26315        0.20752        0.19104        0.07386        0.05407        0.03958        0.05987        0.08271        0.29186        0.41075        0.51129        0.55265        0.58925        0.63432        0.60350        0.61258        0.60093        0.57204        0.47397        0.28410        0.24931        0.21310        0.11673        0.06402        0.11501        0.13637        0.26756        0.35189        0.40754        0.48111        0.54427        0.61621        0.56700        0.51454        0.50268        0.36276        0.22517        0.22155        0.15393        0.13579        0.18598        0.23012        0.25944        0.31519        0.42106        0.43337        0.51052        0.46147        0.46093        0.47548        0.37789        0.32034        0.27013        0.22219        0.20267        0.21766        0.23055        0.31697        0.42598        0.41987        0.49085        0.54654        0.46648        0.42288        0.35824        0.30415        0.24495        0.23779        0.26549        0.27679        0.30808        0.33294        0.41241        0.46779        0.44443        0.45499        0.35392        0.36527        0.34704        0.22664        0.22769        0.23845        0.28497        0.35014        0.36796        0.39588        0.43787        0.43339        0.37400        0.34957        0.31161        0.32903        0.29308        0.27814        0.26980        0.31724        0.36613        0.37909        0.40180        0.37325        0.40254        0.37352        0.29262        0.27668        0.30014        0.32936        0.36046        0.35408        0.41518        0.34236        0.37253        0.37350        0.31991        0.34067        0.28397        0.29312        0.34055        0.31892        0.32129        0.33364        0.35412        0.31449        0.33560        0.29053        0.30726        0.28085        0.29011        0.29148        0.34133        0.37951        0.35922        0.34267        0.28805        0.27376        0.28090        0.31329        0.28327        0.30267        0.35743        0.37609        0.33389        0.30520        0.30795        0.29907        0.27891        0.28568        0.28352        0.32127        0.33712        0.31554        0.27869        0.32764        0.30504        0.29062        0.33611        0.32701        0.31510        0.33312        0.30010        0.32306        0.27630        0.30006        0.29822        0.31330        0.39627        0.33034        0.34010        0.30591        0.30278        0.30494        0.31917        0.28787        0.28900        0.31645        0.31174        0.32938        0.30658        0.30719        0.29093        0.29191        0.30833        0.33602        0.31761        0.32836        0.33662        0.29058        0.27474        0.28628        0.26764        0.34088        0.32765        0.34775        0.30042        0.27422        0.29068        0.34115        0.31315        0.28747        0.28189        0.30929        0.28330        0.24041        0.30069        0.27868        0.28350        0.31811        0.29777        0.34227        0.35589        0.28720        0.25022        0.24170        0.24925        0.26672        0.27371        0.30002        0.27300        0.22333        0.27994        0.28462        0.27566        0.23272        0.31860        0.29488        0.27719        0.25766        0.25677        0.28660        0.24995        0.27818        0.31880        0.34045        0.27420        0.26870        0.23750        0.26065        0.20874        0.31338        0.22017        0.19529        0.13886        0.22757        0.26829        0.22230        0.09131        0.14763       -0.46446       -0.89256
2.839440 2.805103 2.770981 2.737075 2.703384 2.669910 2.636651 2.603607 2.570779 2.538167 2.505771 2.473590 2.441625 2.409875 2.378341 2.347023 2.315921 2.285034 2.254363 2.223907 2.193668 2.163643 2.133835 2.104242 2.074865 2.045703 2.016757 1.988027 1.959513 1.931214 1.903130 1.875263 1.847611 1.820175 1.792954 1.765949 1.739160 1.712586 1.686228 1.660086 1.634159 1.608448 1.582953 1.557673 1.532609 1.507761 1.483129 1.458711 1.434510 1.410524 1.386754 1.424467 1.529035 1.475296 0.843034 0.577928 0.429244 0.365266 0.283917 0.199979 0.151945 -0.048198 0.187737 0.052881 -0.035872 -0.098372 -0.222199 -0.142731 -0.062766 -0.069666 -0.073895 0.048225 0.041291 0.220220 0.116570 0.347525 0.458914 0.475200 0.738210 0.686908 0.682057 0.825055 0.798196 0.824307 0.914533 0.867374 0.913402 0.730944 0.818513 0.842289 0.674382 0.604940 0.459026 0.433508 0.393008 0.202615 0.193838 0.143756 0.241256 0.149670 0.241874 0.132216 0.270517 0.266106 0.490549 0.439248 0.619150 0.644675 0.693059 0.749926 0.668520 0.641431 0.495285 0.459536 0.342080 0.313118 0.149302 0.211714 0.023546 0.049111 -0.007740 -0.007324 0.013395 0.077787 0.318196 0.346903 0.419192 0.371295 0.453389 0.505275 0.449440 0.465306 0.397549 0.393921 0.167760 0.125435 0.088349 0.026598 -0.115275 -0.012850 -0.065513 0.060574 0.141820 0.190357 0.276353 0.269472 0.358008 0.449902 0.316000 0.380276 0.273902 0.131144 0.045124 0.053446 0.004292 0.022130 0.058477 0.092482 0.103123 0.210744 0.234879 0.275168 0.291337 0.263762 0.269213 0.238816 0.115356 0.099082 0.036953 0.033939 0.010921 0.017732 0.049838 0.167379 0.195753 0.188560 0.310410 0.221843 0.237695 0.100859 0.096640 -0.001766 -0.006264 0.003399 0.018611 0.037371 0.045563 0.088711 0.167024 0.178185 0.193270 0.111977 0.079781 0.095935 0.032118 -0.080001 -0.018605 0.008530 0.038647 0.053096 0.096076 0.156829 0.126966 0.155232 0.052684 0.063458 0.041017 0.048918 0.016139 -0.000293 0.013356 0.043514 0.085903 0.120578 0.090086 0.103734 0.114693 0.060458 -0.004924 0.007222 0.015335 0.074522 0.056989 0.103028 0.115205 0.048317 0.094356 0.055459 0.035082 0.053840 -0.033605 0.029804 0.057676 0.023261 0.028660 0.090456 0.034533 0.043361 0.031860 0.006601 0.025884 -0.024909 0.007660 0.006300 0.082005 0.062139 0.054050 0.034468 -0.017654 -0.017816 -0.002903 0.015166 -0.006204 0.007379 0.079041 0.064401 -0.000874 0.023721 -0.006747 0.000087 -0.019249 -0.018975 -0.010889 0.027355 0.015725 0.009177 -0.009283 0.012372 -0.009978 -0.002965 0.034339 0.020328 0.024122 0.001446 0.007586 0.004802 -0.044193 -0.001066 -0.010628 0.040984 0.083016 0.011051 0.019667 0.012315 0.007414 -0.013196 0.032686 -0.016690 -0.012022 0.008765 0.028568 0.031503 0.009607 0.039652 -0.033102 0.001488 0.014753 0.036009 0.012605 0.055746 0.019109 0.008935 0.003539 -0.018576 0.000531 0.045678 0.046167 0.058154 0.010116 -0.016203 0.003248 0.059156 0.019692 0.011988 -0.009133 0.017615 -0.018313 -0.038621 0.002013 0.002944 -0.016454 0.028843 0.027441 0.076254 0.057156 0.016394 -0.013308 -0.043509 -0.024500 0.012775 -0.004320 0.051422 -0.013233 -0.072718 0.013939 0.013265 -0.078209 -0.083765 0.015786 -0.032303 -0.058579 -0.069170 -0.026167 -0.020814 -0.071675 -0.017760 0.008933 0.044640 -0.055665 0.002048 -0.059221 0.029029 -0.092316 0.125104 0.020092 0.053619 -0.022102 0.206236 0.232392 0.226173 -0.014200 0.136591 -0.797989
0.072396 0.073048 0.075003 0.078261 0.082821 0.088681 0.095838 0.104291 0.114035 0.125065 0.137374 0.150954 0.165795 0.181884 0.199205 0.217740 0.237467 0.258359 0.280385 0.303511 0.327694 0.352888 0.379038 0.406083 0.433956 0.462578 0.491864 0.521720 0.552039 0.582709 0.613602 0.644584 0.675505 0.706208 0.736521 0.766263 0.795240 0.823248 0.850072 0.875487 0.899257 0.921141 0.940888 0.958243 0.972944 0.984729 0.993335 0.998502 0.999973 0.997500 0.990844 0.979781 0.964105 0.943631 0.918199 0.887678 0.851971 0.811019 0.764805 0.713359 0.656758 0.595138 0.528690 0.457666 0.382382 0.303221 0.220631 0.135130 0.047304 0.042196 0.132654 0.223292 0.313277 0.401725 0.487711 0.570273 0.648427 0.721179 0.787534 0.846511 0.897163 0.938589 0.969954 0.990503 0.999586 0.996668 0.981356 0.953409 0.912754 0.859508 0.793980 0.716689 0.628367 0.529960 0.422632 0.307757 0.186910 0.061849 0.065498 0.193066 0.318677 0.440080 0.554989 0.661126 0.756271 0.838310 0.905292 0.955474 0.987382 0.999852 0.992085 0.963684 0.914690 0.845607 0.757422 0.651608 0.530121 0.395375 0.250215 0.097865 0.058134 0.213993 0.365773 0.509473 0.641145 0.757001 0.853540 0.927653 0.976747 0.998842 0.992672 0.957756 0.894461 0.804032 0.688602 0.551170 0.395550 0.226282 0.048525 0.132089 0.309631 0.478056 0.631419 0.764091 0.870977 0.947732 0.990958 0.998381 0.968990 0.903136 0.802588 0.670525 0.511478 0.331208 0.136530 0.064930 0.265012 0.455349 0.627718 0.774408 0.888583 0.964626 0.998450 0.987748 0.932184 0.833493 0.695481 0.523940 0.326451 0.112078 0.109007 0.326000 0.527982 0.704474 0.846005 0.944648 0.994504 0.992098 0.936674 0.830334 0.678044 0.487464 0.268620 0.033424 0.204944 0.432759 0.636539 0.803862 0.924157 0.989419 0.994795 0.939008 0.824569 0.657760 0.448364 0.209163 0.044786 0.297076 0.530986 0.730603 0.881937 0.973942 0.999402 0.955559 0.844469 0.673023 0.452617 0.198474 0.071345 0.337176 0.579190 0.778870 0.920475 0.992351 0.987967 0.906601 0.753583 0.540077 0.282360 0.000670 0.282326 0.543343 0.760392 0.914686 0.992328 0.985674 0.894178 0.724670 0.490974 0.212913 0.085298 0.377104 0.635952 0.837734 0.963104 0.999422 0.942150 0.795529 0.572427 0.293361 0.015285 0.323688 0.601412 0.820462 0.958152 0.999572 0.939334 0.782397 0.543850 0.247624 0.075799 0.392437 0.668353 0.873338 0.984296 0.987984 0.882746 0.679020 0.398491 0.071945 0.263994 0.570930 0.813078 0.961529 0.997815 0.916394 0.725641 0.447215 0.113774 0.234702 0.555654 0.809145 0.962900 0.996565 0.904589 0.697311 0.400038 0.050148 0.307465 0.626091 0.863335 0.986852 0.978942 0.839292 0.585457 0.250889 0.119267 0.474163 0.764185 0.947987 0.998519 0.907241 0.685784 0.364763 0.010227 0.384939 0.704249 0.920318 0.999915 0.929745 0.718937 0.398164 0.015447 0.370848 0.700859 0.922530 0.999995 0.919621 0.692689 0.354142 0.042512 0.433481 0.754888 0.953284 0.994713 0.870819 0.600802 0.228787 0.183108 0.564997 0.851068 0.991051 0.959288 0.759773 0.426068 0.016016 0.398072 0.742072 0.953367 0.992475 0.850734 0.552543 0.151553 0.278706 0.658128 0.915010 0.999730 0.894696 0.618344 0.222339 0.217762 0.616712 0.896099 0.999925 0.906148 0.631754 0.230163 0.218850 0.624758 0.904545 0.999867 0.889556 0.594748 0.175325 0.281918 0.681004 0.936940 0.994074 0.838546 0.502122 0.056149 0.403187 0.775487
1.000000 1.000000 1.000000 1.000000 1.000000 1.000000 1.000000 1.000000 1.000000 1.000000 1.000000 1.000000 1.000000 1.000000 1.000000 1.000000 1.000000 1.000000 1.000000 1.000000 1.000000 1.000000 1.000000 1.000000 1.000000 1.000000 1.000000 1.000000 1.000000 1.000000 1.000000 1.000000 1.000000 1.000000 1.000000 1.000000 1.000000 1.000000 1.000000 1.000000 1.000000 1.000000 1.000000 1.000000 1.000000 1.000000 1.000000 1.000000 1.000000 1.000000 1.000000 1.000000 0.931476 0.931476 0.931476 0.931476 0.931476 0.931476 0.931476 0.931476 0.931476 0.931476 0.931476 0.931476 0.931476 0.931476 0.931476 0.931476 0.931476 0.931476 0.931476 0.931476 0.931476 0.931476 0.931476 0.931476 0.931476 0.931476 0.931476 0.931476 0.931476 0.931476 0.931476 0.931476 0.931476 0.917790 0.915685 0.918556 0.919515 0.919370 0.918858 0.918564 0.918883 0.920460 0.922295 0.943523 0.945941 0.946623 0.947750 0.946529 0.948657 0.946375 0.951016 0.961532 0.960875 0.962116 0.956994 0.957712 0.957476 0.957006 0.958420 0.957963 0.956716 0.955168 0.954022 0.953225 0.952830 0.955005 0.955638 0.955942 0.956563 0.956851 0.957098 0.955247 0.953078 0.955597 0.955504 0.954092 0.961831 0.960518 0.965839 0.966025 0.967070 0.967461 0.967681 0.967841 0.967168 0.966905 0.966371 0.955751 0.951779 0.948539 0.950833 0.953001 0.949892 0.945029 0.943716 0.947537 0.941927 0.941471 0.936973 0.936750 0.920547 0.914545 0.904811 0.905962 0.907454 0.908003 0.905041 0.894279 0.883381 0.880914 0.884199 0.878316 0.875954 0.890679 0.886807 0.888670 0.890731 0.891912 0.897825 0.888433 0.883830 0.880160 0.876171 0.874908 0.877293 0.879158 0.881338 0.875289 0.867482 0.871359 0.865350 0.868631 0.872124 0.865776 0.855870 0.850849 0.850595 0.848642 0.847079 0.851285 0.842126 0.836453 0.837267 0.829441 0.828754 0.823772 0.823639 0.824797 0.826733 0.816116 0.821440 0.791069 0.797713 0.790101 0.798705 0.794664 0.792343 0.792899 0.775716 0.767259 0.764326 0.774660 0.783519 0.756255 0.751986 0.746055 0.729460 0.737465 0.743924 0.736915 0.733886 0.723293 0.734612 0.733020 0.731659 0.726419 0.705913 0.702033 0.713702 0.719677 0.692389 0.680546 0.677332 0.692904 0.689946 0.675159 0.683205 0.672899 0.661143 0.634621 0.633877 0.651891 0.649049 0.624343 0.610614 0.588504 0.590136 0.588963 0.588606 0.564063 0.565523 0.552630 0.557276 0.587154 0.573943 0.589227 0.595758 0.596973 0.610905 0.499911 0.502106 0.482764 0.506003 0.517559 0.514707 0.488315 0.498924 0.494497 0.503542 0.500333 0.480427 0.493538 0.485955 0.483197 0.494189 0.474545 0.472919 0.484433 0.500372 0.510401 0.507453 0.505796 0.509393 0.504875 0.456905 0.458860 0.487022 0.471249 0.453036 0.449182 0.474521 0.464645 0.465030 0.455245 0.462611 0.468728 0.421793 0.501802 0.487120 0.468377 0.467711 0.429933 0.415906 0.408865 0.416955 0.417230 0.401273 0.356735 0.313223 0.304340 0.303006 0.300473 0.288244 0.340143 0.311884 0.325386 0.298624 0.239176 0.219447 0.223240 0.203012 0.206664 0.170760 0.183134 0.160526 0.110027 0.109286 0.088051 0.051748 0.019156 0.027954 0.062395 0.050314 -0.014992 0.101763 0.101763 0.101763 0.101763 0.101763 0.101763 0.101763 0.101763 -0.053866 -0.053866 -0.053866 -0.053866 -0.053866 -0.053866 0.067018 0.067018 0.067018 0.067018 0.067018 0.067018 0.067018 0.067018 0.067018 0.067018 0.067018 0.067018 0.067018
0.000000 0.000000 0.000000 0.000000 0.000000 0.000000 0.000000 0.000000 0.000000 0.000000 0.000000 0.000000 0.000000 0.000000 0.000000 0.000000 0.000000 0.000000 0.000000 0.000000 0.000000 0.000000 0.000000 0.000000 0.000000 0.000000 0.000000 0.000000 0.000000 0.000000 0.000000 0.000000 0.000000 0.000000 0.000000 0.000000 0.000000 0.000000 0.000000 0.000000 0.000000 0.000000 0.000000 0.000000 0.000000 0.000000 0.000000 0.000000 0.000000 0.000000 0.000000 0.000000 0.209657 0.209657 0.209657 0.209657 0.209657 0.209657 0.209657 0.209657 0.209657 0.209657 0.209657 0.209657 0.209657 0.209657 0.209657 0.209657 0.209657 0.209657 0.209657 0.209657 0.209657 0.209657 0.209657 0.209657 0.209657 0.209657 0.209657 0.209657 0.209657 0.209657 0.209657 0.209657 0.209657 0.244339 0.244339 0.244339 0.244339 0.244339 0.244339 0.244339 0.244339 0.244339 0.244339 0.244339 0.244339 0.244339 0.244339 0.244339 0.244339 0.244339 0.244339 0.244339 0.244339 0.244339 0.244339 0.244339 0.244339 0.244339 0.260378 0.260378 0.260378 0.260378 0.260378 0.260378 0.260378 0.260378 0.260378 0.260378 0.260378 0.260378 0.260378 0.260378 0.260378 0.260378 0.260378 0.260378 0.260378 0.260378 0.269680 0.269680 0.269680 0.269680 0.269680 0.269680 0.269680 0.269680 0.269680 0.269680 0.269680 0.269680 0.269680 0.269680 0.269680 0.269680 0.269680 0.269680 0.269680 0.269680 0.269680 0.269680 0.269680 0.269680 0.269680 0.269680 0.269680 0.269680 0.269680 0.269680 0.269680 0.269680 0.269680 0.280056 0.280056 0.280056 0.280056 0.280056 0.280056 0.280056 0.280056 0.280056 0.280056 0.280056 0.280056 0.280056 0.280056 0.280056 0.280056 0.280056 0.280056 0.280056 0.280056 0.280056 0.280056 0.280056 0.280056 0.280056 0.280056 0.280056 0.285714 0.285714 0.285714 0.285714 0.285714 0.285714 0.285714 0.285714 0.285714 0.285714 0.285714 0.285714 0.274721 0.274721 0.274721 0.274721 0.274721 0.274721 0.274721 0.274721 0.274721 0.274721 0.274721 0.274721 0.280056 0.280056 0.280056 0.280056 0.280056 0.280056 0.280056 0.280056 0.280056 0.280056 0.280056 0.285714 0.285714 0.285714 0.285714 0.285714 0.285714 0.285714 0.285714 0.285714 0.285714 0.280056 0.280056 0.280056 0.280056 0.280056 0.280056 0.280056 0.280056 0.280056 0.280056 0.274721 0.274721 0.274721 0.274721 0.274721 0.274721 0.274721 0.274721 0.274721 0.274721 0.280056 0.280056 0.280056 0.280056 0.280056 0.280056 0.280056 0.280056 0.280056 0.274721 0.274721 0.274721 0.274721 0.274721 0.274721 0.274721 0.274721 0.274721 0.269680 0.269680 0.269680 0.269680 0.269680 0.269680 0.269680 0.269680 0.269680 0.280056 0.280056 0.280056 0.280056 0.280056 0.280056 0.280056 0.280056 0.260378 0.260378 0.260378 0.260378 0.260378 0.260378 0.260378 0.260378 0.260378 0.285714 0.285714 0.285714 0.285714 0.285714 0.285714 0.285714 0.269680 0.269680 0.269680 0.269680 0.269680 0.269680 0.269680 0.269680 0.264906 0.264906 0.264906 0.264906 0.264906 0.264906 0.264906 0.264906 0.274721 0.274721 0.274721 0.274721 0.274721 0.274721 0.274721 0.269680 0.269680 0.269680 0.269680 0.269680 0.269680 0.269680 0.251976 0.251976 0.251976 0.251976 0.251976 0.251976 0.251976 0.251976 0.280056 0.280056 0.280056 0.280056 0.280056 0.280056 0.260378 0.260378 0.260378 0.260378 0.260378 0.260378 0.260378 0.260378 0.260378 0.260378 0.260378 0.260378 0.260378
