# Output from CTFFind version 4.1.9, run on 2019-11-03 20:09:01
# Input file: stack11_bm3d_averaged_1_5.5_0_2000_half.mrc ; Number of micrographs: 1
# Pixel size: 3.000 Angstroms ; acceleration voltage: 300.0 keV ; spherical aberration: 0.00 mm ; amplitude contrast: 0.07
# Box size: 512 pixels ; min. res.: 30.0 Angstroms ; max. res.: 5.0 Angstroms ; min. def.: 5000.0 um; max. def. 50000.0 um; num. frames averaged: 1
# 6 lines per micrograph: #1 - spatial frequency (1/Angstroms); #2 - 1D rotational average of spectrum (assuming no astigmatism); #3 - 1D rotational average of spectrum; #4 - CTF fit; #5 - cross-correlation between spectrum and CTF fit; #6 - 2sigma of expected cross correlation of noise
0.000000 0.000651 0.001302 0.001953 0.002604 0.003255 0.003906 0.004557 0.005208 0.005859 0.006510 0.007161 0.007812 0.008464 0.009115 0.009766 0.010417 0.011068 0.011719 0.012370 0.013021 0.013672 0.014323 0.014974 0.015625 0.016276 0.016927 0.017578 0.018229 0.018880 0.019531 0.020182 0.020833 0.021484 0.022135 0.022786 0.023438 0.024089 0.024740 0.025391 0.026042 0.026693 0.027344 0.027995 0.028646 0.029297 0.029948 0.030599 0.031250 0.031901 0.032552 0.033203 0.033854 0.034505 0.035156 0.035807 0.036458 0.037109 0.037760 0.038411 0.039062 0.039714 0.040365 0.041016 0.041667 0.042318 0.042969 0.043620 0.044271 0.044922 0.045573 0.046224 0.046875 0.047526 0.048177 0.048828 0.049479 0.050130 0.050781 0.051432 0.052083 0.052734 0.053385 0.054036 0.054688 0.055339 0.055990 0.056641 0.057292 0.057943 0.058594 0.059245 0.059896 0.060547 0.061198 0.061849 0.062500 0.063151 0.063802 0.064453 0.065104 0.065755 0.066406 0.067057 0.067708 0.068359 0.069010 0.069661 0.070312 0.070964 0.071615 0.072266 0.072917 0.073568 0.074219 0.074870 0.075521 0.076172 0.076823 0.077474 0.078125 0.078776 0.079427 0.080078 0.080729 0.081380 0.082031 0.082682 0.083333 0.083984 0.084635 0.085286 0.085938 0.086589 0.087240 0.087891 0.088542 0.089193 0.089844 0.090495 0.091146 0.091797 0.092448 0.093099 0.093750 0.094401 0.095052 0.095703 0.096354 0.097005 0.097656 0.098307 0.098958 0.099609 0.100260 0.100911 0.101562 0.102214 0.102865 0.103516 0.104167 0.104818 0.105469 0.106120 0.106771 0.107422 0.108073 0.108724 0.109375 0.110026 0.110677 0.111328 0.111979 0.112630 0.113281 0.113932 0.114583 0.115234 0.115885 0.116536 0.117188 0.117839 0.118490 0.119141 0.119792 0.120443 0.121094 0.121745 0.122396 0.123047 0.123698 0.124349 0.125000 0.125651 0.126302 0.126953 0.127604 0.128255 0.128906 0.129557 0.130208 0.130859 0.131510 0.132161 0.132812 0.133464 0.134115 0.134766 0.135417 0.136068 0.136719 0.137370 0.138021 0.138672 0.139323 0.139974 0.140625 0.141276 0.141927 0.142578 0.143229 0.143880 0.144531 0.145182 0.145833 0.146484 0.147135 0.147786 0.148438 0.149089 0.149740 0.150391 0.151042 0.151693 0.152344 0.152995 0.153646 0.154297 0.154948 0.155599 0.156250 0.156901 0.157552 0.158203 0.158854 0.159505 0.160156 0.160807 0.161458 0.162109 0.162760 0.163411 0.164062 0.164714 0.165365 0.166016 0.166667 0.167318 0.167969 0.168620 0.169271 0.169922 0.170573 0.171224 0.171875 0.172526 0.173177 0.173828 0.174479 0.175130 0.175781 0.176432 0.177083 0.177734 0.178385 0.179036 0.179688 0.180339 0.180990 0.181641 0.182292 0.182943 0.183594 0.184245 0.184896 0.185547 0.186198 0.186849 0.187500 0.188151 0.188802 0.189453 0.190104 0.190755 0.191406 0.192057 0.192708 0.193359 0.194010 0.194661 0.195312 0.195964 0.196615 0.197266 0.197917 0.198568 0.199219 0.199870 0.200521 0.201172 0.201823 0.202474 0.203125 0.203776 0.204427 0.205078 0.205729 0.206380 0.207031 0.207682 0.208333 0.208984 0.209635 0.210286 0.210938 0.211589 0.212240 0.212891 0.213542 0.214193 0.214844 0.215495 0.216146 0.216797 0.217448 0.218099 0.218750 0.219401 0.220052 0.220703 0.221354 0.222005 0.222656 0.223307 0.223958 0.224609 0.225260 0.225911 0.226562 0.227214 0.227865 0.228516 0.229167 0.229818 0.230469 0.231120 0.231771 0.232422 0.233073 0.233724 0.234375 0.235026 0.235677
       0.34161        0.34161        0.34161        0.34161        0.34161        0.34161        0.34161        0.34161        0.34161        0.34161        0.34161        0.34161        0.34161        0.34161        0.34161        0.34161        0.34161        0.34161        0.34161        0.34161        0.34161        0.34161        0.34161        0.34161        0.34161        0.34161        0.34161        0.34161        0.34161        0.34161        0.34161        0.34161        0.34161        0.34161        0.34161        0.34161        0.34161        0.34161        0.34161        0.34161        0.34161        0.34161        0.34161        0.34161        0.34161        0.34161        0.34161        0.34161        0.34161        0.34161        0.34161        0.69738        0.85877        0.53645        0.10508       -0.02992       -0.39070       -0.18128       -0.28729       -0.11368       -0.05560       -0.11123       -0.05349       -0.17038       -0.20684       -0.21744       -0.30870       -0.32042       -0.44759       -0.36299       -0.42968       -0.42365       -0.39733       -0.41540       -0.45640       -0.51280       -0.56068       -0.55772       -0.53190       -0.36163       -0.33274       -0.29582       -0.27613       -0.18734       -0.17381        0.05740        0.13655        0.16845        0.26142        0.38136        0.45736        0.52239        0.59583        0.59328        0.58054        0.69808        0.80589        0.70639        0.74224        0.62383        0.56838        0.48296        0.42957        0.51156        0.39569        0.26283        0.11290        0.10545        0.08416       -0.02044        0.03445        0.04542        0.00272        0.02406        0.02326        0.23757        0.26991        0.29506        0.43313        0.45303        0.41326        0.59219        0.62319        0.64419        0.72821        0.67798        0.64785        0.66195        0.56238        0.46496        0.41945        0.30229        0.26081        0.17937        0.13374        0.05257        0.05863        0.06541        0.09656        0.15429        0.24049        0.29226        0.41446        0.46296        0.48251        0.57175        0.60585        0.63791        0.61913        0.56147        0.45945        0.47305        0.37873        0.27090        0.20867        0.15747        0.16767        0.15037        0.15083        0.17897        0.31440        0.32769        0.39941        0.44008        0.42797        0.48596        0.56130        0.55390        0.49944        0.45663        0.41058        0.36579        0.33610        0.30287        0.25460        0.24313        0.24399        0.25113        0.22234        0.30674        0.36273        0.38645        0.43956        0.45610        0.47057        0.42559        0.40752        0.40152        0.36068        0.32677        0.27322        0.27293        0.26495        0.23760        0.28775        0.28615        0.34783        0.37920        0.42692        0.47675        0.41001        0.42417        0.43312        0.40949        0.34813        0.32518        0.29365        0.31976        0.27122        0.31697        0.30967        0.32735        0.33586        0.36000        0.31764        0.39329        0.41560        0.37993        0.34854        0.37119        0.31520        0.29236        0.30265        0.32028        0.30634        0.31872        0.33874        0.35030        0.33978        0.36721        0.36707        0.41412        0.38581        0.33581        0.34372        0.29781        0.28858        0.32336        0.31818        0.32837        0.33885        0.33650        0.38192        0.32982        0.32974        0.33581        0.34183        0.30292        0.31174        0.27855        0.30198        0.32653        0.30496        0.32689        0.35210        0.36033        0.29413        0.33321        0.29546        0.29953        0.27996        0.24477        0.30184        0.30254        0.34254        0.33711        0.33965        0.32464        0.34869        0.31187        0.34513        0.31304        0.31740        0.28474        0.33108        0.32037        0.36243        0.32504        0.33558        0.34172        0.29412        0.27436        0.30967        0.24880        0.22753        0.33988        0.32057        0.35984        0.34251        0.35804        0.32850        0.33659        0.34614        0.26311        0.25714        0.31409        0.30232        0.31012        0.32037        0.34033        0.33213        0.29519        0.29189        0.34373        0.32045        0.31172        0.28714        0.32150        0.34190        0.39591        0.35230        0.31214        0.27803        0.30232        0.28545        0.29746        0.27151        0.26194        0.31306        0.33233        0.34472        0.35308        0.32598        0.28810        0.29993        0.26702        0.27290        0.25226        0.31299        0.26993        0.23728        0.30258        0.29824        0.26553        0.29415        0.21345        0.21488        0.24821        0.18996        0.26388        0.33808        0.24854        0.23161        0.31561        0.31331        0.31944        0.31634        0.26170        0.24134        0.19052        0.21276        0.19340        0.24735        0.23095        0.27666        0.34485        0.33568        0.24248        0.14190        0.07643       -0.01102       -0.10085       -0.61707
2.766571 2.737166 2.707922 2.678839 2.649917 2.621156 2.592556 2.564118 2.535840 2.507723 2.479768 2.451973 2.424340 2.396867 2.369556 2.342406 2.315417 2.288588 2.261921 2.235415 2.209071 2.182887 2.156864 2.131002 2.105301 2.079762 2.054383 2.029166 2.004109 1.979214 1.954479 1.929906 1.905494 1.881243 1.857153 1.833224 1.809456 1.785849 1.762403 1.739118 1.715994 1.693032 1.670230 1.647590 1.625110 1.602792 1.580634 1.558638 1.536803 1.515129 1.493616 1.710447 2.130302 1.690766 1.180540 1.046016 0.448776 0.845932 0.562669 0.844763 0.809150 0.816147 0.756532 0.747942 0.594389 0.556474 0.499505 0.429099 0.245664 0.368160 0.200599 0.328642 0.221625 0.205301 0.179452 0.040476 0.009786 0.017539 -0.068964 0.131456 0.230306 0.188154 0.175286 0.327366 0.184561 0.516164 0.620057 0.623649 0.640780 0.874042 0.831300 0.940111 0.927518 1.025708 0.991532 1.079144 1.166857 1.038721 1.155433 0.908570 0.926093 0.791510 0.649506 0.801089 0.696601 0.486488 0.330601 0.249682 0.263272 0.146890 0.129569 0.161635 0.106171 0.123731 0.077149 0.251663 0.355479 0.341490 0.473794 0.545394 0.418227 0.589241 0.725775 0.660973 0.726308 0.707741 0.717010 0.651345 0.596940 0.500104 0.373985 0.276875 0.220870 0.086723 0.118654 -0.102381 -0.046617 -0.062100 -0.076619 -0.019028 0.133607 0.070699 0.241523 0.306851 0.338051 0.384922 0.502088 0.463327 0.479136 0.489673 0.303222 0.290830 0.283864 0.085302 0.043100 -0.075475 -0.013580 -0.061931 -0.094219 -0.080739 0.037641 0.089422 0.122939 0.218124 0.227737 0.231602 0.286342 0.439676 0.396662 0.263993 0.239351 0.227182 0.149578 0.149674 0.120087 0.002766 0.022264 0.076312 -0.000459 0.057553 0.143567 0.146069 0.228694 0.246557 0.270499 0.193647 0.221717 0.145680 0.157974 0.125105 0.050200 -0.006435 0.017623 -0.000888 -0.038048 0.068450 0.023888 0.123002 0.154590 0.202477 0.183383 0.151184 0.157569 0.178378 0.128612 0.055448 -0.003721 0.050468 0.034628 -0.022693 0.043823 0.037717 0.060169 0.051566 0.064171 0.056638 0.143019 0.141449 0.055165 0.050537 0.054638 0.013696 -0.023448 0.017185 0.017348 0.006049 0.014923 0.052362 0.058865 0.057155 0.070612 0.056766 0.151179 0.059511 0.033046 0.037659 -0.036719 0.005063 0.040715 0.002554 0.031320 0.050370 0.024760 0.130744 0.023186 -0.003729 0.058823 0.003307 0.005844 0.004063 -0.026241 0.018865 0.005523 0.000692 0.051169 0.052105 0.060142 0.032966 0.038649 0.025125 0.016591 -0.023058 -0.028212 0.029596 0.048894 0.078910 0.081656 0.057234 0.073752 0.109721 0.052478 0.105650 0.077135 0.043871 0.030778 0.105696 0.069042 0.118254 0.089150 0.061452 0.118119 0.045008 0.009354 0.088916 -0.033418 -0.015960 0.105513 0.049232 0.156530 0.095664 0.094538 0.048381 0.068568 0.091659 -0.021412 -0.028996 0.054830 0.048136 0.039874 0.034657 0.105914 0.048044 -0.002073 0.055266 0.049790 0.051908 0.054513 -0.016978 0.065385 0.064165 0.130027 0.041674 0.020679 -0.028736 -0.012164 -0.012199 -0.001262 -0.052426 -0.031020 0.007856 0.025997 0.026450 0.041912 0.000735 -0.041390 -0.035824 -0.025818 -0.072571 -0.058721 -0.014895 -0.024138 -0.084594 -0.007927 -0.047158 -0.074402 -0.000182 -0.139503 -0.087535 -0.097584 -0.181691 -0.059128 0.057413 -0.059613 -0.156232 0.035346 0.035697 -0.048883 0.043433 -0.077014 0.264008 0.163847 0.218641 0.258809 0.298819 0.251025 0.313592 0.335314 0.384952 0.222016 0.257394 0.095668 -0.016576 -0.677322
0.072396 0.072899 0.074407 0.076921 0.080439 0.084961 0.090485 0.097010 0.104533 0.113053 0.122565 0.133065 0.144548 0.157007 0.170435 0.184823 0.200159 0.216431 0.233623 0.251718 0.270697 0.290536 0.311209 0.332687 0.354936 0.377920 0.401597 0.425921 0.450841 0.476302 0.502241 0.528592 0.555282 0.582232 0.609356 0.636564 0.663755 0.690826 0.717664 0.744150 0.770158 0.795555 0.820204 0.843958 0.866666 0.888171 0.908310 0.926917 0.943820 0.958845 0.971816 0.982555 0.990883 0.996624 0.999601 0.999644 0.996586 0.990268 0.980541 0.967262 0.950306 0.929560 0.904927 0.876330 0.843713 0.807044 0.766316 0.721548 0.672792 0.620130 0.563679 0.503590 0.440052 0.373293 0.303579 0.231218 0.156557 0.079985 0.001928 0.077146 0.156732 0.236292 0.315253 0.393014 0.468947 0.542407 0.612728 0.679238 0.741262 0.798128 0.849177 0.893767 0.931288 0.961167 0.982877 0.995949 0.999980 0.994643 0.979696 0.954989 0.920476 0.876221 0.822404 0.759325 0.687410 0.607215 0.519424 0.424848 0.324425 0.219210 0.110372 0.000818 0.113000 0.224738 0.334538 0.440866 0.542173 0.636912 0.723569 0.800687 0.866891 0.920918 0.961645 0.988112 0.999555 0.995423 0.975404 0.939442 0.887753 0.820838 0.739484 0.644770 0.538060 0.420990 0.295453 0.163577 0.027689 0.109717 0.246026 0.378547 0.504568 0.621414 0.726502 0.817409 0.891926 0.948125 0.984411 0.999577 0.992853 0.963941 0.913049 0.840903 0.748764 0.638410 0.512127 0.372665 0.223195 0.067243 0.091383 0.248687 0.400577 0.542975 0.671932 0.783737 0.875038 0.942948 0.985151 0.999989 0.986546 0.944701 0.875164 0.779497 0.660092 0.520138 0.363549 0.194874 0.019174 0.158121 0.331372 0.494915 0.643242 0.771198 0.874170 0.948269 0.990488 0.998849 0.972508 0.911833 0.818429 0.695137 0.545964 0.375987 0.191191 0.001720 0.195555 0.382901 0.556407 0.709073 0.834552 0.927423 0.983451 0.999800 0.975205 0.910075 0.806543 0.668423 0.501113 0.311406 0.107246 0.102594 0.308875 0.502298 0.673924 0.815601 0.920374 0.982847 0.999494 0.968888 0.891841 0.771430 0.612934 0.423622 0.212473 0.010237 0.233417 0.445694 0.636011 0.794203 0.911567 0.981371 0.999275 0.963641 0.875702 0.739592 0.562188 0.352823 0.122824 0.115071 0.347397 0.560733 0.742473 0.881602 0.969393 0.999994 0.970866 0.883036 0.741135 0.553213 0.330341 0.086000 0.164708 0.405967 0.622256 0.799351 0.925295 0.991251 0.992167 0.927223 0.800001 0.618360 0.394022 0.141863 0.121024 0.376483 0.606522 0.794614 0.926902 0.993278 0.988211 0.911275 0.767311 0.566208 0.322290 0.053365 0.220550 0.478679 0.701095 0.870258 0.972450 0.998964 0.946897 0.819549 0.626294 0.381989 0.105902 0.179774 0.451657 0.687105 0.866117 0.973087 0.998238 0.938589 0.798382 0.588885 0.327584 0.036797 0.258184 0.531270 0.757885 0.917216 0.994198 0.981006 0.877961 0.693675 0.444453 0.152939 0.153874 0.447106 0.698700 0.884132 0.984883 0.990359 0.899115 0.719202 0.467584 0.168638 0.148117 0.450911 0.708887 0.895279 0.990273 0.983199 0.873852 0.672733 0.400184 0.084427 0.241266 0.542050 0.785244 0.943920 0.999991 0.946371 0.788007 0.541576 0.233864 0.101050 0.425490 0.702418 0.899702 0.993912 0.973230 0.839067 0.606170 0.301151 0.040438 0.378156 0.671451 0.884553 0.990917 0.976654 0.842492 0.603985 0.289859 0.061305 0.405726 0.699866 0.905965 0.996984 0.960285 0.799556 0.534635 0.199246 0.163173
1.000000 1.000000 1.000000 1.000000 1.000000 1.000000 1.000000 1.000000 1.000000 1.000000 1.000000 1.000000 1.000000 1.000000 1.000000 1.000000 1.000000 1.000000 1.000000 1.000000 1.000000 1.000000 1.000000 1.000000 1.000000 1.000000 1.000000 1.000000 1.000000 1.000000 1.000000 1.000000 1.000000 1.000000 1.000000 1.000000 1.000000 1.000000 1.000000 1.000000 1.000000 1.000000 1.000000 1.000000 1.000000 1.000000 1.000000 1.000000 1.000000 1.000000 1.000000 1.000000 0.918769 0.918769 0.918769 0.912320 0.912320 0.912320 0.912320 0.912320 0.912320 0.912320 0.912320 0.912320 0.912320 0.912320 0.912320 0.912320 0.912320 0.912320 0.912320 0.912320 0.912320 0.912320 0.912320 0.912320 0.912320 0.912320 0.912320 0.912320 0.912320 0.912320 0.912320 0.912320 0.912320 0.912320 0.912320 0.912320 0.912320 0.912320 0.912320 0.912320 0.912320 0.912320 0.912320 0.912320 0.941322 0.942749 0.950978 0.950577 0.949984 0.947942 0.946745 0.946396 0.946298 0.946632 0.947342 0.948308 0.954546 0.955781 0.960201 0.961875 0.962049 0.963767 0.964453 0.964063 0.955509 0.955293 0.953906 0.953352 0.955878 0.954951 0.954183 0.955154 0.955047 0.955476 0.955451 0.954774 0.953710 0.952631 0.951704 0.951297 0.951094 0.951820 0.952234 0.953694 0.956971 0.957559 0.957692 0.956046 0.954894 0.956176 0.955305 0.954725 0.942741 0.942369 0.941120 0.941151 0.944230 0.944254 0.944837 0.945453 0.947212 0.947581 0.943084 0.942250 0.934322 0.931586 0.928922 0.923404 0.918775 0.920674 0.922466 0.923199 0.923508 0.918389 0.918259 0.916146 0.912149 0.914624 0.914749 0.916137 0.917556 0.916148 0.915620 0.914280 0.912738 0.905124 0.893056 0.891741 0.888966 0.893908 0.894290 0.893335 0.896563 0.885722 0.870697 0.845215 0.847602 0.850938 0.841895 0.838047 0.838240 0.838898 0.842831 0.835317 0.833086 0.828237 0.817553 0.811377 0.804871 0.795674 0.795602 0.787237 0.777792 0.773594 0.797713 0.791866 0.802104 0.806581 0.806253 0.803549 0.796816 0.787855 0.763584 0.763610 0.744340 0.716968 0.717499 0.715948 0.715781 0.714121 0.719878 0.710825 0.708637 0.690747 0.686945 0.692370 0.696067 0.693329 0.694076 0.698596 0.703028 0.684296 0.673926 0.665085 0.671029 0.671672 0.671706 0.678489 0.655619 0.636994 0.623380 0.632432 0.639359 0.616215 0.628168 0.641701 0.617389 0.613991 0.604481 0.607507 0.597002 0.599709 0.597685 0.596472 0.602469 0.616861 0.606642 0.607541 0.617768 0.622894 0.635235 0.635866 0.638402 0.601841 0.604982 0.626293 0.630684 0.611967 0.627527 0.616034 0.634118 0.673913 0.664991 0.632479 0.626073 0.613010 0.575232 0.558966 0.554094 0.562479 0.595898 0.597502 0.574194 0.546503 0.549489 0.557700 0.562678 0.563048 0.547248 0.556121 0.544572 0.521302 0.530696 0.537400 0.536088 0.522143 0.509019 0.510161 0.511240 0.526024 0.521616 0.490939 0.510213 0.506160 0.494484 0.421470 0.435826 0.423546 0.413299 0.364465 0.375080 0.383406 0.369614 0.292974 0.280414 0.281277 0.280313 0.262399 0.241215 0.218032 0.207819 0.166321 0.171262 0.156190 0.130503 0.133726 0.118529 0.109359 0.113746 0.084932 0.138925 0.202665 0.204440 0.204440 0.204440 0.204440 0.204440 0.204440 0.187098 0.187098 0.187098 0.187098 0.187098 0.187098 0.187098 0.187098 0.187098 0.213119 0.213119 0.213119 0.213119 0.213119 0.213119 0.213119 0.213119 0.213119 0.213119 0.213119 0.213119 0.213119 0.213119
0.000000 0.000000 0.000000 0.000000 0.000000 0.000000 0.000000 0.000000 0.000000 0.000000 0.000000 0.000000 0.000000 0.000000 0.000000 0.000000 0.000000 0.000000 0.000000 0.000000 0.000000 0.000000 0.000000 0.000000 0.000000 0.000000 0.000000 0.000000 0.000000 0.000000 0.000000 0.000000 0.000000 0.000000 0.000000 0.000000 0.000000 0.000000 0.000000 0.000000 0.000000 0.000000 0.000000 0.000000 0.000000 0.000000 0.000000 0.000000 0.000000 0.000000 0.000000 0.000000 0.180334 0.180334 0.180334 0.199007 0.199007 0.199007 0.199007 0.199007 0.199007 0.199007 0.199007 0.199007 0.199007 0.199007 0.199007 0.199007 0.199007 0.199007 0.199007 0.199007 0.199007 0.199007 0.199007 0.199007 0.199007 0.199007 0.199007 0.199007 0.199007 0.199007 0.199007 0.199007 0.199007 0.199007 0.199007 0.199007 0.199007 0.199007 0.199007 0.199007 0.199007 0.199007 0.199007 0.199007 0.225018 0.225018 0.225018 0.225018 0.225018 0.225018 0.225018 0.225018 0.225018 0.225018 0.225018 0.225018 0.225018 0.225018 0.225018 0.225018 0.225018 0.225018 0.225018 0.225018 0.225018 0.225018 0.225018 0.225018 0.225018 0.225018 0.225018 0.225018 0.225018 0.244339 0.244339 0.244339 0.244339 0.244339 0.244339 0.244339 0.244339 0.244339 0.244339 0.244339 0.244339 0.244339 0.244339 0.244339 0.244339 0.244339 0.244339 0.244339 0.244339 0.244339 0.244339 0.244339 0.251976 0.251976 0.251976 0.251976 0.251976 0.251976 0.251976 0.251976 0.251976 0.251976 0.251976 0.251976 0.251976 0.251976 0.251976 0.251976 0.251976 0.251976 0.251976 0.251976 0.264906 0.264906 0.264906 0.264906 0.264906 0.264906 0.264906 0.264906 0.264906 0.264906 0.264906 0.264906 0.264906 0.264906 0.264906 0.264906 0.264906 0.264906 0.264906 0.264906 0.264906 0.264906 0.264906 0.264906 0.264906 0.264906 0.264906 0.264906 0.264906 0.264906 0.264906 0.264906 0.264906 0.264906 0.264906 0.264906 0.264906 0.264906 0.264906 0.264906 0.264906 0.264906 0.264906 0.264906 0.264906 0.264906 0.264906 0.264906 0.264906 0.264906 0.264906 0.264906 0.264906 0.264906 0.264906 0.264906 0.264906 0.264906 0.264906 0.264906 0.264906 0.264906 0.256074 0.256074 0.256074 0.256074 0.256074 0.256074 0.256074 0.256074 0.256074 0.256074 0.256074 0.256074 0.256074 0.256074 0.269680 0.269680 0.269680 0.269680 0.269680 0.269680 0.269680 0.269680 0.269680 0.269680 0.269680 0.269680 0.264906 0.264906 0.264906 0.264906 0.264906 0.264906 0.264906 0.264906 0.264906 0.264906 0.264906 0.264906 0.269680 0.269680 0.269680 0.269680 0.269680 0.269680 0.269680 0.269680 0.269680 0.269680 0.269680 0.264906 0.264906 0.264906 0.264906 0.264906 0.264906 0.264906 0.264906 0.264906 0.264906 0.264906 0.256074 0.256074 0.256074 0.256074 0.256074 0.256074 0.256074 0.256074 0.256074 0.256074 0.256074 0.264906 0.264906 0.264906 0.264906 0.264906 0.264906 0.264906 0.264906 0.264906 0.264906 0.260378 0.260378 0.260378 0.260378 0.260378 0.260378 0.260378 0.260378 0.260378 0.260378 0.256074 0.256074 0.256074 0.256074 0.256074 0.256074 0.256074 0.256074 0.256074 0.256074 0.260378 0.260378 0.260378 0.260378 0.260378 0.260378 0.260378 0.260378 0.260378 0.256074 0.256074 0.256074 0.256074 0.256074 0.256074 0.256074 0.256074 0.256074 0.251976 0.251976 0.251976 0.251976 0.251976 0.251976 0.251976 0.251976 0.251976 0.251976 0.251976 0.251976 0.251976 0.251976
