# Output from CTFFind version 4.1.9, run on 2019-11-03 20:07:50
# Input file: stack6_bm3d_averaged_1_7.5_0_1500_half.mrc ; Number of micrographs: 1
# Pixel size: 3.000 Angstroms ; acceleration voltage: 300.0 keV ; spherical aberration: 0.00 mm ; amplitude contrast: 0.07
# Box size: 512 pixels ; min. res.: 30.0 Angstroms ; max. res.: 5.0 Angstroms ; min. def.: 5000.0 um; max. def. 50000.0 um; num. frames averaged: 1
# 6 lines per micrograph: #1 - spatial frequency (1/Angstroms); #2 - 1D rotational average of spectrum (assuming no astigmatism); #3 - 1D rotational average of spectrum; #4 - CTF fit; #5 - cross-correlation between spectrum and CTF fit; #6 - 2sigma of expected cross correlation of noise
0.000000 0.000651 0.001302 0.001953 0.002604 0.003255 0.003906 0.004557 0.005208 0.005859 0.006510 0.007161 0.007812 0.008464 0.009115 0.009766 0.010417 0.011068 0.011719 0.012370 0.013021 0.013672 0.014323 0.014974 0.015625 0.016276 0.016927 0.017578 0.018229 0.018880 0.019531 0.020182 0.020833 0.021484 0.022135 0.022786 0.023438 0.024089 0.024740 0.025391 0.026042 0.026693 0.027344 0.027995 0.028646 0.029297 0.029948 0.030599 0.031250 0.031901 0.032552 0.033203 0.033854 0.034505 0.035156 0.035807 0.036458 0.037109 0.037760 0.038411 0.039062 0.039714 0.040365 0.041016 0.041667 0.042318 0.042969 0.043620 0.044271 0.044922 0.045573 0.046224 0.046875 0.047526 0.048177 0.048828 0.049479 0.050130 0.050781 0.051432 0.052083 0.052734 0.053385 0.054036 0.054688 0.055339 0.055990 0.056641 0.057292 0.057943 0.058594 0.059245 0.059896 0.060547 0.061198 0.061849 0.062500 0.063151 0.063802 0.064453 0.065104 0.065755 0.066406 0.067057 0.067708 0.068359 0.069010 0.069661 0.070312 0.070964 0.071615 0.072266 0.072917 0.073568 0.074219 0.074870 0.075521 0.076172 0.076823 0.077474 0.078125 0.078776 0.079427 0.080078 0.080729 0.081380 0.082031 0.082682 0.083333 0.083984 0.084635 0.085286 0.085938 0.086589 0.087240 0.087891 0.088542 0.089193 0.089844 0.090495 0.091146 0.091797 0.092448 0.093099 0.093750 0.094401 0.095052 0.095703 0.096354 0.097005 0.097656 0.098307 0.098958 0.099609 0.100260 0.100911 0.101562 0.102214 0.102865 0.103516 0.104167 0.104818 0.105469 0.106120 0.106771 0.107422 0.108073 0.108724 0.109375 0.110026 0.110677 0.111328 0.111979 0.112630 0.113281 0.113932 0.114583 0.115234 0.115885 0.116536 0.117188 0.117839 0.118490 0.119141 0.119792 0.120443 0.121094 0.121745 0.122396 0.123047 0.123698 0.124349 0.125000 0.125651 0.126302 0.126953 0.127604 0.128255 0.128906 0.129557 0.130208 0.130859 0.131510 0.132161 0.132812 0.133464 0.134115 0.134766 0.135417 0.136068 0.136719 0.137370 0.138021 0.138672 0.139323 0.139974 0.140625 0.141276 0.141927 0.142578 0.143229 0.143880 0.144531 0.145182 0.145833 0.146484 0.147135 0.147786 0.148438 0.149089 0.149740 0.150391 0.151042 0.151693 0.152344 0.152995 0.153646 0.154297 0.154948 0.155599 0.156250 0.156901 0.157552 0.158203 0.158854 0.159505 0.160156 0.160807 0.161458 0.162109 0.162760 0.163411 0.164062 0.164714 0.165365 0.166016 0.166667 0.167318 0.167969 0.168620 0.169271 0.169922 0.170573 0.171224 0.171875 0.172526 0.173177 0.173828 0.174479 0.175130 0.175781 0.176432 0.177083 0.177734 0.178385 0.179036 0.179688 0.180339 0.180990 0.181641 0.182292 0.182943 0.183594 0.184245 0.184896 0.185547 0.186198 0.186849 0.187500 0.188151 0.188802 0.189453 0.190104 0.190755 0.191406 0.192057 0.192708 0.193359 0.194010 0.194661 0.195312 0.195964 0.196615 0.197266 0.197917 0.198568 0.199219 0.199870 0.200521 0.201172 0.201823 0.202474 0.203125 0.203776 0.204427 0.205078 0.205729 0.206380 0.207031 0.207682 0.208333 0.208984 0.209635 0.210286 0.210938 0.211589 0.212240 0.212891 0.213542 0.214193 0.214844 0.215495 0.216146 0.216797 0.217448 0.218099 0.218750 0.219401 0.220052 0.220703 0.221354 0.222005 0.222656 0.223307 0.223958 0.224609 0.225260 0.225911 0.226562 0.227214 0.227865 0.228516 0.229167 0.229818 0.230469 0.231120 0.231771 0.232422 0.233073 0.233724 0.234375 0.235026 0.235677
       0.33327        0.33327        0.33327        0.33327        0.33327        0.33327        0.33327        0.33327        0.33327        0.33327        0.33327        0.33327        0.33327        0.33327        0.33327        0.33327        0.33327        0.33327        0.33327        0.33327        0.33327        0.33327        0.33327        0.33327        0.33327        0.33327        0.33327        0.33327        0.33327        0.33327        0.33327        0.33327        0.33327        0.33327        0.33327        0.33327        0.33327        0.33327        0.33327        0.33327        0.33327        0.33327        0.33327        0.33327        0.33327        0.33327        0.33327        0.33327        0.33327        0.33327        0.33327        0.59598        0.70856        0.36614        0.17254        0.13999       -0.12785        0.11321        0.04185        0.04417        0.09410        0.30994        0.30679        0.23604        0.14202       -0.03703       -0.00933        0.05263       -0.08809       -0.09466       -0.06796       -0.07402       -0.17176       -0.10888       -0.21801       -0.23726       -0.23564       -0.29369       -0.36413       -0.29290       -0.20203       -0.16617       -0.27364       -0.19909       -0.23837       -0.17961       -0.12071       -0.06200       -0.03422        0.02083        0.06984        0.15239        0.19336        0.23575        0.34733        0.41219        0.36224        0.48452        0.54582        0.55423        0.62991        0.55402        0.58414        0.60478        0.60469        0.59388        0.56029        0.59719        0.54166        0.39963        0.35581        0.37841        0.34452        0.21355        0.20551        0.17518        0.11849        0.11600        0.04440        0.11208        0.08960        0.05739        0.13794        0.19242        0.27891        0.34928        0.36727        0.39973        0.44914        0.48182        0.42328        0.63728        0.55087        0.48231        0.56973        0.50414        0.55956        0.51781        0.39184        0.32983        0.31603        0.27053        0.26042        0.21665        0.19889        0.17756        0.26940        0.24745        0.26607        0.23696        0.27598        0.33970        0.33885        0.45093        0.44649        0.43345        0.41868        0.48272        0.43666        0.41689        0.40870        0.39747        0.33695        0.28409        0.28464        0.27285        0.27129        0.21659        0.20637        0.25404        0.27104        0.29128        0.35192        0.38748        0.42806        0.41819        0.42982        0.49210        0.47590        0.43086        0.38329        0.41902        0.38322        0.33182        0.34155        0.33276        0.27488        0.28559        0.28197        0.25858        0.32215        0.30148        0.32061        0.34059        0.40038        0.42376        0.41355        0.44241        0.39203        0.43482        0.40801        0.33678        0.30232        0.27785        0.28817        0.26062        0.22949        0.31566        0.37848        0.34002        0.31242        0.36826        0.29496        0.35342        0.40465        0.38957        0.36668        0.38043        0.34959        0.36420        0.33624        0.30867        0.28979        0.27203        0.32351        0.33500        0.35488        0.36922        0.39107        0.37306        0.36900        0.32816        0.35825        0.36657        0.34703        0.33089        0.29174        0.29019        0.27288        0.34218        0.33809        0.35132        0.32014        0.35133        0.37440        0.34048        0.35822        0.35113        0.31678        0.31384        0.31102        0.28410        0.27476        0.26514        0.25613        0.27683        0.26957        0.30548        0.27654        0.31825        0.36258        0.26535        0.29704        0.28398        0.25132        0.30620        0.28868        0.28976        0.31621        0.33053        0.33136        0.31861        0.31754        0.31460        0.36449        0.36117        0.30428        0.32842        0.32044        0.37070        0.28112        0.28012        0.29760        0.30825        0.33400        0.36846        0.35911        0.29810        0.23403        0.29919        0.26983        0.26072        0.26222        0.27827        0.31126        0.24073        0.30790        0.33421        0.36900        0.31137        0.31847        0.28617        0.29599        0.29218        0.26900        0.29150        0.27142        0.28603        0.35356        0.35022        0.28591        0.32709        0.33081        0.26280        0.23179        0.18976        0.33386        0.32910        0.36193        0.34746        0.29407        0.23247        0.22177        0.27924        0.27304        0.27223        0.29520        0.29395        0.24788        0.28406        0.28525        0.31022        0.28340        0.28127        0.27597        0.24747        0.23446        0.29080        0.25208        0.21678        0.26133        0.25886        0.26409        0.22669        0.20636        0.27331        0.30516        0.28052        0.20428        0.14743        0.28869        0.22700        0.26090        0.27497        0.16741        0.16230        0.20428        0.24255        0.30361        0.09269       -0.11762       -0.61068       -0.97076
2.430466 2.409877 2.389379 2.368973 2.348657 2.328433 2.308299 2.288257 2.268306 2.248446 2.228677 2.209000 2.189413 2.169918 2.150513 2.131200 2.111978 2.092846 2.073806 2.054858 2.036000 2.017233 1.998558 1.979973 1.961480 1.943077 1.924766 1.906546 1.888417 1.870379 1.852432 1.834577 1.816812 1.799139 1.781556 1.764065 1.746665 1.729356 1.712138 1.695011 1.677975 1.661031 1.644177 1.627415 1.610744 1.594163 1.577674 1.561276 1.544969 1.528754 1.512629 1.870354 2.212757 1.536800 1.331812 1.107189 0.519631 0.937051 0.803946 0.847913 0.701444 1.428733 1.195716 1.213003 0.988880 0.595533 0.470031 0.748764 0.605434 0.285136 0.271100 0.488753 0.249384 0.267140 0.110697 -0.001961 -0.016462 -0.009040 -0.321211 -0.141991 0.013661 0.012109 -0.080409 -0.013492 -0.103230 -0.082012 0.069511 0.199744 0.261824 0.282035 0.389147 0.634675 0.565143 0.672424 0.830743 1.066776 0.807807 1.274248 1.198540 1.275624 1.375007 1.265990 1.163686 1.379756 1.242584 1.348865 1.209639 1.211312 1.225269 0.966804 0.719656 0.751818 0.798827 0.483734 0.451342 0.373996 0.242523 0.198557 0.034995 0.237823 0.176175 0.062865 0.143790 0.240701 0.366516 0.608519 0.611842 0.633265 0.698261 0.882106 0.595830 1.030127 1.057033 0.777101 0.928486 0.772633 0.892187 0.922392 0.654467 0.409994 0.440912 0.389626 0.223438 0.247288 0.162229 -0.014972 0.255374 0.236197 0.263218 0.159212 0.248882 0.335160 0.276831 0.502692 0.604607 0.558039 0.367790 0.650393 0.562859 0.417022 0.543538 0.434554 0.266765 0.311332 0.140092 0.216730 0.025294 0.216003 -0.053744 0.057762 0.067325 0.259890 0.047578 0.400146 0.351454 0.406097 0.380107 0.420147 0.592471 0.410578 0.344566 0.399181 0.196918 0.364238 0.106528 0.268574 0.064780 0.090115 0.080308 0.061620 0.045819 0.158104 0.057197 0.159232 0.242289 0.287347 0.329736 0.264017 0.345351 0.264043 0.293793 0.188253 0.104642 0.019409 -0.006661 0.017361 -0.063248 -0.071971 0.127505 0.219538 0.052742 0.108560 0.131170 0.007935 0.192089 0.260410 0.188670 0.179526 0.129639 0.170065 0.104773 0.096401 0.046025 -0.087193 -0.000773 0.132935 0.055786 0.155597 0.136659 0.222092 0.178274 0.152270 0.107316 0.187714 0.100829 0.145365 0.090961 0.007063 -0.011910 -0.012825 0.128980 0.121934 0.132775 0.060362 0.152282 0.164603 0.043950 0.145609 0.054518 -0.008948 0.028226 0.008484 -0.060068 -0.060943 -0.117374 -0.049023 -0.052601 -0.098247 0.009803 -0.050680 0.044270 0.104749 -0.115266 0.021593 -0.052336 -0.095849 0.050564 -0.022650 -0.060522 0.044541 0.100582 0.031127 0.058328 -0.045183 0.026478 0.206942 0.011180 -0.049415 0.079616 0.040848 0.111889 -0.112285 -0.047852 -0.005017 0.043786 0.060636 0.103051 0.131242 -0.051350 -0.110893 0.009026 -0.062269 -0.065579 -0.046962 -0.044084 0.054820 -0.175942 0.129171 0.134086 0.185168 0.037992 0.059218 0.035657 0.030878 0.095925 -0.022887 0.041569 0.011123 0.052354 0.145127 0.192801 0.043766 0.169511 0.169309 -0.040025 -0.010287 -0.160321 0.239550 0.134158 0.215940 0.175051 0.028590 -0.061774 -0.091611 0.020247 0.011845 -0.019390 0.050752 0.048975 -0.080524 0.018204 0.113529 0.068406 0.036198 0.006196 0.056861 -0.110161 -0.013660 0.059174 -0.034274 -0.123816 0.036199 -0.012592 -0.041887 -0.039967 -0.120464 0.081794 0.121223 -0.004402 -0.094267 -0.350139 0.177570 0.511250 0.455370 0.577093 0.262703 0.323636 0.415933 0.511400 0.583566 0.037659 0.014504 -0.936765
0.072396 0.072838 0.074163 0.076371 0.079462 0.083435 0.088289 0.094022 0.100634 0.108122 0.116484 0.125716 0.135815 0.146776 0.158594 0.171262 0.184772 0.199116 0.214282 0.230259 0.247032 0.264586 0.282903 0.301961 0.321739 0.342209 0.363344 0.385111 0.407474 0.430396 0.453833 0.477738 0.502061 0.526747 0.551735 0.576960 0.602354 0.627843 0.653346 0.678779 0.704051 0.729069 0.753731 0.777931 0.801559 0.824499 0.846629 0.867825 0.887956 0.906890 0.924488 0.940610 0.955112 0.967851 0.978680 0.987451 0.994019 0.998237 0.999964 0.999060 0.995388 0.988821 0.979236 0.966518 0.950564 0.931282 0.908590 0.882425 0.852736 0.819493 0.782682 0.742313 0.698416 0.651047 0.600285 0.546238 0.489041 0.428857 0.365881 0.300336 0.232478 0.162594 0.091002 0.018050 0.055883 0.130388 0.205031 0.279348 0.352856 0.425047 0.495396 0.563366 0.628407 0.689964 0.747479 0.800402 0.848190 0.890315 0.926273 0.955588 0.977820 0.992569 0.999485 0.998277 0.988713 0.970632 0.943948 0.908657 0.864842 0.812675 0.752424 0.684454 0.609231 0.527317 0.439375 0.346165 0.248540 0.147440 0.043885 0.061028 0.166143 0.270251 0.372106 0.470437 0.563965 0.651424 0.731572 0.803218 0.865233 0.916578 0.956321 0.983654 0.997916 0.998607 0.985407 0.958192 0.917039 0.862242 0.794319 0.714007 0.622269 0.520285 0.409446 0.291336 0.167716 0.040506 0.088250 0.216406 0.341757 0.462066 0.575119 0.678750 0.770902 0.849658 0.913296 0.960323 0.989521 0.999980 0.991137 0.962795 0.915150 0.848800 0.764752 0.664419 0.549605 0.422480 0.285552 0.141622 0.006269 0.154897 0.300927 0.440980 0.571721 0.689935 0.792613 0.877034 0.940842 0.982127 0.999484 0.992074 0.959665 0.902665 0.822136 0.719788 0.597962 0.459586 0.308120 0.147478 0.018066 0.183983 0.345614 0.498297 0.637510 0.759000 0.858929 0.934004 0.981593 0.999836 0.987727 0.945176 0.873050 0.773168 0.648289 0.502048 0.338864 0.163824 0.017463 0.199040 0.374797 0.538674 0.684877 0.808085 0.903659 0.967832 0.997874 0.992225 0.950588 0.873990 0.764777 0.626575 0.464192 0.283467 0.091080 0.105682 0.299199 0.481803 0.646095 0.785242 0.893285 0.965408 0.998170 0.989698 0.939809 0.850073 0.723801 0.565943 0.382939 0.182460 0.026882 0.235900 0.435226 0.615737 0.768976 0.887568 0.965597 0.998919 0.985421 0.925170 0.820481 0.675864 0.497862 0.294798 0.076395 0.146661 0.363236 0.562304 0.733521 0.867767 0.957665 0.998014 0.986118 0.922006 0.808499 0.651135 0.457938 0.239048 0.006209 0.227834 0.450029 0.647754 0.809529 0.925727 0.989163 0.995583 0.943987 0.836772 0.679681 0.481538 0.253798 0.009912 0.235431 0.467203 0.670938 0.833664 0.944749 0.996643 0.985427 0.911160 0.777971 0.593885 0.370404 0.121820 0.135662 0.384967 0.609279 0.793179 0.923751 0.991510 0.991152 0.922021 0.788260 0.598637 0.366026 0.106581 0.161341 0.418481 0.646035 0.827068 0.947796 0.998685 0.975268 0.878586 0.715243 0.497021 0.240102 0.036101 0.310362 0.561273 0.768927 0.916516 0.991754 0.987952 0.904681 0.747947 0.529842 0.267673 0.017345 0.301778 0.561874 0.775578 0.924413 0.995148 0.981031 0.882517 0.707374 0.470168 0.191118 0.105567 0.393759 0.647693 0.844311 0.965377 0.999256 0.942097 0.798357 0.580554 0.308267 0.006448 0.296823 0.572914 0.795383 0.942524 0.999570 0.960250 0.827572 0.613716 0.339009 0.030078 0.282680 0.568056 0.797160 0.946401 0.999962
1.000000 1.000000 1.000000 1.000000 1.000000 1.000000 1.000000 1.000000 1.000000 1.000000 1.000000 1.000000 1.000000 1.000000 1.000000 1.000000 1.000000 1.000000 1.000000 1.000000 1.000000 1.000000 1.000000 1.000000 1.000000 1.000000 1.000000 1.000000 1.000000 1.000000 1.000000 1.000000 1.000000 1.000000 1.000000 1.000000 1.000000 1.000000 1.000000 1.000000 1.000000 1.000000 1.000000 1.000000 1.000000 1.000000 1.000000 1.000000 1.000000 1.000000 1.000000 1.000000 0.769371 0.769371 0.769371 0.769371 0.769371 0.769371 0.769371 0.757595 0.757595 0.757595 0.757595 0.757595 0.757595 0.757595 0.757595 0.757595 0.757595 0.757595 0.757595 0.757595 0.757595 0.757595 0.757595 0.757595 0.757595 0.757595 0.757595 0.757595 0.757595 0.757595 0.757595 0.757595 0.757595 0.757595 0.757595 0.757595 0.757595 0.757595 0.757595 0.757595 0.757595 0.757595 0.757595 0.757595 0.757595 0.757595 0.757595 0.757595 0.757595 0.757595 0.757595 0.900294 0.901761 0.904817 0.900235 0.902166 0.896943 0.890461 0.893199 0.893822 0.893628 0.894452 0.896154 0.898211 0.905557 0.914479 0.916396 0.923322 0.926710 0.926672 0.928139 0.926663 0.934081 0.931454 0.929656 0.917728 0.921277 0.923252 0.922278 0.921121 0.917970 0.923618 0.922215 0.920107 0.914796 0.910826 0.908850 0.910486 0.908207 0.908798 0.908985 0.909938 0.908113 0.908911 0.905060 0.906018 0.904924 0.901378 0.898464 0.898230 0.899696 0.897995 0.894575 0.888152 0.894036 0.894128 0.893298 0.892212 0.892423 0.893218 0.894000 0.894679 0.892238 0.892292 0.889715 0.891484 0.888030 0.883342 0.877282 0.877676 0.880215 0.887419 0.889543 0.888156 0.885241 0.876741 0.866074 0.863649 0.852184 0.822357 0.824372 0.827568 0.829577 0.829942 0.828918 0.825116 0.820984 0.813008 0.804221 0.808988 0.809480 0.802286 0.798349 0.799275 0.800105 0.807464 0.811164 0.803005 0.799730 0.802052 0.798043 0.799213 0.803209 0.796012 0.793112 0.800047 0.808167 0.808158 0.792599 0.788358 0.785799 0.773835 0.781010 0.787534 0.786693 0.788133 0.785128 0.773306 0.771966 0.765307 0.776195 0.783250 0.782531 0.777545 0.760739 0.717171 0.702480 0.668027 0.666130 0.667742 0.633981 0.634238 0.635713 0.639746 0.583308 0.559684 0.545489 0.546506 0.555694 0.560814 0.554387 0.527934 0.545392 0.541686 0.527160 0.523096 0.505016 0.491612 0.474439 0.476886 0.476099 0.468709 0.437153 0.438738 0.458781 0.467903 0.462988 0.459089 0.431392 0.411025 0.410503 0.402688 0.402413 0.408777 0.417276 0.359486 0.336373 0.322986 0.351753 0.349575 0.347752 0.366778 0.359556 0.352920 0.327759 0.307147 0.276484 0.289145 0.309802 0.313124 0.316625 0.285274 0.276323 0.261289 0.265318 0.310443 0.299905 0.323160 0.328941 0.333958 0.358442 0.331777 0.308321 0.286727 0.329434 0.337989 0.307820 0.302274 0.316693 0.329549 0.328513 0.324363 0.319219 0.365685 0.368574 0.346631 0.346851 0.314152 0.333667 0.364281 0.362428 0.368673 0.378686 0.385005 0.347461 0.270956 0.241581 0.245108 0.221984 0.221944 0.208295 0.193329 0.185359 0.197750 0.219366 0.225416 0.257384 0.225770 0.180167 0.090027 0.156606 0.073046 0.088153 0.088153 0.088153 0.088153 0.088153 0.088153 0.088153 0.088153 0.125314 0.125314 0.125314 0.125314 0.125314 0.125314 0.125314 0.125314 0.125314 0.125314 0.125314 0.125314 0.125314 0.125314 0.125314 0.125314 0.125314 0.125314 0.125314 0.125314 0.125314
0.000000 0.000000 0.000000 0.000000 0.000000 0.000000 0.000000 0.000000 0.000000 0.000000 0.000000 0.000000 0.000000 0.000000 0.000000 0.000000 0.000000 0.000000 0.000000 0.000000 0.000000 0.000000 0.000000 0.000000 0.000000 0.000000 0.000000 0.000000 0.000000 0.000000 0.000000 0.000000 0.000000 0.000000 0.000000 0.000000 0.000000 0.000000 0.000000 0.000000 0.000000 0.000000 0.000000 0.000000 0.000000 0.000000 0.000000 0.000000 0.000000 0.000000 0.000000 0.000000 0.173422 0.173422 0.173422 0.173422 0.173422 0.173422 0.173422 0.191565 0.191565 0.191565 0.191565 0.191565 0.191565 0.191565 0.191565 0.191565 0.191565 0.191565 0.191565 0.191565 0.191565 0.191565 0.191565 0.191565 0.191565 0.191565 0.191565 0.191565 0.191565 0.191565 0.191565 0.191565 0.191565 0.191565 0.191565 0.191565 0.191565 0.191565 0.191565 0.191565 0.191565 0.191565 0.191565 0.191565 0.191565 0.191565 0.191565 0.191565 0.191565 0.191565 0.191565 0.222222 0.222222 0.222222 0.222222 0.222222 0.222222 0.222222 0.222222 0.222222 0.222222 0.222222 0.222222 0.222222 0.222222 0.222222 0.222222 0.222222 0.222222 0.222222 0.222222 0.222222 0.222222 0.222222 0.222222 0.222222 0.222222 0.222222 0.222222 0.222222 0.222222 0.234082 0.234082 0.234082 0.234082 0.234082 0.234082 0.234082 0.234082 0.234082 0.234082 0.234082 0.234082 0.234082 0.234082 0.234082 0.234082 0.234082 0.234082 0.234082 0.234082 0.234082 0.234082 0.234082 0.234082 0.234082 0.244339 0.244339 0.244339 0.244339 0.244339 0.244339 0.244339 0.244339 0.244339 0.244339 0.244339 0.244339 0.244339 0.244339 0.244339 0.244339 0.244339 0.244339 0.244339 0.244339 0.244339 0.248069 0.248069 0.248069 0.248069 0.248069 0.248069 0.248069 0.248069 0.248069 0.248069 0.248069 0.248069 0.248069 0.248069 0.248069 0.248069 0.248069 0.248069 0.248069 0.256074 0.256074 0.256074 0.256074 0.256074 0.256074 0.256074 0.256074 0.256074 0.256074 0.256074 0.256074 0.256074 0.256074 0.256074 0.256074 0.256074 0.256074 0.256074 0.256074 0.256074 0.256074 0.256074 0.256074 0.256074 0.256074 0.256074 0.256074 0.256074 0.256074 0.256074 0.256074 0.256074 0.256074 0.256074 0.256074 0.256074 0.256074 0.256074 0.256074 0.256074 0.256074 0.256074 0.256074 0.256074 0.256074 0.256074 0.256074 0.256074 0.256074 0.256074 0.256074 0.256074 0.256074 0.256074 0.256074 0.256074 0.256074 0.256074 0.256074 0.256074 0.256074 0.260378 0.260378 0.260378 0.260378 0.260378 0.260378 0.260378 0.260378 0.260378 0.260378 0.260378 0.260378 0.260378 0.256074 0.256074 0.256074 0.256074 0.256074 0.256074 0.256074 0.256074 0.256074 0.256074 0.256074 0.256074 0.256074 0.260378 0.260378 0.260378 0.260378 0.260378 0.260378 0.260378 0.260378 0.260378 0.260378 0.260378 0.260378 0.251976 0.251976 0.251976 0.251976 0.251976 0.251976 0.251976 0.251976 0.251976 0.251976 0.251976 0.251976 0.256074 0.256074 0.256074 0.256074 0.256074 0.256074 0.256074 0.256074 0.256074 0.256074 0.256074 0.251976 0.251976 0.251976 0.251976 0.251976 0.251976 0.251976 0.251976 0.251976 0.251976 0.251976 0.260378 0.260378 0.260378 0.260378 0.260378 0.260378 0.260378 0.260378 0.260378 0.260378 0.244339 0.244339 0.244339 0.244339 0.244339 0.244339 0.244339 0.244339 0.244339 0.244339 0.244339 0.244339 0.244339 0.244339 0.244339 0.244339 0.244339 0.244339 0.244339 0.244339 0.244339
