# Output from CTFFind version 4.1.9, run on 2019-11-03 19:45:33
# Input file: stack1_bm3d_averaged_1_5.25_0_750_half.mrc ; Number of micrographs: 1
# Pixel size: 3.000 Angstroms ; acceleration voltage: 300.0 keV ; spherical aberration: 0.00 mm ; amplitude contrast: 0.07
# Box size: 512 pixels ; min. res.: 30.0 Angstroms ; max. res.: 5.0 Angstroms ; min. def.: 5000.0 um; max. def. 50000.0 um; num. frames averaged: 1
# 6 lines per micrograph: #1 - spatial frequency (1/Angstroms); #2 - 1D rotational average of spectrum (assuming no astigmatism); #3 - 1D rotational average of spectrum; #4 - CTF fit; #5 - cross-correlation between spectrum and CTF fit; #6 - 2sigma of expected cross correlation of noise
0.000000 0.000651 0.001302 0.001953 0.002604 0.003255 0.003906 0.004557 0.005208 0.005859 0.006510 0.007161 0.007812 0.008464 0.009115 0.009766 0.010417 0.011068 0.011719 0.012370 0.013021 0.013672 0.014323 0.014974 0.015625 0.016276 0.016927 0.017578 0.018229 0.018880 0.019531 0.020182 0.020833 0.021484 0.022135 0.022786 0.023438 0.024089 0.024740 0.025391 0.026042 0.026693 0.027344 0.027995 0.028646 0.029297 0.029948 0.030599 0.031250 0.031901 0.032552 0.033203 0.033854 0.034505 0.035156 0.035807 0.036458 0.037109 0.037760 0.038411 0.039062 0.039714 0.040365 0.041016 0.041667 0.042318 0.042969 0.043620 0.044271 0.044922 0.045573 0.046224 0.046875 0.047526 0.048177 0.048828 0.049479 0.050130 0.050781 0.051432 0.052083 0.052734 0.053385 0.054036 0.054688 0.055339 0.055990 0.056641 0.057292 0.057943 0.058594 0.059245 0.059896 0.060547 0.061198 0.061849 0.062500 0.063151 0.063802 0.064453 0.065104 0.065755 0.066406 0.067057 0.067708 0.068359 0.069010 0.069661 0.070312 0.070964 0.071615 0.072266 0.072917 0.073568 0.074219 0.074870 0.075521 0.076172 0.076823 0.077474 0.078125 0.078776 0.079427 0.080078 0.080729 0.081380 0.082031 0.082682 0.083333 0.083984 0.084635 0.085286 0.085938 0.086589 0.087240 0.087891 0.088542 0.089193 0.089844 0.090495 0.091146 0.091797 0.092448 0.093099 0.093750 0.094401 0.095052 0.095703 0.096354 0.097005 0.097656 0.098307 0.098958 0.099609 0.100260 0.100911 0.101562 0.102214 0.102865 0.103516 0.104167 0.104818 0.105469 0.106120 0.106771 0.107422 0.108073 0.108724 0.109375 0.110026 0.110677 0.111328 0.111979 0.112630 0.113281 0.113932 0.114583 0.115234 0.115885 0.116536 0.117188 0.117839 0.118490 0.119141 0.119792 0.120443 0.121094 0.121745 0.122396 0.123047 0.123698 0.124349 0.125000 0.125651 0.126302 0.126953 0.127604 0.128255 0.128906 0.129557 0.130208 0.130859 0.131510 0.132161 0.132812 0.133464 0.134115 0.134766 0.135417 0.136068 0.136719 0.137370 0.138021 0.138672 0.139323 0.139974 0.140625 0.141276 0.141927 0.142578 0.143229 0.143880 0.144531 0.145182 0.145833 0.146484 0.147135 0.147786 0.148438 0.149089 0.149740 0.150391 0.151042 0.151693 0.152344 0.152995 0.153646 0.154297 0.154948 0.155599 0.156250 0.156901 0.157552 0.158203 0.158854 0.159505 0.160156 0.160807 0.161458 0.162109 0.162760 0.163411 0.164062 0.164714 0.165365 0.166016 0.166667 0.167318 0.167969 0.168620 0.169271 0.169922 0.170573 0.171224 0.171875 0.172526 0.173177 0.173828 0.174479 0.175130 0.175781 0.176432 0.177083 0.177734 0.178385 0.179036 0.179688 0.180339 0.180990 0.181641 0.182292 0.182943 0.183594 0.184245 0.184896 0.185547 0.186198 0.186849 0.187500 0.188151 0.188802 0.189453 0.190104 0.190755 0.191406 0.192057 0.192708 0.193359 0.194010 0.194661 0.195312 0.195964 0.196615 0.197266 0.197917 0.198568 0.199219 0.199870 0.200521 0.201172 0.201823 0.202474 0.203125 0.203776 0.204427 0.205078 0.205729 0.206380 0.207031 0.207682 0.208333 0.208984 0.209635 0.210286 0.210938 0.211589 0.212240 0.212891 0.213542 0.214193 0.214844 0.215495 0.216146 0.216797 0.217448 0.218099 0.218750 0.219401 0.220052 0.220703 0.221354 0.222005 0.222656 0.223307 0.223958 0.224609 0.225260 0.225911 0.226562 0.227214 0.227865 0.228516 0.229167 0.229818 0.230469 0.231120 0.231771 0.232422 0.233073 0.233724 0.234375 0.235026 0.235677
       0.34945        0.34945        0.34945        0.34945        0.34945        0.34945        0.34945        0.34945        0.34945        0.34945        0.34945        0.34945        0.34945        0.34945        0.34945        0.34945        0.34945        0.34945        0.34945        0.34945        0.34945        0.34945        0.34945        0.34945        0.34945        0.34945        0.34945        0.34945        0.34945        0.34945        0.34945        0.34945        0.34945        0.34945        0.34945        0.34945        0.34945        0.34945        0.34945        0.34945        0.34945        0.34945        0.34945        0.34945        0.34945        0.34945        0.34945        0.34945        0.34945        0.34945        0.34945        0.40378        0.59163        0.27824        0.12426       -0.01549       -0.27023       -0.09755       -0.17465       -0.20555        0.01546       -0.13201       -0.11085       -0.05856       -0.03879       -0.12969       -0.15853       -0.29613       -0.39851       -0.50380       -0.44448       -0.34554       -0.27230       -0.39461       -0.30516       -0.40150       -0.33771       -0.38461       -0.20390       -0.20032       -0.25605       -0.09018       -0.04403       -0.04764        0.08126        0.02968        0.20359        0.21987        0.33390        0.36686        0.44973        0.48374        0.53876        0.60071        0.66503        0.56651        0.52609        0.50607        0.48433        0.56879        0.48035        0.42547        0.40602        0.33064        0.28576        0.30853        0.32213        0.22061        0.19078        0.09293        0.12967        0.13313        0.15811        0.12671        0.19095        0.24126        0.30143        0.29695        0.33104        0.46163        0.42045        0.48543        0.63208        0.62220        0.55390        0.55231        0.57653        0.42501        0.48043        0.36942        0.31600        0.28986        0.24831        0.25123        0.19387        0.17069        0.15056        0.22187        0.24725        0.27524        0.34055        0.32760        0.40710        0.47316        0.46997        0.45003        0.47939        0.54958        0.49116        0.47696        0.42334        0.35233        0.33972        0.26699        0.29730        0.23417        0.22022        0.28411        0.23389        0.25603        0.32054        0.41392        0.41365        0.44529        0.42525        0.50395        0.49807        0.46906        0.43719        0.39109        0.38136        0.39289        0.40174        0.34218        0.28191        0.31325        0.29050        0.29540        0.29945        0.34330        0.37431        0.39552        0.45326        0.48869        0.40678        0.42893        0.43000        0.39526        0.32888        0.36925        0.32533        0.31810        0.33339        0.29043        0.25980        0.32400        0.34087        0.41615        0.42494        0.41387        0.40517        0.39756        0.37258        0.37110        0.31188        0.31733        0.34794        0.30254        0.31121        0.32892        0.34665        0.34836        0.35309        0.38669        0.38549        0.45768        0.39467        0.34199        0.36157        0.34439        0.33358        0.33045        0.33302        0.37344        0.33440        0.35554        0.35101        0.41310        0.37687        0.36155        0.38318        0.37944        0.36019        0.33979        0.33144        0.30873        0.35066        0.33081        0.31256        0.32639        0.36036        0.35117        0.34157        0.33586        0.30400        0.29969        0.27866        0.31305        0.33280        0.34988        0.33453        0.32434        0.37157        0.33348        0.34041        0.32496        0.29963        0.34061        0.31648        0.31545        0.34146        0.32537        0.31624        0.29836        0.34188        0.36974        0.32482        0.31323        0.31921        0.32172        0.29872        0.35120        0.32227        0.28785        0.33750        0.30241        0.34488        0.35325        0.37461        0.31482        0.31301        0.26586        0.33502        0.36156        0.34354        0.31404        0.31092        0.32990        0.32326        0.29179        0.31763        0.31910        0.31496        0.30541        0.29926        0.29820        0.29525        0.29870        0.31992        0.27802        0.30928        0.35619        0.36763        0.34641        0.31561        0.32895        0.28329        0.30597        0.28992        0.33234        0.33949        0.27259        0.26102        0.32166        0.33093        0.32135        0.28678        0.30021        0.32698        0.28975        0.30563        0.33388        0.33071        0.28205        0.25587        0.30028        0.33823        0.28581        0.26037        0.28534        0.27314        0.30582        0.36416        0.30714        0.33049        0.27960        0.26269        0.29806        0.28779        0.23217        0.25450        0.28175        0.24885        0.21772        0.26409        0.29486        0.39662        0.29754        0.25535        0.20761        0.23975        0.25811        0.24483        0.33475        0.21121        0.15898        0.29780        0.39917        0.30202        0.13241        0.07208       -0.57232       -1.11680
2.975129 2.942664 2.910379 2.878273 2.846347 2.814600 2.783033 2.751646 2.720438 2.689409 2.658560 2.627891 2.597401 2.567090 2.536959 2.507008 2.477236 2.447644 2.418231 2.388997 2.359944 2.331070 2.302375 2.273860 2.245524 2.217368 2.189391 2.161594 2.133976 2.106538 2.079279 2.052200 2.025301 1.998581 1.972040 1.945679 1.919498 1.893496 1.867674 1.842031 1.816567 1.791284 1.766179 1.741254 1.716509 1.691943 1.667557 1.643351 1.619323 1.595476 1.571808 1.534522 1.881024 1.624481 1.221422 0.980437 0.410253 0.888208 0.514846 0.652118 0.877369 0.677226 0.576739 0.748192 0.690594 0.611289 0.515931 0.325530 0.110919 -0.021457 -0.017155 0.009608 0.385664 -0.040246 0.123659 -0.001164 0.063220 -0.061752 0.200469 0.170885 0.081290 0.264185 0.377473 0.276285 0.468984 0.386320 0.667776 0.558818 0.798856 0.753709 0.858232 1.018670 0.919264 1.112594 1.129531 1.087863 0.899213 0.885013 0.871828 0.895476 0.852637 0.740399 0.635351 0.584732 0.503253 0.468804 0.505902 0.362739 0.317708 0.165108 0.127419 0.167202 0.188013 0.121654 0.160458 0.246796 0.328490 0.327185 0.386780 0.402386 0.536957 0.378446 0.715729 0.743909 0.645679 0.590077 0.651382 0.439496 0.413192 0.387518 0.200494 0.211308 0.063268 0.156208 -0.009029 0.001397 -0.073238 -0.056139 0.105287 0.027374 0.113671 0.167358 0.204665 0.283823 0.346037 0.287589 0.328629 0.382779 0.385936 0.324589 0.279647 0.185712 0.140321 0.057821 -0.007490 0.006967 -0.108745 0.009921 0.009772 -0.086643 -0.045957 0.116684 0.244049 0.160307 0.248451 0.210789 0.411353 0.274634 0.266053 0.267043 0.151354 0.110405 0.287556 0.070664 0.075132 0.009559 0.074533 -0.008178 0.081381 -0.001268 0.163668 0.052886 0.200103 0.260846 0.264004 0.123770 0.194186 0.160091 0.087245 0.082278 0.077870 0.005112 0.017743 0.050743 -0.086581 -0.063104 0.044404 0.048011 0.209967 0.117220 0.147639 0.066432 0.097759 0.042263 0.023522 -0.067020 -0.002866 0.000087 -0.066156 -0.023296 -0.006583 0.024781 -0.025825 0.031556 0.075093 0.075610 0.202260 -0.001565 0.029868 0.026485 -0.020761 -0.001748 -0.019460 0.018788 0.069320 -0.030272 0.016427 0.037560 0.133811 0.024162 0.037613 0.082019 0.021879 0.043358 -0.018239 0.001855 -0.035821 0.022347 -0.010902 -0.029356 -0.016239 0.059659 -0.021876 0.026930 -0.020922 -0.051907 -0.053301 -0.082642 -0.019665 0.009746 0.041480 -0.023205 -0.003835 0.072053 -0.001678 0.039856 -0.016728 -0.019054 0.034289 -0.022630 0.022703 0.039801 0.017460 -0.008209 -0.019275 0.069139 0.073293 0.019996 0.016100 0.043545 -0.014595 0.026579 0.075187 0.022342 -0.003542 0.062183 0.033851 0.030827 0.053089 0.077529 0.022133 -0.020781 -0.076042 0.056875 0.100127 0.003671 0.009052 -0.005559 0.086805 -0.007807 -0.040674 0.025778 0.034505 0.009064 -0.002333 -0.039573 0.010917 -0.041745 -0.000128 -0.010438 -0.073841 0.036405 0.076525 0.093659 0.024985 0.014318 -0.005786 -0.022783 -0.027382 -0.020998 0.015323 0.036455 -0.095538 -0.081329 0.014990 0.009055 0.020795 -0.054541 -0.058522 -0.013380 -0.039531 -0.055100 0.065613 -0.013947 -0.032373 -0.093077 -0.027014 0.047228 -0.040873 -0.026683 -0.016890 0.023289 0.046458 0.131075 0.019813 0.069265 0.074004 -0.130710 0.083755 -0.003894 -0.041915 -0.013870 0.061765 0.014084 -0.023791 0.020256 0.071948 0.200274 0.019982 0.096258 -0.108668 0.016377 0.094247 0.012861 0.194829 0.265399 0.223862 0.505983 0.630087 0.284336 0.094703 0.108438 -1.575509
0.072396 0.072906 0.074435 0.076982 0.080548 0.085131 0.090730 0.097343 0.104969 0.113603 0.123243 0.133885 0.145522 0.158149 0.171756 0.186335 0.201874 0.218359 0.235776 0.254106 0.273329 0.293420 0.314352 0.336096 0.358616 0.381873 0.405826 0.430426 0.455620 0.481350 0.507553 0.534159 0.561091 0.588270 0.615605 0.643002 0.670358 0.697564 0.724505 0.751057 0.777090 0.802467 0.827045 0.850672 0.873194 0.894448 0.914267 0.932479 0.948909 0.963377 0.975704 0.985707 0.993205 0.998017 0.999965 0.998878 0.994587 0.986933 0.975766 0.960948 0.942356 0.919880 0.893430 0.862935 0.828350 0.789651 0.746842 0.699959 0.649068 0.594267 0.535692 0.473517 0.407951 0.339247 0.267697 0.193635 0.117436 0.039518 0.039663 0.119611 0.199790 0.279633 0.358538 0.435878 0.511000 0.583233 0.651895 0.716296 0.775750 0.829575 0.877110 0.917719 0.950800 0.975798 0.992210 0.999599 0.997602 0.985940 0.964427 0.932979 0.891623 0.840503 0.779885 0.710164 0.631866 0.545648 0.452303 0.352749 0.248030 0.139309 0.027855 0.084966 0.197706 0.308854 0.416853 0.520123 0.617084 0.706181 0.785913 0.854856 0.911698 0.955262 0.984537 0.998705 0.997165 0.979556 0.945780 0.896014 0.830725 0.750678 0.656933 0.550845 0.434056 0.308466 0.176223 0.039683 0.098621 0.236031 0.369805 0.497176 0.615409 0.721863 0.814053 0.889718 0.946876 0.983889 0.999518 0.992967 0.963929 0.912612 0.839762 0.746668 0.635156 0.507570 0.366729 0.215885 0.058649 0.101081 0.259219 0.411586 0.554029 0.682532 0.793336 0.883057 0.948804 0.988279 0.999874 0.982745 0.936875 0.863103 0.763141 0.639551 0.495707 0.335711 0.164301 0.013282 0.191448 0.364423 0.526443 0.671944 0.795767 0.893346 0.960897 0.995579 0.995635 0.960496 0.890846 0.788649 0.657120 0.500653 0.324696 0.135588 0.059663 0.253625 0.438722 0.607531 0.753087 0.869187 0.950672 0.993674 0.995832 0.956440 0.876541 0.758939 0.608139 0.430207 0.232560 0.023672 0.187270 0.390765 0.577419 0.738394 0.865842 0.953305 0.996077 0.991484 0.939086 0.840772 0.700738 0.525355 0.322920 0.103285 0.122586 0.343162 0.546928 0.722989 0.861681 0.955115 0.997672 0.986375 0.921137 0.804853 0.643334 0.445058 0.220776 0.017038 0.254868 0.478903 0.675853 0.833747 0.942695 0.995548 0.988408 0.920970 0.796640 0.622431 0.408632 0.168237 0.083796 0.331461 0.558712 0.750509 0.893848 0.978673 0.998639 0.951641 0.840076 0.670804 0.454789 0.206464 0.057211 0.317851 0.556946 0.757170 0.903667 0.985205 0.995093 0.931801 0.799203 0.606438 0.367344 0.099547 0.176815 0.440571 0.671136 0.850150 0.962973 0.999954 0.957327 0.837663 0.649822 0.408391 0.132618 0.155066 0.430838 0.671454 0.856237 0.968896 0.999043 0.943226 0.805402 0.596774 0.334970 0.042637 0.254467 0.529715 0.758009 0.918102 0.994649 0.979756 0.873896 0.686061 0.433110 0.138352 0.170530 0.464044 0.713699 0.894807 0.988987 0.986133 0.885594 0.696460 0.436864 0.132357 0.186540 0.487344 0.738924 0.914764 0.995826 0.972725 0.846929 0.630848 0.346732 0.024500 0.301344 0.595372 0.825099 0.964633 0.997693 0.919630 0.738203 0.472958 0.153256 0.184870 0.502739 0.763432 0.936136 0.999881 0.946209 0.780447 0.521342 0.199106 0.148008 0.478174 0.751029 0.932648 0.999872 0.943391 0.769192 0.498116 0.163509 0.192736 0.525385 0.791591 0.956476 0.997812 0.909185 0.701141 0.400120 0.045261 0.316583 0.636954 0.872345
1.000000 1.000000 1.000000 1.000000 1.000000 1.000000 1.000000 1.000000 1.000000 1.000000 1.000000 1.000000 1.000000 1.000000 1.000000 1.000000 1.000000 1.000000 1.000000 1.000000 1.000000 1.000000 1.000000 1.000000 1.000000 1.000000 1.000000 1.000000 1.000000 1.000000 1.000000 1.000000 1.000000 1.000000 1.000000 1.000000 1.000000 1.000000 1.000000 1.000000 1.000000 1.000000 1.000000 1.000000 1.000000 1.000000 1.000000 1.000000 1.000000 1.000000 1.000000 1.000000 0.838076 0.838076 0.838076 0.844155 0.844155 0.844155 0.844155 0.844155 0.844155 0.844155 0.844155 0.844155 0.844155 0.844155 0.844155 0.844155 0.844155 0.844155 0.844155 0.844155 0.844155 0.844155 0.844155 0.844155 0.844155 0.844155 0.844155 0.844155 0.844155 0.844155 0.844155 0.844155 0.844155 0.844155 0.844155 0.844155 0.844155 0.844155 0.844155 0.844155 0.844155 0.844155 0.844155 0.844155 0.855629 0.861320 0.863865 0.866623 0.869667 0.866850 0.865731 0.865245 0.865417 0.866328 0.877328 0.902206 0.918917 0.924622 0.935897 0.939658 0.945016 0.946222 0.955049 0.958928 0.960656 0.957133 0.956483 0.958413 0.948744 0.938542 0.936547 0.933743 0.950242 0.939328 0.935263 0.931118 0.929212 0.926672 0.927682 0.928255 0.925215 0.925771 0.926485 0.922623 0.923178 0.921064 0.919863 0.903041 0.904089 0.903519 0.906733 0.885385 0.878644 0.869501 0.866664 0.877696 0.870576 0.863562 0.862432 0.851550 0.852683 0.852572 0.852544 0.838712 0.836814 0.833745 0.829994 0.829522 0.828626 0.834257 0.835162 0.836370 0.823629 0.799010 0.781705 0.758039 0.756704 0.757061 0.761003 0.754788 0.755890 0.751768 0.748677 0.741566 0.740185 0.733936 0.737258 0.733433 0.726059 0.720153 0.695342 0.687504 0.687619 0.660391 0.656444 0.658843 0.659741 0.629889 0.625247 0.627933 0.634113 0.639652 0.647857 0.641626 0.630719 0.601726 0.575821 0.556817 0.572317 0.588281 0.577020 0.580132 0.556833 0.593790 0.599638 0.621125 0.633704 0.636989 0.627917 0.591821 0.548989 0.548981 0.542659 0.544394 0.542575 0.541768 0.549532 0.576678 0.556814 0.541937 0.532326 0.526365 0.531555 0.545205 0.528588 0.522988 0.493428 0.468543 0.450087 0.457013 0.434451 0.417429 0.411879 0.403066 0.385862 0.390565 0.405926 0.400239 0.396269 0.400464 0.396451 0.408408 0.373630 0.327029 0.329190 0.322506 0.320762 0.309627 0.295185 0.301603 0.311187 0.320968 0.353066 0.322848 0.302120 0.275153 0.284582 0.274911 0.296479 0.284185 0.268385 0.248781 0.221069 0.192743 0.193378 0.221996 0.252689 0.221100 0.189722 0.169533 0.163071 0.138757 0.131722 0.072417 0.013601 -0.000456 0.008361 0.007374 0.012113 0.016531 -0.000643 0.019064 0.028169 0.074341 0.046733 0.040433 0.027861 0.035822 -0.001691 -0.009361 -0.033843 -0.037337 -0.022766 0.004241 -0.032825 -0.042303 -0.064994 -0.053116 -0.096728 -0.084289 -0.093752 -0.088857 -0.098375 -0.142892 -0.148354 -0.166354 -0.181348 -0.169594 -0.167123 -0.171523 -0.218679 -0.221937 -0.209533 -0.211629 -0.208680 -0.187923 -0.194070 -0.174507 -0.175120 -0.173917 -0.137921 -0.140015 -0.154892 -0.157805 -0.143658 -0.159754 -0.155923 -0.110561 -0.109025 -0.144087 -0.144781 -0.144781 -0.144781 -0.144781 -0.144781 -0.144781 -0.129387 -0.129387 -0.129387 -0.129387 -0.129387 -0.129387 -0.129387 -0.129387 -0.129387 -0.066060 -0.066060 -0.066060 -0.066060 -0.066060 -0.066060 -0.066060 -0.066060 -0.066060 -0.066060 -0.066060 -0.066060 -0.066060 -0.066060 -0.066060 -0.066060
0.000000 0.000000 0.000000 0.000000 0.000000 0.000000 0.000000 0.000000 0.000000 0.000000 0.000000 0.000000 0.000000 0.000000 0.000000 0.000000 0.000000 0.000000 0.000000 0.000000 0.000000 0.000000 0.000000 0.000000 0.000000 0.000000 0.000000 0.000000 0.000000 0.000000 0.000000 0.000000 0.000000 0.000000 0.000000 0.000000 0.000000 0.000000 0.000000 0.000000 0.000000 0.000000 0.000000 0.000000 0.000000 0.000000 0.000000 0.000000 0.000000 0.000000 0.000000 0.000000 0.180334 0.180334 0.180334 0.199007 0.199007 0.199007 0.199007 0.199007 0.199007 0.199007 0.199007 0.199007 0.199007 0.199007 0.199007 0.199007 0.199007 0.199007 0.199007 0.199007 0.199007 0.199007 0.199007 0.199007 0.199007 0.199007 0.199007 0.199007 0.199007 0.199007 0.199007 0.199007 0.199007 0.199007 0.199007 0.199007 0.199007 0.199007 0.199007 0.199007 0.199007 0.199007 0.199007 0.199007 0.230940 0.230940 0.230940 0.230940 0.230940 0.230940 0.230940 0.230940 0.230940 0.230940 0.230940 0.230940 0.230940 0.230940 0.230940 0.230940 0.230940 0.230940 0.230940 0.230940 0.230940 0.230940 0.230940 0.230940 0.230940 0.230940 0.230940 0.230940 0.244339 0.244339 0.244339 0.244339 0.244339 0.244339 0.244339 0.244339 0.244339 0.244339 0.244339 0.244339 0.244339 0.244339 0.244339 0.244339 0.244339 0.244339 0.244339 0.244339 0.244339 0.244339 0.244339 0.256074 0.256074 0.256074 0.256074 0.256074 0.256074 0.256074 0.256074 0.256074 0.256074 0.256074 0.256074 0.256074 0.256074 0.256074 0.256074 0.256074 0.256074 0.256074 0.256074 0.256074 0.256074 0.256074 0.256074 0.256074 0.256074 0.256074 0.256074 0.256074 0.256074 0.256074 0.256074 0.256074 0.256074 0.256074 0.256074 0.256074 0.264906 0.264906 0.264906 0.264906 0.264906 0.264906 0.264906 0.264906 0.264906 0.264906 0.264906 0.264906 0.264906 0.264906 0.264906 0.264906 0.264906 0.264906 0.264906 0.264906 0.264906 0.264906 0.264906 0.264906 0.264906 0.264906 0.264906 0.264906 0.264906 0.264906 0.264906 0.264906 0.264906 0.264906 0.264906 0.264906 0.264906 0.264906 0.264906 0.264906 0.264906 0.264906 0.264906 0.264906 0.264906 0.264906 0.264906 0.264906 0.264906 0.264906 0.264906 0.264906 0.264906 0.264906 0.264906 0.264906 0.264906 0.264906 0.269680 0.269680 0.269680 0.269680 0.269680 0.269680 0.269680 0.269680 0.269680 0.269680 0.269680 0.269680 0.264906 0.264906 0.264906 0.264906 0.264906 0.264906 0.264906 0.264906 0.264906 0.264906 0.264906 0.264906 0.269680 0.269680 0.269680 0.269680 0.269680 0.269680 0.269680 0.269680 0.269680 0.269680 0.269680 0.264906 0.264906 0.264906 0.264906 0.264906 0.264906 0.264906 0.264906 0.264906 0.264906 0.264906 0.256074 0.256074 0.256074 0.256074 0.256074 0.256074 0.256074 0.256074 0.256074 0.256074 0.256074 0.264906 0.264906 0.264906 0.264906 0.264906 0.264906 0.264906 0.264906 0.264906 0.264906 0.260378 0.260378 0.260378 0.260378 0.260378 0.260378 0.260378 0.260378 0.260378 0.260378 0.264906 0.264906 0.264906 0.264906 0.264906 0.264906 0.264906 0.264906 0.264906 0.251976 0.251976 0.251976 0.251976 0.251976 0.251976 0.251976 0.251976 0.251976 0.251976 0.256074 0.256074 0.256074 0.256074 0.256074 0.256074 0.256074 0.256074 0.256074 0.269680 0.269680 0.269680 0.269680 0.269680 0.269680 0.269680 0.269680 0.269680 0.269680 0.269680 0.269680 0.269680 0.269680 0.269680 0.269680
