# Output from CTFFind version 4.1.9, run on 2019-11-02 17:58:27
# Input file: stack1_bm3d_averaged_1_1.75_0_750_half.mrc ; Number of micrographs: 1
# Pixel size: 3.000 Angstroms ; acceleration voltage: 300.0 keV ; spherical aberration: 0.00 mm ; amplitude contrast: 0.07
# Box size: 512 pixels ; min. res.: 30.0 Angstroms ; max. res.: 5.0 Angstroms ; min. def.: 5000.0 um; max. def. 50000.0 um; num. frames averaged: 1
# 6 lines per micrograph: #1 - spatial frequency (1/Angstroms); #2 - 1D rotational average of spectrum (assuming no astigmatism); #3 - 1D rotational average of spectrum; #4 - CTF fit; #5 - cross-correlation between spectrum and CTF fit; #6 - 2sigma of expected cross correlation of noise
0.000000 0.000651 0.001302 0.001953 0.002604 0.003255 0.003906 0.004557 0.005208 0.005859 0.006510 0.007161 0.007812 0.008464 0.009115 0.009766 0.010417 0.011068 0.011719 0.012370 0.013021 0.013672 0.014323 0.014974 0.015625 0.016276 0.016927 0.017578 0.018229 0.018880 0.019531 0.020182 0.020833 0.021484 0.022135 0.022786 0.023438 0.024089 0.024740 0.025391 0.026042 0.026693 0.027344 0.027995 0.028646 0.029297 0.029948 0.030599 0.031250 0.031901 0.032552 0.033203 0.033854 0.034505 0.035156 0.035807 0.036458 0.037109 0.037760 0.038411 0.039062 0.039714 0.040365 0.041016 0.041667 0.042318 0.042969 0.043620 0.044271 0.044922 0.045573 0.046224 0.046875 0.047526 0.048177 0.048828 0.049479 0.050130 0.050781 0.051432 0.052083 0.052734 0.053385 0.054036 0.054688 0.055339 0.055990 0.056641 0.057292 0.057943 0.058594 0.059245 0.059896 0.060547 0.061198 0.061849 0.062500 0.063151 0.063802 0.064453 0.065104 0.065755 0.066406 0.067057 0.067708 0.068359 0.069010 0.069661 0.070312 0.070964 0.071615 0.072266 0.072917 0.073568 0.074219 0.074870 0.075521 0.076172 0.076823 0.077474 0.078125 0.078776 0.079427 0.080078 0.080729 0.081380 0.082031 0.082682 0.083333 0.083984 0.084635 0.085286 0.085938 0.086589 0.087240 0.087891 0.088542 0.089193 0.089844 0.090495 0.091146 0.091797 0.092448 0.093099 0.093750 0.094401 0.095052 0.095703 0.096354 0.097005 0.097656 0.098307 0.098958 0.099609 0.100260 0.100911 0.101562 0.102214 0.102865 0.103516 0.104167 0.104818 0.105469 0.106120 0.106771 0.107422 0.108073 0.108724 0.109375 0.110026 0.110677 0.111328 0.111979 0.112630 0.113281 0.113932 0.114583 0.115234 0.115885 0.116536 0.117188 0.117839 0.118490 0.119141 0.119792 0.120443 0.121094 0.121745 0.122396 0.123047 0.123698 0.124349 0.125000 0.125651 0.126302 0.126953 0.127604 0.128255 0.128906 0.129557 0.130208 0.130859 0.131510 0.132161 0.132812 0.133464 0.134115 0.134766 0.135417 0.136068 0.136719 0.137370 0.138021 0.138672 0.139323 0.139974 0.140625 0.141276 0.141927 0.142578 0.143229 0.143880 0.144531 0.145182 0.145833 0.146484 0.147135 0.147786 0.148438 0.149089 0.149740 0.150391 0.151042 0.151693 0.152344 0.152995 0.153646 0.154297 0.154948 0.155599 0.156250 0.156901 0.157552 0.158203 0.158854 0.159505 0.160156 0.160807 0.161458 0.162109 0.162760 0.163411 0.164062 0.164714 0.165365 0.166016 0.166667 0.167318 0.167969 0.168620 0.169271 0.169922 0.170573 0.171224 0.171875 0.172526 0.173177 0.173828 0.174479 0.175130 0.175781 0.176432 0.177083 0.177734 0.178385 0.179036 0.179688 0.180339 0.180990 0.181641 0.182292 0.182943 0.183594 0.184245 0.184896 0.185547 0.186198 0.186849 0.187500 0.188151 0.188802 0.189453 0.190104 0.190755 0.191406 0.192057 0.192708 0.193359 0.194010 0.194661 0.195312 0.195964 0.196615 0.197266 0.197917 0.198568 0.199219 0.199870 0.200521 0.201172 0.201823 0.202474 0.203125 0.203776 0.204427 0.205078 0.205729 0.206380 0.207031 0.207682 0.208333 0.208984 0.209635 0.210286 0.210938 0.211589 0.212240 0.212891 0.213542 0.214193 0.214844 0.215495 0.216146 0.216797 0.217448 0.218099 0.218750 0.219401 0.220052 0.220703 0.221354 0.222005 0.222656 0.223307 0.223958 0.224609 0.225260 0.225911 0.226562 0.227214 0.227865 0.228516 0.229167 0.229818 0.230469 0.231120 0.231771 0.232422 0.233073 0.233724 0.234375 0.235026 0.235677
       0.32753        0.32753        0.32753        0.32753        0.32753        0.32753        0.32753        0.32753        0.32753        0.32753        0.32753        0.32753        0.32753        0.32753        0.32753        0.32753        0.32753        0.32753        0.32753        0.32753        0.32753        0.32753        0.32753        0.32753        0.32753        0.32753        0.32753        0.32753        0.32753        0.32753        0.32753        0.32753        0.32753        0.32753        0.32753        0.32753        0.32753        0.32753        0.32753        0.32753        0.32753        0.32753        0.32753        0.32753        0.32753        0.32753        0.32753        0.32753        0.32753        0.32753        0.32753        0.49701        0.71478        0.42028        0.18938       -0.07887       -0.26053       -0.07115       -0.13175       -0.06353       -0.00508       -0.15590       -0.10681       -0.05247       -0.00654       -0.15806       -0.22941       -0.34561       -0.46999       -0.57421       -0.52915       -0.45855       -0.37845       -0.56333       -0.45980       -0.62658       -0.51334       -0.47895       -0.39942       -0.38436       -0.33706       -0.25176       -0.17350       -0.14450        0.02503       -0.02055        0.10977        0.16553        0.30583        0.41468        0.46221        0.49845        0.54085        0.54899        0.68513        0.63873        0.67278        0.58581        0.55503        0.64567        0.51955        0.42853        0.38875        0.30794        0.22697        0.25448        0.24559        0.09408        0.07591       -0.00170       -0.01159        0.02492       -0.01931        0.06077        0.08642        0.22230        0.27937        0.28721        0.38455        0.56608        0.53853        0.56976        0.66316        0.69327        0.62549        0.63412        0.63347        0.54241        0.56655        0.39193        0.34577        0.25910        0.18023        0.07285        0.13869        0.10771        0.09745        0.11212        0.20208        0.19352        0.31026        0.34824        0.40489        0.48535        0.56046        0.54216        0.54989        0.60047        0.52610        0.45594        0.47816        0.31968        0.24387        0.25088        0.23972        0.13301        0.13548        0.14645        0.21524        0.24354        0.33130        0.37576        0.39692        0.45368        0.43897        0.47476        0.44208        0.46967        0.44079        0.39251        0.36713        0.36239        0.31956        0.28513        0.20487        0.20151        0.21956        0.26196        0.25324        0.34304        0.37304        0.35030        0.40717        0.44918        0.43716        0.42584        0.43708        0.35733        0.32680        0.27970        0.25130        0.28392        0.25293        0.28469        0.29782        0.33616        0.32686        0.39168        0.38391        0.42059        0.40507        0.44252        0.40225        0.35880        0.27457        0.27910        0.28718        0.26848        0.25627        0.32458        0.35797        0.32906        0.35777        0.36286        0.34447        0.40855        0.39303        0.36040        0.33716        0.29860        0.30801        0.31568        0.30697        0.30338        0.28395        0.33161        0.35189        0.36396        0.33471        0.33069        0.33074        0.34776        0.30975        0.28300        0.30736        0.31282        0.32469        0.31895        0.32764        0.34927        0.32619        0.31689        0.33200        0.29968        0.25569        0.24175        0.26128        0.30218        0.31502        0.35648        0.29076        0.29770        0.31941        0.28680        0.31427        0.28904        0.27193        0.28019        0.28480        0.29999        0.33862        0.31500        0.32070        0.32044        0.32271        0.33251        0.31050        0.31462        0.31813        0.26787        0.28582        0.30546        0.28265        0.31431        0.31752        0.33184        0.31892        0.34722        0.32818        0.28118        0.23762        0.27205        0.32812        0.34759        0.34236        0.31430        0.29137        0.30242        0.30989        0.25304        0.28545        0.29808        0.31632        0.28601        0.28344        0.26184        0.32642        0.32951        0.33179        0.30651        0.29351        0.29443        0.38732        0.33374        0.30848        0.29947        0.30129        0.28831        0.29496        0.29348        0.29690        0.22329        0.26410        0.30344        0.31341        0.29278        0.26110        0.27305        0.22498        0.22227        0.28598        0.30651        0.30145        0.29169        0.28045        0.32950        0.24891        0.21813        0.26931        0.23931        0.26702        0.27721        0.35106        0.25609        0.28415        0.27386        0.22857        0.26869        0.26924        0.23536        0.17936        0.22184        0.21927        0.23574        0.30062        0.25961        0.34518        0.32875        0.27414        0.25381        0.19588        0.25397        0.28822        0.22414        0.17575        0.21950        0.23379        0.19509        0.26062        0.21424        0.03180       -0.42222       -0.87535
2.688215 2.659729 2.631397 2.603219 2.575196 2.547326 2.519610 2.492049 2.464642 2.437389 2.410289 2.383344 2.356553 2.329916 2.303434 2.277105 2.250930 2.224910 2.199044 2.173331 2.147773 2.122369 2.097119 2.072023 2.047082 2.022294 1.997660 1.973181 1.948855 1.924684 1.900667 1.876804 1.853095 1.829540 1.806139 1.782893 1.759800 1.736862 1.714077 1.691447 1.668971 1.646649 1.624481 1.602467 1.580607 1.558901 1.537350 1.515952 1.494709 1.473619 1.452684 1.520239 1.829598 1.506039 1.194590 0.943355 0.548725 0.911536 0.641742 0.862412 0.921718 0.588788 0.692092 0.779212 0.821008 0.619916 0.527387 0.356371 0.098321 0.066152 0.036493 0.067780 0.298612 -0.044961 0.065865 -0.132114 -0.024759 -0.016267 0.070681 0.064756 0.111793 0.177988 0.273479 0.243331 0.476749 0.392823 0.539716 0.531256 0.771378 0.790699 0.879423 0.936161 0.931431 0.954130 1.112467 0.940262 1.135962 0.943054 0.855617 1.011562 0.842739 0.757215 0.634096 0.584521 0.459814 0.412062 0.502977 0.259832 0.194066 0.165147 0.012170 0.197822 -0.013932 0.111895 0.164896 0.256695 0.338245 0.336781 0.430237 0.550453 0.676927 0.537690 0.733152 0.867111 0.635181 0.702767 0.677354 0.589366 0.534925 0.464689 0.308407 0.209721 0.125265 -0.030208 -0.018550 0.051090 -0.078904 -0.053318 0.066066 0.044126 0.101153 0.223808 0.236385 0.316851 0.430828 0.445481 0.443049 0.465316 0.452615 0.319666 0.341407 0.248235 0.048937 0.068075 0.022254 -0.042585 -0.103010 -0.089204 -0.016827 -0.040201 0.083259 0.141894 0.150918 0.258659 0.226273 0.242453 0.290008 0.239716 0.244671 0.220250 0.153780 0.123055 0.124705 0.031403 0.024918 -0.108241 -0.037576 0.007920 0.002208 0.018592 0.115415 0.084487 0.132311 0.208540 0.272052 0.176465 0.210512 0.121689 0.138523 0.038341 -0.023441 0.020192 -0.004105 0.002139 0.007854 0.047971 0.076169 0.070257 0.160602 0.108196 0.188615 0.100207 0.189031 0.104905 0.010602 -0.034478 -0.015308 -0.021320 -0.049132 -0.039676 0.076504 0.073246 0.001945 0.116846 0.084747 0.090085 0.166812 0.090487 0.099202 0.065161 -0.003082 0.056218 0.020787 0.032346 0.037084 0.019417 0.062133 0.074372 0.081574 0.056662 0.063672 0.032167 0.085412 0.013156 0.000248 0.041302 0.024484 0.067748 0.051725 0.064335 0.060627 0.056423 0.029139 0.045786 0.002134 -0.048091 -0.037575 -0.015346 0.019144 0.039125 0.113435 -0.012108 0.048200 0.044808 0.003677 0.062086 0.017318 0.000957 0.026950 0.040635 0.036321 0.088107 0.041243 0.069321 0.074694 0.087138 0.062841 0.074795 0.085022 0.047868 -0.007551 0.057943 0.043614 0.040417 0.077280 0.076217 0.039738 0.071933 0.095918 0.034642 0.023868 -0.065321 0.004075 0.114963 0.079865 0.076154 0.048789 0.010752 0.058684 0.047841 -0.045807 0.047886 0.044554 0.069521 0.041573 -0.020819 0.001380 0.086667 0.039898 0.040281 0.033630 -0.016801 0.054940 0.121517 0.041398 -0.001973 0.012774 0.014546 -0.020701 -0.013758 -0.001599 -0.020204 -0.101990 -0.027589 -0.006356 0.028924 -0.032972 -0.073296 0.021138 -0.078770 -0.031239 -0.044385 0.060464 0.017878 0.028915 0.001281 0.065742 -0.042736 -0.062451 0.001870 -0.062072 0.018386 -0.003222 0.129412 -0.073850 0.015368 0.031973 -0.056691 0.010886 0.017536 -0.038768 -0.123890 -0.031433 -0.037531 -0.021606 0.024021 -0.020218 0.146922 0.079782 0.036567 -0.003130 -0.053492 -0.011805 0.036975 0.267959 0.209033 0.267584 0.251398 0.273239 0.278604 0.222318 0.040017 -1.024833
0.072396 0.072910 0.074453 0.077023 0.080621 0.085245 0.090894 0.097567 0.105260 0.113972 0.123698 0.134434 0.146175 0.158913 0.172640 0.187347 0.203022 0.219651 0.237218 0.255705 0.275091 0.295350 0.316456 0.338377 0.361077 0.384518 0.408654 0.433438 0.458814 0.484723 0.511101 0.537875 0.564968 0.592296 0.619769 0.647289 0.674751 0.702044 0.729048 0.755639 0.781682 0.807038 0.831560 0.855094 0.877482 0.898557 0.918151 0.936086 0.952186 0.966268 0.978149 0.987644 0.994570 0.998744 0.999987 0.998126 0.992991 0.984425 0.972278 0.956414 0.936710 0.913062 0.885382 0.853607 0.817694 0.777629 0.733426 0.685127 0.632810 0.576587 0.516606 0.453054 0.386158 0.316186 0.243448 0.168296 0.091124 0.012369 0.067491 0.147940 0.228425 0.308357 0.387116 0.464057 0.538510 0.609792 0.677206 0.740054 0.797641 0.849285 0.894322 0.932123 0.962094 0.983693 0.996438 0.999915 0.993792 0.977825 0.951868 0.915886 0.869956 0.814278 0.749181 0.675126 0.592706 0.502650 0.405822 0.303214 0.195942 0.085237 0.027564 0.141034 0.253673 0.363924 0.470193 0.570877 0.664383 0.749161 0.823726 0.886691 0.936796 0.972935 0.994184 0.999831 0.989397 0.962663 0.919680 0.860795 0.786648 0.698187 0.596659 0.483606 0.360848 0.230463 0.094756 0.043774 0.182477 0.318601 0.449345 0.571919 0.683601 0.781806 0.864151 0.928516 0.973109 0.996521 0.997784 0.976407 0.932421 0.866393 0.779446 0.673251 0.550014 0.412443 0.263702 0.107342 0.052766 0.212528 0.367727 0.514133 0.647623 0.764300 0.860618 0.933495 0.980429 0.999592 0.989920 0.951173 0.883976 0.789844 0.671166 0.531163 0.373831 0.203829 0.026364 0.152960 0.328320 0.493856 0.643869 0.773027 0.876568 0.950488 0.991711 0.998240 0.969271 0.905267 0.807991 0.680489 0.527025 0.352957 0.164579 0.031092 0.226573 0.414187 0.586371 0.735988 0.856634 0.942931 0.990790 0.997630 0.962544 0.886392 0.771835 0.623273 0.446713 0.249557 0.040315 0.171745 0.377003 0.565918 0.729484 0.859668 0.949833 0.995105 0.992669 0.941972 0.844831 0.705417 0.530121 0.327297 0.106906 0.119962 0.341625 0.546409 0.723270 0.862411 0.955848 0.997907 0.985608 0.918914 0.800828 0.637311 0.437035 0.210965 0.028200 0.266734 0.490648 0.686521 0.842326 0.948196 0.997088 0.985304 0.912817 0.783379 0.604394 0.386557 0.143261 0.110194 0.357528 0.582543 0.770176 0.907551 0.984891 0.996278 0.940160 0.819581 0.642096 0.419367 0.166455 0.099151 0.358713 0.593577 0.786509 0.923001 0.992409 0.988855 0.911777 0.766131 0.562142 0.314675 0.042216 0.234487 0.493961 0.715698 0.881784 0.978422 0.997117 0.935522 0.797776 0.594329 0.341239 0.058970 0.229204 0.499092 0.727639 0.894909 0.985890 0.991917 0.911582 0.751041 0.523647 0.248939 0.048968 0.343454 0.607750 0.817406 0.952575 0.999994 0.954362 0.819036 0.605907 0.334480 0.030166 0.278033 0.560251 0.788686 0.940356 0.999517 0.959383 0.823020 0.603253 0.321592 0.006217 0.310777 0.596608 0.821226 0.960522 0.999013 0.931672 0.764700 0.515106 0.209102 0.120555 0.438013 0.708207 0.900777 0.993553 0.975227 0.846859 0.622027 0.325531 0.009213 0.343864 0.639524 0.861267 0.982356 0.987574 0.875279 0.657886 0.360656 0.018903 0.326117 0.632146 0.861126 0.984000 0.984535 0.861618 0.629698 0.317267 0.036490 0.386539 0.687677 0.900415 0.996252 0.961634 0.800041 0.531866 0.192003 0.174521 0.518485 0.793031 0.960136 0.996003
1.000000 1.000000 1.000000 1.000000 1.000000 1.000000 1.000000 1.000000 1.000000 1.000000 1.000000 1.000000 1.000000 1.000000 1.000000 1.000000 1.000000 1.000000 1.000000 1.000000 1.000000 1.000000 1.000000 1.000000 1.000000 1.000000 1.000000 1.000000 1.000000 1.000000 1.000000 1.000000 1.000000 1.000000 1.000000 1.000000 1.000000 1.000000 1.000000 1.000000 1.000000 1.000000 1.000000 1.000000 1.000000 1.000000 1.000000 1.000000 1.000000 1.000000 1.000000 1.000000 0.916272 0.916272 0.904925 0.904925 0.904925 0.904925 0.904925 0.904925 0.904925 0.904925 0.904925 0.904925 0.904925 0.904925 0.904925 0.904925 0.904925 0.904925 0.904925 0.904925 0.904925 0.904925 0.904925 0.904925 0.904925 0.904925 0.904925 0.904925 0.904925 0.904925 0.904925 0.904925 0.904925 0.904925 0.904925 0.904925 0.904925 0.904925 0.904925 0.904925 0.904925 0.904925 0.904925 0.902742 0.907629 0.909775 0.908289 0.911774 0.911827 0.909724 0.909218 0.908887 0.909235 0.910636 0.921112 0.932094 0.943078 0.943613 0.948812 0.953078 0.955554 0.956338 0.957925 0.968049 0.965415 0.964960 0.965662 0.967127 0.969242 0.968046 0.967523 0.970027 0.970699 0.969158 0.966799 0.966144 0.965506 0.965594 0.965231 0.965111 0.964980 0.965507 0.965743 0.965396 0.965548 0.965607 0.964242 0.963949 0.966558 0.967810 0.967712 0.966488 0.961028 0.964491 0.965092 0.964580 0.964594 0.964280 0.964606 0.949421 0.945661 0.945581 0.940777 0.939771 0.936937 0.935671 0.934727 0.935638 0.936332 0.936977 0.932035 0.919245 0.905630 0.890105 0.913232 0.901281 0.885498 0.862563 0.861824 0.854348 0.854941 0.849189 0.840260 0.836200 0.833197 0.835482 0.838100 0.842954 0.840151 0.827872 0.831221 0.826626 0.793355 0.782772 0.767847 0.767874 0.764976 0.766179 0.762939 0.759674 0.768005 0.756307 0.754351 0.745159 0.729344 0.699484 0.686119 0.696437 0.704572 0.713696 0.709750 0.694572 0.646732 0.656774 0.684751 0.675984 0.677962 0.671992 0.665703 0.672613 0.669080 0.665026 0.659383 0.659221 0.658743 0.666976 0.673799 0.664574 0.656303 0.644586 0.633611 0.614352 0.625704 0.628696 0.601137 0.595891 0.589016 0.582846 0.578807 0.565179 0.565271 0.542205 0.529031 0.524876 0.526268 0.530375 0.538568 0.537759 0.517529 0.537269 0.532698 0.561153 0.530333 0.527647 0.530298 0.538431 0.519114 0.515268 0.510082 0.510618 0.518773 0.545988 0.576045 0.569181 0.560216 0.552957 0.562036 0.546353 0.555760 0.586105 0.566963 0.506689 0.463742 0.460309 0.426038 0.419692 0.400922 0.385522 0.395774 0.378414 0.370542 0.356302 0.343549 0.312569 0.276254 0.250991 0.227456 0.237703 0.261601 0.259152 0.263968 0.302133 0.346031 0.351420 0.342288 0.301431 0.295003 0.254432 0.251856 0.265228 0.225797 0.226200 0.220731 0.196981 0.182186 0.148313 0.180304 0.096336 0.088806 0.089988 0.116770 0.106604 0.106368 0.103806 0.065426 0.078368 0.077326 0.051713 0.034966 0.048963 0.026154 0.016353 0.022509 0.026772 0.007231 -0.018172 -0.022646 -0.032357 -0.028512 -0.042453 -0.038680 0.018557 0.044804 0.034115 0.040850 0.030906 0.045976 0.044089 0.042233 0.007371 -0.015595 -0.057189 -0.084385 -0.084385 -0.065633 -0.065633 -0.065633 -0.065633 -0.065633 -0.065633 -0.065633 -0.065633 -0.065633 -0.066781 -0.066781 -0.066781 -0.066781 -0.066781 -0.066781 -0.066781 -0.066781 -0.066781 -0.056612 -0.056612 -0.056612 -0.056612 -0.056612 -0.056612 -0.056612 -0.056612 -0.056612
0.000000 0.000000 0.000000 0.000000 0.000000 0.000000 0.000000 0.000000 0.000000 0.000000 0.000000 0.000000 0.000000 0.000000 0.000000 0.000000 0.000000 0.000000 0.000000 0.000000 0.000000 0.000000 0.000000 0.000000 0.000000 0.000000 0.000000 0.000000 0.000000 0.000000 0.000000 0.000000 0.000000 0.000000 0.000000 0.000000 0.000000 0.000000 0.000000 0.000000 0.000000 0.000000 0.000000 0.000000 0.000000 0.000000 0.000000 0.000000 0.000000 0.000000 0.000000 0.000000 0.181818 0.181818 0.199007 0.199007 0.199007 0.199007 0.199007 0.199007 0.199007 0.199007 0.199007 0.199007 0.199007 0.199007 0.199007 0.199007 0.199007 0.199007 0.199007 0.199007 0.199007 0.199007 0.199007 0.199007 0.199007 0.199007 0.199007 0.199007 0.199007 0.199007 0.199007 0.199007 0.199007 0.199007 0.199007 0.199007 0.199007 0.199007 0.199007 0.199007 0.199007 0.199007 0.199007 0.230940 0.230940 0.230940 0.230940 0.230940 0.230940 0.230940 0.230940 0.230940 0.230940 0.230940 0.230940 0.230940 0.230940 0.230940 0.230940 0.230940 0.230940 0.230940 0.230940 0.230940 0.230940 0.230940 0.230940 0.230940 0.230940 0.230940 0.230940 0.244339 0.244339 0.244339 0.244339 0.244339 0.244339 0.244339 0.244339 0.244339 0.244339 0.244339 0.244339 0.244339 0.244339 0.244339 0.244339 0.244339 0.244339 0.244339 0.244339 0.244339 0.244339 0.244339 0.251976 0.251976 0.251976 0.251976 0.251976 0.251976 0.251976 0.251976 0.251976 0.251976 0.251976 0.251976 0.251976 0.251976 0.251976 0.251976 0.251976 0.251976 0.251976 0.251976 0.264906 0.264906 0.264906 0.264906 0.264906 0.264906 0.264906 0.264906 0.264906 0.264906 0.264906 0.264906 0.264906 0.264906 0.264906 0.264906 0.264906 0.264906 0.264906 0.264906 0.264906 0.264906 0.264906 0.264906 0.264906 0.264906 0.264906 0.264906 0.264906 0.264906 0.264906 0.264906 0.264906 0.264906 0.264906 0.264906 0.264906 0.264906 0.264906 0.264906 0.264906 0.264906 0.264906 0.264906 0.264906 0.264906 0.264906 0.264906 0.264906 0.264906 0.264906 0.264906 0.264906 0.264906 0.264906 0.264906 0.264906 0.264906 0.264906 0.264906 0.264906 0.264906 0.264906 0.264906 0.264906 0.264906 0.264906 0.264906 0.264906 0.264906 0.264906 0.264906 0.264906 0.264906 0.264906 0.269680 0.269680 0.269680 0.269680 0.269680 0.269680 0.269680 0.269680 0.269680 0.269680 0.269680 0.269680 0.264906 0.264906 0.264906 0.264906 0.264906 0.264906 0.264906 0.264906 0.264906 0.264906 0.264906 0.264906 0.269680 0.269680 0.269680 0.269680 0.269680 0.269680 0.269680 0.269680 0.269680 0.269680 0.269680 0.264906 0.264906 0.264906 0.264906 0.264906 0.264906 0.264906 0.264906 0.264906 0.264906 0.264906 0.256074 0.256074 0.256074 0.256074 0.256074 0.256074 0.256074 0.256074 0.256074 0.256074 0.256074 0.264906 0.264906 0.264906 0.264906 0.264906 0.264906 0.264906 0.264906 0.264906 0.264906 0.269680 0.269680 0.269680 0.269680 0.269680 0.269680 0.269680 0.269680 0.269680 0.256074 0.256074 0.256074 0.256074 0.256074 0.256074 0.256074 0.256074 0.256074 0.256074 0.260378 0.260378 0.260378 0.260378 0.260378 0.260378 0.260378 0.260378 0.260378 0.256074 0.256074 0.256074 0.256074 0.256074 0.256074 0.256074 0.256074 0.256074 0.251976 0.251976 0.251976 0.251976 0.251976 0.251976 0.251976 0.251976 0.251976 0.264906 0.264906 0.264906 0.264906 0.264906 0.264906 0.264906 0.264906 0.264906
