# Output from CTFFind version 4.1.9, run on 2019-11-03 19:00:51
# Input file: stack6_bm3d_averaged_1_3.25_0_2500_half.mrc ; Number of micrographs: 1
# Pixel size: 3.000 Angstroms ; acceleration voltage: 300.0 keV ; spherical aberration: 0.00 mm ; amplitude contrast: 0.07
# Box size: 512 pixels ; min. res.: 30.0 Angstroms ; max. res.: 5.0 Angstroms ; min. def.: 5000.0 um; max. def. 50000.0 um; num. frames averaged: 1
# 6 lines per micrograph: #1 - spatial frequency (1/Angstroms); #2 - 1D rotational average of spectrum (assuming no astigmatism); #3 - 1D rotational average of spectrum; #4 - CTF fit; #5 - cross-correlation between spectrum and CTF fit; #6 - 2sigma of expected cross correlation of noise
0.000000 0.000651 0.001302 0.001953 0.002604 0.003255 0.003906 0.004557 0.005208 0.005859 0.006510 0.007161 0.007812 0.008464 0.009115 0.009766 0.010417 0.011068 0.011719 0.012370 0.013021 0.013672 0.014323 0.014974 0.015625 0.016276 0.016927 0.017578 0.018229 0.018880 0.019531 0.020182 0.020833 0.021484 0.022135 0.022786 0.023438 0.024089 0.024740 0.025391 0.026042 0.026693 0.027344 0.027995 0.028646 0.029297 0.029948 0.030599 0.031250 0.031901 0.032552 0.033203 0.033854 0.034505 0.035156 0.035807 0.036458 0.037109 0.037760 0.038411 0.039062 0.039714 0.040365 0.041016 0.041667 0.042318 0.042969 0.043620 0.044271 0.044922 0.045573 0.046224 0.046875 0.047526 0.048177 0.048828 0.049479 0.050130 0.050781 0.051432 0.052083 0.052734 0.053385 0.054036 0.054688 0.055339 0.055990 0.056641 0.057292 0.057943 0.058594 0.059245 0.059896 0.060547 0.061198 0.061849 0.062500 0.063151 0.063802 0.064453 0.065104 0.065755 0.066406 0.067057 0.067708 0.068359 0.069010 0.069661 0.070312 0.070964 0.071615 0.072266 0.072917 0.073568 0.074219 0.074870 0.075521 0.076172 0.076823 0.077474 0.078125 0.078776 0.079427 0.080078 0.080729 0.081380 0.082031 0.082682 0.083333 0.083984 0.084635 0.085286 0.085938 0.086589 0.087240 0.087891 0.088542 0.089193 0.089844 0.090495 0.091146 0.091797 0.092448 0.093099 0.093750 0.094401 0.095052 0.095703 0.096354 0.097005 0.097656 0.098307 0.098958 0.099609 0.100260 0.100911 0.101562 0.102214 0.102865 0.103516 0.104167 0.104818 0.105469 0.106120 0.106771 0.107422 0.108073 0.108724 0.109375 0.110026 0.110677 0.111328 0.111979 0.112630 0.113281 0.113932 0.114583 0.115234 0.115885 0.116536 0.117188 0.117839 0.118490 0.119141 0.119792 0.120443 0.121094 0.121745 0.122396 0.123047 0.123698 0.124349 0.125000 0.125651 0.126302 0.126953 0.127604 0.128255 0.128906 0.129557 0.130208 0.130859 0.131510 0.132161 0.132812 0.133464 0.134115 0.134766 0.135417 0.136068 0.136719 0.137370 0.138021 0.138672 0.139323 0.139974 0.140625 0.141276 0.141927 0.142578 0.143229 0.143880 0.144531 0.145182 0.145833 0.146484 0.147135 0.147786 0.148438 0.149089 0.149740 0.150391 0.151042 0.151693 0.152344 0.152995 0.153646 0.154297 0.154948 0.155599 0.156250 0.156901 0.157552 0.158203 0.158854 0.159505 0.160156 0.160807 0.161458 0.162109 0.162760 0.163411 0.164062 0.164714 0.165365 0.166016 0.166667 0.167318 0.167969 0.168620 0.169271 0.169922 0.170573 0.171224 0.171875 0.172526 0.173177 0.173828 0.174479 0.175130 0.175781 0.176432 0.177083 0.177734 0.178385 0.179036 0.179688 0.180339 0.180990 0.181641 0.182292 0.182943 0.183594 0.184245 0.184896 0.185547 0.186198 0.186849 0.187500 0.188151 0.188802 0.189453 0.190104 0.190755 0.191406 0.192057 0.192708 0.193359 0.194010 0.194661 0.195312 0.195964 0.196615 0.197266 0.197917 0.198568 0.199219 0.199870 0.200521 0.201172 0.201823 0.202474 0.203125 0.203776 0.204427 0.205078 0.205729 0.206380 0.207031 0.207682 0.208333 0.208984 0.209635 0.210286 0.210938 0.211589 0.212240 0.212891 0.213542 0.214193 0.214844 0.215495 0.216146 0.216797 0.217448 0.218099 0.218750 0.219401 0.220052 0.220703 0.221354 0.222005 0.222656 0.223307 0.223958 0.224609 0.225260 0.225911 0.226562 0.227214 0.227865 0.228516 0.229167 0.229818 0.230469 0.231120 0.231771 0.232422 0.233073 0.233724 0.234375 0.235026 0.235677
       0.29941        0.29941        0.29941        0.29941        0.29941        0.29941        0.29941        0.29941        0.29941        0.29941        0.29941        0.29941        0.29941        0.29941        0.29941        0.29941        0.29941        0.29941        0.29941        0.29941        0.29941        0.29941        0.29941        0.29941        0.29941        0.29941        0.29941        0.29941        0.29941        0.29941        0.29941        0.29941        0.29941        0.29941        0.29941        0.29941        0.29941        0.29941        0.29941        0.29941        0.29941        0.29941        0.29941        0.29941        0.29941        0.29941        0.29941        0.29941        0.29941        0.29941        0.29941        0.61630        0.77058        0.37298        0.24726        0.14849       -0.13657        0.11833        0.02219        0.03585        0.10238        0.33942        0.38838        0.33575        0.19635       -0.02466        0.02044        0.05825       -0.17164       -0.17939       -0.09308       -0.12036       -0.28880       -0.17790       -0.31484       -0.28527       -0.30101       -0.38963       -0.45945       -0.44821       -0.37518       -0.32833       -0.41425       -0.31571       -0.38702       -0.32265       -0.25877       -0.19840       -0.16920       -0.08064       -0.05046        0.06440        0.10102        0.22104        0.31909        0.38240        0.38171        0.48994        0.56434        0.59312        0.67679        0.64935        0.71074        0.61218        0.64782        0.65401        0.59062        0.59146        0.60329        0.40013        0.35511        0.35584        0.33510        0.18627        0.12358        0.06282        0.07428        0.03645       -0.05881        0.00490       -0.03387       -0.07595        0.05468        0.15902        0.25942        0.32332        0.32161        0.38710        0.50282        0.53261        0.48877        0.64970        0.52892        0.50872        0.55809        0.55564        0.51636        0.46752        0.39993        0.35565        0.23806        0.18959        0.13085        0.14122        0.11199        0.06218        0.09182        0.14830        0.15938        0.16191        0.21241        0.25053        0.33645        0.44618        0.44253        0.44291        0.50302        0.55987        0.53562        0.49434        0.38179        0.40531        0.35894        0.28075        0.22910        0.21481        0.16831        0.17762        0.17152        0.17188        0.14218        0.20415        0.24264        0.33524        0.37395        0.39745        0.45771        0.48556        0.43599        0.44038        0.40331        0.40108        0.40146        0.33969        0.27358        0.26745        0.20700        0.22865        0.21846        0.18953        0.21472        0.22544        0.24824        0.31707        0.36352        0.37006        0.37731        0.38637        0.43365        0.42392        0.40884        0.31434        0.30514        0.27494        0.28966        0.24319        0.20036        0.25254        0.30168        0.28917        0.28577        0.32648        0.30772        0.38108        0.33723        0.34587        0.35606        0.34083        0.32161        0.30116        0.27178        0.28198        0.25290        0.23315        0.25473        0.26887        0.29403        0.30953        0.33756        0.35747        0.32065        0.30873        0.34439        0.31878        0.25682        0.27793        0.27228        0.25251        0.25820        0.28805        0.26987        0.26895        0.30138        0.29683        0.31390        0.32133        0.33464        0.27188        0.28506        0.29701        0.27786        0.25477        0.24633        0.23200        0.24563        0.25992        0.26719        0.28344        0.27332        0.30817        0.33493        0.29821        0.30206        0.23624        0.23722        0.25004        0.22957        0.22201        0.25141        0.29233        0.25004        0.29203        0.29309        0.28472        0.31317        0.25711        0.28819        0.28508        0.28715        0.26028        0.23634        0.23272        0.24479        0.29125        0.29374        0.30496        0.29683        0.31228        0.28321        0.32357        0.27777        0.20155        0.28358        0.27491        0.26942        0.28656        0.30583        0.29655        0.34299        0.28600        0.23974        0.23921        0.23322        0.25810        0.29175        0.29424        0.25650        0.27500        0.25386        0.27384        0.26196        0.26019        0.23294        0.25972        0.28082        0.24568        0.26404        0.29886        0.29248        0.25760        0.26639        0.24233        0.27718        0.21003        0.20673        0.23174        0.27019        0.27368        0.30762        0.26796        0.22744        0.25389        0.22732        0.20961        0.18600        0.20957        0.20547        0.25055        0.25282        0.19477        0.26163        0.24271        0.28763        0.23686        0.16702        0.19417        0.19405        0.14314        0.21289        0.15480        0.15944        0.19307        0.10401        0.25642        0.09769        0.04558        0.14746        0.12249        0.16642        0.18338       -0.10116       -0.54840       -0.92194
2.883937 2.855652 2.827510 2.799513 2.771660 2.743952 2.716388 2.688967 2.661691 2.634560 2.607572 2.580729 2.554030 2.527475 2.501065 2.474799 2.448677 2.422699 2.396865 2.371176 2.345631 2.320230 2.294974 2.269861 2.244893 2.220069 2.195390 2.170854 2.146463 2.122216 2.098113 2.074155 2.050341 2.026670 2.003145 1.979763 1.956526 1.933433 1.910484 1.887679 1.865019 1.842503 1.820131 1.797903 1.775820 1.753881 1.732086 1.710435 1.688929 1.667567 1.646349 1.974125 2.301113 1.689432 1.677182 1.356159 0.864684 1.208236 1.070425 1.109606 0.986096 1.558622 1.502305 1.506491 1.249131 0.929434 0.777468 1.009181 0.728494 0.435045 0.573044 0.659736 0.392489 0.462968 0.286058 0.275393 0.186297 0.167131 -0.078311 -0.027010 0.044460 0.041850 0.020568 0.126485 -0.054506 0.008318 0.117639 0.206227 0.243618 0.307528 0.339248 0.611091 0.496757 0.671519 0.892202 0.923531 0.913503 1.153088 1.153300 1.230858 1.321277 1.196645 1.412728 1.175807 1.168560 1.327912 1.128646 1.068134 1.188225 0.901449 0.693210 0.686976 0.726117 0.444535 0.390631 0.247392 0.214828 0.148573 0.007382 0.129479 0.018179 -0.074843 0.090861 0.216884 0.348597 0.478291 0.504400 0.523818 0.716296 0.782070 0.607129 0.970958 0.817797 0.664774 0.762963 0.725423 0.718572 0.699670 0.458414 0.504405 0.260582 0.201310 0.117699 -0.012241 0.059522 -0.070074 -0.043742 -0.020379 0.098510 -0.046467 0.209483 0.135754 0.206565 0.397925 0.466593 0.440453 0.394604 0.618763 0.622587 0.492714 0.349341 0.350993 0.329415 0.173090 0.088607 0.042203 0.023892 -0.024840 -0.036560 -0.032790 -0.107806 -0.006355 0.019555 0.111646 0.253236 0.231439 0.365962 0.352855 0.397726 0.349327 0.432667 0.361970 0.262013 0.342409 0.126601 0.189712 0.037000 0.073956 0.035959 0.028508 -0.040332 0.038496 0.063966 0.112094 0.232268 0.269124 0.222875 0.265124 0.334483 0.331203 0.330798 0.196579 0.120148 0.150808 0.074560 0.093215 -0.020503 -0.024519 0.094938 0.090288 0.100931 0.094579 0.125272 0.204394 0.208253 0.184071 0.168486 0.195734 0.138433 0.137777 0.067601 0.062217 0.092534 -0.034919 0.029988 0.061912 0.020148 0.133512 0.111470 0.182855 0.191608 0.130966 0.110838 0.181121 0.099223 0.028856 0.081566 0.034924 0.011829 0.061441 0.076962 0.045568 0.033207 0.130035 0.079508 0.112460 0.140616 0.110791 0.081658 0.043614 0.087718 0.057604 0.008416 -0.009831 -0.024329 0.008479 0.008693 0.043194 0.086285 0.000963 0.084169 0.148085 0.026602 0.072186 -0.038427 -0.005154 -0.023191 -0.048420 -0.059434 0.036873 0.047931 -0.046984 0.069916 0.041366 0.054791 0.055708 -0.006335 0.008935 0.079425 -0.017377 0.015202 -0.055075 -0.035870 -0.039666 0.051647 0.052431 0.039139 0.006129 0.102575 0.002833 0.093499 -0.051061 -0.108040 0.027409 -0.013514 0.003686 -0.019679 0.093480 0.026959 0.069948 -0.004644 -0.120724 -0.043768 -0.097348 0.011336 0.007222 0.008696 -0.044805 -0.028602 -0.053963 -0.029959 -0.048465 -0.034492 -0.105910 -0.054808 -0.005260 -0.066998 0.002205 0.022893 -0.011764 -0.037474 0.024333 -0.028110 0.022693 -0.085000 -0.081995 -0.051460 0.046658 0.072663 0.077319 0.030004 -0.020508 0.052673 -0.021709 -0.090891 -0.001551 -0.071443 0.003366 0.058111 0.070124 -0.027597 0.100940 0.069809 0.183378 0.037432 -0.001923 0.034444 0.041350 -0.101534 0.099593 -0.057437 0.078759 0.055115 0.010477 0.391248 0.103026 0.071616 0.297391 0.203426 0.223324 0.329476 -0.148792 -1.394670
0.072396 0.072835 0.074150 0.076342 0.079411 0.083355 0.088174 0.093866 0.100430 0.107864 0.116166 0.125332 0.135359 0.146241 0.157975 0.170553 0.183967 0.198210 0.213270 0.229135 0.245792 0.263226 0.281418 0.300348 0.319994 0.340330 0.361329 0.382958 0.405184 0.427967 0.451267 0.475036 0.499227 0.523783 0.548648 0.573756 0.599041 0.624429 0.649843 0.675199 0.700409 0.725379 0.750012 0.774202 0.797842 0.820817 0.843009 0.864293 0.884544 0.903628 0.921410 0.937753 0.952515 0.965553 0.976722 0.985877 0.992874 0.997567 0.999816 0.999480 0.996427 0.990525 0.981654 0.969697 0.954550 0.936118 0.914320 0.889087 0.860366 0.828123 0.792338 0.753017 0.710184 0.663886 0.614198 0.561216 0.505068 0.445907 0.383917 0.319311 0.252334 0.183259 0.112393 0.040070 0.033342 0.107448 0.181826 0.256028 0.329579 0.401984 0.472732 0.541292 0.607125 0.669682 0.728413 0.782770 0.832213 0.876213 0.914264 0.945884 0.970623 0.988072 0.997865 0.999693 0.993303 0.978508 0.955197 0.923332 0.882962 0.834222 0.777341 0.712641 0.640543 0.561563 0.476318 0.385521 0.289978 0.190582 0.088311 0.015780 0.120574 0.224894 0.327522 0.427210 0.522695 0.612716 0.696032 0.771438 0.837789 0.894012 0.939135 0.972297 0.992773 0.999993 0.993552 0.973231 0.939009 0.891072 0.829821 0.755876 0.670079 0.573492 0.467384 0.353225 0.232672 0.107543 0.020197 0.148478 0.275144 0.397992 0.514819 0.623448 0.721781 0.807840 0.879811 0.936085 0.975300 0.996381 0.998574 0.981474 0.945049 0.889661 0.816072 0.725445 0.619340 0.499692 0.368787 0.229229 0.083889 0.064145 0.211632 0.355249 0.491660 0.617603 0.729961 0.825855 0.902720 0.958377 0.991110 0.999723 0.983596 0.942719 0.877718 0.789867 0.681071 0.553847 0.411273 0.256930 0.094817 0.070746 0.235224 0.393994 0.542472 0.676248 0.791231 0.883771 0.950791 0.989904 0.999505 0.978853 0.928122 0.848434 0.741849 0.611336 0.460707 0.294523 0.117967 0.063308 0.243356 0.416122 0.575658 0.716324 0.833001 0.921289 0.977682 0.999735 0.986176 0.936999 0.853503 0.738286 0.595188 0.429189 0.246251 0.053122 0.142905 0.334260 0.513382 0.673034 0.806592 0.908342 0.973741 0.999636 0.984446 0.928270 0.832939 0.701985 0.540545 0.355184 0.153645 0.055449 0.262964 0.459636 0.636504 0.785317 0.898938 0.971706 0.999746 0.981200 0.916377 0.807798 0.660137 0.480051 0.275920 0.057469 0.164669 0.379473 0.576069 0.744292 0.875232 0.961727 0.998782 0.983893 0.917247 0.801784 0.643112 0.449277 0.230391 0.001878 0.234898 0.455764 0.652005 0.812308 0.927195 0.989606 0.995376 0.943554 0.836536 0.680013 0.482714 0.255959 0.013051 0.231499 0.462813 0.666567 0.829884 0.942183 0.995894 0.987019 0.915470 0.785169 0.603902 0.382892 0.136161 0.120344 0.369749 0.595364 0.781817 0.916128 0.988642 0.993775 0.930503 0.802533 0.618157 0.389766 0.133090 0.133887 0.392125 0.622924 0.809256 0.937083 0.996436 0.982268 0.894926 0.740259 0.529293 0.277510 0.003755 0.271136 0.525905 0.740532 0.897835 0.984878 0.994109 0.924070 0.779655 0.571845 0.316951 0.035385 0.249931 0.515412 0.738771 0.900919 0.987639 0.990901 0.909683 0.750200 0.525525 0.254581 0.039367 0.330704 0.593662 0.804619 0.944262 0.999413 0.964353 0.841492 0.641314 0.381579 0.085810 0.218769 0.503720 0.742050 0.910804 0.993328 0.980993 0.874194 0.682481 0.423811 0.122956 0.190816 0.486547 0.734652 0.909903
1.000000 1.000000 1.000000 1.000000 1.000000 1.000000 1.000000 1.000000 1.000000 1.000000 1.000000 1.000000 1.000000 1.000000 1.000000 1.000000 1.000000 1.000000 1.000000 1.000000 1.000000 1.000000 1.000000 1.000000 1.000000 1.000000 1.000000 1.000000 1.000000 1.000000 1.000000 1.000000 1.000000 1.000000 1.000000 1.000000 1.000000 1.000000 1.000000 1.000000 1.000000 1.000000 1.000000 1.000000 1.000000 1.000000 1.000000 1.000000 1.000000 1.000000 1.000000 1.000000 0.829098 0.829098 0.829098 0.829098 0.829098 0.829098 0.829098 0.804716 0.804716 0.804716 0.804716 0.804716 0.804716 0.804716 0.804716 0.804716 0.804716 0.804716 0.804716 0.804716 0.804716 0.804716 0.804716 0.804716 0.804716 0.804716 0.804716 0.804716 0.804716 0.804716 0.804716 0.804716 0.804716 0.804716 0.804716 0.804716 0.804716 0.804716 0.804716 0.804716 0.804716 0.804716 0.804716 0.804716 0.804716 0.804716 0.804716 0.804716 0.804716 0.804716 0.804716 0.949336 0.950142 0.950471 0.949498 0.948009 0.944451 0.942764 0.941966 0.944657 0.944878 0.944866 0.945822 0.946392 0.947964 0.948944 0.950105 0.950431 0.958585 0.962266 0.961988 0.961730 0.961469 0.972199 0.972026 0.971852 0.971854 0.971967 0.971940 0.971846 0.971760 0.971328 0.971044 0.971498 0.971392 0.970972 0.970305 0.968855 0.968205 0.967602 0.967941 0.968728 0.967473 0.968027 0.970685 0.969848 0.969743 0.968417 0.967624 0.963073 0.960993 0.958976 0.959251 0.960437 0.960372 0.959954 0.958931 0.958983 0.958916 0.957824 0.957661 0.956541 0.953327 0.953443 0.953461 0.954243 0.949098 0.939170 0.937455 0.935197 0.936044 0.938568 0.941383 0.940917 0.940980 0.938726 0.931754 0.927077 0.918042 0.917056 0.914810 0.918540 0.918857 0.919987 0.919717 0.920399 0.918701 0.918018 0.907258 0.910480 0.908303 0.906371 0.901760 0.900250 0.899334 0.900656 0.902765 0.897785 0.886543 0.881457 0.870858 0.842743 0.841148 0.843679 0.851878 0.850635 0.848280 0.846826 0.832668 0.829448 0.816424 0.809602 0.811092 0.812211 0.813667 0.816442 0.818103 0.811997 0.799239 0.792605 0.796942 0.807033 0.816824 0.821948 0.818979 0.813795 0.813160 0.776462 0.772188 0.775114 0.763441 0.767684 0.754827 0.755034 0.760252 0.759500 0.755398 0.755145 0.754013 0.728541 0.733578 0.738415 0.741004 0.742422 0.728073 0.721656 0.680980 0.680068 0.651887 0.661725 0.663111 0.667616 0.655907 0.662710 0.667451 0.662777 0.669818 0.668451 0.645636 0.633316 0.637079 0.644822 0.609370 0.619822 0.618925 0.611438 0.603447 0.611073 0.624968 0.622267 0.599740 0.598651 0.569002 0.543501 0.528246 0.512831 0.500778 0.484952 0.497813 0.497810 0.503482 0.475260 0.454850 0.394714 0.397123 0.397655 0.358772 0.365245 0.361813 0.332387 0.360246 0.350280 0.367751 0.339188 0.320114 0.296593 0.219145 0.197626 0.150974 0.171748 0.167197 0.154370 0.149617 0.150684 0.136942 0.090668 0.081023 0.082038 0.105354 0.092841 0.066971 0.079551 0.078784 0.065894 0.054415 0.055029 0.105369 0.080721 0.088314 0.088958 0.047006 0.022255 -0.037615 -0.027889 -0.018009 0.014006 0.039513 0.024416 0.000281 -0.083416 -0.052332 -0.017719 -0.017719 -0.017719 -0.017719 -0.017719 -0.017719 -0.017719 -0.017719 -0.017719 -0.017719 -0.017719 -0.091122 -0.091122 -0.091122 -0.091122 -0.091122 -0.091122 -0.091122 -0.091122 -0.091122 -0.091122 -0.091122 -0.091122 -0.091122 -0.091122 -0.091122 -0.091122 -0.091122 -0.091122 -0.091122
0.000000 0.000000 0.000000 0.000000 0.000000 0.000000 0.000000 0.000000 0.000000 0.000000 0.000000 0.000000 0.000000 0.000000 0.000000 0.000000 0.000000 0.000000 0.000000 0.000000 0.000000 0.000000 0.000000 0.000000 0.000000 0.000000 0.000000 0.000000 0.000000 0.000000 0.000000 0.000000 0.000000 0.000000 0.000000 0.000000 0.000000 0.000000 0.000000 0.000000 0.000000 0.000000 0.000000 0.000000 0.000000 0.000000 0.000000 0.000000 0.000000 0.000000 0.000000 0.000000 0.173422 0.173422 0.173422 0.173422 0.173422 0.173422 0.173422 0.191565 0.191565 0.191565 0.191565 0.191565 0.191565 0.191565 0.191565 0.191565 0.191565 0.191565 0.191565 0.191565 0.191565 0.191565 0.191565 0.191565 0.191565 0.191565 0.191565 0.191565 0.191565 0.191565 0.191565 0.191565 0.191565 0.191565 0.191565 0.191565 0.191565 0.191565 0.191565 0.191565 0.191565 0.191565 0.191565 0.191565 0.191565 0.191565 0.191565 0.191565 0.191565 0.191565 0.191565 0.219529 0.219529 0.219529 0.219529 0.219529 0.219529 0.219529 0.219529 0.219529 0.219529 0.219529 0.219529 0.219529 0.219529 0.219529 0.219529 0.219529 0.219529 0.219529 0.219529 0.219529 0.219529 0.219529 0.219529 0.219529 0.219529 0.219529 0.219529 0.219529 0.219529 0.219529 0.237356 0.237356 0.237356 0.237356 0.237356 0.237356 0.237356 0.237356 0.237356 0.237356 0.237356 0.237356 0.237356 0.237356 0.237356 0.237356 0.237356 0.237356 0.237356 0.237356 0.237356 0.237356 0.237356 0.237356 0.244339 0.244339 0.244339 0.244339 0.244339 0.244339 0.244339 0.244339 0.244339 0.244339 0.244339 0.244339 0.244339 0.244339 0.244339 0.244339 0.244339 0.244339 0.244339 0.244339 0.244339 0.248069 0.248069 0.248069 0.248069 0.248069 0.248069 0.248069 0.248069 0.248069 0.248069 0.248069 0.248069 0.248069 0.248069 0.248069 0.248069 0.248069 0.248069 0.248069 0.248069 0.248069 0.248069 0.248069 0.248069 0.248069 0.248069 0.248069 0.248069 0.248069 0.248069 0.248069 0.248069 0.248069 0.248069 0.248069 0.248069 0.248069 0.256074 0.256074 0.256074 0.256074 0.256074 0.256074 0.256074 0.256074 0.256074 0.256074 0.256074 0.256074 0.256074 0.256074 0.256074 0.256074 0.256074 0.256074 0.256074 0.256074 0.256074 0.256074 0.256074 0.256074 0.256074 0.256074 0.256074 0.256074 0.256074 0.256074 0.256074 0.256074 0.256074 0.256074 0.256074 0.256074 0.256074 0.256074 0.256074 0.256074 0.256074 0.256074 0.256074 0.256074 0.256074 0.260378 0.260378 0.260378 0.260378 0.260378 0.260378 0.260378 0.260378 0.260378 0.260378 0.260378 0.260378 0.260378 0.256074 0.256074 0.256074 0.256074 0.256074 0.256074 0.256074 0.256074 0.256074 0.256074 0.256074 0.256074 0.256074 0.260378 0.260378 0.260378 0.260378 0.260378 0.260378 0.260378 0.260378 0.260378 0.260378 0.260378 0.260378 0.251976 0.251976 0.251976 0.251976 0.251976 0.251976 0.251976 0.251976 0.251976 0.251976 0.251976 0.251976 0.256074 0.256074 0.256074 0.256074 0.256074 0.256074 0.256074 0.256074 0.256074 0.256074 0.256074 0.251976 0.251976 0.251976 0.251976 0.251976 0.251976 0.251976 0.251976 0.251976 0.251976 0.251976 0.248069 0.248069 0.248069 0.248069 0.248069 0.248069 0.248069 0.248069 0.248069 0.248069 0.248069 0.256074 0.256074 0.256074 0.256074 0.256074 0.256074 0.256074 0.256074 0.256074 0.256074 0.256074 0.256074 0.256074 0.256074 0.256074 0.256074 0.256074 0.256074 0.256074
