# Output from CTFFind version 4.1.9, run on 2019-11-03 20:07:13
# Input file: stack11_bm3d_averaged_1_6.5_0_1250_half.mrc ; Number of micrographs: 1
# Pixel size: 3.000 Angstroms ; acceleration voltage: 300.0 keV ; spherical aberration: 0.00 mm ; amplitude contrast: 0.07
# Box size: 512 pixels ; min. res.: 30.0 Angstroms ; max. res.: 5.0 Angstroms ; min. def.: 5000.0 um; max. def. 50000.0 um; num. frames averaged: 1
# 6 lines per micrograph: #1 - spatial frequency (1/Angstroms); #2 - 1D rotational average of spectrum (assuming no astigmatism); #3 - 1D rotational average of spectrum; #4 - CTF fit; #5 - cross-correlation between spectrum and CTF fit; #6 - 2sigma of expected cross correlation of noise
0.000000 0.000651 0.001302 0.001953 0.002604 0.003255 0.003906 0.004557 0.005208 0.005859 0.006510 0.007161 0.007812 0.008464 0.009115 0.009766 0.010417 0.011068 0.011719 0.012370 0.013021 0.013672 0.014323 0.014974 0.015625 0.016276 0.016927 0.017578 0.018229 0.018880 0.019531 0.020182 0.020833 0.021484 0.022135 0.022786 0.023438 0.024089 0.024740 0.025391 0.026042 0.026693 0.027344 0.027995 0.028646 0.029297 0.029948 0.030599 0.031250 0.031901 0.032552 0.033203 0.033854 0.034505 0.035156 0.035807 0.036458 0.037109 0.037760 0.038411 0.039062 0.039714 0.040365 0.041016 0.041667 0.042318 0.042969 0.043620 0.044271 0.044922 0.045573 0.046224 0.046875 0.047526 0.048177 0.048828 0.049479 0.050130 0.050781 0.051432 0.052083 0.052734 0.053385 0.054036 0.054688 0.055339 0.055990 0.056641 0.057292 0.057943 0.058594 0.059245 0.059896 0.060547 0.061198 0.061849 0.062500 0.063151 0.063802 0.064453 0.065104 0.065755 0.066406 0.067057 0.067708 0.068359 0.069010 0.069661 0.070312 0.070964 0.071615 0.072266 0.072917 0.073568 0.074219 0.074870 0.075521 0.076172 0.076823 0.077474 0.078125 0.078776 0.079427 0.080078 0.080729 0.081380 0.082031 0.082682 0.083333 0.083984 0.084635 0.085286 0.085938 0.086589 0.087240 0.087891 0.088542 0.089193 0.089844 0.090495 0.091146 0.091797 0.092448 0.093099 0.093750 0.094401 0.095052 0.095703 0.096354 0.097005 0.097656 0.098307 0.098958 0.099609 0.100260 0.100911 0.101562 0.102214 0.102865 0.103516 0.104167 0.104818 0.105469 0.106120 0.106771 0.107422 0.108073 0.108724 0.109375 0.110026 0.110677 0.111328 0.111979 0.112630 0.113281 0.113932 0.114583 0.115234 0.115885 0.116536 0.117188 0.117839 0.118490 0.119141 0.119792 0.120443 0.121094 0.121745 0.122396 0.123047 0.123698 0.124349 0.125000 0.125651 0.126302 0.126953 0.127604 0.128255 0.128906 0.129557 0.130208 0.130859 0.131510 0.132161 0.132812 0.133464 0.134115 0.134766 0.135417 0.136068 0.136719 0.137370 0.138021 0.138672 0.139323 0.139974 0.140625 0.141276 0.141927 0.142578 0.143229 0.143880 0.144531 0.145182 0.145833 0.146484 0.147135 0.147786 0.148438 0.149089 0.149740 0.150391 0.151042 0.151693 0.152344 0.152995 0.153646 0.154297 0.154948 0.155599 0.156250 0.156901 0.157552 0.158203 0.158854 0.159505 0.160156 0.160807 0.161458 0.162109 0.162760 0.163411 0.164062 0.164714 0.165365 0.166016 0.166667 0.167318 0.167969 0.168620 0.169271 0.169922 0.170573 0.171224 0.171875 0.172526 0.173177 0.173828 0.174479 0.175130 0.175781 0.176432 0.177083 0.177734 0.178385 0.179036 0.179688 0.180339 0.180990 0.181641 0.182292 0.182943 0.183594 0.184245 0.184896 0.185547 0.186198 0.186849 0.187500 0.188151 0.188802 0.189453 0.190104 0.190755 0.191406 0.192057 0.192708 0.193359 0.194010 0.194661 0.195312 0.195964 0.196615 0.197266 0.197917 0.198568 0.199219 0.199870 0.200521 0.201172 0.201823 0.202474 0.203125 0.203776 0.204427 0.205078 0.205729 0.206380 0.207031 0.207682 0.208333 0.208984 0.209635 0.210286 0.210938 0.211589 0.212240 0.212891 0.213542 0.214193 0.214844 0.215495 0.216146 0.216797 0.217448 0.218099 0.218750 0.219401 0.220052 0.220703 0.221354 0.222005 0.222656 0.223307 0.223958 0.224609 0.225260 0.225911 0.226562 0.227214 0.227865 0.228516 0.229167 0.229818 0.230469 0.231120 0.231771 0.232422 0.233073 0.233724 0.234375 0.235026 0.235677
       0.34482        0.34482        0.34482        0.34482        0.34482        0.34482        0.34482        0.34482        0.34482        0.34482        0.34482        0.34482        0.34482        0.34482        0.34482        0.34482        0.34482        0.34482        0.34482        0.34482        0.34482        0.34482        0.34482        0.34482        0.34482        0.34482        0.34482        0.34482        0.34482        0.34482        0.34482        0.34482        0.34482        0.34482        0.34482        0.34482        0.34482        0.34482        0.34482        0.34482        0.34482        0.34482        0.34482        0.34482        0.34482        0.34482        0.34482        0.34482        0.34482        0.34482        0.34482        0.69889        0.85762        0.53810        0.10539       -0.02909       -0.38621       -0.18013       -0.28839       -0.11586       -0.05512       -0.11249       -0.05319       -0.16683       -0.20566       -0.21381       -0.30699       -0.31835       -0.44401       -0.36199       -0.42590       -0.42094       -0.39379       -0.40721       -0.44704       -0.50769       -0.55857       -0.54987       -0.52416       -0.35648       -0.32610       -0.29132       -0.27129       -0.18555       -0.16983        0.06140        0.14201        0.17510        0.26618        0.38168        0.45788        0.52323        0.60073        0.59810        0.58445        0.70019        0.80326        0.70320        0.74430        0.61972        0.56876        0.48368        0.43268        0.51229        0.39773        0.27151        0.11676        0.11324        0.09368       -0.01346        0.04482        0.05267        0.01165        0.02816        0.03083        0.23716        0.27169        0.29673        0.43533        0.45377        0.41473        0.60006        0.61899        0.63556        0.72440        0.67633        0.64717        0.65640        0.56018        0.46082        0.41905        0.30394        0.27012        0.18478        0.13669        0.05258        0.06580        0.07571        0.09997        0.15988        0.24566        0.29805        0.42222        0.46551        0.48139        0.56481        0.60265        0.63679        0.61529        0.55839        0.46212        0.47375        0.37893        0.27766        0.21244        0.15668        0.17304        0.15373        0.16099        0.19029        0.32336        0.33784        0.40721        0.44645        0.42624        0.48082        0.56359        0.55524        0.50313        0.45773        0.41386        0.37294        0.34226        0.30969        0.26518        0.24753        0.25483        0.25678        0.22640        0.31027        0.36487        0.38485        0.43959        0.45639        0.46794        0.42750        0.41221        0.40232        0.36344        0.33733        0.27497        0.28122        0.26923        0.24662        0.29604        0.29327        0.35248        0.38329        0.43484        0.47683        0.40726        0.42297        0.43287        0.41199        0.35041        0.32883        0.29333        0.32686        0.27609        0.32357        0.31580        0.33356        0.34188        0.36504        0.31443        0.38881        0.41243        0.38111        0.35215        0.36992        0.31919        0.29571        0.30826        0.32056        0.30839        0.32068        0.34512        0.35736        0.34134        0.36463        0.36348        0.42319        0.39067        0.33998        0.34894        0.30014        0.29452        0.32696        0.32057        0.33115        0.34346        0.34287        0.38789        0.33152        0.33056        0.33913        0.34906        0.30523        0.31311        0.28233        0.30354        0.33146        0.30518        0.33220        0.35878        0.37024        0.29913        0.34272        0.29997        0.29410        0.27971        0.24742        0.30764        0.30764        0.34302        0.33986        0.34476        0.32799        0.34999        0.31540        0.34666        0.30721        0.32557        0.29195        0.33725        0.33074        0.37247        0.33086        0.33667        0.33806        0.29381        0.27611        0.31285        0.25057        0.22957        0.34139        0.32355        0.36770        0.34786        0.36371        0.33583        0.33483        0.35132        0.26645        0.26863        0.31942        0.30186        0.31173        0.31561        0.33981        0.32935        0.28955        0.29097        0.34591        0.32264        0.32180        0.29872        0.32253        0.33856        0.39386        0.36277        0.32001        0.28344        0.30417        0.29036        0.30685        0.27843        0.27077        0.31282        0.33031        0.34608        0.35632        0.33205        0.29583        0.30186        0.27123        0.27885        0.25682        0.30735        0.26223        0.24804        0.29148        0.28642        0.26291        0.29492        0.21948        0.21597        0.23987        0.19300        0.27263        0.34889        0.25316        0.24226        0.31843        0.30308        0.31058        0.31451        0.27280        0.25237        0.19310        0.21068        0.20751        0.27937        0.23709        0.28437        0.36480        0.36808        0.25441        0.17560        0.12054       -0.01436       -0.12557       -0.62343
2.803014 2.773271 2.743690 2.714270 2.685013 2.655918 2.626984 2.598213 2.569604 2.541156 2.512871 2.484747 2.456786 2.428986 2.401349 2.373873 2.346559 2.319408 2.292418 2.265590 2.238925 2.212421 2.186079 2.159899 2.133882 2.108026 2.082332 2.056800 2.031430 2.006222 1.981176 1.956292 1.931570 1.907010 1.882612 1.858376 1.834302 1.810390 1.786640 1.763051 1.739625 1.716361 1.693259 1.670318 1.647540 1.624924 1.602469 1.580177 1.558047 1.536078 1.514272 1.732348 2.158397 1.713897 1.192847 1.056159 0.454831 0.852155 0.562757 0.847928 0.817314 0.820966 0.760024 0.757168 0.598601 0.562569 0.502948 0.428951 0.249904 0.365777 0.200022 0.331117 0.219733 0.210744 0.185569 0.041559 0.002682 0.019197 -0.070008 0.133752 0.233665 0.189316 0.179473 0.325752 0.184806 0.523233 0.627238 0.636024 0.653150 0.880348 0.838870 0.947308 0.942932 1.039902 1.009283 1.092418 1.175319 1.048369 1.170850 0.913518 0.933459 0.799471 0.656416 0.811647 0.697874 0.498347 0.334367 0.252582 0.270473 0.149754 0.137630 0.166592 0.109398 0.120703 0.082695 0.249770 0.352225 0.343102 0.478462 0.546819 0.418276 0.596298 0.734323 0.648876 0.722525 0.712824 0.721185 0.648061 0.597819 0.492559 0.369033 0.277333 0.220880 0.091707 0.116763 -0.115741 -0.049421 -0.063385 -0.084004 -0.018702 0.129381 0.070821 0.242632 0.308215 0.336977 0.374854 0.497795 0.467570 0.479992 0.491694 0.305650 0.294631 0.287460 0.086602 0.046087 -0.081513 -0.015312 -0.062748 -0.096821 -0.072012 0.040102 0.094931 0.126190 0.224595 0.224231 0.221457 0.316688 0.358355 0.435318 0.257055 0.232853 0.226668 0.143760 0.145458 0.119810 -0.004294 0.015467 0.076103 -0.010315 0.045405 0.133874 0.135538 0.214266 0.234200 0.259175 0.161995 0.211281 0.128208 0.128328 0.113754 0.027486 -0.026602 -0.000882 -0.020624 -0.052812 0.055053 0.004659 0.106589 0.138768 0.192915 0.165130 0.119254 0.140677 0.160301 0.110399 0.035999 -0.025720 0.029700 0.028020 -0.043226 0.036734 0.021043 0.047962 0.039493 0.050660 0.030037 0.133840 0.120011 0.046547 0.038320 0.042830 0.005774 -0.030890 0.009411 0.005387 -0.003956 0.003926 0.056231 0.053676 0.038973 0.076137 0.061026 0.163226 0.063980 0.040595 0.043090 -0.034548 0.011977 0.047178 0.007916 0.033420 0.055459 0.080472 0.049951 0.042225 0.008493 0.079679 0.026026 0.021202 0.023929 -0.006603 0.032909 0.026382 0.021133 0.069364 0.074896 0.077079 0.041256 0.051979 0.024304 0.015940 -0.023414 -0.024535 0.036838 0.052780 0.080945 0.081457 0.065789 0.072050 0.097885 0.043143 0.091565 0.058643 0.043926 0.018305 0.104363 0.062618 0.124141 0.069943 0.062077 0.100202 0.032895 0.003223 0.086412 -0.039235 -0.027490 0.095541 0.044171 0.160235 0.093228 0.090100 0.066774 0.035317 0.091627 -0.025310 -0.024465 0.050028 0.036106 0.034871 0.021405 0.105024 0.031917 -0.011484 0.051036 0.043137 0.051933 0.060724 -0.008488 0.059648 0.052364 0.119063 0.056058 0.028236 -0.027998 -0.024455 -0.004224 0.007141 -0.055550 -0.022338 0.001574 0.016951 0.035398 0.057246 0.005424 -0.032740 -0.029871 -0.019166 -0.066670 -0.047277 -0.032224 -0.130983 -0.096157 -0.056034 -0.091877 -0.105556 -0.025166 -0.153101 -0.105570 -0.113021 -0.188062 -0.069935 0.061219 -0.072324 -0.138971 0.051075 0.033461 -0.025246 0.074626 -0.023904 -0.001657 -0.087823 -0.037055 0.046748 0.125217 0.055230 0.139202 0.172183 0.432194 0.237256 0.318834 0.152683 -0.020005 -0.696225
0.072396 0.072899 0.074408 0.076923 0.080442 0.084966 0.090492 0.097020 0.104546 0.113069 0.122585 0.133090 0.144577 0.157042 0.170475 0.184868 0.200210 0.216488 0.233687 0.251790 0.270776 0.290622 0.311303 0.332789 0.355047 0.378039 0.401724 0.426056 0.450985 0.476453 0.502400 0.528759 0.555456 0.582413 0.609544 0.636757 0.663954 0.691029 0.717870 0.744358 0.770367 0.795764 0.820411 0.844161 0.866864 0.888361 0.908491 0.927086 0.943976 0.958985 0.971937 0.982654 0.990958 0.996671 0.999618 0.999627 0.996533 0.990176 0.980405 0.967081 0.950077 0.929279 0.904591 0.875938 0.843263 0.806533 0.765742 0.720911 0.672091 0.619365 0.562849 0.502697 0.439098 0.372279 0.302510 0.230096 0.155388 0.078773 0.000681 0.078421 0.158028 0.237599 0.316561 0.394312 0.470224 0.543650 0.613925 0.680376 0.742327 0.799106 0.850052 0.894527 0.931918 0.961654 0.983209 0.996114 0.999967 0.994442 0.979299 0.954391 0.919673 0.875212 0.821189 0.757908 0.685798 0.605418 0.517455 0.422723 0.322162 0.216833 0.107907 0.003344 0.115554 0.227287 0.337047 0.443297 0.544488 0.639072 0.725536 0.802423 0.868358 0.922084 0.962477 0.988584 0.999644 0.995112 0.974682 0.938304 0.886203 0.818886 0.737148 0.642078 0.535046 0.417698 0.291935 0.159890 0.023899 0.113540 0.249808 0.382209 0.508032 0.624601 0.729336 0.819816 0.893840 0.949486 0.985170 0.999696 0.992307 0.962720 0.911158 0.838365 0.745616 0.634710 0.507946 0.368091 0.218330 0.062202 0.096477 0.253702 0.405379 0.547429 0.675905 0.787107 0.877693 0.944792 0.986105 0.999999 0.985584 0.942764 0.872283 0.775729 0.655526 0.514889 0.357762 0.188714 0.012826 0.164458 0.337493 0.500611 0.648312 0.775455 0.877447 0.950425 0.991419 0.998488 0.970833 0.908866 0.814245 0.689854 0.539751 0.369048 0.183768 0.009355 0.203115 0.390089 0.562932 0.714659 0.838953 0.930429 0.984904 0.999601 0.973320 0.906543 0.801471 0.661992 0.493567 0.303049 0.098426 0.111496 0.317459 0.510167 0.680701 0.820947 0.924004 0.984551 0.999144 0.966455 0.887392 0.765139 0.605066 0.414534 0.202592 0.020429 0.243403 0.454958 0.644054 0.800576 0.915896 0.983380 0.998804 0.960661 0.870323 0.732057 0.552871 0.342208 0.111487 0.126497 0.358260 0.570387 0.750328 0.887158 0.972270 0.999963 0.967870 0.877196 0.732751 0.542753 0.318417 0.073333 0.177329 0.417734 0.632391 0.807164 0.930229 0.992922 0.990400 0.922068 0.791740 0.607497 0.381251 0.128029 0.134977 0.389577 0.617818 0.803270 0.932246 0.994863 0.985851 0.905069 0.757646 0.553737 0.307899 0.038107 0.235529 0.492232 0.712143 0.877895 0.976021 0.998110 0.941609 0.810167 0.613504 0.366768 0.089448 0.196125 0.466551 0.699274 0.874488 0.976889 0.997067 0.932459 0.787736 0.574575 0.310795 0.018971 0.275492 0.546498 0.769632 0.924363 0.996012 0.977235 0.868860 0.680001 0.427408 0.134071 0.172808 0.464301 0.712475 0.893106 0.988104 0.987418 0.890202 0.705106 0.449625 0.148559 0.168325 0.469198 0.723352 0.904376 0.992975 0.979125 0.863323 0.656758 0.380372 0.062837 0.262346 0.560335 0.798705 0.951013 0.999837 0.938879 0.773899 0.522332 0.211573 0.123906 0.446315 0.718795 0.909675 0.996231 0.967512 0.825866 0.586932 0.278072 0.064657 0.400621 0.689430 0.895795 0.993950 0.970988 0.828704 0.583668 0.265461 0.086773 0.429065 0.718080 0.916655 0.998671 0.952625 0.783411 0.511998 0.173003 0.189614
1.000000 1.000000 1.000000 1.000000 1.000000 1.000000 1.000000 1.000000 1.000000 1.000000 1.000000 1.000000 1.000000 1.000000 1.000000 1.000000 1.000000 1.000000 1.000000 1.000000 1.000000 1.000000 1.000000 1.000000 1.000000 1.000000 1.000000 1.000000 1.000000 1.000000 1.000000 1.000000 1.000000 1.000000 1.000000 1.000000 1.000000 1.000000 1.000000 1.000000 1.000000 1.000000 1.000000 1.000000 1.000000 1.000000 1.000000 1.000000 1.000000 1.000000 1.000000 1.000000 0.916526 0.916526 0.916526 0.912414 0.912414 0.912414 0.912414 0.912414 0.912414 0.912414 0.912414 0.912414 0.912414 0.912414 0.912414 0.912414 0.912414 0.912414 0.912414 0.912414 0.912414 0.912414 0.912414 0.912414 0.912414 0.912414 0.912414 0.912414 0.912414 0.912414 0.912414 0.912414 0.912414 0.912414 0.912414 0.912414 0.912414 0.912414 0.912414 0.912414 0.912414 0.912414 0.912414 0.912414 0.941241 0.942637 0.950946 0.950480 0.949897 0.947921 0.946686 0.946352 0.946265 0.946608 0.947326 0.948297 0.954503 0.955416 0.959818 0.962521 0.962490 0.964226 0.966194 0.965860 0.957523 0.957303 0.955899 0.955173 0.957288 0.955938 0.954713 0.955186 0.954799 0.957347 0.956892 0.955685 0.954054 0.952471 0.951186 0.950640 0.950409 0.951203 0.951272 0.952826 0.955841 0.955992 0.955720 0.952942 0.952569 0.953771 0.953139 0.952898 0.941182 0.940551 0.939098 0.939093 0.941665 0.941579 0.941475 0.942370 0.942067 0.941988 0.942134 0.935503 0.935203 0.927539 0.924036 0.922503 0.917120 0.913080 0.915706 0.918301 0.919556 0.920015 0.910957 0.907996 0.908946 0.907778 0.909247 0.909243 0.910291 0.910732 0.910645 0.905329 0.895356 0.893692 0.886252 0.888985 0.885923 0.883300 0.880248 0.871253 0.861143 0.874899 0.860237 0.826643 0.830272 0.835066 0.827929 0.824821 0.825896 0.827426 0.832200 0.825317 0.823765 0.818137 0.805597 0.801257 0.794580 0.780501 0.778801 0.769569 0.759311 0.753456 0.777207 0.771028 0.782406 0.786796 0.786523 0.783125 0.774420 0.763748 0.763805 0.759400 0.755740 0.732629 0.724396 0.724644 0.721948 0.710184 0.713335 0.701560 0.701437 0.689101 0.693716 0.699081 0.702099 0.698236 0.692123 0.683900 0.680161 0.692995 0.706984 0.699749 0.695490 0.699820 0.690059 0.683435 0.676846 0.680967 0.673647 0.663964 0.668857 0.696661 0.668596 0.658073 0.664786 0.666826 0.660988 0.661883 0.641524 0.636072 0.614212 0.631443 0.636199 0.652113 0.653173 0.654823 0.665865 0.671552 0.682284 0.686799 0.685705 0.646184 0.649901 0.669198 0.676804 0.665223 0.655040 0.655007 0.649032 0.685116 0.668497 0.625945 0.622152 0.621085 0.581337 0.558917 0.557435 0.559541 0.586063 0.581378 0.562836 0.536557 0.538430 0.540334 0.539895 0.538646 0.523000 0.531152 0.516370 0.492727 0.504683 0.512569 0.511036 0.495337 0.488729 0.501352 0.478915 0.508360 0.483729 0.464618 0.482012 0.480224 0.468768 0.395621 0.406218 0.394856 0.381302 0.336908 0.346520 0.356251 0.339340 0.264650 0.258061 0.258828 0.255607 0.237159 0.216633 0.203115 0.192409 0.170315 0.107403 0.059032 0.059523 0.063291 0.090857 0.050767 0.103576 0.170436 0.169011 0.169011 0.169011 0.169011 0.169011 0.169011 0.169011 0.169011 0.144791 0.144791 0.144791 0.144791 0.144791 0.144791 0.144791 0.144791 0.144791 0.169011 0.169011 0.169011 0.169011 0.169011 0.169011 0.169011 0.169011 0.169011 0.169011 0.169011 0.169011 0.169011 0.169011
0.000000 0.000000 0.000000 0.000000 0.000000 0.000000 0.000000 0.000000 0.000000 0.000000 0.000000 0.000000 0.000000 0.000000 0.000000 0.000000 0.000000 0.000000 0.000000 0.000000 0.000000 0.000000 0.000000 0.000000 0.000000 0.000000 0.000000 0.000000 0.000000 0.000000 0.000000 0.000000 0.000000 0.000000 0.000000 0.000000 0.000000 0.000000 0.000000 0.000000 0.000000 0.000000 0.000000 0.000000 0.000000 0.000000 0.000000 0.000000 0.000000 0.000000 0.000000 0.000000 0.180334 0.180334 0.180334 0.199007 0.199007 0.199007 0.199007 0.199007 0.199007 0.199007 0.199007 0.199007 0.199007 0.199007 0.199007 0.199007 0.199007 0.199007 0.199007 0.199007 0.199007 0.199007 0.199007 0.199007 0.199007 0.199007 0.199007 0.199007 0.199007 0.199007 0.199007 0.199007 0.199007 0.199007 0.199007 0.199007 0.199007 0.199007 0.199007 0.199007 0.199007 0.199007 0.199007 0.199007 0.225018 0.225018 0.225018 0.225018 0.225018 0.225018 0.225018 0.225018 0.225018 0.225018 0.225018 0.225018 0.225018 0.225018 0.225018 0.225018 0.225018 0.225018 0.225018 0.225018 0.225018 0.225018 0.225018 0.225018 0.225018 0.225018 0.225018 0.225018 0.225018 0.244339 0.244339 0.244339 0.244339 0.244339 0.244339 0.244339 0.244339 0.244339 0.244339 0.244339 0.244339 0.244339 0.244339 0.244339 0.244339 0.244339 0.244339 0.244339 0.244339 0.244339 0.244339 0.244339 0.256074 0.256074 0.256074 0.256074 0.256074 0.256074 0.256074 0.256074 0.256074 0.256074 0.256074 0.256074 0.256074 0.256074 0.256074 0.256074 0.256074 0.256074 0.256074 0.256074 0.256074 0.256074 0.256074 0.256074 0.256074 0.256074 0.256074 0.256074 0.256074 0.256074 0.256074 0.256074 0.256074 0.256074 0.256074 0.256074 0.256074 0.264906 0.264906 0.264906 0.264906 0.264906 0.264906 0.264906 0.264906 0.264906 0.264906 0.264906 0.264906 0.264906 0.264906 0.264906 0.264906 0.264906 0.264906 0.264906 0.264906 0.264906 0.264906 0.264906 0.264906 0.264906 0.264906 0.264906 0.264906 0.264906 0.264906 0.264906 0.264906 0.264906 0.264906 0.264906 0.264906 0.264906 0.264906 0.264906 0.264906 0.264906 0.264906 0.264906 0.264906 0.264906 0.264906 0.264906 0.264906 0.264906 0.264906 0.264906 0.264906 0.264906 0.264906 0.264906 0.264906 0.264906 0.264906 0.260378 0.260378 0.260378 0.260378 0.260378 0.260378 0.260378 0.260378 0.260378 0.260378 0.260378 0.260378 0.260378 0.264906 0.264906 0.264906 0.264906 0.264906 0.264906 0.264906 0.264906 0.264906 0.264906 0.264906 0.264906 0.269680 0.269680 0.269680 0.269680 0.269680 0.269680 0.269680 0.269680 0.269680 0.269680 0.269680 0.264906 0.264906 0.264906 0.264906 0.264906 0.264906 0.264906 0.264906 0.264906 0.264906 0.264906 0.256074 0.256074 0.256074 0.256074 0.256074 0.256074 0.256074 0.256074 0.256074 0.256074 0.256074 0.264906 0.264906 0.264906 0.264906 0.264906 0.264906 0.264906 0.264906 0.264906 0.264906 0.260378 0.260378 0.260378 0.260378 0.260378 0.260378 0.260378 0.260378 0.260378 0.260378 0.264906 0.264906 0.264906 0.264906 0.264906 0.264906 0.264906 0.264906 0.264906 0.251976 0.251976 0.251976 0.251976 0.251976 0.251976 0.251976 0.251976 0.251976 0.251976 0.256074 0.256074 0.256074 0.256074 0.256074 0.256074 0.256074 0.256074 0.256074 0.251976 0.251976 0.251976 0.251976 0.251976 0.251976 0.251976 0.251976 0.251976 0.251976 0.251976 0.251976 0.251976 0.251976
