# Output from CTFFind version 4.1.9, run on 2019-11-02 17:43:01
# Input file: stack1_bm3d_averaged_1_1.5_0_50_half.mrc ; Number of micrographs: 1
# Pixel size: 3.000 Angstroms ; acceleration voltage: 300.0 keV ; spherical aberration: 0.00 mm ; amplitude contrast: 0.07
# Box size: 512 pixels ; min. res.: 30.0 Angstroms ; max. res.: 5.0 Angstroms ; min. def.: 5000.0 um; max. def. 50000.0 um; num. frames averaged: 1
# 6 lines per micrograph: #1 - spatial frequency (1/Angstroms); #2 - 1D rotational average of spectrum (assuming no astigmatism); #3 - 1D rotational average of spectrum; #4 - CTF fit; #5 - cross-correlation between spectrum and CTF fit; #6 - 2sigma of expected cross correlation of noise
0.000000 0.000651 0.001302 0.001953 0.002604 0.003255 0.003906 0.004557 0.005208 0.005859 0.006510 0.007161 0.007812 0.008464 0.009115 0.009766 0.010417 0.011068 0.011719 0.012370 0.013021 0.013672 0.014323 0.014974 0.015625 0.016276 0.016927 0.017578 0.018229 0.018880 0.019531 0.020182 0.020833 0.021484 0.022135 0.022786 0.023438 0.024089 0.024740 0.025391 0.026042 0.026693 0.027344 0.027995 0.028646 0.029297 0.029948 0.030599 0.031250 0.031901 0.032552 0.033203 0.033854 0.034505 0.035156 0.035807 0.036458 0.037109 0.037760 0.038411 0.039062 0.039714 0.040365 0.041016 0.041667 0.042318 0.042969 0.043620 0.044271 0.044922 0.045573 0.046224 0.046875 0.047526 0.048177 0.048828 0.049479 0.050130 0.050781 0.051432 0.052083 0.052734 0.053385 0.054036 0.054688 0.055339 0.055990 0.056641 0.057292 0.057943 0.058594 0.059245 0.059896 0.060547 0.061198 0.061849 0.062500 0.063151 0.063802 0.064453 0.065104 0.065755 0.066406 0.067057 0.067708 0.068359 0.069010 0.069661 0.070312 0.070964 0.071615 0.072266 0.072917 0.073568 0.074219 0.074870 0.075521 0.076172 0.076823 0.077474 0.078125 0.078776 0.079427 0.080078 0.080729 0.081380 0.082031 0.082682 0.083333 0.083984 0.084635 0.085286 0.085938 0.086589 0.087240 0.087891 0.088542 0.089193 0.089844 0.090495 0.091146 0.091797 0.092448 0.093099 0.093750 0.094401 0.095052 0.095703 0.096354 0.097005 0.097656 0.098307 0.098958 0.099609 0.100260 0.100911 0.101562 0.102214 0.102865 0.103516 0.104167 0.104818 0.105469 0.106120 0.106771 0.107422 0.108073 0.108724 0.109375 0.110026 0.110677 0.111328 0.111979 0.112630 0.113281 0.113932 0.114583 0.115234 0.115885 0.116536 0.117188 0.117839 0.118490 0.119141 0.119792 0.120443 0.121094 0.121745 0.122396 0.123047 0.123698 0.124349 0.125000 0.125651 0.126302 0.126953 0.127604 0.128255 0.128906 0.129557 0.130208 0.130859 0.131510 0.132161 0.132812 0.133464 0.134115 0.134766 0.135417 0.136068 0.136719 0.137370 0.138021 0.138672 0.139323 0.139974 0.140625 0.141276 0.141927 0.142578 0.143229 0.143880 0.144531 0.145182 0.145833 0.146484 0.147135 0.147786 0.148438 0.149089 0.149740 0.150391 0.151042 0.151693 0.152344 0.152995 0.153646 0.154297 0.154948 0.155599 0.156250 0.156901 0.157552 0.158203 0.158854 0.159505 0.160156 0.160807 0.161458 0.162109 0.162760 0.163411 0.164062 0.164714 0.165365 0.166016 0.166667 0.167318 0.167969 0.168620 0.169271 0.169922 0.170573 0.171224 0.171875 0.172526 0.173177 0.173828 0.174479 0.175130 0.175781 0.176432 0.177083 0.177734 0.178385 0.179036 0.179688 0.180339 0.180990 0.181641 0.182292 0.182943 0.183594 0.184245 0.184896 0.185547 0.186198 0.186849 0.187500 0.188151 0.188802 0.189453 0.190104 0.190755 0.191406 0.192057 0.192708 0.193359 0.194010 0.194661 0.195312 0.195964 0.196615 0.197266 0.197917 0.198568 0.199219 0.199870 0.200521 0.201172 0.201823 0.202474 0.203125 0.203776 0.204427 0.205078 0.205729 0.206380 0.207031 0.207682 0.208333 0.208984 0.209635 0.210286 0.210938 0.211589 0.212240 0.212891 0.213542 0.214193 0.214844 0.215495 0.216146 0.216797 0.217448 0.218099 0.218750 0.219401 0.220052 0.220703 0.221354 0.222005 0.222656 0.223307 0.223958 0.224609 0.225260 0.225911 0.226562 0.227214 0.227865 0.228516 0.229167 0.229818 0.230469 0.231120 0.231771 0.232422 0.233073 0.233724 0.234375 0.235026 0.235677
       0.32796        0.32796        0.32796        0.32796        0.32796        0.32796        0.32796        0.32796        0.32796        0.32796        0.32796        0.32796        0.32796        0.32796        0.32796        0.32796        0.32796        0.32796        0.32796        0.32796        0.32796        0.32796        0.32796        0.32796        0.32796        0.32796        0.32796        0.32796        0.32796        0.32796        0.32796        0.32796        0.32796        0.32796        0.32796        0.32796        0.32796        0.32796        0.32796        0.32796        0.32796        0.32796        0.32796        0.32796        0.32796        0.32796        0.32796        0.32796        0.32796        0.32796        0.32796        0.49686        0.71566        0.42426        0.18658       -0.08095       -0.25892       -0.06880       -0.13113       -0.06031       -0.00857       -0.15499       -0.09908       -0.05916       -0.00788       -0.15783       -0.22984       -0.34752       -0.46410       -0.55975       -0.51517       -0.44566       -0.37438       -0.55318       -0.45632       -0.62490       -0.51193       -0.47345       -0.39344       -0.38650       -0.33726       -0.25265       -0.17103       -0.14684        0.02892       -0.01674        0.11238        0.15999        0.30352        0.41030        0.45476        0.50068        0.54230        0.55011        0.68035        0.63499        0.67049        0.58726        0.55164        0.64050        0.51898        0.42426        0.38414        0.31382        0.23171        0.25431        0.25030        0.09489        0.07232       -0.00025       -0.00597        0.03545       -0.01771        0.06376        0.10168        0.23078        0.28528        0.28879        0.37893        0.56022        0.52835        0.57313        0.65754        0.69550        0.62585        0.63779        0.63113        0.54898        0.56844        0.40171        0.34468        0.25648        0.17914        0.07645        0.13767        0.10850        0.10155        0.10723        0.20056        0.20089        0.31417        0.35466        0.40992        0.48850        0.56678        0.54126        0.54851        0.59364        0.51589        0.45044        0.48137        0.32405        0.23890        0.25316        0.23530        0.13274        0.13837        0.14953        0.21526        0.23463        0.33269        0.37371        0.39534        0.46131        0.44033        0.48014        0.44183        0.47107        0.44426        0.39467        0.37439        0.35673        0.32078        0.28751        0.20044        0.19080        0.21908        0.26707        0.25615        0.34008        0.37445        0.34932        0.40443        0.44626        0.43474        0.42879        0.44390        0.37382        0.32726        0.27954        0.25118        0.28482        0.25353        0.28927        0.29751        0.33154        0.33072        0.38665        0.39007        0.42195        0.40283        0.43966        0.39662        0.35970        0.27842        0.28118        0.29011        0.26654        0.24695        0.31969        0.35953        0.33567        0.35703        0.36366        0.34727        0.40836        0.40372        0.36413        0.33624        0.29674        0.31100        0.32051        0.31425        0.29910        0.27271        0.33276        0.34876        0.37477        0.33928        0.33351        0.33249        0.34397        0.31150        0.27638        0.30088        0.30858        0.33651        0.31291        0.32271        0.34388        0.31628        0.31673        0.32456        0.29485        0.26297        0.25373        0.25931        0.30492        0.31822        0.35729        0.29458        0.29696        0.31805        0.28865        0.31065        0.28209        0.27497        0.28549        0.29032        0.29992        0.34114        0.32615        0.32633        0.32790        0.32237        0.33546        0.31755        0.32450        0.31371        0.26081        0.27394        0.29728        0.28601        0.30621        0.31848        0.32459        0.32962        0.34598        0.33024        0.28786        0.23906        0.26678        0.32595        0.34285        0.34095        0.31605        0.28996        0.29717        0.30627        0.26081        0.29466        0.30917        0.33301        0.29395        0.27858        0.25483        0.32036        0.33303        0.33145        0.30200        0.29145        0.30569        0.38297        0.33031        0.30459        0.30689        0.28672        0.28113        0.29108        0.28820        0.31748        0.23183        0.25831        0.30133        0.31250        0.29233        0.25090        0.28049        0.23565        0.21154        0.28009        0.29424        0.29694        0.27145        0.27517        0.32017        0.27046        0.23079        0.27961        0.25044        0.26591        0.27477        0.36882        0.26523        0.28351        0.26409        0.24050        0.27434        0.27488        0.23621        0.19195        0.23488        0.21614        0.23875        0.29864        0.25214        0.35502        0.32966        0.23007        0.21255        0.19938        0.26042        0.31948        0.24086        0.16893        0.20932        0.23738        0.23094        0.26305        0.17959        0.03286       -0.46197       -0.97089
2.696092 2.667558 2.639178 2.610952 2.582880 2.554963 2.527200 2.499591 2.472137 2.444836 2.417690 2.390698 2.363861 2.337178 2.310649 2.284274 2.258053 2.231987 2.206075 2.180317 2.154714 2.129264 2.103969 2.078829 2.053842 2.029010 2.004332 1.979808 1.955439 1.931223 1.907162 1.883256 1.859503 1.835905 1.812461 1.789171 1.766036 1.743055 1.720228 1.697555 1.675036 1.652672 1.630462 1.608407 1.586505 1.564758 1.543165 1.521726 1.500442 1.479312 1.458336 1.527431 1.839726 1.523829 1.189271 0.922865 0.569251 0.914183 0.635158 0.867253 0.919597 0.582886 0.703140 0.766890 0.818192 0.620245 0.522066 0.347509 0.096582 0.069044 0.043904 0.078237 0.300177 -0.052159 0.068953 -0.144328 -0.030878 -0.017130 0.072777 0.049630 0.107799 0.172529 0.269517 0.235237 0.477842 0.398312 0.544761 0.523619 0.768963 0.795212 0.876143 0.940847 0.941016 0.962989 1.118509 0.967071 1.131862 0.947378 0.864033 1.010734 0.848519 0.758078 0.632412 0.590813 0.473630 0.411571 0.511092 0.262227 0.186455 0.159881 0.016667 0.211927 -0.009488 0.105917 0.181974 0.269537 0.345299 0.342863 0.432043 0.552040 0.664737 0.545325 0.759795 0.833122 0.643417 0.715049 0.681014 0.601811 0.539670 0.483131 0.311685 0.212825 0.121799 -0.031831 -0.013853 0.044813 -0.078289 -0.052048 0.063348 0.046804 0.109656 0.232051 0.244815 0.327376 0.444479 0.465087 0.431720 0.469553 0.440139 0.312522 0.350024 0.256585 0.041986 0.064510 0.030113 -0.059834 -0.093490 -0.096574 -0.008637 -0.057508 0.084633 0.143674 0.144264 0.267932 0.232638 0.251684 0.296402 0.232246 0.258920 0.211844 0.169982 0.118917 0.124060 0.038444 0.020678 -0.120409 -0.047155 0.013135 0.010410 0.010494 0.117161 0.089485 0.137365 0.203876 0.239949 0.177391 0.225991 0.131522 0.160819 0.022132 -0.019176 0.016797 -0.005371 -0.003770 0.016194 0.044450 0.068676 0.077874 0.166654 0.110344 0.178430 0.106520 0.189241 0.102349 0.019924 -0.031296 -0.010820 -0.016480 -0.058425 -0.041298 0.073888 0.083871 0.004482 0.119425 0.100717 0.090682 0.178703 0.106176 0.103523 0.063994 -0.001021 0.065657 0.036979 0.037638 0.037286 0.003837 0.074195 0.071687 0.101781 0.066005 0.075077 0.038653 0.092017 0.017485 -0.005052 0.046503 0.030779 0.090627 0.044775 0.067743 0.068257 0.049705 0.035830 0.045181 0.007871 -0.021528 -0.016814 -0.019087 0.035631 0.060781 0.114034 0.016547 0.048499 0.081866 -0.001268 0.078494 0.022554 0.016056 0.044945 0.051650 0.048277 0.103611 0.066275 0.080610 0.099320 0.100374 0.067745 0.094352 0.105409 0.038510 -0.007043 0.035065 0.042167 0.053704 0.054670 0.087182 0.027954 0.092713 0.088413 0.032487 0.034807 -0.076244 -0.004797 0.110239 0.066523 0.071965 0.026615 0.017118 0.031195 0.019434 -0.043752 0.032060 0.051220 0.071703 0.035186 -0.026144 -0.008371 0.054504 0.077065 0.045264 0.032615 -0.007927 0.071445 0.126070 0.044219 -0.000864 0.029789 0.007089 -0.025050 0.001858 0.003620 0.043485 -0.082998 -0.009674 0.015787 0.027582 -0.001549 -0.045877 0.052957 -0.029388 -0.035768 -0.018326 0.082522 0.024726 0.050314 0.033193 0.052293 0.035984 -0.032867 0.041284 -0.025187 0.067420 0.018075 0.190386 -0.010333 0.066229 0.035716 -0.007169 0.034587 0.063474 -0.009367 -0.076537 0.020965 -0.020719 -0.030019 0.080766 0.017989 0.190197 0.134665 0.015242 -0.011090 0.027059 0.050260 0.384577 0.188703 0.198445 0.264792 0.236638 0.307006 0.303053 0.180841 0.041786 -1.152221
0.072396 0.072911 0.074456 0.077030 0.080632 0.085263 0.090920 0.097601 0.105305 0.114029 0.123768 0.134519 0.146276 0.159031 0.172777 0.187504 0.203200 0.219851 0.237442 0.255953 0.275364 0.295649 0.316782 0.338730 0.361458 0.384927 0.409092 0.433904 0.459308 0.485245 0.511649 0.538449 0.565567 0.592919 0.620412 0.647951 0.675429 0.702735 0.729749 0.756345 0.782389 0.807741 0.832254 0.855773 0.878140 0.899187 0.918744 0.936636 0.952684 0.966705 0.978516 0.987932 0.994768 0.998842 0.999975 0.997992 0.992726 0.984017 0.971718 0.955690 0.935813 0.911982 0.884111 0.852137 0.816018 0.775742 0.731322 0.682804 0.630267 0.573825 0.513627 0.449863 0.382763 0.312597 0.239678 0.164361 0.087043 0.008164 0.071796 0.152317 0.232843 0.312781 0.391509 0.468380 0.542721 0.613846 0.681057 0.743654 0.800942 0.852237 0.896878 0.934234 0.963714 0.984778 0.996947 0.999812 0.993044 0.976405 0.949758 0.913073 0.866436 0.810056 0.744273 0.669555 0.586509 0.495874 0.398525 0.295465 0.187822 0.076837 0.036142 0.149681 0.262271 0.372346 0.478309 0.578554 0.671486 0.755557 0.829285 0.891291 0.940321 0.975282 0.995265 0.999576 0.987754 0.959603 0.915200 0.854915 0.779419 0.689687 0.586996 0.472915 0.349294 0.218235 0.082069 0.056685 0.195360 0.331192 0.461372 0.583107 0.693681 0.790522 0.871260 0.933804 0.976391 0.997653 0.996663 0.972983 0.926693 0.858422 0.769348 0.661204 0.536253 0.397261 0.247438 0.090384 0.069996 0.229580 0.384135 0.529431 0.661352 0.776027 0.869949 0.940087 0.984006 0.999957 0.986963 0.944881 0.874439 0.777258 0.655829 0.513477 0.354286 0.183000 0.004892 0.174391 0.348994 0.513056 0.660900 0.787244 0.887397 0.957452 0.994456 0.996550 0.963085 0.894687 0.793291 0.662106 0.505554 0.329138 0.139269 0.056946 0.251962 0.438089 0.607785 0.753978 0.870373 0.951739 0.994172 0.995305 0.954465 0.872764 0.753111 0.600150 0.420111 0.220584 0.010224 0.201603 0.405245 0.591188 0.750521 0.875370 0.959319 0.997770 0.988219 0.930461 0.826665 0.681354 0.501240 0.294968 0.072714 0.154278 0.374266 0.575606 0.747386 0.880029 0.965865 0.999603 0.978706 0.903609 0.777797 0.607693 0.402384 0.173176 0.066995 0.304273 0.524680 0.714938 0.863297 0.960286 0.999371 0.977433 0.895070 0.756665 0.570220 0.346950 0.100658 0.153089 0.397919 0.617715 0.797688 0.925405 0.991690 0.991339 0.923589 0.792292 0.605778 0.376389 0.119727 0.146367 0.403043 0.631757 0.815637 0.940762 0.997274 0.980214 0.890025 0.732664 0.519294 0.265562 0.009483 0.284787 0.538893 0.751602 0.905641 0.988092 0.991563 0.914920 0.763540 0.549042 0.288462 0.002993 0.283717 0.547490 0.765673 0.919122 0.993938 0.982814 0.885829 0.710629 0.471924 0.190349 0.109251 0.399972 0.655268 0.851386 0.969636 0.998255 0.933669 0.781029 0.553921 0.273266 0.034516 0.339953 0.613310 0.827508 0.960862 0.999360 0.938243 0.782691 0.547526 0.255924 0.062792 0.376025 0.651232 0.859321 0.977803 0.993313 0.903238 0.716234 0.451544 0.137129 0.193178 0.503282 0.758767 0.930757 0.999270 0.955661 0.803849 0.560134 0.251593 0.086820 0.416157 0.697955 0.898741 0.994117 0.971836 0.833522 0.594762 0.283513 0.063051 0.402892 0.694187 0.900507 0.995473 0.966254 0.815462 0.561133 0.234733 0.122588 0.465121 0.748419 0.935126 0.999998 0.933483 0.743287 0.453686 0.102621 0.263193 0.594386 0.845607 0.981841 0.983412
1.000000 1.000000 1.000000 1.000000 1.000000 1.000000 1.000000 1.000000 1.000000 1.000000 1.000000 1.000000 1.000000 1.000000 1.000000 1.000000 1.000000 1.000000 1.000000 1.000000 1.000000 1.000000 1.000000 1.000000 1.000000 1.000000 1.000000 1.000000 1.000000 1.000000 1.000000 1.000000 1.000000 1.000000 1.000000 1.000000 1.000000 1.000000 1.000000 1.000000 1.000000 1.000000 1.000000 1.000000 1.000000 1.000000 1.000000 1.000000 1.000000 1.000000 1.000000 1.000000 0.917516 0.917516 0.906321 0.906321 0.906321 0.906321 0.906321 0.906321 0.906321 0.906321 0.906321 0.906321 0.906321 0.906321 0.906321 0.906321 0.906321 0.906321 0.906321 0.906321 0.906321 0.906321 0.906321 0.906321 0.906321 0.906321 0.906321 0.906321 0.906321 0.906321 0.906321 0.906321 0.906321 0.906321 0.906321 0.906321 0.906321 0.906321 0.906321 0.906321 0.906321 0.906321 0.906321 0.901326 0.906708 0.908674 0.907484 0.910852 0.910841 0.909003 0.908348 0.908072 0.908496 0.910654 0.921002 0.931821 0.942871 0.943361 0.948651 0.952791 0.955519 0.956052 0.957814 0.968580 0.966819 0.966349 0.966957 0.968115 0.969975 0.969068 0.968069 0.971297 0.971782 0.970534 0.967760 0.967108 0.966497 0.966616 0.966324 0.966186 0.967234 0.967755 0.967432 0.966871 0.967013 0.967081 0.966089 0.965271 0.968089 0.969339 0.969322 0.968286 0.963576 0.966556 0.967860 0.967025 0.967113 0.966908 0.967153 0.956601 0.955199 0.955047 0.953092 0.949907 0.949493 0.944731 0.943192 0.944422 0.945550 0.945002 0.937547 0.925160 0.910497 0.893662 0.919182 0.905264 0.888500 0.869076 0.868867 0.861990 0.862330 0.857942 0.848687 0.844801 0.842826 0.845398 0.845205 0.849035 0.843895 0.830538 0.833144 0.829298 0.796628 0.783461 0.770360 0.766622 0.763418 0.764026 0.760769 0.758966 0.767713 0.757445 0.753767 0.742937 0.723705 0.679960 0.667377 0.673665 0.681902 0.690431 0.685076 0.668119 0.627245 0.634330 0.661670 0.655799 0.656000 0.647968 0.634943 0.635972 0.632115 0.621947 0.612559 0.615180 0.615175 0.635060 0.643548 0.643054 0.633722 0.620848 0.613325 0.597356 0.598264 0.613348 0.579816 0.571790 0.565625 0.560455 0.541927 0.528068 0.527250 0.509545 0.500826 0.501001 0.504736 0.509357 0.516089 0.512361 0.483991 0.502294 0.504631 0.536914 0.532152 0.531460 0.535838 0.535997 0.519127 0.516764 0.517289 0.516977 0.525989 0.545260 0.587340 0.581323 0.579785 0.573294 0.567753 0.558935 0.561232 0.587871 0.575472 0.525180 0.478390 0.477154 0.451166 0.449954 0.416034 0.366682 0.363312 0.366119 0.360926 0.345219 0.332192 0.277270 0.243828 0.215936 0.229268 0.229084 0.242677 0.253516 0.239067 0.242218 0.283617 0.285105 0.272901 0.262952 0.267670 0.269736 0.216963 0.216955 0.186923 0.179821 0.204355 0.155664 0.167763 0.170739 0.153946 0.083238 0.056270 0.058320 0.092860 0.094249 0.090361 0.093203 0.049267 0.095457 0.088035 0.086877 0.064316 0.015307 0.027632 0.037035 0.023928 -0.020577 -0.025788 -0.040200 -0.058275 -0.037373 -0.026832 -0.044371 -0.026085 0.033701 0.035239 0.029717 0.042141 0.069550 0.077252 0.068934 0.066970 0.024693 0.013965 -0.032728 -0.056601 -0.056601 -0.047857 -0.047857 -0.047857 -0.047857 -0.047857 -0.047857 -0.047857 -0.047857 -0.047857 -0.043441 -0.043441 -0.043441 -0.043441 -0.043441 -0.043441 -0.043441 -0.043441 -0.036862 -0.036862 -0.036862 -0.036862 -0.036862 -0.036862 -0.036862 -0.036862 -0.036862 -0.036862
0.000000 0.000000 0.000000 0.000000 0.000000 0.000000 0.000000 0.000000 0.000000 0.000000 0.000000 0.000000 0.000000 0.000000 0.000000 0.000000 0.000000 0.000000 2.000000 0.000000 0.000000 0.000000 0.000000 0.000000 0.000000 0.000000 0.000000 0.000000 0.000000 0.000000 0.000000 0.000000 0.000000 0.000000 0.000000 0.000000 0.000000 0.000000 0.000000 0.000000 0.000000 0.000000 0.000000 0.000000 0.000000 0.000000 0.000000 0.000000 0.000000 0.000000 0.000000 0.000000 0.181818 0.181818 0.199007 0.199007 0.199007 0.199007 0.199007 0.199007 0.199007 0.199007 0.199007 0.199007 0.199007 0.199007 0.199007 0.199007 0.199007 0.199007 0.199007 0.199007 0.199007 0.199007 0.199007 0.199007 0.199007 0.199007 0.199007 0.199007 0.199007 0.199007 0.199007 0.199007 0.199007 0.199007 0.199007 0.199007 0.199007 0.199007 0.199007 0.199007 0.199007 0.199007 0.199007 0.230940 0.230940 0.230940 0.230940 0.230940 0.230940 0.230940 0.230940 0.230940 0.230940 0.230940 0.230940 0.230940 0.230940 0.230940 0.230940 0.230940 0.230940 0.230940 0.230940 0.230940 0.230940 0.230940 0.230940 0.230940 0.230940 0.230940 0.230940 0.244339 0.244339 0.244339 0.244339 0.244339 0.244339 0.244339 0.244339 0.244339 0.244339 0.244339 0.244339 0.244339 0.244339 0.244339 0.244339 0.244339 0.244339 0.244339 0.244339 0.244339 0.244339 0.244339 0.251976 0.251976 0.251976 0.251976 0.251976 0.251976 0.251976 0.251976 0.251976 0.251976 0.251976 0.251976 0.251976 0.251976 0.251976 0.251976 0.251976 0.251976 0.251976 0.251976 0.264906 0.264906 0.264906 0.264906 0.264906 0.264906 0.264906 0.264906 0.264906 0.264906 0.264906 0.264906 0.264906 0.264906 0.264906 0.264906 0.264906 0.264906 0.264906 0.264906 0.264906 0.264906 0.264906 0.264906 0.264906 0.264906 0.264906 0.264906 0.264906 0.264906 0.264906 0.264906 0.264906 0.264906 0.264906 0.264906 0.264906 0.264906 0.264906 0.264906 0.264906 0.264906 0.264906 0.264906 0.264906 0.264906 0.264906 0.264906 0.264906 0.264906 0.264906 0.264906 0.264906 0.264906 0.264906 0.264906 0.264906 0.264906 0.264906 0.264906 0.264906 0.264906 0.264906 0.264906 0.264906 0.264906 0.264906 0.264906 0.264906 0.264906 0.264906 0.264906 0.264906 0.264906 0.264906 0.269680 0.269680 0.269680 0.269680 0.269680 0.269680 0.269680 0.269680 0.269680 0.269680 0.269680 0.269680 0.264906 0.264906 0.264906 0.264906 0.264906 0.264906 0.264906 0.264906 0.264906 0.264906 0.264906 0.264906 0.269680 0.269680 0.269680 0.269680 0.269680 0.269680 0.269680 0.269680 0.269680 0.269680 0.269680 0.264906 0.264906 0.264906 0.264906 0.264906 0.264906 0.264906 0.264906 0.264906 0.264906 0.264906 0.269680 0.269680 0.269680 0.269680 0.269680 0.269680 0.269680 0.269680 0.269680 0.269680 0.264906 0.264906 0.264906 0.264906 0.264906 0.264906 0.264906 0.264906 0.264906 0.264906 0.260378 0.260378 0.260378 0.260378 0.260378 0.260378 0.260378 0.260378 0.260378 0.260378 0.256074 0.256074 0.256074 0.256074 0.256074 0.256074 0.256074 0.256074 0.256074 0.256074 0.260378 0.260378 0.260378 0.260378 0.260378 0.260378 0.260378 0.260378 0.260378 0.256074 0.256074 0.256074 0.256074 0.256074 0.256074 0.256074 0.256074 0.256074 0.269680 0.269680 0.269680 0.269680 0.269680 0.269680 0.269680 0.269680 0.248069 0.248069 0.248069 0.248069 0.248069 0.248069 0.248069 0.248069 0.248069 0.248069
