# Output from CTFFind version 4.1.9, run on 2019-11-02 17:49:41
# Input file: stack16_bm3d_averaged_1_1.5_0_2500_half.mrc ; Number of micrographs: 1
# Pixel size: 3.000 Angstroms ; acceleration voltage: 300.0 keV ; spherical aberration: 0.00 mm ; amplitude contrast: 0.07
# Box size: 512 pixels ; min. res.: 30.0 Angstroms ; max. res.: 5.0 Angstroms ; min. def.: 5000.0 um; max. def. 50000.0 um; num. frames averaged: 1
# 6 lines per micrograph: #1 - spatial frequency (1/Angstroms); #2 - 1D rotational average of spectrum (assuming no astigmatism); #3 - 1D rotational average of spectrum; #4 - CTF fit; #5 - cross-correlation between spectrum and CTF fit; #6 - 2sigma of expected cross correlation of noise
0.000000 0.000651 0.001302 0.001953 0.002604 0.003255 0.003906 0.004557 0.005208 0.005859 0.006510 0.007161 0.007812 0.008464 0.009115 0.009766 0.010417 0.011068 0.011719 0.012370 0.013021 0.013672 0.014323 0.014974 0.015625 0.016276 0.016927 0.017578 0.018229 0.018880 0.019531 0.020182 0.020833 0.021484 0.022135 0.022786 0.023438 0.024089 0.024740 0.025391 0.026042 0.026693 0.027344 0.027995 0.028646 0.029297 0.029948 0.030599 0.031250 0.031901 0.032552 0.033203 0.033854 0.034505 0.035156 0.035807 0.036458 0.037109 0.037760 0.038411 0.039062 0.039714 0.040365 0.041016 0.041667 0.042318 0.042969 0.043620 0.044271 0.044922 0.045573 0.046224 0.046875 0.047526 0.048177 0.048828 0.049479 0.050130 0.050781 0.051432 0.052083 0.052734 0.053385 0.054036 0.054688 0.055339 0.055990 0.056641 0.057292 0.057943 0.058594 0.059245 0.059896 0.060547 0.061198 0.061849 0.062500 0.063151 0.063802 0.064453 0.065104 0.065755 0.066406 0.067057 0.067708 0.068359 0.069010 0.069661 0.070312 0.070964 0.071615 0.072266 0.072917 0.073568 0.074219 0.074870 0.075521 0.076172 0.076823 0.077474 0.078125 0.078776 0.079427 0.080078 0.080729 0.081380 0.082031 0.082682 0.083333 0.083984 0.084635 0.085286 0.085938 0.086589 0.087240 0.087891 0.088542 0.089193 0.089844 0.090495 0.091146 0.091797 0.092448 0.093099 0.093750 0.094401 0.095052 0.095703 0.096354 0.097005 0.097656 0.098307 0.098958 0.099609 0.100260 0.100911 0.101562 0.102214 0.102865 0.103516 0.104167 0.104818 0.105469 0.106120 0.106771 0.107422 0.108073 0.108724 0.109375 0.110026 0.110677 0.111328 0.111979 0.112630 0.113281 0.113932 0.114583 0.115234 0.115885 0.116536 0.117188 0.117839 0.118490 0.119141 0.119792 0.120443 0.121094 0.121745 0.122396 0.123047 0.123698 0.124349 0.125000 0.125651 0.126302 0.126953 0.127604 0.128255 0.128906 0.129557 0.130208 0.130859 0.131510 0.132161 0.132812 0.133464 0.134115 0.134766 0.135417 0.136068 0.136719 0.137370 0.138021 0.138672 0.139323 0.139974 0.140625 0.141276 0.141927 0.142578 0.143229 0.143880 0.144531 0.145182 0.145833 0.146484 0.147135 0.147786 0.148438 0.149089 0.149740 0.150391 0.151042 0.151693 0.152344 0.152995 0.153646 0.154297 0.154948 0.155599 0.156250 0.156901 0.157552 0.158203 0.158854 0.159505 0.160156 0.160807 0.161458 0.162109 0.162760 0.163411 0.164062 0.164714 0.165365 0.166016 0.166667 0.167318 0.167969 0.168620 0.169271 0.169922 0.170573 0.171224 0.171875 0.172526 0.173177 0.173828 0.174479 0.175130 0.175781 0.176432 0.177083 0.177734 0.178385 0.179036 0.179688 0.180339 0.180990 0.181641 0.182292 0.182943 0.183594 0.184245 0.184896 0.185547 0.186198 0.186849 0.187500 0.188151 0.188802 0.189453 0.190104 0.190755 0.191406 0.192057 0.192708 0.193359 0.194010 0.194661 0.195312 0.195964 0.196615 0.197266 0.197917 0.198568 0.199219 0.199870 0.200521 0.201172 0.201823 0.202474 0.203125 0.203776 0.204427 0.205078 0.205729 0.206380 0.207031 0.207682 0.208333 0.208984 0.209635 0.210286 0.210938 0.211589 0.212240 0.212891 0.213542 0.214193 0.214844 0.215495 0.216146 0.216797 0.217448 0.218099 0.218750 0.219401 0.220052 0.220703 0.221354 0.222005 0.222656 0.223307 0.223958 0.224609 0.225260 0.225911 0.226562 0.227214 0.227865 0.228516 0.229167 0.229818 0.230469 0.231120 0.231771 0.232422 0.233073 0.233724 0.234375 0.235026 0.235677
       0.34476        0.34476        0.34476        0.34476        0.34476        0.34476        0.34476        0.34476        0.34476        0.34476        0.34476        0.34476        0.34476        0.34476        0.34476        0.34476        0.34476        0.34476        0.34476        0.34476        0.34476        0.34476        0.34476        0.34476        0.34476        0.34476        0.34476        0.34476        0.34476        0.34476        0.34476        0.34476        0.34476        0.34476        0.34476        0.34476        0.34476        0.34476        0.34476        0.34476        0.34476        0.34476        0.34476        0.34476        0.34476        0.34476        0.34476        0.34476        0.34476        0.34476        0.34476        0.48926        0.70183        0.45813       -0.10819       -0.41172       -0.56887       -0.65724       -0.74094       -0.75741       -0.86957       -0.91341       -0.75926       -0.92502       -0.87100       -1.02473       -1.09603       -0.98787       -0.95857       -0.88325       -0.85551       -0.74812       -0.63915       -0.49762       -0.41977       -0.21861       -0.11701       -0.02447        0.20074        0.24356        0.31051        0.38518        0.43763        0.51474        0.58279        0.60304        0.59337        0.50303        0.54863        0.48543        0.39300        0.32936        0.20721        0.17432        0.09946       -0.05786       -0.11395       -0.08888        0.01383       -0.01680        0.01536        0.02818        0.20675        0.21853        0.39170        0.45897        0.56589        0.70607        0.76743        0.73290        0.70756        0.70286        0.58741        0.54226        0.39900        0.27932        0.19822        0.15059        0.07023        0.02850        0.02474        0.06577        0.08478        0.27849        0.41689        0.50478        0.58942        0.64015        0.70603        0.66157        0.65597        0.67420        0.61030        0.48485        0.28831        0.23787        0.20629        0.13034        0.04510        0.09326        0.11314        0.25243        0.34852        0.41853        0.50614        0.54488        0.65975        0.60568        0.55489        0.50996        0.36509        0.20639        0.21214        0.15746        0.12219        0.12197        0.21409        0.25781        0.36425        0.44480        0.43919        0.56134        0.51425        0.45349        0.45666        0.38444        0.32528        0.27475        0.21432        0.23302        0.21503        0.21178        0.32051        0.45258        0.49062        0.48447        0.55373        0.49970        0.45491        0.39987        0.29532        0.22935        0.23619        0.24343        0.26571        0.27360        0.33235        0.44372        0.50352        0.49412        0.46000        0.41693        0.38953        0.36089        0.25135        0.22944        0.25289        0.29664        0.35738        0.36601        0.39682        0.41240        0.44717        0.37739        0.34849        0.31655        0.31170        0.27006        0.26040        0.31214        0.34982        0.41694        0.41989        0.39620        0.39270        0.40573        0.34980        0.28797        0.29807        0.28467        0.30925        0.35924        0.37112        0.41477        0.36150        0.36342        0.38962        0.34380        0.31055        0.28608        0.29082        0.33879        0.33156        0.32611        0.37539        0.39838        0.33903        0.35563        0.30192        0.30881        0.28868        0.28145        0.30371        0.32954        0.38484        0.36801        0.34980        0.32973        0.28774        0.27756        0.29998        0.28587        0.31624        0.37078        0.39662        0.33675        0.32002        0.31244        0.30157        0.29620        0.28014        0.30748        0.34125        0.33314        0.34742        0.32595        0.35116        0.32824        0.29150        0.31166        0.32186        0.34103        0.34031        0.31871        0.31427        0.30340        0.33290        0.31871        0.33921        0.39402        0.33923        0.36254        0.31852        0.30783        0.28992        0.31087        0.29314        0.31285        0.32524        0.35201        0.36369        0.30919        0.31992        0.31683        0.30163        0.29390        0.29466        0.32690        0.34016        0.35756        0.33973        0.31935        0.26417        0.26023        0.31244        0.35588        0.31571        0.29374        0.28636        0.29604        0.32906        0.31132        0.30393        0.33762        0.33792        0.31459        0.24617        0.28359        0.28990        0.29007        0.33095        0.33209        0.34911        0.34375        0.28591        0.27495        0.30120        0.27240        0.30096        0.27116        0.25333        0.26730        0.26251        0.28435        0.28495        0.28334        0.26754        0.31373        0.32937        0.32199        0.28529        0.29241        0.24083        0.26828        0.24889        0.31483        0.35154        0.23154        0.25411        0.29302        0.24748        0.23664        0.31198        0.24380        0.12758        0.17373        0.21984        0.27565        0.26266        0.15954        0.06545       -0.36414       -0.74910
3.166607 3.126799 3.087248 3.047954 3.008918 2.970139 2.931618 2.893354 2.855347 2.817598 2.780106 2.742872 2.705895 2.669175 2.632712 2.596507 2.560560 2.524870 2.489437 2.454261 2.419343 2.384682 2.350279 2.316133 2.282244 2.248613 2.215239 2.182122 2.149263 2.116661 2.084317 2.052230 2.020400 1.988828 1.957513 1.926455 1.895655 1.865112 1.834827 1.804799 1.775028 1.745515 1.716259 1.687260 1.658519 1.630035 1.601809 1.573840 1.546128 1.518674 1.491477 1.547667 1.733822 1.648294 0.996557 0.706673 0.500104 0.453916 0.343355 0.285623 0.215997 0.034596 0.211075 0.093114 0.002898 -0.050574 -0.190129 -0.145126 -0.080420 -0.086415 -0.087345 0.016402 0.039846 0.238135 0.158701 0.370365 0.450852 0.481957 0.718685 0.705517 0.716025 0.843625 0.825981 0.853274 0.928401 0.903792 0.943763 0.753980 0.839511 0.841253 0.621857 0.609371 0.455005 0.435675 0.375220 0.205394 0.110971 0.091732 0.202017 0.135193 0.190222 0.103121 0.298806 0.277339 0.448654 0.406801 0.575939 0.640668 0.761297 0.691481 0.655277 0.659787 0.523195 0.495748 0.351645 0.285175 0.108003 0.137706 -0.012058 -0.022745 -0.054190 -0.042967 -0.013949 0.022939 0.261789 0.315307 0.371139 0.385396 0.456772 0.482232 0.439350 0.484734 0.374826 0.369713 0.131094 0.043475 0.049015 -0.029969 -0.152787 -0.068549 -0.143670 -0.010918 0.116603 0.136340 0.232260 0.240695 0.360641 0.434580 0.327995 0.363472 0.259799 0.097594 0.020159 0.027189 -0.005970 -0.020464 -0.018991 0.083413 0.106889 0.247762 0.214734 0.281145 0.348603 0.224956 0.232820 0.201960 0.114635 0.068007 0.032910 0.007151 0.026083 -0.029953 0.014240 0.170951 0.214054 0.242362 0.269123 0.243712 0.243797 0.156238 0.115444 -0.015683 -0.006069 0.001562 0.025066 0.014434 0.040968 0.117135 0.199443 0.221157 0.219900 0.132717 0.144568 0.078621 0.056360 -0.059837 -0.013688 -0.001039 0.053412 0.065312 0.079569 0.148897 0.087408 0.173422 0.064688 0.048996 0.046573 0.028117 0.001307 0.006741 0.049698 0.086434 0.129724 0.134779 0.067522 0.125456 0.096055 0.010462 0.008990 0.007001 -0.004343 0.049384 0.058371 0.098448 0.093663 0.069385 0.063121 0.078919 0.027875 0.008480 -0.007971 0.001404 0.057117 0.025675 0.033711 0.080170 0.085123 0.057852 0.032457 0.009887 0.010146 -0.007979 -0.015619 0.011388 0.048826 0.103792 0.058687 0.060716 0.034753 -0.013996 -0.002844 0.017187 0.011106 0.024554 0.104883 0.060132 0.012452 0.044956 0.001248 0.026652 -0.005314 -0.007100 0.029066 0.055883 0.034093 0.041600 0.030028 0.054596 0.024117 -0.007568 0.019203 0.038157 0.039178 0.033158 0.022947 -0.005605 -0.008891 0.026209 0.011280 0.044864 0.074707 0.043054 0.025115 0.006853 -0.005473 -0.005351 0.006277 0.001664 0.009874 0.004820 0.077446 0.046701 0.021191 0.032993 0.004082 0.010968 0.003737 -0.005839 0.044026 0.059869 0.081277 0.050779 0.041049 -0.025912 0.002473 0.027328 0.082034 0.021837 0.032295 -0.001192 0.012697 0.046321 0.045584 0.023308 0.070224 0.060199 0.049471 -0.027498 0.008933 0.045633 0.013440 0.045540 0.068808 0.076409 0.062841 0.008544 0.005277 0.011508 -0.008815 0.023118 -0.031829 -0.025687 -0.024678 -0.038663 -0.007289 -0.013921 0.001601 -0.084143 -0.008100 0.004115 -0.001986 -0.053886 -0.000774 -0.106830 -0.040124 -0.052605 0.000504 0.062974 -0.113932 -0.034147 0.037616 -0.006824 -0.058093 0.046617 0.025683 -0.054555 -0.045938 0.030211 0.247664 0.241239 0.113031 0.060352 -0.663069
0.072396 0.073046 0.074994 0.078241 0.082785 0.088625 0.095758 0.104183 0.113893 0.124886 0.137153 0.150688 0.165478 0.181513 0.198777 0.217250 0.236912 0.257736 0.279691 0.302743 0.326851 0.351967 0.378038 0.405005 0.432798 0.461341 0.490551 0.520332 0.550580 0.581183 0.612016 0.642943 0.673819 0.704486 0.734774 0.764504 0.793484 0.821510 0.848371 0.873842 0.897690 0.919675 0.939548 0.957055 0.971937 0.983932 0.992780 0.998220 0.999998 0.997864 0.991581 0.980926 0.965689 0.945687 0.920756 0.890765 0.855613 0.815238 0.769619 0.718779 0.662793 0.601788 0.535949 0.465520 0.390809 0.312189 0.230098 0.145046 0.057605 0.031582 0.121811 0.212316 0.302273 0.390810 0.477010 0.559920 0.638565 0.711954 0.779097 0.839017 0.890766 0.933439 0.966195 0.988273 0.999009 0.997854 0.984394 0.958366 0.919675 0.868405 0.804835 0.729450 0.642942 0.546222 0.440414 0.326850 0.207066 0.082784 0.044106 0.171568 0.297454 0.419533 0.535534 0.643186 0.740266 0.824649 0.894361 0.947627 0.982927 0.999044 0.995113 0.970659 0.925640 0.860468 0.776031 0.673701 0.555331 0.423236 0.280163 0.129249 0.026039 0.181980 0.334675 0.480147 0.614449 0.733770 0.834555 0.913618 0.968260 0.996369 0.996521 0.968061 0.911161 0.826863 0.717089 0.584629 0.433098 0.266857 0.090903 0.089255 0.267772 0.438643 0.595911 0.733878 0.847325 0.931729 0.983460 0.999962 0.979903 0.923285 0.831507 0.707378 0.555068 0.380009 0.188726 0.011380 0.212298 0.405728 0.583415 0.737513 0.860952 0.947779 0.993482 0.995258 0.952213 0.865493 0.738310 0.575884 0.385279 0.175121 0.044737 0.263683 0.470824 0.655553 0.808092 0.920047 0.984901 0.998438 0.959067 0.868012 0.729354 0.549918 0.339001 0.107927 0.130506 0.362734 0.575179 0.755062 0.891197 0.974730 0.999768 0.963856 0.868256 0.718009 0.521744 0.291263 0.040887 0.213399 0.454941 0.667512 0.836422 0.949576 0.998407 0.978587 0.890486 0.739307 0.534880 0.291112 0.025108 0.243984 0.496321 0.712842 0.876736 0.974800 0.998589 0.945223 0.817800 0.625347 0.382288 0.107457 0.177305 0.448832 0.684540 0.864317 0.972307 0.998402 0.939284 0.798926 0.588481 0.325503 0.032603 0.264447 0.538934 0.765625 0.923136 0.996025 0.976427 0.865017 0.671201 0.412476 0.112967 0.198723 0.492206 0.738262 0.911805 0.994528 0.976953 0.859661 0.653517 0.378838 0.063513 0.259723 0.556632 0.795130 0.948801 0.999949 0.941777 0.779439 0.529801 0.219844 0.116092 0.440066 0.714764 0.907883 0.996009 0.967624 0.824778 0.583215 0.270825 0.075414 0.413706 0.702470 0.905478 0.996529 0.962993 0.807763 0.549271 0.219536 0.139661 0.481949 0.762353 0.943258 0.999603 0.922553 0.721091 0.421229 0.062879 0.305306 0.632475 0.872615 0.991145 0.970086 0.811019 0.535328 0.181585 0.199653 0.552955 0.826079 0.977786 0.984264 0.843113 0.574201 0.217165 0.174218 0.539999 0.823221 0.978897 0.981351 0.828730 0.543833 0.171016 0.230490 0.595853 0.865113 0.993155 0.957503 0.762564 0.439467 0.041435 0.364799 0.710056 0.934571 0.998487 0.889251 0.624371 0.249003 0.171479 0.562673 0.854298 0.992962 0.952187 0.737815 0.387600 0.035064 0.452410 0.786532 0.973980 0.978096 0.796505 0.462296 0.038359 0.394158 0.751264 0.962507 0.985120 0.813031 0.478822 0.047961 0.393703 0.756927 0.967167 0.980149 0.791565 0.438755 0.006236 0.451093 0.802246 0.984658 0.958167 0.726740 0.338474 0.123952 0.560633
1.000000 1.000000 1.000000 1.000000 1.000000 1.000000 1.000000 1.000000 1.000000 1.000000 1.000000 1.000000 1.000000 1.000000 1.000000 1.000000 1.000000 1.000000 1.000000 1.000000 1.000000 1.000000 1.000000 1.000000 1.000000 1.000000 1.000000 1.000000 1.000000 1.000000 1.000000 1.000000 1.000000 1.000000 1.000000 1.000000 1.000000 1.000000 1.000000 1.000000 1.000000 1.000000 1.000000 1.000000 1.000000 1.000000 1.000000 1.000000 1.000000 1.000000 1.000000 1.000000 0.942107 0.942107 0.942107 0.942107 0.942107 0.942107 0.942107 0.942107 0.942107 0.942107 0.942107 0.942107 0.942107 0.942107 0.942107 0.942107 0.942107 0.942107 0.942107 0.942107 0.942107 0.942107 0.942107 0.942107 0.942107 0.942107 0.942107 0.942107 0.942107 0.942107 0.942107 0.942107 0.942107 0.923783 0.925240 0.928188 0.929253 0.929217 0.928764 0.928446 0.928654 0.929548 0.931849 0.948455 0.949921 0.950614 0.951924 0.951437 0.954155 0.952894 0.955786 0.964547 0.963432 0.963869 0.964431 0.965959 0.966338 0.966318 0.964885 0.965197 0.964767 0.963876 0.962984 0.962661 0.962359 0.964006 0.964362 0.964306 0.965634 0.965540 0.965232 0.961693 0.960332 0.961659 0.963426 0.962968 0.969073 0.969274 0.977901 0.978652 0.977150 0.977044 0.977151 0.977279 0.968138 0.962733 0.957450 0.945726 0.936828 0.934104 0.936388 0.937278 0.936004 0.931548 0.930665 0.928700 0.924513 0.923808 0.924041 0.925409 0.921713 0.918270 0.901030 0.900146 0.902399 0.901744 0.899605 0.892309 0.888605 0.890040 0.892943 0.896090 0.893403 0.895746 0.890944 0.891959 0.892442 0.894351 0.897504 0.893490 0.891678 0.887892 0.884387 0.879483 0.880592 0.867299 0.870441 0.861918 0.850312 0.842612 0.845799 0.855693 0.864215 0.872324 0.871214 0.871745 0.870884 0.863271 0.864464 0.853447 0.854514 0.859601 0.865718 0.862736 0.859768 0.864606 0.862655 0.864695 0.866609 0.863287 0.861287 0.851310 0.851130 0.854532 0.870967 0.872721 0.861343 0.854508 0.841596 0.847816 0.850995 0.850598 0.852259 0.844572 0.845701 0.837142 0.826214 0.827342 0.832449 0.826904 0.830212 0.829778 0.834141 0.834952 0.833860 0.828125 0.826737 0.832822 0.798986 0.807653 0.810448 0.806241 0.810074 0.802245 0.795384 0.792200 0.789522 0.785804 0.795158 0.793468 0.761537 0.753948 0.761336 0.751161 0.741865 0.738934 0.740086 0.715542 0.695847 0.661754 0.657161 0.643997 0.638630 0.638305 0.620519 0.597023 0.584118 0.575767 0.592452 0.594275 0.579936 0.580063 0.572447 0.566561 0.559969 0.558956 0.555603 0.558544 0.562964 0.531283 0.525441 0.532714 0.504037 0.504409 0.506056 0.494587 0.470538 0.475979 0.472075 0.498111 0.501632 0.468719 0.462309 0.474472 0.492821 0.505050 0.505314 0.491677 0.475419 0.479962 0.459613 0.434693 0.450058 0.463922 0.454327 0.465917 0.458838 0.484755 0.477564 0.461448 0.487880 0.479366 0.474757 0.484397 0.502015 0.498957 0.500957 0.492797 0.449971 0.468243 0.453032 0.380355 0.374313 0.375145 0.360291 0.359019 0.337339 0.337453 0.315884 0.291175 0.293889 0.285494 0.251503 0.213739 0.220974 0.223067 0.192908 0.165104 0.179700 0.134329 0.127276 0.144099 0.147393 0.154945 0.145743 0.170523 0.170523 0.170523 0.170523 0.170523 0.170523 0.170523 0.170523 0.170523 0.170523 0.170523 0.170523 0.170523 0.170523 0.196555 0.196555 0.196555 0.196555 0.196555 0.196555 0.196555 0.196555 0.196555 0.196555 0.196555 0.196555
0.000000 0.000000 0.000000 0.000000 0.000000 0.000000 0.000000 0.000000 0.000000 0.000000 0.000000 0.000000 0.000000 0.000000 0.000000 0.000000 0.000000 0.000000 0.000000 0.000000 0.000000 0.000000 0.000000 0.000000 0.000000 0.000000 0.000000 0.000000 0.000000 0.000000 0.000000 0.000000 0.000000 0.000000 0.000000 0.000000 0.000000 0.000000 0.000000 0.000000 0.000000 0.000000 0.000000 0.000000 0.000000 0.000000 0.000000 0.000000 0.000000 0.000000 0.000000 0.000000 0.209657 0.209657 0.209657 0.209657 0.209657 0.209657 0.209657 0.209657 0.209657 0.209657 0.209657 0.209657 0.209657 0.209657 0.209657 0.209657 0.209657 0.209657 0.209657 0.209657 0.209657 0.209657 0.209657 0.209657 0.209657 0.209657 0.209657 0.209657 0.209657 0.209657 0.209657 0.209657 0.209657 0.244339 0.244339 0.244339 0.244339 0.244339 0.244339 0.244339 0.244339 0.244339 0.244339 0.244339 0.244339 0.244339 0.244339 0.244339 0.244339 0.244339 0.244339 0.244339 0.244339 0.244339 0.244339 0.244339 0.244339 0.244339 0.260378 0.260378 0.260378 0.260378 0.260378 0.260378 0.260378 0.260378 0.260378 0.260378 0.260378 0.260378 0.260378 0.260378 0.260378 0.260378 0.260378 0.260378 0.260378 0.260378 0.269680 0.269680 0.269680 0.269680 0.269680 0.269680 0.269680 0.269680 0.269680 0.269680 0.269680 0.269680 0.269680 0.269680 0.269680 0.269680 0.269680 0.269680 0.269680 0.269680 0.269680 0.269680 0.269680 0.269680 0.269680 0.269680 0.269680 0.269680 0.269680 0.269680 0.269680 0.269680 0.269680 0.280056 0.280056 0.280056 0.280056 0.280056 0.280056 0.280056 0.280056 0.280056 0.280056 0.280056 0.280056 0.280056 0.280056 0.280056 0.280056 0.280056 0.280056 0.280056 0.280056 0.280056 0.280056 0.280056 0.280056 0.280056 0.280056 0.280056 0.274721 0.274721 0.274721 0.274721 0.274721 0.274721 0.274721 0.274721 0.274721 0.274721 0.274721 0.274721 0.274721 0.285714 0.285714 0.285714 0.285714 0.285714 0.285714 0.285714 0.285714 0.285714 0.285714 0.285714 0.280056 0.280056 0.280056 0.280056 0.280056 0.280056 0.280056 0.280056 0.280056 0.280056 0.280056 0.274721 0.274721 0.274721 0.274721 0.274721 0.274721 0.274721 0.274721 0.274721 0.274721 0.274721 0.280056 0.280056 0.280056 0.280056 0.280056 0.280056 0.280056 0.280056 0.280056 0.280056 0.285714 0.285714 0.285714 0.285714 0.285714 0.285714 0.285714 0.285714 0.285714 0.269680 0.269680 0.269680 0.269680 0.269680 0.269680 0.269680 0.269680 0.269680 0.269680 0.274721 0.274721 0.274721 0.274721 0.274721 0.274721 0.274721 0.274721 0.274721 0.285714 0.285714 0.285714 0.285714 0.285714 0.285714 0.285714 0.285714 0.264906 0.264906 0.264906 0.264906 0.264906 0.264906 0.264906 0.264906 0.264906 0.274721 0.274721 0.274721 0.274721 0.274721 0.274721 0.274721 0.274721 0.269680 0.269680 0.269680 0.269680 0.269680 0.269680 0.269680 0.269680 0.269680 0.269680 0.269680 0.269680 0.269680 0.269680 0.269680 0.269680 0.280056 0.280056 0.280056 0.280056 0.280056 0.280056 0.280056 0.260378 0.260378 0.260378 0.260378 0.260378 0.260378 0.260378 0.260378 0.269680 0.269680 0.269680 0.269680 0.269680 0.269680 0.269680 0.264906 0.264906 0.264906 0.264906 0.264906 0.264906 0.264906 0.264906 0.264906 0.264906 0.264906 0.264906 0.264906 0.264906 0.260378 0.260378 0.260378 0.260378 0.260378 0.260378 0.260378 0.260378 0.260378 0.260378 0.260378 0.260378
