# Output from CTFFind version 4.1.9, run on 2019-11-02 17:47:55
# Input file: stack16_bm3d_averaged_1_1.5_0_1500_half.mrc ; Number of micrographs: 1
# Pixel size: 3.000 Angstroms ; acceleration voltage: 300.0 keV ; spherical aberration: 0.00 mm ; amplitude contrast: 0.07
# Box size: 512 pixels ; min. res.: 30.0 Angstroms ; max. res.: 5.0 Angstroms ; min. def.: 5000.0 um; max. def. 50000.0 um; num. frames averaged: 1
# 6 lines per micrograph: #1 - spatial frequency (1/Angstroms); #2 - 1D rotational average of spectrum (assuming no astigmatism); #3 - 1D rotational average of spectrum; #4 - CTF fit; #5 - cross-correlation between spectrum and CTF fit; #6 - 2sigma of expected cross correlation of noise
0.000000 0.000651 0.001302 0.001953 0.002604 0.003255 0.003906 0.004557 0.005208 0.005859 0.006510 0.007161 0.007812 0.008464 0.009115 0.009766 0.010417 0.011068 0.011719 0.012370 0.013021 0.013672 0.014323 0.014974 0.015625 0.016276 0.016927 0.017578 0.018229 0.018880 0.019531 0.020182 0.020833 0.021484 0.022135 0.022786 0.023438 0.024089 0.024740 0.025391 0.026042 0.026693 0.027344 0.027995 0.028646 0.029297 0.029948 0.030599 0.031250 0.031901 0.032552 0.033203 0.033854 0.034505 0.035156 0.035807 0.036458 0.037109 0.037760 0.038411 0.039062 0.039714 0.040365 0.041016 0.041667 0.042318 0.042969 0.043620 0.044271 0.044922 0.045573 0.046224 0.046875 0.047526 0.048177 0.048828 0.049479 0.050130 0.050781 0.051432 0.052083 0.052734 0.053385 0.054036 0.054688 0.055339 0.055990 0.056641 0.057292 0.057943 0.058594 0.059245 0.059896 0.060547 0.061198 0.061849 0.062500 0.063151 0.063802 0.064453 0.065104 0.065755 0.066406 0.067057 0.067708 0.068359 0.069010 0.069661 0.070312 0.070964 0.071615 0.072266 0.072917 0.073568 0.074219 0.074870 0.075521 0.076172 0.076823 0.077474 0.078125 0.078776 0.079427 0.080078 0.080729 0.081380 0.082031 0.082682 0.083333 0.083984 0.084635 0.085286 0.085938 0.086589 0.087240 0.087891 0.088542 0.089193 0.089844 0.090495 0.091146 0.091797 0.092448 0.093099 0.093750 0.094401 0.095052 0.095703 0.096354 0.097005 0.097656 0.098307 0.098958 0.099609 0.100260 0.100911 0.101562 0.102214 0.102865 0.103516 0.104167 0.104818 0.105469 0.106120 0.106771 0.107422 0.108073 0.108724 0.109375 0.110026 0.110677 0.111328 0.111979 0.112630 0.113281 0.113932 0.114583 0.115234 0.115885 0.116536 0.117188 0.117839 0.118490 0.119141 0.119792 0.120443 0.121094 0.121745 0.122396 0.123047 0.123698 0.124349 0.125000 0.125651 0.126302 0.126953 0.127604 0.128255 0.128906 0.129557 0.130208 0.130859 0.131510 0.132161 0.132812 0.133464 0.134115 0.134766 0.135417 0.136068 0.136719 0.137370 0.138021 0.138672 0.139323 0.139974 0.140625 0.141276 0.141927 0.142578 0.143229 0.143880 0.144531 0.145182 0.145833 0.146484 0.147135 0.147786 0.148438 0.149089 0.149740 0.150391 0.151042 0.151693 0.152344 0.152995 0.153646 0.154297 0.154948 0.155599 0.156250 0.156901 0.157552 0.158203 0.158854 0.159505 0.160156 0.160807 0.161458 0.162109 0.162760 0.163411 0.164062 0.164714 0.165365 0.166016 0.166667 0.167318 0.167969 0.168620 0.169271 0.169922 0.170573 0.171224 0.171875 0.172526 0.173177 0.173828 0.174479 0.175130 0.175781 0.176432 0.177083 0.177734 0.178385 0.179036 0.179688 0.180339 0.180990 0.181641 0.182292 0.182943 0.183594 0.184245 0.184896 0.185547 0.186198 0.186849 0.187500 0.188151 0.188802 0.189453 0.190104 0.190755 0.191406 0.192057 0.192708 0.193359 0.194010 0.194661 0.195312 0.195964 0.196615 0.197266 0.197917 0.198568 0.199219 0.199870 0.200521 0.201172 0.201823 0.202474 0.203125 0.203776 0.204427 0.205078 0.205729 0.206380 0.207031 0.207682 0.208333 0.208984 0.209635 0.210286 0.210938 0.211589 0.212240 0.212891 0.213542 0.214193 0.214844 0.215495 0.216146 0.216797 0.217448 0.218099 0.218750 0.219401 0.220052 0.220703 0.221354 0.222005 0.222656 0.223307 0.223958 0.224609 0.225260 0.225911 0.226562 0.227214 0.227865 0.228516 0.229167 0.229818 0.230469 0.231120 0.231771 0.232422 0.233073 0.233724 0.234375 0.235026 0.235677
       0.34406        0.34406        0.34406        0.34406        0.34406        0.34406        0.34406        0.34406        0.34406        0.34406        0.34406        0.34406        0.34406        0.34406        0.34406        0.34406        0.34406        0.34406        0.34406        0.34406        0.34406        0.34406        0.34406        0.34406        0.34406        0.34406        0.34406        0.34406        0.34406        0.34406        0.34406        0.34406        0.34406        0.34406        0.34406        0.34406        0.34406        0.34406        0.34406        0.34406        0.34406        0.34406        0.34406        0.34406        0.34406        0.34406        0.34406        0.34406        0.34406        0.34406        0.34406        0.48882        0.70052        0.45731       -0.11032       -0.41127       -0.57002       -0.65882       -0.74174       -0.75858       -0.86929       -0.91403       -0.75860       -0.92509       -0.87136       -1.02494       -1.09745       -0.98817       -0.95971       -0.88339       -0.85450       -0.74813       -0.63950       -0.49826       -0.42099       -0.21869       -0.11619       -0.02385        0.20090        0.24322        0.30932        0.38400        0.43697        0.51398        0.58153        0.60124        0.59171        0.50238        0.54799        0.48530        0.39368        0.32864        0.20603        0.17274        0.09897       -0.05685       -0.11293       -0.08902        0.01396       -0.01657        0.01688        0.02759        0.20564        0.21827        0.39208        0.45810        0.56446        0.70342        0.76510        0.73366        0.70528        0.69974        0.58481        0.54081        0.39867        0.27805        0.19762        0.15115        0.06974        0.02930        0.02402        0.06495        0.08326        0.27724        0.41680        0.50520        0.58995        0.63903        0.70382        0.66050        0.65537        0.67222        0.60838        0.48467        0.28770        0.23858        0.20644        0.12959        0.04401        0.09297        0.11363        0.25226        0.34814        0.41732        0.50426        0.54295        0.65798        0.60526        0.55379        0.51108        0.36421        0.20609        0.21223        0.15686        0.12212        0.12286        0.21504        0.25621        0.36126        0.44330        0.43801        0.55870        0.51207        0.45496        0.45717        0.38211        0.32524        0.27422        0.21329        0.23272        0.21470        0.20981        0.31844        0.45200        0.48841        0.48446        0.55359        0.49908        0.45403        0.39892        0.29679        0.22903        0.23534        0.24239        0.26540        0.27487        0.33119        0.44317        0.50414        0.49307        0.46080        0.41586        0.38940        0.36074        0.25062        0.22668        0.25165        0.29583        0.35764        0.36420        0.39441        0.41335        0.44461        0.37639        0.34870        0.31649        0.31185        0.27004        0.25921        0.30908        0.34880        0.41564        0.41899        0.39491        0.39183        0.40513        0.34831        0.28736        0.29799        0.28588        0.30949        0.35858        0.37159        0.41493        0.35976        0.36351        0.38878        0.34437        0.31174        0.28541        0.29141        0.33863        0.32887        0.32497        0.37327        0.39749        0.33730        0.35455        0.30178        0.30860        0.28678        0.28157        0.30301        0.32995        0.38455        0.36658        0.34811        0.32732        0.28583        0.27657        0.29843        0.28500        0.31638        0.36921        0.39631        0.33640        0.31992        0.31105        0.30177        0.29507        0.27967        0.30646        0.34044        0.33259        0.34575        0.32424        0.35214        0.32666        0.28921        0.31234        0.32287        0.34302        0.34239        0.31981        0.31399        0.30194        0.33042        0.31610        0.33917        0.39295        0.33586        0.36222        0.31718        0.30769        0.29057        0.30982        0.29308        0.31198        0.32226        0.35090        0.36154        0.30725        0.32079        0.31818        0.29973        0.29257        0.29490        0.32537        0.34342        0.35598        0.33650        0.31689        0.26551        0.25889        0.31284        0.35300        0.31723        0.29338        0.28238        0.29406        0.32938        0.31388        0.30538        0.33719        0.33608        0.31130        0.24351        0.28374        0.28940        0.28887        0.33179        0.33151        0.34790        0.34525        0.28600        0.27507        0.30039        0.27400        0.30078        0.27239        0.25318        0.26426        0.26514        0.28470        0.28908        0.28481        0.26561        0.31811        0.32810        0.31756        0.28033        0.28570        0.23682        0.26403        0.24820        0.31413        0.35394        0.22996        0.24925        0.28795        0.24568        0.23582        0.31190        0.24329        0.12918        0.17746        0.21923        0.27555        0.25465        0.14740        0.06383       -0.38063       -0.75276
3.166966 3.127136 3.087564 3.048250 3.009193 2.970394 2.931852 2.893568 2.855542 2.817773 2.780262 2.743009 2.706013 2.669274 2.632794 2.596571 2.560605 2.524897 2.489447 2.454254 2.419319 2.384642 2.350222 2.316060 2.282155 2.248508 2.215119 2.181987 2.149113 2.116496 2.084138 2.052036 2.020192 1.988606 1.957278 1.926207 1.895393 1.864838 1.834539 1.804499 1.774716 1.745191 1.715923 1.686913 1.658161 1.629666 1.601429 1.573449 1.545727 1.518262 1.491056 1.548340 1.732285 1.647916 0.993938 0.707766 0.499322 0.452388 0.343195 0.284413 0.216460 0.033959 0.211900 0.093419 0.002432 -0.050078 -0.191635 -0.145547 -0.081118 -0.086403 -0.086800 0.016771 0.039294 0.238243 0.157481 0.370326 0.451448 0.482703 0.719098 0.705123 0.714709 0.842714 0.825517 0.852641 0.927491 0.902081 0.942320 0.753556 0.838940 0.840483 0.623087 0.608407 0.454439 0.433955 0.374516 0.206269 0.111729 0.092008 0.201972 0.134899 0.192189 0.103133 0.297085 0.277006 0.449385 0.405932 0.575647 0.638113 0.758191 0.692496 0.654332 0.656926 0.520090 0.494990 0.350559 0.284488 0.107548 0.137655 -0.011879 -0.022425 -0.054107 -0.043551 -0.015243 0.021294 0.262597 0.315056 0.371872 0.385548 0.454377 0.480669 0.440041 0.483386 0.373842 0.369138 0.130921 0.044710 0.050006 -0.030584 -0.153163 -0.068997 -0.142868 -0.010554 0.116686 0.135905 0.232109 0.238827 0.358971 0.435606 0.326001 0.365272 0.259371 0.097228 0.020726 0.026688 -0.005147 -0.020567 -0.017490 0.084314 0.103999 0.246317 0.214338 0.280266 0.345884 0.226811 0.234013 0.201784 0.113958 0.069204 0.031491 0.008268 0.026487 -0.029863 0.013044 0.170841 0.213599 0.240326 0.271282 0.242905 0.246076 0.154305 0.117663 -0.013462 -0.006654 0.002437 0.024593 0.017368 0.040687 0.116590 0.202385 0.221039 0.221382 0.132345 0.145039 0.078873 0.058099 -0.061444 -0.015815 0.000144 0.054346 0.066246 0.077140 0.148810 0.089579 0.172267 0.065502 0.050149 0.047808 0.029561 0.002061 0.005635 0.048425 0.087277 0.128877 0.134894 0.067322 0.125736 0.096164 0.009897 0.009701 0.008511 -0.002397 0.049894 0.059005 0.099781 0.094226 0.068804 0.063935 0.078145 0.030216 0.010433 -0.009680 0.003094 0.056687 0.024154 0.033651 0.079486 0.085307 0.057770 0.032486 0.011605 0.010912 -0.008389 -0.013740 0.011851 0.053721 0.102852 0.059171 0.059658 0.034255 -0.013484 -0.003119 0.017975 0.012376 0.027030 0.105536 0.061441 0.014734 0.045629 0.002196 0.028464 -0.004992 -0.004849 0.029228 0.056950 0.035641 0.042331 0.031826 0.056436 0.024378 -0.007527 0.023123 0.039921 0.044061 0.033532 0.028165 -0.004809 -0.010247 0.026275 0.010264 0.047363 0.074843 0.042187 0.026403 0.004978 -0.002720 -0.006597 0.006925 0.002484 0.010527 0.001780 0.078576 0.043341 0.021773 0.034871 0.004162 0.010198 0.002397 -0.005549 0.043822 0.061768 0.079106 0.047695 0.039402 -0.024850 0.000730 0.027247 0.078910 0.024197 0.031555 -0.004876 0.010975 0.048393 0.048746 0.024773 0.068931 0.057085 0.045823 -0.030191 0.009270 0.044351 0.012905 0.045657 0.068014 0.077735 0.063073 0.010705 0.005758 0.012173 -0.006779 0.022620 -0.029783 -0.024682 -0.027066 -0.036641 -0.006236 -0.009967 0.003942 -0.084751 -0.000874 0.002074 -0.007056 -0.056555 -0.005183 -0.109605 -0.042940 -0.054356 0.000456 0.065742 -0.117476 -0.038391 0.033311 -0.007635 -0.059737 0.047651 0.025241 -0.051990 -0.046215 0.032383 0.248217 0.228140 0.097777 0.059260 -0.666302
0.072396 0.073046 0.074994 0.078241 0.082785 0.088625 0.095758 0.104182 0.113893 0.124885 0.137152 0.150686 0.165477 0.181511 0.198774 0.217247 0.236909 0.257732 0.279687 0.302739 0.326846 0.351962 0.378033 0.404999 0.432791 0.461334 0.490543 0.520323 0.550572 0.581174 0.612007 0.642934 0.673809 0.704476 0.734764 0.764494 0.793474 0.821500 0.848361 0.873832 0.897681 0.919667 0.939541 0.957048 0.971931 0.983928 0.992777 0.998219 0.999998 0.997866 0.991585 0.980932 0.965699 0.945699 0.920771 0.890783 0.855634 0.815262 0.769646 0.718810 0.662828 0.601827 0.535991 0.465566 0.390858 0.312241 0.230153 0.145103 0.057665 0.031521 0.121749 0.212253 0.302210 0.390747 0.476947 0.559860 0.638507 0.711900 0.779048 0.838973 0.890728 0.933409 0.966173 0.988260 0.999005 0.997860 0.984411 0.958394 0.919714 0.868455 0.804897 0.729523 0.643026 0.546316 0.440516 0.326960 0.207182 0.082905 0.043982 0.171444 0.297331 0.419414 0.535421 0.643081 0.740172 0.824569 0.894296 0.947580 0.982899 0.999038 0.995128 0.970698 0.925702 0.860552 0.776137 0.673827 0.555476 0.423396 0.280336 0.129431 0.025854 0.181794 0.334493 0.479975 0.614292 0.733633 0.834442 0.913534 0.968207 0.996350 0.996540 0.968117 0.911254 0.826991 0.717250 0.584820 0.433314 0.267089 0.091148 0.089007 0.267529 0.438413 0.595702 0.733698 0.847183 0.931631 0.983411 0.999965 0.979959 0.923395 0.831668 0.707585 0.555316 0.380288 0.189026 0.011070 0.211991 0.405438 0.583153 0.737293 0.860783 0.947672 0.993443 0.995291 0.952319 0.865668 0.738549 0.576179 0.385615 0.175484 0.044366 0.263318 0.470488 0.655262 0.807863 0.919893 0.984832 0.998460 0.959183 0.868217 0.729640 0.550272 0.339403 0.108358 0.130073 0.362323 0.574814 0.754767 0.890990 0.974627 0.999778 0.963982 0.868493 0.718343 0.522157 0.291734 0.041383 0.212908 0.454491 0.667131 0.836138 0.949413 0.998377 0.978696 0.890729 0.739672 0.535342 0.291641 0.025666 0.243438 0.495827 0.712440 0.876457 0.974669 0.998621 0.945417 0.818146 0.625820 0.382854 0.108071 0.176689 0.448269 0.684078 0.863994 0.972156 0.998439 0.939508 0.799325 0.589020 0.326142 0.033286 0.263781 0.538349 0.765175 0.922864 0.995962 0.976582 0.865379 0.671741 0.413147 0.113706 0.197990 0.491548 0.737747 0.911490 0.994447 0.977118 0.860062 0.654117 0.379576 0.064316 0.258938 0.555950 0.794627 0.948538 0.999957 0.942060 0.779974 0.530529 0.220688 0.115228 0.439274 0.714145 0.907510 0.995929 0.967851 0.825296 0.583964 0.271717 0.074482 0.412852 0.701796 0.905072 0.996448 0.963254 0.808336 0.550093 0.220500 0.138675 0.481070 0.761698 0.942919 0.999631 0.922952 0.721809 0.422177 0.063934 0.304296 0.631645 0.872087 0.991000 0.970350 0.811661 0.536262 0.182680 0.198554 0.552014 0.825436 0.977545 0.984467 0.843736 0.575160 0.218315 0.173053 0.538994 0.822540 0.978649 0.981585 0.829415 0.544867 0.172237 0.229276 0.594842 0.864477 0.993005 0.957872 0.763393 0.440632 0.042738 0.363577 0.709126 0.934095 0.998560 0.889865 0.625432 0.250325 0.170126 0.561531 0.853575 0.992796 0.952615 0.738767 0.388915 0.033631 0.451131 0.785636 0.973649 0.978399 0.797395 0.463608 0.039845 0.392776 0.750267 0.962094 0.985381 0.813927 0.480174 0.049508 0.392265 0.755899 0.966765 0.980463 0.792538 0.440201 0.004619 0.449642 0.801270 0.984371 0.958638 0.727876 0.340046 0.122286 0.559230
1.000000 1.000000 1.000000 1.000000 1.000000 1.000000 1.000000 1.000000 1.000000 1.000000 1.000000 1.000000 1.000000 1.000000 1.000000 1.000000 1.000000 1.000000 1.000000 1.000000 1.000000 1.000000 1.000000 1.000000 1.000000 1.000000 1.000000 1.000000 1.000000 1.000000 1.000000 1.000000 1.000000 1.000000 1.000000 1.000000 1.000000 1.000000 1.000000 1.000000 1.000000 1.000000 1.000000 1.000000 1.000000 1.000000 1.000000 1.000000 1.000000 1.000000 1.000000 1.000000 0.940910 0.940910 0.940910 0.940910 0.940910 0.940910 0.940910 0.940910 0.940910 0.940910 0.940910 0.940910 0.940910 0.940910 0.940910 0.940910 0.940910 0.940910 0.940910 0.940910 0.940910 0.940910 0.940910 0.940910 0.940910 0.940910 0.940910 0.940910 0.940910 0.940910 0.940910 0.940910 0.940910 0.922066 0.923554 0.926565 0.927652 0.927612 0.927146 0.926817 0.927025 0.928740 0.931069 0.947728 0.949902 0.950594 0.951906 0.951419 0.954141 0.952881 0.955764 0.964531 0.963416 0.963849 0.964409 0.965941 0.966320 0.966299 0.964865 0.965180 0.964750 0.963858 0.962964 0.962638 0.962335 0.963983 0.964340 0.964281 0.965611 0.965514 0.965204 0.961657 0.960301 0.961630 0.963401 0.962945 0.969052 0.969252 0.977880 0.978627 0.977120 0.977015 0.977123 0.977250 0.968705 0.963674 0.958564 0.946870 0.938225 0.935353 0.937592 0.938372 0.937067 0.932442 0.931579 0.929663 0.925504 0.924800 0.924820 0.926169 0.921816 0.918346 0.901035 0.899883 0.902242 0.901847 0.899775 0.892185 0.888217 0.889662 0.892589 0.895729 0.893085 0.895487 0.890599 0.891635 0.892170 0.894028 0.897199 0.893382 0.891278 0.887376 0.883916 0.878659 0.879719 0.867547 0.870684 0.862496 0.851211 0.843659 0.846735 0.856602 0.865189 0.873322 0.872261 0.872810 0.871947 0.863495 0.864647 0.852473 0.853404 0.858493 0.864493 0.861580 0.858736 0.863759 0.861799 0.863766 0.865998 0.862964 0.861087 0.850982 0.851321 0.854136 0.870587 0.872162 0.860531 0.852757 0.840247 0.846848 0.850254 0.849833 0.851406 0.844281 0.845854 0.837378 0.825845 0.827940 0.833128 0.827877 0.830691 0.830551 0.834972 0.835924 0.834984 0.830375 0.829029 0.834350 0.801029 0.809366 0.811676 0.807270 0.811585 0.803992 0.796938 0.793403 0.790720 0.787381 0.797099 0.795590 0.763831 0.758312 0.765710 0.753300 0.743759 0.740665 0.742098 0.718152 0.703532 0.671045 0.665741 0.652326 0.648051 0.646713 0.627407 0.609002 0.595939 0.585576 0.600698 0.603408 0.586106 0.586369 0.576543 0.570872 0.563774 0.561425 0.557311 0.561802 0.566438 0.533332 0.527624 0.535480 0.506687 0.506491 0.508097 0.497842 0.474937 0.480974 0.477586 0.503599 0.509472 0.472022 0.464794 0.479956 0.498273 0.510161 0.510200 0.495056 0.477521 0.484401 0.463703 0.439467 0.454338 0.465624 0.453506 0.466860 0.460718 0.489014 0.480789 0.463678 0.486341 0.476708 0.471741 0.483958 0.501740 0.498983 0.502069 0.495818 0.450051 0.468834 0.451495 0.385292 0.382975 0.386737 0.373319 0.375063 0.352727 0.351537 0.329617 0.304570 0.307210 0.298668 0.263554 0.223547 0.230489 0.232629 0.202316 0.173185 0.187219 0.141497 0.133692 0.151298 0.155449 0.158875 0.153281 0.177330 0.177330 0.177330 0.177330 0.177330 0.177330 0.177330 0.177330 0.177330 0.177330 0.177330 0.177330 0.177330 0.177330 0.203493 0.203493 0.203493 0.203493 0.203493 0.203493 0.203493 0.203493 0.203493 0.203493 0.203493 0.203493
0.000000 0.000000 0.000000 0.000000 0.000000 0.000000 0.000000 0.000000 0.000000 0.000000 0.000000 0.000000 0.000000 0.000000 0.000000 0.000000 0.000000 0.000000 0.000000 0.000000 0.000000 0.000000 0.000000 0.000000 0.000000 0.000000 0.000000 0.000000 0.000000 0.000000 0.000000 0.000000 0.000000 0.000000 0.000000 0.000000 0.000000 0.000000 0.000000 0.000000 0.000000 0.000000 0.000000 0.000000 0.000000 0.000000 0.000000 0.000000 0.000000 0.000000 0.000000 0.000000 0.209657 0.209657 0.209657 0.209657 0.209657 0.209657 0.209657 0.209657 0.209657 0.209657 0.209657 0.209657 0.209657 0.209657 0.209657 0.209657 0.209657 0.209657 0.209657 0.209657 0.209657 0.209657 0.209657 0.209657 0.209657 0.209657 0.209657 0.209657 0.209657 0.209657 0.209657 0.209657 0.209657 0.244339 0.244339 0.244339 0.244339 0.244339 0.244339 0.244339 0.244339 0.244339 0.244339 0.244339 0.244339 0.244339 0.244339 0.244339 0.244339 0.244339 0.244339 0.244339 0.244339 0.244339 0.244339 0.244339 0.244339 0.244339 0.260378 0.260378 0.260378 0.260378 0.260378 0.260378 0.260378 0.260378 0.260378 0.260378 0.260378 0.260378 0.260378 0.260378 0.260378 0.260378 0.260378 0.260378 0.260378 0.260378 0.269680 0.269680 0.269680 0.269680 0.269680 0.269680 0.269680 0.269680 0.269680 0.269680 0.269680 0.269680 0.269680 0.269680 0.269680 0.269680 0.269680 0.269680 0.269680 0.269680 0.269680 0.269680 0.269680 0.269680 0.269680 0.269680 0.269680 0.269680 0.269680 0.269680 0.269680 0.269680 0.269680 0.280056 0.280056 0.280056 0.280056 0.280056 0.280056 0.280056 0.280056 0.280056 0.280056 0.280056 0.280056 0.280056 0.280056 0.280056 0.280056 0.280056 0.280056 0.280056 0.280056 0.280056 0.280056 0.280056 0.280056 0.280056 0.280056 0.280056 0.274721 0.274721 0.274721 0.274721 0.274721 0.274721 0.274721 0.274721 0.274721 0.274721 0.274721 0.274721 0.274721 0.285714 0.285714 0.285714 0.285714 0.285714 0.285714 0.285714 0.285714 0.285714 0.285714 0.285714 0.280056 0.280056 0.280056 0.280056 0.280056 0.280056 0.280056 0.280056 0.280056 0.280056 0.280056 0.274721 0.274721 0.274721 0.274721 0.274721 0.274721 0.274721 0.274721 0.274721 0.274721 0.274721 0.280056 0.280056 0.280056 0.280056 0.280056 0.280056 0.280056 0.280056 0.280056 0.280056 0.285714 0.285714 0.285714 0.285714 0.285714 0.285714 0.285714 0.285714 0.285714 0.269680 0.269680 0.269680 0.269680 0.269680 0.269680 0.269680 0.269680 0.269680 0.269680 0.274721 0.274721 0.274721 0.274721 0.274721 0.274721 0.274721 0.274721 0.274721 0.285714 0.285714 0.285714 0.285714 0.285714 0.285714 0.285714 0.285714 0.264906 0.264906 0.264906 0.264906 0.264906 0.264906 0.264906 0.264906 0.264906 0.274721 0.274721 0.274721 0.274721 0.274721 0.274721 0.274721 0.274721 0.269680 0.269680 0.269680 0.269680 0.269680 0.269680 0.269680 0.269680 0.269680 0.269680 0.269680 0.269680 0.269680 0.269680 0.269680 0.269680 0.280056 0.280056 0.280056 0.280056 0.280056 0.280056 0.280056 0.260378 0.260378 0.260378 0.260378 0.260378 0.260378 0.260378 0.260378 0.269680 0.269680 0.269680 0.269680 0.269680 0.269680 0.269680 0.264906 0.264906 0.264906 0.264906 0.264906 0.264906 0.264906 0.264906 0.264906 0.264906 0.264906 0.264906 0.264906 0.264906 0.260378 0.260378 0.260378 0.260378 0.260378 0.260378 0.260378 0.260378 0.260378 0.260378 0.260378 0.260378
