# Output from CTFFind version 4.1.9, run on 2019-11-03 19:39:54
# Input file: stack1_bm3d_averaged_1_4.75_0_1000_half.mrc ; Number of micrographs: 1
# Pixel size: 3.000 Angstroms ; acceleration voltage: 300.0 keV ; spherical aberration: 0.00 mm ; amplitude contrast: 0.07
# Box size: 512 pixels ; min. res.: 30.0 Angstroms ; max. res.: 5.0 Angstroms ; min. def.: 5000.0 um; max. def. 50000.0 um; num. frames averaged: 1
# 6 lines per micrograph: #1 - spatial frequency (1/Angstroms); #2 - 1D rotational average of spectrum (assuming no astigmatism); #3 - 1D rotational average of spectrum; #4 - CTF fit; #5 - cross-correlation between spectrum and CTF fit; #6 - 2sigma of expected cross correlation of noise
0.000000 0.000651 0.001302 0.001953 0.002604 0.003255 0.003906 0.004557 0.005208 0.005859 0.006510 0.007161 0.007812 0.008464 0.009115 0.009766 0.010417 0.011068 0.011719 0.012370 0.013021 0.013672 0.014323 0.014974 0.015625 0.016276 0.016927 0.017578 0.018229 0.018880 0.019531 0.020182 0.020833 0.021484 0.022135 0.022786 0.023438 0.024089 0.024740 0.025391 0.026042 0.026693 0.027344 0.027995 0.028646 0.029297 0.029948 0.030599 0.031250 0.031901 0.032552 0.033203 0.033854 0.034505 0.035156 0.035807 0.036458 0.037109 0.037760 0.038411 0.039062 0.039714 0.040365 0.041016 0.041667 0.042318 0.042969 0.043620 0.044271 0.044922 0.045573 0.046224 0.046875 0.047526 0.048177 0.048828 0.049479 0.050130 0.050781 0.051432 0.052083 0.052734 0.053385 0.054036 0.054688 0.055339 0.055990 0.056641 0.057292 0.057943 0.058594 0.059245 0.059896 0.060547 0.061198 0.061849 0.062500 0.063151 0.063802 0.064453 0.065104 0.065755 0.066406 0.067057 0.067708 0.068359 0.069010 0.069661 0.070312 0.070964 0.071615 0.072266 0.072917 0.073568 0.074219 0.074870 0.075521 0.076172 0.076823 0.077474 0.078125 0.078776 0.079427 0.080078 0.080729 0.081380 0.082031 0.082682 0.083333 0.083984 0.084635 0.085286 0.085938 0.086589 0.087240 0.087891 0.088542 0.089193 0.089844 0.090495 0.091146 0.091797 0.092448 0.093099 0.093750 0.094401 0.095052 0.095703 0.096354 0.097005 0.097656 0.098307 0.098958 0.099609 0.100260 0.100911 0.101562 0.102214 0.102865 0.103516 0.104167 0.104818 0.105469 0.106120 0.106771 0.107422 0.108073 0.108724 0.109375 0.110026 0.110677 0.111328 0.111979 0.112630 0.113281 0.113932 0.114583 0.115234 0.115885 0.116536 0.117188 0.117839 0.118490 0.119141 0.119792 0.120443 0.121094 0.121745 0.122396 0.123047 0.123698 0.124349 0.125000 0.125651 0.126302 0.126953 0.127604 0.128255 0.128906 0.129557 0.130208 0.130859 0.131510 0.132161 0.132812 0.133464 0.134115 0.134766 0.135417 0.136068 0.136719 0.137370 0.138021 0.138672 0.139323 0.139974 0.140625 0.141276 0.141927 0.142578 0.143229 0.143880 0.144531 0.145182 0.145833 0.146484 0.147135 0.147786 0.148438 0.149089 0.149740 0.150391 0.151042 0.151693 0.152344 0.152995 0.153646 0.154297 0.154948 0.155599 0.156250 0.156901 0.157552 0.158203 0.158854 0.159505 0.160156 0.160807 0.161458 0.162109 0.162760 0.163411 0.164062 0.164714 0.165365 0.166016 0.166667 0.167318 0.167969 0.168620 0.169271 0.169922 0.170573 0.171224 0.171875 0.172526 0.173177 0.173828 0.174479 0.175130 0.175781 0.176432 0.177083 0.177734 0.178385 0.179036 0.179688 0.180339 0.180990 0.181641 0.182292 0.182943 0.183594 0.184245 0.184896 0.185547 0.186198 0.186849 0.187500 0.188151 0.188802 0.189453 0.190104 0.190755 0.191406 0.192057 0.192708 0.193359 0.194010 0.194661 0.195312 0.195964 0.196615 0.197266 0.197917 0.198568 0.199219 0.199870 0.200521 0.201172 0.201823 0.202474 0.203125 0.203776 0.204427 0.205078 0.205729 0.206380 0.207031 0.207682 0.208333 0.208984 0.209635 0.210286 0.210938 0.211589 0.212240 0.212891 0.213542 0.214193 0.214844 0.215495 0.216146 0.216797 0.217448 0.218099 0.218750 0.219401 0.220052 0.220703 0.221354 0.222005 0.222656 0.223307 0.223958 0.224609 0.225260 0.225911 0.226562 0.227214 0.227865 0.228516 0.229167 0.229818 0.230469 0.231120 0.231771 0.232422 0.233073 0.233724 0.234375 0.235026 0.235677
       0.35636        0.35636        0.35636        0.35636        0.35636        0.35636        0.35636        0.35636        0.35636        0.35636        0.35636        0.35636        0.35636        0.35636        0.35636        0.35636        0.35636        0.35636        0.35636        0.35636        0.35636        0.35636        0.35636        0.35636        0.35636        0.35636        0.35636        0.35636        0.35636        0.35636        0.35636        0.35636        0.35636        0.35636        0.35636        0.35636        0.35636        0.35636        0.35636        0.35636        0.35636        0.35636        0.35636        0.35636        0.35636        0.35636        0.35636        0.35636        0.35636        0.35636        0.35636        0.43629        0.63662        0.31565        0.15557       -0.01571       -0.25832       -0.07638       -0.15937       -0.17284        0.02204       -0.11405       -0.11177       -0.04726       -0.02707       -0.12097       -0.15262       -0.29855       -0.42350       -0.51458       -0.46696       -0.37348       -0.28240       -0.42004       -0.32822       -0.43914       -0.35592       -0.40538       -0.23446       -0.22344       -0.26353       -0.11534       -0.06915       -0.04827        0.08375        0.03694        0.20459        0.20570        0.33077        0.37793        0.48318        0.51289        0.56051        0.61142        0.70352        0.60004        0.56094        0.51516        0.50811        0.59378        0.49877        0.45907        0.41557        0.32790        0.28866        0.30737        0.30012        0.20400        0.18707        0.07314        0.12956        0.12461        0.13105        0.11702        0.16721        0.23069        0.30137        0.29790        0.32711        0.46968        0.45955        0.49728        0.64191        0.64008        0.57478        0.57699        0.58610        0.45120        0.48403        0.37812        0.33392        0.29583        0.23630        0.24054        0.20454        0.16795        0.18219        0.23818        0.24512        0.27695        0.33791        0.35537        0.39925        0.47861        0.49186        0.47193        0.47726        0.57090        0.49977        0.50109        0.45133        0.37701        0.34868        0.26704        0.29800        0.23360        0.22861        0.27872        0.22579        0.24632        0.32308        0.39475        0.42072        0.46746        0.44746        0.51212        0.49424        0.46730        0.42431        0.40828        0.38098        0.38309        0.40307        0.37980        0.28274        0.32314        0.29228        0.29480        0.30071        0.35478        0.38790        0.41398        0.46324        0.49684        0.44430        0.43395        0.45268        0.40389        0.35638        0.37801        0.33061        0.33815        0.31832        0.32894        0.30069        0.34163        0.35572        0.39501        0.43733        0.43784        0.41828        0.39849        0.38534        0.38763        0.30411        0.32375        0.35330        0.28405        0.33512        0.32139        0.34133        0.35481        0.35190        0.37961        0.38879        0.46205        0.39202        0.35936        0.37180        0.32620        0.33036        0.34095        0.32947        0.36058        0.33547        0.36099        0.34988        0.40383        0.37724        0.38832        0.41361        0.39728        0.35846        0.34255        0.34517        0.31765        0.36447        0.33109        0.34069        0.35392        0.37726        0.34319        0.35319        0.34107        0.30111        0.29624        0.28482        0.31528        0.35234        0.35324        0.34315        0.31531        0.36340        0.34686        0.34325        0.31858        0.33177        0.34802        0.32993        0.30836        0.35702        0.33957        0.33855        0.31600        0.33171        0.35699        0.33331        0.31203        0.33282        0.30138        0.30599        0.36006        0.33205        0.32685        0.36487        0.32612        0.32889        0.37000        0.34481        0.29153        0.29701        0.27602        0.33587        0.34452        0.35423        0.32108        0.30224        0.34207        0.32321        0.28672        0.32447        0.33424        0.33492        0.35157        0.31658        0.28645        0.32860        0.31743        0.35336        0.32727        0.29734        0.35620        0.38446        0.39301        0.31703        0.34716        0.31837        0.33208        0.29404        0.34905        0.33457        0.25501        0.28762        0.36237        0.33359        0.32497        0.30451        0.34208        0.31714        0.29879        0.29405        0.31857        0.30658        0.26366        0.26232        0.29819        0.33176        0.28723        0.28683        0.31049        0.32697        0.28300        0.34943        0.31236        0.30704        0.30175        0.25127        0.31325        0.28744        0.24946        0.21517        0.20918        0.21910        0.23846        0.30239        0.26785        0.34763        0.28556        0.30415        0.28511        0.22844        0.27263        0.29343        0.23749        0.17171        0.23164        0.31743        0.44794        0.36040       -0.04719        0.03428       -0.41869       -0.72385
2.917561 2.885878 2.854369 2.823034 2.791873 2.760886 2.730073 2.699434 2.668969 2.638678 2.608561 2.578618 2.548849 2.519253 2.489832 2.460585 2.431512 2.402612 2.373887 2.345336 2.316959 2.288755 2.260726 2.232870 2.205189 2.177681 2.150348 2.123189 2.096203 2.069391 2.042754 2.016290 1.990001 1.963885 1.937943 1.912176 1.886582 1.861162 1.835917 1.810845 1.785947 1.761223 1.736673 1.712298 1.688096 1.664068 1.640214 1.616534 1.593028 1.569696 1.546538 1.531200 1.892281 1.651826 1.059859 1.078857 0.433735 0.905132 0.538311 0.688957 0.875008 0.684872 0.577542 0.758106 0.710345 0.608345 0.537547 0.327933 0.076072 -0.011660 -0.020116 -0.023098 0.369943 -0.044599 0.094577 -0.036483 0.033340 -0.057611 0.158263 0.152907 0.078259 0.236249 0.333714 0.280990 0.468030 0.386668 0.650870 0.533938 0.779213 0.735428 0.888702 1.022717 0.939918 1.077986 1.104637 1.122901 0.959220 0.864018 0.866532 0.927181 0.831039 0.778654 0.640622 0.566124 0.482777 0.466200 0.474296 0.305567 0.316389 0.138294 0.117320 0.167999 0.142855 0.092229 0.148477 0.203580 0.325430 0.316258 0.367912 0.383046 0.573822 0.389355 0.685071 0.800237 0.603511 0.623789 0.646191 0.451524 0.403362 0.379384 0.211300 0.227983 0.044575 0.126977 -0.005388 0.004319 -0.060683 -0.010662 0.083279 0.033080 0.096296 0.179574 0.216529 0.244622 0.360116 0.296983 0.299584 0.439635 0.371985 0.340714 0.293236 0.221408 0.126795 0.057737 -0.020256 -0.006259 -0.114737 0.008672 -0.021422 -0.092710 -0.060862 0.086214 0.212725 0.177125 0.247862 0.212894 0.346091 0.247459 0.235228 0.250836 0.136735 0.089311 0.236202 0.097709 0.064401 0.013710 0.064129 -0.027078 0.050037 -0.006533 0.158474 0.087597 0.176580 0.252995 0.254046 0.109999 0.189070 0.156874 0.108635 0.074572 0.051748 0.032596 0.002208 0.021571 -0.024059 -0.036482 0.071414 0.006632 0.157595 0.104470 0.131033 0.050850 0.055486 0.070939 -0.002664 -0.095742 -0.009247 -0.020531 -0.083999 -0.027964 -0.045290 0.018874 -0.027354 -0.002760 0.052253 0.081338 0.165168 -0.007476 0.052350 0.031855 -0.058975 0.007935 -0.008542 -0.010082 0.057568 -0.005916 0.003195 0.053565 0.081147 0.077120 0.086770 0.148931 0.041526 0.051017 0.019232 0.018315 -0.006733 0.070466 0.009371 0.027736 0.033993 0.094312 0.021025 0.060186 0.009430 -0.031772 -0.041697 -0.046253 -0.000123 0.059708 0.071779 0.015012 -0.008558 0.110777 0.043588 0.059867 0.027727 0.036761 0.067145 0.020128 0.038762 0.081470 0.048728 0.035153 0.057568 0.014612 0.096459 0.038485 0.035655 0.049829 -0.031999 0.035642 0.087135 0.048746 0.037289 0.105228 0.032365 0.004985 0.056035 0.005594 -0.017599 -0.066522 -0.074939 0.040856 0.036083 0.002567 -0.001252 -0.074997 0.040890 -0.062735 -0.057343 -0.017862 0.006140 0.013669 0.003851 -0.058836 -0.042828 -0.041209 0.034537 -0.055121 -0.001872 -0.052687 0.049681 0.077129 0.042780 -0.037070 -0.023294 0.005429 -0.017572 -0.073746 -0.006109 0.001777 -0.123129 -0.046794 0.077557 -0.024334 0.004504 -0.074614 0.175649 -0.015698 0.025041 -0.006895 0.084229 -0.006079 -0.000981 -0.014713 0.017439 0.106560 0.080717 0.102310 0.091896 0.205002 0.037178 0.221700 0.120291 0.095342 0.100595 0.039296 0.166671 0.035180 0.020337 -0.049580 -0.018801 -0.007582 -0.023328 0.032662 0.045409 0.128315 -0.057559 0.096306 -0.056585 -0.067348 -0.057323 0.047422 -0.070747 0.205127 0.307244 0.531774 0.665185 0.523880 -0.322891 0.052452 -0.983368
0.072396 0.072907 0.074441 0.076996 0.080573 0.085170 0.090787 0.097420 0.105069 0.113731 0.123401 0.134075 0.145748 0.158413 0.172062 0.186685 0.202271 0.218806 0.236275 0.254659 0.273938 0.294087 0.315079 0.336884 0.359467 0.382788 0.406804 0.431467 0.456724 0.482517 0.508780 0.535444 0.562433 0.589663 0.617046 0.644485 0.671879 0.699115 0.726079 0.752644 0.778681 0.804052 0.828611 0.852207 0.874684 0.895877 0.915619 0.933736 0.950053 0.964389 0.976563 0.986392 0.993694 0.998287 0.999993 0.998640 0.994058 0.986091 0.974587 0.959409 0.940434 0.917554 0.890680 0.859744 0.824700 0.785529 0.742239 0.694867 0.643482 0.588189 0.529127 0.466473 0.400445 0.331300 0.259335 0.184892 0.108352 0.030138 0.049285 0.129413 0.209706 0.289589 0.368454 0.445666 0.520568 0.592485 0.660728 0.724606 0.783427 0.836511 0.883196 0.922847 0.954865 0.978700 0.993855 0.999901 0.996486 0.983342 0.960297 0.927283 0.884345 0.831645 0.769471 0.698241 0.618503 0.530941 0.436370 0.335733 0.230102 0.120662 0.008704 0.104382 0.217130 0.328014 0.435463 0.537888 0.633704 0.721357 0.799349 0.866271 0.920825 0.961859 0.988391 0.999637 0.995038 0.974282 0.937320 0.884387 0.816010 0.733016 0.636530 0.527973 0.409045 0.281713 0.148177 0.010844 0.127711 0.264794 0.397642 0.523476 0.639564 0.743281 0.832174 0.904027 0.956920 0.989294 0.999996 0.988337 0.954122 0.897683 0.819895 0.722178 0.606490 0.475301 0.331553 0.178604 0.020159 0.139813 0.297172 0.447719 0.587301 0.711937 0.817935 0.902006 0.961388 0.993939 0.998230 0.973625 0.920323 0.839396 0.732789 0.603296 0.454507 0.290725 0.116856 0.061721 0.239325 0.410139 0.568404 0.708627 0.825767 0.915438 0.974089 0.999157 0.989206 0.944017 0.864644 0.753425 0.613941 0.450931 0.270147 0.078179 0.117779 0.310187 0.491448 0.654211 0.791678 0.897906 0.968080 0.998757 0.988065 0.935829 0.843646 0.714878 0.554563 0.369248 0.166752 0.044140 0.254052 0.453428 0.632960 0.784048 0.899216 0.972519 0.999870 0.979310 0.911167 0.798120 0.645138 0.459305 0.249532 0.026154 0.199560 0.415961 0.611627 0.775973 0.899849 0.976076 0.999901 0.969337 0.885353 0.751915 0.575850 0.366553 0.135517 0.104268 0.339020 0.554963 0.739135 0.880198 0.969159 0.999997 0.970110 0.880583 0.736224 0.545368 0.319460 0.072403 0.180262 0.422314 0.637898 0.812577 0.934332 0.994433 0.988120 0.915038 0.779384 0.589741 0.358601 0.101598 0.163511 0.418045 0.643733 0.824016 0.945322 0.998136 0.977800 0.885002 0.725854 0.511586 0.257812 0.016540 0.290607 0.543173 0.754298 0.906947 0.988411 0.991425 0.914903 0.764182 0.550737 0.291408 0.007128 0.278731 0.542235 0.760929 0.915769 0.992847 0.984719 0.891209 0.719601 0.484183 0.205138 0.093110 0.383998 0.641169 0.840901 0.964329 0.999313 0.941725 0.796023 0.575033 0.298929 0.006535 0.312342 0.588992 0.809315 0.951226 0.999999 0.949903 0.804984 0.578873 0.293626 0.022331 0.336982 0.617934 0.835774 0.967207 0.997643 0.922928 0.750017 0.496478 0.188817 0.140184 0.454912 0.720780 0.908050 0.995252 0.971754 0.839192 0.611551 0.313820 0.020613 0.353649 0.646776 0.865555 0.983734 0.986526 0.872585 0.654458 0.357356 0.016378 0.327544 0.632524 0.860851 0.983718 0.984990 0.863469 0.633351 0.322735 0.029658 0.379238 0.681127 0.895992 0.995226 0.964921 0.807975 0.544047 0.207254 0.158075 0.503177 0.781354 0.954332
1.000000 1.000000 1.000000 1.000000 1.000000 1.000000 1.000000 1.000000 1.000000 1.000000 1.000000 1.000000 1.000000 1.000000 1.000000 1.000000 1.000000 1.000000 1.000000 1.000000 1.000000 1.000000 1.000000 1.000000 1.000000 1.000000 1.000000 1.000000 1.000000 1.000000 1.000000 1.000000 1.000000 1.000000 1.000000 1.000000 1.000000 1.000000 1.000000 1.000000 1.000000 1.000000 1.000000 1.000000 1.000000 1.000000 1.000000 1.000000 1.000000 1.000000 1.000000 1.000000 0.847077 0.847077 0.847077 0.853352 0.853352 0.853352 0.853352 0.853352 0.853352 0.853352 0.853352 0.853352 0.853352 0.853352 0.853352 0.853352 0.853352 0.853352 0.853352 0.853352 0.853352 0.853352 0.853352 0.853352 0.853352 0.853352 0.853352 0.853352 0.853352 0.853352 0.853352 0.853352 0.853352 0.853352 0.853352 0.853352 0.853352 0.853352 0.853352 0.853352 0.853352 0.853352 0.853352 0.853352 0.865973 0.870042 0.872247 0.874522 0.876106 0.872853 0.871851 0.871459 0.871510 0.872925 0.883909 0.908536 0.924311 0.928941 0.936400 0.938257 0.943654 0.943586 0.952308 0.959260 0.958329 0.956723 0.956416 0.958546 0.941981 0.939607 0.935878 0.931949 0.960723 0.941360 0.937951 0.931572 0.925596 0.923881 0.923590 0.922913 0.923296 0.924102 0.925441 0.924049 0.921142 0.922082 0.921392 0.917063 0.902100 0.899597 0.899150 0.898298 0.884126 0.879492 0.878632 0.878622 0.870370 0.870663 0.870639 0.871863 0.872675 0.873336 0.854002 0.851183 0.848539 0.844846 0.843146 0.844425 0.846921 0.852346 0.855468 0.844720 0.818109 0.808937 0.793917 0.751242 0.747167 0.754686 0.758941 0.756626 0.756571 0.755224 0.753078 0.751090 0.743621 0.739432 0.739748 0.734939 0.723615 0.718979 0.700445 0.686998 0.691480 0.658347 0.674835 0.679327 0.679794 0.664999 0.666509 0.667920 0.676199 0.666674 0.663189 0.655524 0.647495 0.628973 0.606091 0.601136 0.602726 0.630863 0.640031 0.621759 0.600738 0.636226 0.640182 0.651685 0.660680 0.660080 0.637376 0.608878 0.574413 0.575366 0.576259 0.569410 0.570576 0.576760 0.574351 0.562653 0.569101 0.587998 0.597623 0.575483 0.588909 0.575435 0.538091 0.538713 0.531250 0.541960 0.534068 0.501762 0.492433 0.471152 0.468873 0.457418 0.464523 0.475494 0.486720 0.464096 0.480634 0.453539 0.469051 0.477337 0.434184 0.394456 0.389280 0.393136 0.390975 0.397038 0.394234 0.401108 0.404210 0.411468 0.458269 0.420495 0.404425 0.403241 0.405918 0.358010 0.378643 0.361653 0.356555 0.338058 0.288504 0.225240 0.235773 0.237189 0.254007 0.217180 0.181967 0.184529 0.153664 0.148239 0.129201 0.058196 -0.022682 -0.033030 -0.033103 -0.021803 -0.011572 -0.008502 -0.039000 -0.029155 0.002168 0.022256 -0.005391 -0.004284 -0.079443 -0.069210 -0.094730 -0.049039 -0.062735 -0.054304 -0.067657 -0.067766 -0.030561 -0.017944 -0.042028 -0.056028 -0.067175 -0.046698 -0.042838 -0.070300 -0.046036 -0.078848 -0.088795 -0.125467 -0.113647 -0.092087 -0.092410 -0.110107 -0.110908 -0.069244 -0.062681 -0.075680 -0.086063 -0.056576 -0.031947 -0.091573 -0.046754 -0.030047 -0.029839 0.009483 0.034086 0.034233 0.029494 0.031860 0.034635 0.049819 0.050384 0.058571 0.070992 0.074068 0.009379 0.009379 0.009379 -0.008810 -0.008810 -0.008810 -0.008810 -0.008810 -0.008810 -0.008810 -0.008810 -0.008810 -0.024453 -0.024453 -0.024453 -0.024453 -0.024453 -0.024453 -0.024453 -0.024453 -0.024453 -0.024453 -0.024453 -0.024453 -0.024453 -0.024453 -0.024453 -0.024453 -0.024453
0.000000 0.000000 0.000000 0.000000 0.000000 0.000000 0.000000 0.000000 0.000000 0.000000 0.000000 0.000000 0.000000 0.000000 0.000000 0.000000 0.000000 0.000000 0.000000 0.000000 0.000000 0.000000 0.000000 0.000000 0.000000 0.000000 0.000000 0.000000 0.000000 0.000000 0.000000 0.000000 0.000000 0.000000 0.000000 0.000000 0.000000 0.000000 0.000000 0.000000 0.000000 0.000000 0.000000 0.000000 0.000000 0.000000 0.000000 0.000000 0.000000 0.000000 0.000000 0.000000 0.180334 0.180334 0.180334 0.199007 0.199007 0.199007 0.199007 0.199007 0.199007 0.199007 0.199007 0.199007 0.199007 0.199007 0.199007 0.199007 0.199007 0.199007 0.199007 0.199007 0.199007 0.199007 0.199007 0.199007 0.199007 0.199007 0.199007 0.199007 0.199007 0.199007 0.199007 0.199007 0.199007 0.199007 0.199007 0.199007 0.199007 0.199007 0.199007 0.199007 0.199007 0.199007 0.199007 0.199007 0.230940 0.230940 0.230940 0.230940 0.230940 0.230940 0.230940 0.230940 0.230940 0.230940 0.230940 0.230940 0.230940 0.230940 0.230940 0.230940 0.230940 0.230940 0.230940 0.230940 0.230940 0.230940 0.230940 0.230940 0.230940 0.230940 0.230940 0.230940 0.248069 0.248069 0.248069 0.248069 0.248069 0.248069 0.248069 0.248069 0.248069 0.248069 0.248069 0.248069 0.248069 0.248069 0.248069 0.248069 0.248069 0.248069 0.248069 0.248069 0.248069 0.248069 0.251976 0.251976 0.251976 0.251976 0.251976 0.251976 0.251976 0.251976 0.251976 0.251976 0.251976 0.251976 0.251976 0.251976 0.251976 0.251976 0.251976 0.251976 0.251976 0.251976 0.256074 0.256074 0.256074 0.256074 0.256074 0.256074 0.256074 0.256074 0.256074 0.256074 0.256074 0.256074 0.256074 0.256074 0.256074 0.256074 0.256074 0.256074 0.264906 0.264906 0.264906 0.264906 0.264906 0.264906 0.264906 0.264906 0.264906 0.264906 0.264906 0.264906 0.264906 0.264906 0.264906 0.264906 0.264906 0.264906 0.264906 0.264906 0.264906 0.264906 0.264906 0.264906 0.264906 0.264906 0.264906 0.264906 0.264906 0.264906 0.264906 0.274721 0.274721 0.274721 0.274721 0.274721 0.274721 0.274721 0.274721 0.274721 0.274721 0.274721 0.274721 0.274721 0.256074 0.256074 0.256074 0.256074 0.256074 0.256074 0.256074 0.256074 0.256074 0.256074 0.256074 0.256074 0.256074 0.256074 0.269680 0.269680 0.269680 0.269680 0.269680 0.269680 0.269680 0.269680 0.269680 0.269680 0.269680 0.269680 0.264906 0.264906 0.264906 0.264906 0.264906 0.264906 0.264906 0.264906 0.264906 0.264906 0.264906 0.264906 0.269680 0.269680 0.269680 0.269680 0.269680 0.269680 0.269680 0.269680 0.269680 0.269680 0.269680 0.264906 0.264906 0.264906 0.264906 0.264906 0.264906 0.264906 0.264906 0.264906 0.264906 0.264906 0.269680 0.269680 0.269680 0.269680 0.269680 0.269680 0.269680 0.269680 0.269680 0.269680 0.264906 0.264906 0.264906 0.264906 0.264906 0.264906 0.264906 0.264906 0.264906 0.264906 0.260378 0.260378 0.260378 0.260378 0.260378 0.260378 0.260378 0.260378 0.260378 0.260378 0.256074 0.256074 0.256074 0.256074 0.256074 0.256074 0.256074 0.256074 0.256074 0.256074 0.260378 0.260378 0.260378 0.260378 0.260378 0.260378 0.260378 0.260378 0.260378 0.256074 0.256074 0.256074 0.256074 0.256074 0.256074 0.256074 0.256074 0.256074 0.251976 0.251976 0.251976 0.251976 0.251976 0.251976 0.251976 0.251976 0.251976 0.251976 0.251976 0.251976 0.251976 0.251976 0.251976 0.251976 0.251976
