# Output from CTFFind version 4.1.9, run on 2019-11-03 19:25:08
# Input file: stack11_bm3d_averaged_1_3.75_0_250_half.mrc ; Number of micrographs: 1
# Pixel size: 3.000 Angstroms ; acceleration voltage: 300.0 keV ; spherical aberration: 0.00 mm ; amplitude contrast: 0.07
# Box size: 512 pixels ; min. res.: 30.0 Angstroms ; max. res.: 5.0 Angstroms ; min. def.: 5000.0 um; max. def. 50000.0 um; num. frames averaged: 1
# 6 lines per micrograph: #1 - spatial frequency (1/Angstroms); #2 - 1D rotational average of spectrum (assuming no astigmatism); #3 - 1D rotational average of spectrum; #4 - CTF fit; #5 - cross-correlation between spectrum and CTF fit; #6 - 2sigma of expected cross correlation of noise
0.000000 0.000651 0.001302 0.001953 0.002604 0.003255 0.003906 0.004557 0.005208 0.005859 0.006510 0.007161 0.007812 0.008464 0.009115 0.009766 0.010417 0.011068 0.011719 0.012370 0.013021 0.013672 0.014323 0.014974 0.015625 0.016276 0.016927 0.017578 0.018229 0.018880 0.019531 0.020182 0.020833 0.021484 0.022135 0.022786 0.023438 0.024089 0.024740 0.025391 0.026042 0.026693 0.027344 0.027995 0.028646 0.029297 0.029948 0.030599 0.031250 0.031901 0.032552 0.033203 0.033854 0.034505 0.035156 0.035807 0.036458 0.037109 0.037760 0.038411 0.039062 0.039714 0.040365 0.041016 0.041667 0.042318 0.042969 0.043620 0.044271 0.044922 0.045573 0.046224 0.046875 0.047526 0.048177 0.048828 0.049479 0.050130 0.050781 0.051432 0.052083 0.052734 0.053385 0.054036 0.054688 0.055339 0.055990 0.056641 0.057292 0.057943 0.058594 0.059245 0.059896 0.060547 0.061198 0.061849 0.062500 0.063151 0.063802 0.064453 0.065104 0.065755 0.066406 0.067057 0.067708 0.068359 0.069010 0.069661 0.070312 0.070964 0.071615 0.072266 0.072917 0.073568 0.074219 0.074870 0.075521 0.076172 0.076823 0.077474 0.078125 0.078776 0.079427 0.080078 0.080729 0.081380 0.082031 0.082682 0.083333 0.083984 0.084635 0.085286 0.085938 0.086589 0.087240 0.087891 0.088542 0.089193 0.089844 0.090495 0.091146 0.091797 0.092448 0.093099 0.093750 0.094401 0.095052 0.095703 0.096354 0.097005 0.097656 0.098307 0.098958 0.099609 0.100260 0.100911 0.101562 0.102214 0.102865 0.103516 0.104167 0.104818 0.105469 0.106120 0.106771 0.107422 0.108073 0.108724 0.109375 0.110026 0.110677 0.111328 0.111979 0.112630 0.113281 0.113932 0.114583 0.115234 0.115885 0.116536 0.117188 0.117839 0.118490 0.119141 0.119792 0.120443 0.121094 0.121745 0.122396 0.123047 0.123698 0.124349 0.125000 0.125651 0.126302 0.126953 0.127604 0.128255 0.128906 0.129557 0.130208 0.130859 0.131510 0.132161 0.132812 0.133464 0.134115 0.134766 0.135417 0.136068 0.136719 0.137370 0.138021 0.138672 0.139323 0.139974 0.140625 0.141276 0.141927 0.142578 0.143229 0.143880 0.144531 0.145182 0.145833 0.146484 0.147135 0.147786 0.148438 0.149089 0.149740 0.150391 0.151042 0.151693 0.152344 0.152995 0.153646 0.154297 0.154948 0.155599 0.156250 0.156901 0.157552 0.158203 0.158854 0.159505 0.160156 0.160807 0.161458 0.162109 0.162760 0.163411 0.164062 0.164714 0.165365 0.166016 0.166667 0.167318 0.167969 0.168620 0.169271 0.169922 0.170573 0.171224 0.171875 0.172526 0.173177 0.173828 0.174479 0.175130 0.175781 0.176432 0.177083 0.177734 0.178385 0.179036 0.179688 0.180339 0.180990 0.181641 0.182292 0.182943 0.183594 0.184245 0.184896 0.185547 0.186198 0.186849 0.187500 0.188151 0.188802 0.189453 0.190104 0.190755 0.191406 0.192057 0.192708 0.193359 0.194010 0.194661 0.195312 0.195964 0.196615 0.197266 0.197917 0.198568 0.199219 0.199870 0.200521 0.201172 0.201823 0.202474 0.203125 0.203776 0.204427 0.205078 0.205729 0.206380 0.207031 0.207682 0.208333 0.208984 0.209635 0.210286 0.210938 0.211589 0.212240 0.212891 0.213542 0.214193 0.214844 0.215495 0.216146 0.216797 0.217448 0.218099 0.218750 0.219401 0.220052 0.220703 0.221354 0.222005 0.222656 0.223307 0.223958 0.224609 0.225260 0.225911 0.226562 0.227214 0.227865 0.228516 0.229167 0.229818 0.230469 0.231120 0.231771 0.232422 0.233073 0.233724 0.234375 0.235026 0.235677
       0.33364        0.33364        0.33364        0.33364        0.33364        0.33364        0.33364        0.33364        0.33364        0.33364        0.33364        0.33364        0.33364        0.33364        0.33364        0.33364        0.33364        0.33364        0.33364        0.33364        0.33364        0.33364        0.33364        0.33364        0.33364        0.33364        0.33364        0.33364        0.33363        0.33364        0.33364        0.33364        0.33364        0.33364        0.33364        0.33364        0.33364        0.33364        0.33364        0.33364        0.33364        0.33364        0.33364        0.33364        0.33364        0.33364        0.33364        0.33363        0.33364        0.33364        0.33364        0.69141        0.86087        0.53207        0.10218       -0.03725       -0.40035       -0.18558       -0.28867       -0.11212       -0.05877       -0.11123       -0.05538       -0.17897       -0.21255       -0.22741       -0.31434       -0.32615       -0.45621       -0.36734       -0.43777       -0.43047       -0.40406       -0.43046       -0.47650       -0.52597       -0.56593       -0.57584       -0.54611       -0.37508       -0.34812       -0.30708       -0.28565       -0.19421       -0.18598        0.04613        0.12226        0.15324        0.25064        0.37680        0.45354        0.51730        0.58444        0.58163        0.57150        0.69419        0.80520        0.71132        0.73707        0.63118        0.56688        0.48272        0.42502        0.50744        0.39093        0.24749        0.10195        0.08716        0.06594       -0.03323        0.01413        0.02908       -0.01815        0.01457        0.00949        0.23430        0.26377        0.29216        0.42876        0.45024        0.40872        0.57770        0.62495        0.65773        0.73542        0.67941        0.64952        0.67235        0.56592        0.47172        0.41850        0.29787        0.24207        0.17012        0.12612        0.05165        0.04222        0.04382        0.08649        0.14167        0.22828        0.28102        0.40381        0.45420        0.48539        0.58485        0.61342        0.63741        0.62037        0.56235        0.45618        0.46531        0.37345        0.25510        0.19725        0.15419        0.15298        0.14152        0.13197        0.15779        0.29297        0.30371        0.38412        0.42036        0.43037        0.49592        0.55333        0.55435        0.49170        0.45336        0.40292        0.35318        0.32309        0.28862        0.23313        0.22864        0.21844        0.23549        0.21187        0.29893        0.35712        0.38548        0.43857        0.45286        0.47216        0.42214        0.40075        0.40313        0.35942        0.30619        0.26880        0.25180        0.24976        0.22085        0.26896        0.26887        0.33906        0.37169        0.40643        0.47537        0.41837        0.42710        0.43148        0.40542        0.34442        0.31888        0.28943        0.30383        0.26461        0.30380        0.29747        0.31715        0.32784        0.34819        0.31906        0.40006        0.41759        0.38127        0.34653        0.37124        0.30664        0.28806        0.28518        0.31115        0.29415        0.30688        0.32139        0.33511        0.33900        0.36610        0.36866        0.39138        0.37351        0.32449        0.33276        0.29024        0.27274        0.31866        0.31155        0.32221        0.32874        0.32516        0.36560        0.32733        0.32618        0.31877        0.32864        0.29493        0.30355        0.27139        0.29809        0.31442        0.29568        0.31639        0.34007        0.34557        0.28150        0.31714        0.28480        0.29954        0.27705        0.23710        0.29191        0.29420        0.34101        0.33085        0.32878        0.32116        0.33756        0.29762        0.33621        0.32020        0.29628        0.27486        0.31871        0.30664        0.35334        0.32572        0.32805        0.33612        0.29071        0.27446        0.30551        0.24679        0.22047        0.32397        0.31890        0.33459        0.32742        0.34060        0.31192        0.33990        0.33855        0.26201        0.24024        0.30654        0.29660        0.30204        0.32053        0.33752        0.33765        0.30256        0.28681        0.33529        0.31643        0.29351        0.27435        0.31927        0.35127        0.39358        0.32600        0.29326        0.27457        0.30724        0.26930        0.28954        0.26548        0.24667        0.30877        0.33024        0.33800        0.34028        0.30578        0.27316        0.28170        0.25369        0.25165        0.24669        0.31981        0.28638        0.22485        0.32191        0.31436        0.26055        0.27832        0.20553        0.21224        0.25401        0.18671        0.25230        0.29942        0.22818        0.21153        0.30563        0.32736        0.33314        0.32722        0.25241        0.21735        0.17652        0.21618        0.19101        0.18887        0.20474        0.25226        0.28301        0.25706        0.19846        0.11134        0.08795       -0.01615       -0.10669       -0.62374
2.713773 2.685093 2.656569 2.628202 2.599991 2.571938 2.544040 2.516299 2.488715 2.461287 2.434015 2.406901 2.379942 2.353141 2.326496 2.300007 2.273675 2.247499 2.221481 2.195618 2.169912 2.144363 2.118970 2.093734 2.068655 2.043732 2.018965 1.994355 1.969902 1.945605 1.921465 1.897481 1.873654 1.849983 1.826469 1.803111 1.779910 1.756866 1.733978 1.711247 1.688672 1.666254 1.643992 1.621887 1.599938 1.578146 1.556511 1.535032 1.513709 1.492544 1.471534 1.687783 2.107029 1.669918 1.169703 1.033273 0.441333 0.840944 0.564307 0.846255 0.802699 0.812949 0.758376 0.739970 0.589791 0.548195 0.497456 0.432162 0.239935 0.374572 0.204356 0.325369 0.227980 0.199974 0.169804 0.033671 0.023032 0.010555 -0.066141 0.127030 0.224186 0.189288 0.170888 0.332748 0.184880 0.508574 0.614191 0.609091 0.628243 0.873899 0.828480 0.940427 0.914908 1.013864 0.974369 1.082032 1.147776 1.047160 1.146001 0.917150 0.927939 0.789730 0.654721 0.794622 0.703726 0.480552 0.326802 0.248871 0.254762 0.147963 0.118872 0.154653 0.100113 0.132025 0.070970 0.259099 0.365131 0.345972 0.476558 0.550766 0.427951 0.582186 0.720721 0.688513 0.747793 0.708276 0.724194 0.670213 0.605599 0.520623 0.388642 0.280208 0.222647 0.082799 0.122451 -0.080118 -0.043597 -0.064259 -0.069378 -0.020890 0.141340 0.069230 0.247702 0.304995 0.343744 0.409959 0.508994 0.491145 0.488685 0.500390 0.316102 0.296637 0.286132 0.089798 0.043390 -0.058371 -0.012628 -0.056523 -0.086489 -0.089566 0.034358 0.077549 0.121636 0.205851 0.230677 0.255837 0.303007 0.428404 0.397998 0.274674 0.244154 0.219587 0.156945 0.140410 0.109507 0.000378 0.017458 0.058018 -0.003699 0.067030 0.147654 0.147043 0.241633 0.247147 0.287927 0.186674 0.225279 0.147844 0.180305 0.114761 0.051524 -0.003294 0.007643 -0.004853 -0.042176 0.055360 0.022164 0.130353 0.148937 0.187827 0.207127 0.168753 0.154639 0.183388 0.135776 0.063020 0.008889 0.057599 0.019327 -0.011930 0.033644 0.042394 0.060347 0.056469 0.064248 0.086717 0.132225 0.163073 0.062697 0.064720 0.059462 0.016710 -0.021382 0.013032 0.017040 0.008531 0.014444 0.038652 0.056259 0.052817 0.108598 0.058918 0.136820 0.061450 0.025324 0.040913 -0.033237 0.000041 0.045122 0.001663 0.043021 0.051171 0.019037 0.105334 0.041234 0.010751 0.050437 0.008704 0.016110 0.007676 -0.019164 0.038443 0.005514 0.007113 0.057345 0.060159 0.048933 0.034948 0.032250 0.035431 0.025630 -0.012706 -0.022476 0.033994 0.054408 0.088471 0.086182 0.065227 0.080211 0.107618 0.056492 0.113024 0.095341 0.031831 0.042198 0.095494 0.078459 0.116410 0.105005 0.056706 0.138352 0.063241 0.024754 0.097526 -0.021579 0.001757 0.111397 0.070669 0.131981 0.094692 0.093809 0.044517 0.107667 0.090906 -0.007775 -0.031320 0.065220 0.066133 0.050023 0.044074 0.100175 0.090332 0.005560 0.054014 0.074098 0.061193 0.046510 -0.015050 0.079330 0.097564 0.136800 0.019104 0.011879 -0.015286 0.033875 -0.025209 0.008198 -0.032320 -0.037320 0.016874 0.060554 0.009447 0.033762 -0.012884 -0.038281 -0.051142 -0.029011 -0.074952 -0.064741 0.020919 0.041091 -0.100707 0.035417 -0.015515 -0.063983 0.012473 -0.124311 -0.070835 -0.065687 -0.142351 -0.021015 0.033948 -0.030573 -0.138936 0.050765 0.112765 -0.010038 0.107059 -0.025011 0.235828 0.146310 0.227705 0.242025 0.210821 0.216393 0.286109 0.276402 0.292803 0.181323 0.193731 0.135051 -0.021696 -0.673487
0.072396 0.072899 0.074406 0.076918 0.080434 0.084953 0.090474 0.096995 0.104514 0.113029 0.122535 0.133029 0.144506 0.156958 0.170378 0.184757 0.200084 0.216347 0.233529 0.251614 0.270582 0.290410 0.311072 0.332538 0.354776 0.377748 0.401413 0.425725 0.450633 0.476082 0.502010 0.528349 0.555029 0.581969 0.609084 0.636283 0.663468 0.690532 0.717365 0.743848 0.769854 0.795253 0.819904 0.843663 0.866379 0.887894 0.908047 0.926670 0.943593 0.958642 0.971641 0.982411 0.990775 0.996555 0.999576 0.999667 0.996662 0.990402 0.980736 0.967524 0.950639 0.929967 0.905412 0.876897 0.844366 0.807785 0.767146 0.722471 0.673808 0.621239 0.564881 0.504883 0.441434 0.374761 0.305129 0.232843 0.158252 0.081740 0.003735 0.075297 0.154854 0.234398 0.313357 0.391131 0.467095 0.540602 0.610990 0.677586 0.739716 0.796709 0.847903 0.892661 0.930369 0.960454 0.982390 0.995704 0.999994 0.994928 0.980264 0.955848 0.921633 0.877678 0.824158 0.761371 0.689740 0.609814 0.522273 0.427925 0.327700 0.222652 0.113944 0.002842 0.109297 0.221040 0.330897 0.437337 0.538810 0.633771 0.720708 0.798160 0.864751 0.919214 0.960423 0.987412 0.999409 0.995856 0.976433 0.941073 0.889984 0.823651 0.742854 0.648659 0.542415 0.425749 0.300545 0.168915 0.033181 0.104174 0.240539 0.373228 0.499532 0.616775 0.722373 0.813895 0.889124 0.946121 0.983277 0.999370 0.993608 0.965675 0.915754 0.844549 0.753295 0.643747 0.518165 0.379278 0.230235 0.074547 0.083996 0.241406 0.393597 0.536493 0.666137 0.778811 0.871143 0.940225 0.983712 0.999916 0.987882 0.947449 0.879286 0.784909 0.666668 0.527710 0.371913 0.203789 0.028372 0.148925 0.322479 0.486623 0.635844 0.764965 0.869350 0.945063 0.989054 0.999285 0.974850 0.916048 0.824416 0.702725 0.554916 0.386005 0.201927 0.009344 0.184580 0.372443 0.546889 0.700898 0.828080 0.922960 0.981229 0.999968 0.977815 0.915080 0.813789 0.677655 0.511981 0.323475 0.120015 0.089679 0.296390 0.490820 0.664000 0.807730 0.914970 0.980223 0.999839 0.972256 0.898137 0.780418 0.624230 0.436720 0.226756 0.004535 0.218898 0.432182 0.624230 0.784809 0.905110 0.978259 0.999750 0.967755 0.883311 0.750350 0.575565 0.368123 0.139225 0.098481 0.331570 0.546602 0.730902 0.873328 0.964976 0.999778 0.974952 0.891263 0.753082 0.568218 0.347530 0.104333 0.146368 0.388794 0.607379 0.787781 0.917858 0.988517 0.994411 0.934392 0.811707 0.633894 0.412398 0.161864 0.100761 0.357370 0.589933 0.781779 0.918809 0.990604 0.991252 0.919916 0.781018 0.584054 0.343015 0.075455 0.198741 0.458836 0.684784 0.858805 0.966843 0.999749 0.954128 0.832761 0.644532 0.403867 0.129691 0.155989 0.429849 0.669124 0.853539 0.967071 0.999409 0.946970 0.813374 0.609301 0.351733 0.062617 0.232954 0.508891 0.740414 0.906315 0.990967 0.985871 0.890607 0.713058 0.468876 0.180186 0.126336 0.421893 0.678263 0.870526 0.979538 0.993930 0.911394 0.739115 0.493267 0.197614 0.118724 0.424071 0.687382 0.881405 0.985583 0.988325 0.888410 0.695336 0.428560 0.115644 0.210513 0.515088 0.765058 0.932819 0.999330 0.956384 0.807739 0.568969 0.265949 0.067834 0.394908 0.678013 0.884374 0.989572 0.980547 0.857355 0.633432 0.334284 0.005296 0.345194 0.644677 0.867308 0.985440 0.983785 0.861533 0.632740 0.324879 0.024327 0.371427 0.672642 0.889389 0.993332 0.970209 0.821953 0.566764 0.237022 0.124656
1.000000 1.000000 1.000000 1.000000 1.000000 1.000000 1.000000 1.000000 1.000000 1.000000 1.000000 1.000000 1.000000 1.000000 1.000000 1.000000 1.000000 1.000000 1.000000 1.000000 1.000000 1.000000 1.000000 1.000000 1.000000 1.000000 1.000000 1.000000 1.000000 1.000000 1.000000 1.000000 1.000000 1.000000 1.000000 1.000000 1.000000 1.000000 1.000000 1.000000 1.000000 1.000000 1.000000 1.000000 1.000000 1.000000 1.000000 1.000000 1.000000 1.000000 1.000000 1.000000 0.919516 0.919516 0.919516 0.911818 0.911818 0.911818 0.911818 0.911818 0.911818 0.911818 0.911818 0.911818 0.911818 0.911818 0.911818 0.911818 0.911818 0.911818 0.911818 0.911818 0.911818 0.911818 0.911818 0.911818 0.911818 0.911818 0.911818 0.911818 0.911818 0.911818 0.911818 0.911818 0.911818 0.911818 0.911818 0.911818 0.911818 0.911818 0.911818 0.911818 0.911818 0.911818 0.911818 0.911818 0.938484 0.940033 0.950506 0.950365 0.949750 0.947601 0.946451 0.946073 0.945957 0.946279 0.946984 0.947950 0.956770 0.957947 0.960783 0.962420 0.963150 0.963773 0.964399 0.964990 0.955753 0.955587 0.954269 0.953662 0.956195 0.955444 0.955377 0.956356 0.956222 0.957284 0.957138 0.956426 0.955340 0.954250 0.953318 0.952905 0.952693 0.953412 0.953809 0.955275 0.958589 0.959143 0.959256 0.959413 0.959510 0.960813 0.959523 0.959110 0.955103 0.955415 0.955053 0.955350 0.958991 0.958893 0.959440 0.959988 0.961521 0.961793 0.954478 0.952938 0.943795 0.941993 0.937672 0.931776 0.927283 0.929104 0.930781 0.931617 0.932155 0.927272 0.927281 0.924664 0.919824 0.922681 0.921756 0.922297 0.923673 0.921999 0.918691 0.918097 0.915823 0.906453 0.894338 0.893731 0.896007 0.900766 0.902347 0.901065 0.902383 0.890474 0.872331 0.858396 0.859959 0.863856 0.855447 0.853561 0.854171 0.854961 0.858536 0.853202 0.851714 0.848053 0.837950 0.827665 0.819094 0.813159 0.819541 0.815642 0.806287 0.805722 0.816627 0.808821 0.823193 0.828003 0.824804 0.824568 0.823200 0.818897 0.795644 0.794283 0.789002 0.771438 0.771913 0.770839 0.768747 0.763905 0.769835 0.755616 0.751750 0.736745 0.738450 0.742041 0.743875 0.742934 0.738341 0.742646 0.747208 0.729701 0.717565 0.703588 0.708755 0.715406 0.717604 0.714136 0.693414 0.660397 0.627661 0.647179 0.666576 0.625536 0.649561 0.660125 0.643158 0.641113 0.631451 0.632932 0.617389 0.620955 0.623437 0.628105 0.628541 0.647205 0.632097 0.623779 0.633236 0.633950 0.643628 0.638985 0.639688 0.611621 0.608329 0.632549 0.635404 0.616469 0.634979 0.623797 0.631063 0.665353 0.672676 0.639491 0.633664 0.612825 0.570756 0.565298 0.561537 0.573833 0.606076 0.581011 0.545127 0.521805 0.527235 0.548300 0.556869 0.559077 0.539686 0.541440 0.531724 0.506376 0.512528 0.527973 0.528909 0.518635 0.500341 0.508047 0.512658 0.535296 0.525370 0.481439 0.495518 0.492950 0.490072 0.440095 0.457390 0.438591 0.425877 0.383120 0.390170 0.402919 0.391887 0.332048 0.315410 0.315125 0.315332 0.313858 0.301990 0.276640 0.265357 0.251623 0.253484 0.242427 0.219848 0.219214 0.203819 0.191914 0.192782 0.153198 0.197430 0.257526 0.259179 0.259179 0.259179 0.259179 0.259179 0.259179 0.259182 0.259182 0.259182 0.259182 0.259182 0.259182 0.259182 0.259182 0.259182 0.279783 0.279783 0.279783 0.279783 0.279783 0.279783 0.279783 0.279783 0.279783 0.279783 0.279783 0.279783 0.279783 0.279783
0.000000 0.000000 0.000000 0.000000 0.000000 0.000000 0.000000 0.000000 0.000000 0.000000 0.000000 0.000000 0.000000 0.000000 0.000000 0.000000 0.000000 0.000000 0.000000 0.000000 0.000000 0.000000 0.000000 0.000000 0.000000 0.000000 0.000000 0.000000 0.000000 0.000000 0.000000 0.000000 0.000000 0.000000 0.000000 0.000000 0.000000 0.000000 0.000000 0.000000 0.000000 0.000000 0.000000 0.000000 0.000000 0.000000 0.000000 0.000000 0.000000 0.000000 0.000000 0.000000 0.180334 0.180334 0.180334 0.199007 0.199007 0.199007 0.199007 0.199007 0.199007 0.199007 0.199007 0.199007 0.199007 0.199007 0.199007 0.199007 0.199007 0.199007 0.199007 0.199007 0.199007 0.199007 0.199007 0.199007 0.199007 0.199007 0.199007 0.199007 0.199007 0.199007 0.199007 0.199007 0.199007 0.199007 0.199007 0.199007 0.199007 0.199007 0.199007 0.199007 0.199007 0.199007 0.199007 0.199007 0.225018 0.225018 0.225018 0.225018 0.225018 0.225018 0.225018 0.225018 0.225018 0.225018 0.225018 0.225018 0.225018 0.225018 0.225018 0.225018 0.225018 0.225018 0.225018 0.225018 0.225018 0.225018 0.225018 0.225018 0.225018 0.225018 0.225018 0.225018 0.225018 0.244339 0.244339 0.244339 0.244339 0.244339 0.244339 0.244339 0.244339 0.244339 0.244339 0.244339 0.244339 0.244339 0.244339 0.244339 0.244339 0.244339 0.244339 0.244339 0.244339 0.244339 0.244339 0.244339 0.251976 0.251976 0.251976 0.251976 0.251976 0.251976 0.251976 0.251976 0.251976 0.251976 0.251976 0.251976 0.251976 0.251976 0.251976 0.251976 0.251976 0.251976 0.251976 0.251976 0.264906 0.264906 0.264906 0.264906 0.264906 0.264906 0.264906 0.264906 0.264906 0.264906 0.264906 0.264906 0.264906 0.264906 0.264906 0.264906 0.264906 0.264906 0.264906 0.264906 0.264906 0.264906 0.264906 0.264906 0.264906 0.264906 0.264906 0.264906 0.264906 0.264906 0.264906 0.264906 0.264906 0.264906 0.264906 0.264906 0.264906 0.264906 0.264906 0.264906 0.264906 0.264906 0.264906 0.264906 0.264906 0.264906 0.264906 0.264906 0.264906 0.264906 0.264906 0.264906 0.264906 0.264906 0.264906 0.264906 0.264906 0.264906 0.264906 0.264906 0.264906 0.264906 0.256074 0.256074 0.256074 0.256074 0.256074 0.256074 0.256074 0.256074 0.256074 0.256074 0.256074 0.256074 0.256074 0.256074 0.269680 0.269680 0.269680 0.269680 0.269680 0.269680 0.269680 0.269680 0.269680 0.269680 0.269680 0.269680 0.264906 0.264906 0.264906 0.264906 0.264906 0.264906 0.264906 0.264906 0.264906 0.264906 0.264906 0.264906 0.269680 0.269680 0.269680 0.269680 0.269680 0.269680 0.269680 0.269680 0.269680 0.269680 0.269680 0.264906 0.264906 0.264906 0.264906 0.264906 0.264906 0.264906 0.264906 0.264906 0.264906 0.264906 0.256074 0.256074 0.256074 0.256074 0.256074 0.256074 0.256074 0.256074 0.256074 0.256074 0.256074 0.264906 0.264906 0.264906 0.264906 0.264906 0.264906 0.264906 0.264906 0.264906 0.264906 0.260378 0.260378 0.260378 0.260378 0.260378 0.260378 0.260378 0.260378 0.260378 0.260378 0.256074 0.256074 0.256074 0.256074 0.256074 0.256074 0.256074 0.256074 0.256074 0.256074 0.260378 0.260378 0.260378 0.260378 0.260378 0.260378 0.260378 0.260378 0.260378 0.256074 0.256074 0.256074 0.256074 0.256074 0.256074 0.256074 0.256074 0.256074 0.251976 0.251976 0.251976 0.251976 0.251976 0.251976 0.251976 0.251976 0.251976 0.251976 0.251976 0.251976 0.251976 0.251976
