# Output from CTFFind version 4.1.9, run on 2019-11-03 19:00:07
# Input file: stack1_bm3d_averaged_1_2.75_0_1250_half.mrc ; Number of micrographs: 1
# Pixel size: 3.000 Angstroms ; acceleration voltage: 300.0 keV ; spherical aberration: 0.00 mm ; amplitude contrast: 0.07
# Box size: 512 pixels ; min. res.: 30.0 Angstroms ; max. res.: 5.0 Angstroms ; min. def.: 5000.0 um; max. def. 50000.0 um; num. frames averaged: 1
# 6 lines per micrograph: #1 - spatial frequency (1/Angstroms); #2 - 1D rotational average of spectrum (assuming no astigmatism); #3 - 1D rotational average of spectrum; #4 - CTF fit; #5 - cross-correlation between spectrum and CTF fit; #6 - 2sigma of expected cross correlation of noise
0.000000 0.000651 0.001302 0.001953 0.002604 0.003255 0.003906 0.004557 0.005208 0.005859 0.006510 0.007161 0.007812 0.008464 0.009115 0.009766 0.010417 0.011068 0.011719 0.012370 0.013021 0.013672 0.014323 0.014974 0.015625 0.016276 0.016927 0.017578 0.018229 0.018880 0.019531 0.020182 0.020833 0.021484 0.022135 0.022786 0.023438 0.024089 0.024740 0.025391 0.026042 0.026693 0.027344 0.027995 0.028646 0.029297 0.029948 0.030599 0.031250 0.031901 0.032552 0.033203 0.033854 0.034505 0.035156 0.035807 0.036458 0.037109 0.037760 0.038411 0.039062 0.039714 0.040365 0.041016 0.041667 0.042318 0.042969 0.043620 0.044271 0.044922 0.045573 0.046224 0.046875 0.047526 0.048177 0.048828 0.049479 0.050130 0.050781 0.051432 0.052083 0.052734 0.053385 0.054036 0.054688 0.055339 0.055990 0.056641 0.057292 0.057943 0.058594 0.059245 0.059896 0.060547 0.061198 0.061849 0.062500 0.063151 0.063802 0.064453 0.065104 0.065755 0.066406 0.067057 0.067708 0.068359 0.069010 0.069661 0.070312 0.070964 0.071615 0.072266 0.072917 0.073568 0.074219 0.074870 0.075521 0.076172 0.076823 0.077474 0.078125 0.078776 0.079427 0.080078 0.080729 0.081380 0.082031 0.082682 0.083333 0.083984 0.084635 0.085286 0.085938 0.086589 0.087240 0.087891 0.088542 0.089193 0.089844 0.090495 0.091146 0.091797 0.092448 0.093099 0.093750 0.094401 0.095052 0.095703 0.096354 0.097005 0.097656 0.098307 0.098958 0.099609 0.100260 0.100911 0.101562 0.102214 0.102865 0.103516 0.104167 0.104818 0.105469 0.106120 0.106771 0.107422 0.108073 0.108724 0.109375 0.110026 0.110677 0.111328 0.111979 0.112630 0.113281 0.113932 0.114583 0.115234 0.115885 0.116536 0.117188 0.117839 0.118490 0.119141 0.119792 0.120443 0.121094 0.121745 0.122396 0.123047 0.123698 0.124349 0.125000 0.125651 0.126302 0.126953 0.127604 0.128255 0.128906 0.129557 0.130208 0.130859 0.131510 0.132161 0.132812 0.133464 0.134115 0.134766 0.135417 0.136068 0.136719 0.137370 0.138021 0.138672 0.139323 0.139974 0.140625 0.141276 0.141927 0.142578 0.143229 0.143880 0.144531 0.145182 0.145833 0.146484 0.147135 0.147786 0.148438 0.149089 0.149740 0.150391 0.151042 0.151693 0.152344 0.152995 0.153646 0.154297 0.154948 0.155599 0.156250 0.156901 0.157552 0.158203 0.158854 0.159505 0.160156 0.160807 0.161458 0.162109 0.162760 0.163411 0.164062 0.164714 0.165365 0.166016 0.166667 0.167318 0.167969 0.168620 0.169271 0.169922 0.170573 0.171224 0.171875 0.172526 0.173177 0.173828 0.174479 0.175130 0.175781 0.176432 0.177083 0.177734 0.178385 0.179036 0.179688 0.180339 0.180990 0.181641 0.182292 0.182943 0.183594 0.184245 0.184896 0.185547 0.186198 0.186849 0.187500 0.188151 0.188802 0.189453 0.190104 0.190755 0.191406 0.192057 0.192708 0.193359 0.194010 0.194661 0.195312 0.195964 0.196615 0.197266 0.197917 0.198568 0.199219 0.199870 0.200521 0.201172 0.201823 0.202474 0.203125 0.203776 0.204427 0.205078 0.205729 0.206380 0.207031 0.207682 0.208333 0.208984 0.209635 0.210286 0.210938 0.211589 0.212240 0.212891 0.213542 0.214193 0.214844 0.215495 0.216146 0.216797 0.217448 0.218099 0.218750 0.219401 0.220052 0.220703 0.221354 0.222005 0.222656 0.223307 0.223958 0.224609 0.225260 0.225911 0.226562 0.227214 0.227865 0.228516 0.229167 0.229818 0.230469 0.231120 0.231771 0.232422 0.233073 0.233724 0.234375 0.235026 0.235677
       0.34863        0.34863        0.34863        0.34863        0.34863        0.34863        0.34863        0.34863        0.34863        0.34863        0.34863        0.34863        0.34863        0.34863        0.34863        0.34863        0.34863        0.34863        0.34863        0.34863        0.34863        0.34863        0.34863        0.34863        0.34863        0.34863        0.34863        0.34863        0.34863        0.34863        0.34863        0.34863        0.34863        0.34863        0.34863        0.34863        0.34863        0.34863        0.34863        0.34863        0.34863        0.34863        0.34863        0.34863        0.34863        0.34863        0.34863        0.34863        0.34863        0.34863        0.34863        0.50223        0.71625        0.42568        0.21639       -0.04331       -0.22896       -0.04503       -0.10364       -0.06180        0.01975       -0.11786       -0.09227       -0.03376       -0.01423       -0.12636       -0.15901       -0.29085       -0.46054       -0.56691       -0.50168       -0.44744       -0.35482       -0.55452       -0.41491       -0.55713       -0.45845       -0.46755       -0.36580       -0.33964       -0.30005       -0.21075       -0.12214       -0.12230        0.02514        0.00597        0.15854        0.19111        0.33482        0.43275        0.51031        0.55899        0.56922        0.58892        0.70813        0.65641        0.68430        0.59212        0.55306        0.64054        0.51394        0.46518        0.41913        0.31481        0.27788        0.30254        0.26506        0.11306        0.09365       -0.00772        0.02058        0.04902        0.01172        0.09957        0.13994        0.22277        0.29397        0.29873        0.42620        0.57406        0.57056        0.57423        0.67148        0.65425        0.63182        0.68443        0.65230        0.55073        0.55342        0.42235        0.36156        0.27332        0.18790        0.11650        0.15333        0.12773        0.14190        0.13553        0.22908        0.23736        0.32361        0.36634        0.41816        0.51313        0.53756        0.56348        0.57091        0.60447        0.55901        0.49368        0.49188        0.35645        0.28293        0.27779        0.25814        0.18129        0.17345        0.19016        0.23572        0.27459        0.36349        0.40070        0.42257        0.45554        0.46096        0.48385        0.44719        0.49657        0.44853        0.38883        0.35938        0.36365        0.32938        0.30027        0.22780        0.24150        0.23472        0.27928        0.28616        0.37127        0.40940        0.38581        0.42912        0.45306        0.45160        0.44661        0.45601        0.37182        0.36400        0.29976        0.25908        0.30427        0.29399        0.32487        0.33765        0.36672        0.35459        0.42913        0.41633        0.45338        0.41129        0.44107        0.39483        0.36841        0.31698        0.29926        0.30060        0.28746        0.29560        0.35254        0.36447        0.36104        0.37256        0.36637        0.36797        0.43475        0.41305        0.37946        0.35580        0.31680        0.30521        0.34964        0.32249        0.34577        0.30934        0.33097        0.36259        0.39036        0.36989        0.34398        0.34554        0.35593        0.33309        0.31317        0.34108        0.32824        0.35008        0.33974        0.35059        0.37876        0.33271        0.32950        0.34932        0.31730        0.29155        0.28657        0.29372        0.32194        0.34205        0.36922        0.31338        0.31721        0.34263        0.31312        0.33537        0.30777        0.31547        0.30848        0.30374        0.30649        0.34008        0.33483        0.34541        0.33737        0.37227        0.36291        0.32956        0.34178        0.34296        0.26065        0.28151        0.34302        0.28488        0.30758        0.36655        0.33834        0.34112        0.37096        0.33883        0.28043        0.27406        0.31291        0.35126        0.37199        0.36290        0.32383        0.30909        0.30272        0.30913        0.27617        0.31479        0.30596        0.34261        0.33372        0.31481        0.29067        0.34642        0.34384        0.34260        0.29666        0.29390        0.35326        0.40359        0.36479        0.35842        0.34142        0.30719        0.31681        0.30955        0.31176        0.31008        0.21645        0.26581        0.33136        0.31318        0.30981        0.29885        0.25999        0.23153        0.24242        0.30510        0.32257        0.30273        0.28677        0.31314        0.39564        0.32232        0.24299        0.32475        0.29668        0.26521        0.29833        0.36598        0.32058        0.32434        0.30373        0.26530        0.29992        0.31562        0.24895        0.20250        0.25881        0.25807        0.21628        0.31350        0.26577        0.35737        0.30966        0.25366        0.24377        0.21085        0.29093        0.32103        0.25305        0.15778        0.19037        0.29089        0.25146        0.28246        0.12612        0.12492       -0.52306       -1.12605
2.691292 2.663063 2.634986 2.607060 2.579286 2.551662 2.524190 2.496869 2.469700 2.442681 2.415814 2.389098 2.362533 2.336119 2.309857 2.283746 2.257786 2.231977 2.206319 2.180813 2.155458 2.130254 2.105202 2.080300 2.055550 2.030951 2.006503 1.982207 1.958062 1.934068 1.910225 1.886533 1.862993 1.839604 1.816366 1.793279 1.770343 1.747559 1.724926 1.702444 1.680114 1.657934 1.635906 1.614029 1.592303 1.570729 1.549306 1.528034 1.506913 1.485943 1.465125 1.512908 1.836435 1.495511 1.244586 0.960894 0.558548 0.924227 0.665679 0.847988 0.913047 0.638112 0.678049 0.797869 0.790040 0.625351 0.599222 0.408936 0.102812 0.045962 0.048256 0.048433 0.314580 -0.044948 0.066096 -0.062139 0.017710 -0.020332 0.094566 0.091718 0.145935 0.192348 0.325143 0.271911 0.460823 0.380866 0.590984 0.559045 0.784792 0.811004 0.916138 1.007822 0.961497 0.986496 1.123792 0.969996 1.146251 0.928291 0.876944 0.978501 0.831104 0.782997 0.675471 0.556933 0.504125 0.482536 0.503868 0.265637 0.212704 0.148076 0.029323 0.199232 0.015229 0.129557 0.224255 0.256097 0.322623 0.349713 0.464192 0.570981 0.700432 0.534860 0.737904 0.796433 0.614113 0.753821 0.701697 0.610621 0.497988 0.485506 0.310755 0.231964 0.101575 0.010160 0.001126 0.029101 -0.046917 -0.026272 0.086030 0.062491 0.121337 0.215308 0.250440 0.356695 0.408057 0.418285 0.478267 0.427888 0.471819 0.341643 0.334845 0.252686 0.079593 0.067234 0.035727 -0.040783 -0.065717 -0.077968 -0.011001 -0.032083 0.100923 0.143277 0.169309 0.239436 0.229713 0.251344 0.285795 0.236990 0.254081 0.208259 0.126185 0.105957 0.097283 0.038288 0.012467 -0.089742 -0.017267 0.002180 0.024001 0.015730 0.134508 0.122277 0.144117 0.176230 0.267055 0.156226 0.230613 0.104651 0.148436 0.038294 -0.039623 0.015457 -0.002777 0.016987 0.021441 0.079100 0.063370 0.084371 0.169304 0.142644 0.136851 0.102442 0.153964 0.052412 0.050412 -0.023993 -0.033059 -0.026402 -0.052292 -0.016690 0.051423 0.067135 0.016983 0.046925 0.084060 0.060772 0.157185 0.067637 0.079665 0.041989 -0.042240 0.018455 0.032193 -0.012090 0.047924 -0.005528 0.016868 0.042823 0.063503 0.050606 0.025156 -0.014800 0.056048 -0.020310 0.005876 0.020761 -0.008913 0.057225 0.031041 0.033689 0.046829 0.015934 0.013001 0.025867 -0.012221 -0.049558 -0.022973 -0.020661 -0.001604 0.035376 0.076260 -0.017267 0.024411 0.085833 -0.020761 0.066775 0.034372 0.026797 0.022613 0.041645 0.034400 0.067361 0.041355 0.101279 0.078114 0.126769 0.103743 0.073222 0.112800 0.056604 -0.022127 0.038240 0.093205 0.012236 0.068316 0.112759 0.006381 0.082506 0.084247 0.029364 0.000595 -0.059805 0.049441 0.085792 0.095142 0.068295 0.051495 -0.012439 0.026046 0.029252 -0.042313 0.048131 0.036107 0.064177 0.092386 -0.006422 0.003577 0.083394 0.031684 0.017205 -0.011375 -0.026801 0.099055 0.112600 0.061906 0.038633 0.044785 -0.000898 0.003796 0.006583 -0.022925 0.016027 -0.145240 -0.016079 0.030132 0.031688 -0.012302 -0.032600 -0.031832 -0.067522 -0.018696 -0.006589 0.068456 0.017766 0.022808 0.033310 0.160412 0.050182 -0.021523 0.070753 0.038563 0.016099 0.036965 0.148825 0.075068 0.057547 0.069882 0.014325 0.039379 0.084794 -0.012820 -0.101037 0.018143 0.013717 -0.041447 0.085135 -0.021552 0.187204 0.037136 0.011233 -0.007344 -0.033098 0.024167 0.090753 0.302852 0.177054 0.237368 0.368981 0.289830 0.338005 0.038108 0.152915 -1.333337
0.072396 0.072910 0.074451 0.077020 0.080616 0.085237 0.090882 0.097550 0.105239 0.113945 0.123665 0.134394 0.146127 0.158857 0.172576 0.187273 0.202938 0.219557 0.237113 0.255589 0.274962 0.295210 0.316303 0.338211 0.360898 0.384325 0.408448 0.433218 0.458581 0.484478 0.510842 0.537604 0.564686 0.592003 0.619466 0.646977 0.674431 0.701718 0.728718 0.755306 0.781348 0.806706 0.831232 0.854774 0.877172 0.898261 0.917870 0.935827 0.951951 0.966061 0.977975 0.987508 0.994476 0.998697 0.999992 0.998187 0.993115 0.984615 0.972540 0.956753 0.937130 0.913567 0.885978 0.854296 0.818480 0.778515 0.734413 0.686218 0.634005 0.577885 0.518006 0.454554 0.387754 0.317873 0.245221 0.170147 0.093044 0.014349 0.065464 0.145879 0.226344 0.306272 0.385045 0.462018 0.536524 0.607878 0.675387 0.738352 0.796079 0.847885 0.893109 0.931118 0.961319 0.983170 0.996185 0.999950 0.994130 0.978478 0.952846 0.917194 0.871597 0.816250 0.751478 0.677734 0.595610 0.505829 0.409248 0.306854 0.199759 0.089189 0.023525 0.136960 0.249620 0.359950 0.466360 0.567246 0.661019 0.746126 0.821081 0.884495 0.935103 0.971794 0.993636 0.999911 0.990130 0.964062 0.921749 0.863523 0.790013 0.702154 0.601177 0.488613 0.366267 0.236205 0.100722 0.037694 0.176402 0.312655 0.443656 0.566615 0.678810 0.777650 0.860744 0.925960 0.971491 0.995912 0.998232 0.977940 0.935039 0.870070 0.784130 0.678860 0.556439 0.419551 0.271331 0.115313 0.044651 0.204480 0.359963 0.506875 0.641087 0.758691 0.856123 0.930278 0.978621 0.999292 0.991181 0.954005 0.888342 0.795657 0.678287 0.539410 0.382974 0.213601 0.036467 0.142849 0.318535 0.484733 0.635739 0.766196 0.871311 0.947032 0.990229 0.998841 0.971990 0.910062 0.814743 0.688998 0.537015 0.364088 0.176455 0.018918 0.214570 0.402836 0.576146 0.727335 0.849947 0.938537 0.988933 0.998453 0.966079 0.892556 0.780426 0.633972 0.459099 0.263118 0.054467 0.157634 0.363585 0.553835 0.719335 0.851980 0.945033 0.993494 0.994401 0.947040 0.853063 0.716473 0.543507 0.342385 0.122957 0.103758 0.326114 0.532429 0.711600 0.853733 0.950698 0.996646 0.988393 0.925680 0.811280 0.650937 0.453125 0.228647 0.009924 0.248919 0.474361 0.672765 0.831984 0.941965 0.995437 0.988431 0.920627 0.795479 0.620109 0.404960 0.163225 0.089928 0.338278 0.565596 0.756700 0.898517 0.980998 0.997892 0.947281 0.831828 0.658715 0.439280 0.188323 0.076843 0.337558 0.575122 0.772149 0.913869 0.989280 0.992073 0.921224 0.781208 0.581810 0.337512 0.066517 0.210581 0.472336 0.698099 0.869688 0.972893 0.998724 0.944265 0.813067 0.615027 0.365721 0.085260 0.203283 0.475747 0.708906 0.882480 0.980952 0.995031 0.922615 0.769156 0.547359 0.276216 0.020520 0.316397 0.584586 0.800324 0.943267 0.999458 0.962796 0.835792 0.629534 0.362830 0.060582 0.248461 0.534432 0.769213 0.929263 0.998044 0.967836 0.840705 0.628528 0.351995 0.038708 0.279526 0.569870 0.801874 0.950716 0.999941 0.943403 0.786147 0.544102 0.242612 0.086127 0.406441 0.683032 0.884906 0.988906 0.982501 0.865411 0.649910 0.359686 0.027363 0.309083 0.610631 0.841747 0.974661 0.992794 0.892981 0.686124 0.396168 0.057470 0.289181 0.601413 0.840498 0.976195 0.990718 0.881210 0.660410 0.355344 0.004167 0.348504 0.657240 0.881654 0.991793 0.972267 0.824569 0.567211 0.233574 0.132245 0.481222 0.765940 0.947068 0.998956
1.000000 1.000000 1.000000 1.000000 1.000000 1.000000 1.000000 1.000000 1.000000 1.000000 1.000000 1.000000 1.000000 1.000000 1.000000 1.000000 1.000000 1.000000 1.000000 1.000000 1.000000 1.000000 1.000000 1.000000 1.000000 1.000000 1.000000 1.000000 1.000000 1.000000 1.000000 1.000000 1.000000 1.000000 1.000000 1.000000 1.000000 1.000000 1.000000 1.000000 1.000000 1.000000 1.000000 1.000000 1.000000 1.000000 1.000000 1.000000 1.000000 1.000000 1.000000 1.000000 0.920101 0.920101 0.906591 0.906591 0.906591 0.906591 0.906591 0.906591 0.906591 0.906591 0.906591 0.906591 0.906591 0.906591 0.906591 0.906591 0.906591 0.906591 0.906591 0.906591 0.906591 0.906591 0.906591 0.906591 0.906591 0.906591 0.906591 0.906591 0.906591 0.906591 0.906591 0.906591 0.906591 0.906591 0.906591 0.906591 0.906591 0.906591 0.906591 0.906591 0.906591 0.906591 0.906591 0.898694 0.905306 0.908336 0.906721 0.910290 0.910690 0.908541 0.907848 0.907680 0.907992 0.908994 0.916768 0.931204 0.938629 0.942326 0.945794 0.952757 0.956006 0.955664 0.961962 0.969887 0.968613 0.968207 0.968870 0.970295 0.972425 0.971075 0.970739 0.974001 0.974649 0.973100 0.970952 0.970381 0.969811 0.969574 0.969186 0.969323 0.969595 0.970079 0.969776 0.969471 0.969610 0.969655 0.970676 0.971825 0.974110 0.975035 0.974853 0.973761 0.971876 0.973358 0.976892 0.973855 0.973765 0.973279 0.973569 0.962741 0.955222 0.955312 0.949070 0.947629 0.945409 0.943533 0.943187 0.943357 0.942412 0.943700 0.942173 0.934686 0.928895 0.913164 0.928096 0.924766 0.908925 0.893136 0.895491 0.896815 0.897199 0.895025 0.888010 0.884744 0.881790 0.883339 0.887025 0.890195 0.885537 0.879135 0.877940 0.874952 0.850672 0.828037 0.817734 0.812818 0.809928 0.810589 0.808275 0.805871 0.813797 0.806528 0.801009 0.790682 0.784044 0.756252 0.732534 0.733948 0.742010 0.745497 0.738891 0.710256 0.674195 0.688229 0.687129 0.687807 0.687351 0.678219 0.670857 0.669303 0.673914 0.664301 0.661262 0.662571 0.661650 0.669805 0.671074 0.661296 0.656235 0.640892 0.629422 0.606973 0.610357 0.627642 0.587604 0.579323 0.567050 0.556249 0.549091 0.530140 0.527434 0.523928 0.512363 0.502865 0.497599 0.501368 0.509030 0.510438 0.493902 0.516552 0.510850 0.544603 0.536523 0.522574 0.516549 0.519217 0.507769 0.488451 0.496236 0.497138 0.497886 0.530745 0.528657 0.530695 0.528134 0.520076 0.516954 0.482814 0.488370 0.505251 0.478260 0.452063 0.432343 0.429976 0.411336 0.403456 0.377777 0.362288 0.374226 0.356679 0.343963 0.324188 0.320312 0.243704 0.203286 0.190259 0.186682 0.195476 0.231774 0.239418 0.220159 0.244613 0.290487 0.279774 0.267364 0.251916 0.224621 0.186748 0.185908 0.187042 0.143443 0.146092 0.130135 0.122391 0.122194 0.096616 0.111361 0.039961 0.001820 0.009387 0.027721 0.068683 0.064485 0.072328 0.046687 0.051335 0.044192 0.011687 0.026049 0.040443 0.014415 0.013470 0.036338 0.061025 0.066615 -0.013906 0.016229 0.051550 0.068686 0.059404 0.055433 0.087336 0.112982 0.116174 0.122251 0.120457 0.097632 0.089729 0.084428 0.047426 0.058470 -0.007972 -0.033564 -0.033564 -0.042053 -0.042053 -0.042053 -0.042053 -0.042053 -0.042053 -0.042053 -0.042053 -0.042053 -0.047012 -0.047012 -0.047012 -0.047012 -0.047012 -0.047012 -0.047012 -0.047012 -0.047012 -0.005002 -0.005002 -0.005002 -0.005002 -0.005002 -0.005002 -0.005002 -0.005002 -0.005002
0.000000 0.000000 0.000000 0.000000 0.000000 0.000000 0.000000 0.000000 0.000000 0.000000 0.000000 0.000000 0.000000 0.000000 0.000000 0.000000 0.000000 0.000000 0.000000 0.000000 0.000000 0.000000 0.000000 0.000000 0.000000 0.000000 0.000000 0.000000 0.000000 0.000000 0.000000 0.000000 0.000000 0.000000 0.000000 0.000000 0.000000 0.000000 0.000000 0.000000 0.000000 0.000000 0.000000 0.000000 0.000000 0.000000 0.000000 0.000000 0.000000 0.000000 0.000000 0.000000 0.181818 0.181818 0.199007 0.199007 0.199007 0.199007 0.199007 0.199007 0.199007 0.199007 0.199007 0.199007 0.199007 0.199007 0.199007 0.199007 0.199007 0.199007 0.199007 0.199007 0.199007 0.199007 0.199007 0.199007 0.199007 0.199007 0.199007 0.199007 0.199007 0.199007 0.199007 0.199007 0.199007 0.199007 0.199007 0.199007 0.199007 0.199007 0.199007 0.199007 0.199007 0.199007 0.199007 0.230940 0.230940 0.230940 0.230940 0.230940 0.230940 0.230940 0.230940 0.230940 0.230940 0.230940 0.230940 0.230940 0.230940 0.230940 0.230940 0.230940 0.230940 0.230940 0.230940 0.230940 0.230940 0.230940 0.230940 0.230940 0.230940 0.230940 0.230940 0.244339 0.244339 0.244339 0.244339 0.244339 0.244339 0.244339 0.244339 0.244339 0.244339 0.244339 0.244339 0.244339 0.244339 0.244339 0.244339 0.244339 0.244339 0.244339 0.244339 0.244339 0.244339 0.244339 0.251976 0.251976 0.251976 0.251976 0.251976 0.251976 0.251976 0.251976 0.251976 0.251976 0.251976 0.251976 0.251976 0.251976 0.251976 0.251976 0.251976 0.251976 0.251976 0.251976 0.264906 0.264906 0.264906 0.264906 0.264906 0.264906 0.264906 0.264906 0.264906 0.264906 0.264906 0.264906 0.264906 0.264906 0.264906 0.264906 0.264906 0.264906 0.264906 0.264906 0.264906 0.264906 0.264906 0.264906 0.264906 0.264906 0.264906 0.264906 0.264906 0.264906 0.264906 0.264906 0.264906 0.264906 0.264906 0.264906 0.264906 0.264906 0.264906 0.264906 0.264906 0.264906 0.264906 0.264906 0.264906 0.264906 0.264906 0.264906 0.264906 0.264906 0.264906 0.264906 0.264906 0.264906 0.264906 0.264906 0.264906 0.264906 0.264906 0.264906 0.264906 0.264906 0.264906 0.264906 0.264906 0.264906 0.264906 0.264906 0.264906 0.264906 0.264906 0.264906 0.264906 0.264906 0.264906 0.269680 0.269680 0.269680 0.269680 0.269680 0.269680 0.269680 0.269680 0.269680 0.269680 0.269680 0.269680 0.264906 0.264906 0.264906 0.264906 0.264906 0.264906 0.264906 0.264906 0.264906 0.264906 0.264906 0.264906 0.269680 0.269680 0.269680 0.269680 0.269680 0.269680 0.269680 0.269680 0.269680 0.269680 0.269680 0.264906 0.264906 0.264906 0.264906 0.264906 0.264906 0.264906 0.264906 0.264906 0.264906 0.264906 0.256074 0.256074 0.256074 0.256074 0.256074 0.256074 0.256074 0.256074 0.256074 0.256074 0.256074 0.264906 0.264906 0.264906 0.264906 0.264906 0.264906 0.264906 0.264906 0.264906 0.264906 0.269680 0.269680 0.269680 0.269680 0.269680 0.269680 0.269680 0.269680 0.269680 0.256074 0.256074 0.256074 0.256074 0.256074 0.256074 0.256074 0.256074 0.256074 0.256074 0.260378 0.260378 0.260378 0.260378 0.260378 0.260378 0.260378 0.260378 0.260378 0.256074 0.256074 0.256074 0.256074 0.256074 0.256074 0.256074 0.256074 0.256074 0.251976 0.251976 0.251976 0.251976 0.251976 0.251976 0.251976 0.251976 0.251976 0.264906 0.264906 0.264906 0.264906 0.264906 0.264906 0.264906 0.264906 0.264906
