# Output from CTFFind version 4.1.9, run on 2019-11-02 17:43:40
# Input file: stack16_bm3d_averaged_1_1.25_0_50_half.mrc ; Number of micrographs: 1
# Pixel size: 3.000 Angstroms ; acceleration voltage: 300.0 keV ; spherical aberration: 0.00 mm ; amplitude contrast: 0.07
# Box size: 512 pixels ; min. res.: 30.0 Angstroms ; max. res.: 5.0 Angstroms ; min. def.: 5000.0 um; max. def. 50000.0 um; num. frames averaged: 1
# 6 lines per micrograph: #1 - spatial frequency (1/Angstroms); #2 - 1D rotational average of spectrum (assuming no astigmatism); #3 - 1D rotational average of spectrum; #4 - CTF fit; #5 - cross-correlation between spectrum and CTF fit; #6 - 2sigma of expected cross correlation of noise
0.000000 0.000651 0.001302 0.001953 0.002604 0.003255 0.003906 0.004557 0.005208 0.005859 0.006510 0.007161 0.007812 0.008464 0.009115 0.009766 0.010417 0.011068 0.011719 0.012370 0.013021 0.013672 0.014323 0.014974 0.015625 0.016276 0.016927 0.017578 0.018229 0.018880 0.019531 0.020182 0.020833 0.021484 0.022135 0.022786 0.023438 0.024089 0.024740 0.025391 0.026042 0.026693 0.027344 0.027995 0.028646 0.029297 0.029948 0.030599 0.031250 0.031901 0.032552 0.033203 0.033854 0.034505 0.035156 0.035807 0.036458 0.037109 0.037760 0.038411 0.039062 0.039714 0.040365 0.041016 0.041667 0.042318 0.042969 0.043620 0.044271 0.044922 0.045573 0.046224 0.046875 0.047526 0.048177 0.048828 0.049479 0.050130 0.050781 0.051432 0.052083 0.052734 0.053385 0.054036 0.054688 0.055339 0.055990 0.056641 0.057292 0.057943 0.058594 0.059245 0.059896 0.060547 0.061198 0.061849 0.062500 0.063151 0.063802 0.064453 0.065104 0.065755 0.066406 0.067057 0.067708 0.068359 0.069010 0.069661 0.070312 0.070964 0.071615 0.072266 0.072917 0.073568 0.074219 0.074870 0.075521 0.076172 0.076823 0.077474 0.078125 0.078776 0.079427 0.080078 0.080729 0.081380 0.082031 0.082682 0.083333 0.083984 0.084635 0.085286 0.085938 0.086589 0.087240 0.087891 0.088542 0.089193 0.089844 0.090495 0.091146 0.091797 0.092448 0.093099 0.093750 0.094401 0.095052 0.095703 0.096354 0.097005 0.097656 0.098307 0.098958 0.099609 0.100260 0.100911 0.101562 0.102214 0.102865 0.103516 0.104167 0.104818 0.105469 0.106120 0.106771 0.107422 0.108073 0.108724 0.109375 0.110026 0.110677 0.111328 0.111979 0.112630 0.113281 0.113932 0.114583 0.115234 0.115885 0.116536 0.117188 0.117839 0.118490 0.119141 0.119792 0.120443 0.121094 0.121745 0.122396 0.123047 0.123698 0.124349 0.125000 0.125651 0.126302 0.126953 0.127604 0.128255 0.128906 0.129557 0.130208 0.130859 0.131510 0.132161 0.132812 0.133464 0.134115 0.134766 0.135417 0.136068 0.136719 0.137370 0.138021 0.138672 0.139323 0.139974 0.140625 0.141276 0.141927 0.142578 0.143229 0.143880 0.144531 0.145182 0.145833 0.146484 0.147135 0.147786 0.148438 0.149089 0.149740 0.150391 0.151042 0.151693 0.152344 0.152995 0.153646 0.154297 0.154948 0.155599 0.156250 0.156901 0.157552 0.158203 0.158854 0.159505 0.160156 0.160807 0.161458 0.162109 0.162760 0.163411 0.164062 0.164714 0.165365 0.166016 0.166667 0.167318 0.167969 0.168620 0.169271 0.169922 0.170573 0.171224 0.171875 0.172526 0.173177 0.173828 0.174479 0.175130 0.175781 0.176432 0.177083 0.177734 0.178385 0.179036 0.179688 0.180339 0.180990 0.181641 0.182292 0.182943 0.183594 0.184245 0.184896 0.185547 0.186198 0.186849 0.187500 0.188151 0.188802 0.189453 0.190104 0.190755 0.191406 0.192057 0.192708 0.193359 0.194010 0.194661 0.195312 0.195964 0.196615 0.197266 0.197917 0.198568 0.199219 0.199870 0.200521 0.201172 0.201823 0.202474 0.203125 0.203776 0.204427 0.205078 0.205729 0.206380 0.207031 0.207682 0.208333 0.208984 0.209635 0.210286 0.210938 0.211589 0.212240 0.212891 0.213542 0.214193 0.214844 0.215495 0.216146 0.216797 0.217448 0.218099 0.218750 0.219401 0.220052 0.220703 0.221354 0.222005 0.222656 0.223307 0.223958 0.224609 0.225260 0.225911 0.226562 0.227214 0.227865 0.228516 0.229167 0.229818 0.230469 0.231120 0.231771 0.232422 0.233073 0.233724 0.234375 0.235026 0.235677
       0.33948        0.33948        0.33948        0.33948        0.33948        0.33948        0.33948        0.33948        0.33948        0.33948        0.33948        0.33948        0.33948        0.33948        0.33948        0.33948        0.33948        0.33948        0.33948        0.33948        0.33948        0.33948        0.33948        0.33948        0.33948        0.33948        0.33948        0.33948        0.33948        0.33948        0.33948        0.33948        0.33948        0.33948        0.33948        0.33948        0.33948        0.33948        0.33948        0.33948        0.33948        0.33948        0.33948        0.33948        0.33948        0.33948        0.33948        0.33948        0.33948        0.33948        0.33948        0.48582        0.69760        0.45396       -0.11679       -0.41512       -0.57595       -0.66831       -0.74819       -0.76655       -0.87343       -0.92001       -0.76180       -0.92847       -0.87594       -1.02775       -1.10287       -0.99210       -0.96709       -0.88674       -0.85945       -0.75178       -0.64419       -0.50366       -0.42848       -0.22297       -0.11808       -0.02375        0.20051        0.24102        0.30535        0.37762        0.43245        0.51141        0.57517        0.59348        0.58597        0.49666        0.54127        0.48311        0.39117        0.31888        0.20015        0.16610        0.09583       -0.06019       -0.11121       -0.09428        0.00942       -0.01785        0.01585        0.02379        0.20344        0.21542        0.38854        0.45244        0.55638        0.69124        0.75588        0.73050        0.69884        0.69323        0.57738        0.53326        0.39570        0.26945        0.19096        0.14471        0.06614        0.02663        0.02093        0.06221        0.07512        0.26966        0.41466        0.50518        0.58698        0.63543        0.69734        0.65409        0.64820        0.66642        0.60401        0.47904        0.28324        0.23647        0.20445        0.12490        0.03802        0.08830        0.11509        0.24668        0.34035        0.41323        0.49967        0.53547        0.65546        0.60346        0.55068        0.51146        0.35834        0.20651        0.21083        0.15118        0.11745        0.12189        0.21337        0.24881        0.35124        0.43784        0.43468        0.55104        0.50345        0.44987        0.45539        0.37615        0.32074        0.27028        0.21004        0.23016        0.20870        0.20088        0.31331        0.44944        0.48015        0.48083        0.55152        0.49273        0.45087        0.39222        0.29518        0.22524        0.23021        0.23635        0.26126        0.27657        0.32490        0.44013        0.49792        0.48548        0.45815        0.41081        0.38602        0.35908        0.24823        0.21883        0.24309        0.29067        0.35534        0.35785        0.38530        0.41095        0.43789        0.37005        0.34553        0.31264        0.30632        0.26773        0.25500        0.29947        0.34344        0.41034        0.41346        0.39040        0.38990        0.39904        0.34380        0.28472        0.29242        0.28278        0.30431        0.35494        0.37138        0.41606        0.35326        0.36257        0.38394        0.34180        0.31373        0.28004        0.29062        0.33626        0.32145        0.31897        0.36619        0.38560        0.32671        0.34910        0.30001        0.30612        0.28172        0.28039        0.29739        0.32736        0.38231        0.36227        0.34237        0.32104        0.28083        0.27210        0.29364        0.28108        0.31216        0.36303        0.39153        0.33198        0.31666        0.30489        0.29780        0.28624        0.28133        0.29978        0.33590        0.33537        0.33638        0.31298        0.34654        0.31660        0.28748        0.31212        0.31752        0.33511        0.34424        0.31665        0.30893        0.29759        0.32348        0.30788        0.33345        0.38240        0.32355        0.35911        0.31337        0.30491        0.29043        0.30651        0.28999        0.30410        0.31192        0.34357        0.35293        0.30617        0.31874        0.31573        0.29366        0.28784        0.29329        0.32190        0.34454        0.35045        0.32712        0.31483        0.26331        0.25452        0.31337        0.34087        0.32380        0.29595        0.27491        0.28359        0.32456        0.31180        0.30956        0.33417        0.33541        0.29997        0.23749        0.28621        0.28293        0.28159        0.32333        0.32086        0.34202        0.33856        0.28358        0.27081        0.29411        0.27443        0.29478        0.27211        0.25239        0.25485        0.25432        0.28243        0.29083        0.27817        0.25918        0.31859        0.31799        0.30465        0.26946        0.28013        0.23905        0.25763        0.24970        0.32327        0.35331        0.22871        0.24149        0.26642        0.23486        0.23638        0.29922        0.22374        0.14079        0.17751        0.22711        0.26379        0.21029        0.10865        0.08227       -0.42029       -0.80481
3.170466 3.130571 3.090934 3.051555 3.012434 2.973571 2.934967 2.896620 2.858532 2.820702 2.783130 2.745816 2.708761 2.671963 2.635424 2.599143 2.563120 2.527355 2.491848 2.456600 2.421610 2.386878 2.352404 2.318188 2.284230 2.250530 2.217089 2.183906 2.150981 2.118314 2.085905 2.053755 2.021862 1.990228 1.958852 1.927734 1.896874 1.866273 1.835929 1.805844 1.776017 1.746448 1.717137 1.688084 1.659290 1.630754 1.602475 1.574455 1.546693 1.519190 1.491944 1.551357 1.734563 1.650405 0.991381 0.708843 0.498481 0.447092 0.341829 0.280156 0.215630 0.031554 0.212374 0.093527 0.001014 -0.047562 -0.194545 -0.146555 -0.085058 -0.086328 -0.088770 0.017276 0.036800 0.239542 0.153732 0.369351 0.453008 0.486341 0.722901 0.706625 0.714820 0.842055 0.824461 0.856973 0.925932 0.898866 0.941609 0.752869 0.837640 0.841589 0.625829 0.603971 0.451466 0.431894 0.374648 0.207260 0.116438 0.090773 0.201425 0.136770 0.193923 0.103449 0.297979 0.278707 0.449965 0.405258 0.574015 0.632492 0.751421 0.693157 0.654170 0.653411 0.517511 0.492338 0.351687 0.281481 0.104741 0.132508 -0.009653 -0.023015 -0.053210 -0.041739 -0.017868 0.016196 0.265169 0.317249 0.374629 0.387014 0.452715 0.478370 0.437990 0.482770 0.374573 0.369207 0.128426 0.048898 0.051651 -0.031114 -0.154732 -0.070732 -0.139441 -0.009121 0.113177 0.135442 0.234436 0.235853 0.359766 0.439019 0.325090 0.372440 0.257144 0.099366 0.025466 0.026445 -0.006461 -0.019368 -0.014838 0.085609 0.099203 0.241458 0.215347 0.282128 0.340642 0.226982 0.236027 0.203877 0.115472 0.069500 0.030471 0.013374 0.026391 -0.030720 0.010189 0.173246 0.214798 0.236610 0.276916 0.239065 0.249966 0.151996 0.119320 -0.010370 -0.007274 0.002872 0.022041 0.022667 0.041021 0.116201 0.206461 0.217734 0.220334 0.134580 0.145350 0.080309 0.062451 -0.063634 -0.018903 -0.003375 0.057952 0.067594 0.072358 0.150388 0.091725 0.169748 0.067762 0.054051 0.046520 0.030600 0.006171 0.003477 0.048098 0.086823 0.127907 0.135884 0.072008 0.125603 0.095792 0.012738 0.010700 0.008690 -0.000480 0.051185 0.061582 0.105170 0.101404 0.065840 0.066310 0.077864 0.034898 0.017335 -0.015102 0.009485 0.056742 0.022009 0.036653 0.077658 0.081459 0.054749 0.035928 0.017380 0.016059 -0.008537 -0.007842 0.012051 0.055795 0.108751 0.060207 0.056218 0.036757 -0.013626 -0.004025 0.017480 0.014657 0.029209 0.104942 0.059848 0.019423 0.045828 0.001211 0.029738 -0.007705 0.003666 0.023720 0.059671 0.044599 0.039853 0.027838 0.055501 0.022602 -0.003017 0.030589 0.037988 0.044993 0.044627 0.028114 -0.004486 -0.013181 0.028939 0.005296 0.048774 0.070777 0.039925 0.029111 0.002155 0.000443 -0.005002 0.010345 0.003845 0.008824 -0.004776 0.078516 0.044982 0.030329 0.042668 0.003643 0.012847 0.004625 -0.000880 0.048496 0.067303 0.078092 0.043397 0.044688 -0.023150 0.000873 0.035672 0.070130 0.037592 0.033612 -0.004705 0.003585 0.050989 0.053474 0.034660 0.067378 0.059252 0.039705 -0.028528 0.016491 0.041310 0.015065 0.042770 0.073555 0.079038 0.061379 0.018729 0.008844 0.015518 0.003309 0.031027 -0.023823 -0.013295 -0.026605 -0.044286 0.003757 0.000923 0.006200 -0.071472 0.016029 0.007816 -0.006109 -0.048169 0.006600 -0.091684 -0.032997 -0.047095 0.027736 0.071120 -0.109402 -0.038973 0.025039 -0.008236 -0.054276 0.040578 0.010002 -0.027996 -0.047648 0.036046 0.230845 0.190387 0.045542 0.076409 -0.713295
0.072396 0.073046 0.074994 0.078241 0.082785 0.088625 0.095759 0.104183 0.113894 0.124887 0.137155 0.150690 0.165481 0.181516 0.198780 0.217254 0.236916 0.257740 0.279696 0.302749 0.326857 0.351974 0.378046 0.405013 0.432806 0.461350 0.490560 0.520341 0.550591 0.581194 0.612027 0.642955 0.673831 0.704498 0.734787 0.764517 0.793496 0.821523 0.848383 0.873854 0.897702 0.919686 0.939558 0.957064 0.971944 0.983938 0.992784 0.998222 0.999997 0.997861 0.991576 0.980917 0.965678 0.945672 0.920738 0.890743 0.855587 0.815208 0.769584 0.718740 0.662750 0.601741 0.535897 0.465464 0.390749 0.312124 0.230030 0.144975 0.057531 0.031658 0.121890 0.212395 0.302353 0.390889 0.477087 0.559995 0.638636 0.712021 0.779158 0.839072 0.890812 0.933477 0.966223 0.988290 0.999014 0.997846 0.984373 0.958332 0.919626 0.868342 0.804758 0.729359 0.642838 0.546106 0.440286 0.326713 0.206921 0.082633 0.044260 0.171723 0.297607 0.419682 0.535675 0.643316 0.740382 0.824749 0.894442 0.947686 0.982961 0.999053 0.995094 0.970612 0.925564 0.860363 0.775899 0.673544 0.555151 0.423037 0.279949 0.129024 0.026271 0.182211 0.334899 0.480359 0.614644 0.733940 0.834695 0.913724 0.968325 0.996391 0.996499 0.967992 0.911046 0.826703 0.716887 0.584392 0.432831 0.266566 0.090599 0.089565 0.268076 0.438930 0.596170 0.734101 0.847502 0.931852 0.983522 0.999959 0.979833 0.923148 0.831307 0.707119 0.554760 0.379661 0.188352 0.011765 0.212680 0.406090 0.583740 0.737788 0.861161 0.947911 0.993530 0.995216 0.952082 0.865274 0.738011 0.575520 0.384860 0.174671 0.045202 0.264135 0.471243 0.655916 0.808379 0.920240 0.984987 0.998410 0.958923 0.867757 0.728998 0.549480 0.338500 0.107394 0.131045 0.363246 0.575633 0.755429 0.891454 0.974857 0.999755 0.963700 0.867963 0.717593 0.521228 0.290679 0.040272 0.214006 0.455501 0.667985 0.836773 0.949779 0.998444 0.978451 0.890182 0.738852 0.534304 0.290455 0.024413 0.244664 0.496935 0.713343 0.877082 0.974962 0.998550 0.944981 0.817369 0.624757 0.381583 0.106691 0.178068 0.449532 0.685115 0.864717 0.972495 0.998356 0.939002 0.798428 0.587805 0.324706 0.031753 0.265271 0.539660 0.766184 0.923473 0.996104 0.976234 0.864563 0.670528 0.411639 0.112050 0.199635 0.493022 0.738900 0.912198 0.994628 0.976744 0.859160 0.652772 0.377917 0.062511 0.260699 0.557478 0.795752 0.949127 0.999938 0.941422 0.778776 0.528895 0.218794 0.117172 0.441045 0.715534 0.908347 0.996109 0.967339 0.824137 0.582288 0.269716 0.076570 0.414772 0.703308 0.905980 0.996627 0.962668 0.807045 0.548251 0.218334 0.140889 0.483045 0.763167 0.943678 0.999566 0.922058 0.720191 0.420046 0.061570 0.306566 0.633506 0.873268 0.991323 0.969755 0.810217 0.534164 0.180219 0.201021 0.554128 0.826876 0.978083 0.984010 0.842335 0.573011 0.215738 0.175667 0.541247 0.824067 0.979203 0.981060 0.827877 0.542549 0.169497 0.232000 0.597105 0.865900 0.993338 0.957042 0.761522 0.438021 0.039811 0.366319 0.711215 0.935156 0.998394 0.888482 0.623053 0.247362 0.173155 0.564085 0.855193 0.993167 0.951652 0.736624 0.385975 0.036841 0.454008 0.787643 0.974390 0.977714 0.795397 0.460658 0.036506 0.395875 0.752502 0.963016 0.984792 0.811919 0.477133 0.046033 0.395491 0.758202 0.967665 0.979756 0.790346 0.436958 0.008250 0.452897 0.803456 0.985013 0.957576 0.725318 0.336513 0.126034 0.562369
1.000000 1.000000 1.000000 1.000000 1.000000 1.000000 1.000000 1.000000 1.000000 1.000000 1.000000 1.000000 1.000000 1.000000 1.000000 1.000000 1.000000 1.000000 1.000000 1.000000 1.000000 1.000000 1.000000 1.000000 1.000000 1.000000 1.000000 1.000000 1.000000 1.000000 1.000000 1.000000 1.000000 1.000000 1.000000 1.000000 1.000000 1.000000 1.000000 1.000000 1.000000 1.000000 1.000000 1.000000 1.000000 1.000000 1.000000 1.000000 1.000000 1.000000 1.000000 1.000000 0.941609 0.941609 0.941609 0.941609 0.941609 0.941609 0.941609 0.941609 0.941609 0.941609 0.941609 0.941609 0.941609 0.941609 0.941609 0.941609 0.941609 0.941609 0.941609 0.941609 0.941609 0.941609 0.941609 0.941609 0.941609 0.941609 0.941609 0.941609 0.941609 0.941609 0.941609 0.941609 0.941609 0.923059 0.924530 0.927502 0.928575 0.928537 0.928079 0.927758 0.927967 0.929674 0.931986 0.948631 0.950785 0.951463 0.952765 0.952287 0.955030 0.953807 0.956738 0.965521 0.964432 0.964845 0.965383 0.966889 0.967268 0.967249 0.965872 0.966169 0.965750 0.964884 0.964015 0.963704 0.963408 0.965045 0.965391 0.965338 0.965779 0.965571 0.965266 0.961738 0.960369 0.961696 0.963457 0.962995 0.969098 0.969300 0.977927 0.978683 0.977187 0.977079 0.977187 0.977314 0.969341 0.964975 0.960511 0.949534 0.941214 0.938332 0.940477 0.941092 0.939594 0.934564 0.933752 0.931977 0.927878 0.927164 0.926462 0.927731 0.922258 0.918438 0.901010 0.899491 0.902079 0.902269 0.900285 0.892227 0.887764 0.889205 0.892170 0.895344 0.892736 0.895164 0.890839 0.891958 0.892710 0.894320 0.897497 0.893857 0.891979 0.887719 0.884381 0.878537 0.879713 0.868509 0.871625 0.864163 0.853886 0.846241 0.849345 0.858464 0.866993 0.874985 0.873915 0.874427 0.873587 0.866383 0.867816 0.855904 0.856549 0.861668 0.867399 0.864567 0.862474 0.867520 0.865628 0.865992 0.868376 0.866682 0.864717 0.855333 0.856171 0.856639 0.873199 0.873206 0.862371 0.852481 0.841429 0.848472 0.852184 0.851600 0.853025 0.844682 0.846921 0.837910 0.824162 0.826803 0.832349 0.826075 0.826755 0.825887 0.830894 0.833921 0.833017 0.828677 0.827239 0.831568 0.803806 0.812037 0.813995 0.808161 0.812512 0.806824 0.799340 0.794362 0.792749 0.793659 0.801304 0.798093 0.765663 0.765232 0.772991 0.754656 0.744481 0.742686 0.744414 0.733123 0.722883 0.692841 0.685406 0.666057 0.667093 0.662415 0.638839 0.626508 0.613117 0.598373 0.610690 0.613853 0.583761 0.583924 0.573321 0.568069 0.563516 0.560526 0.557402 0.563750 0.569253 0.534677 0.529628 0.540009 0.512761 0.511410 0.511067 0.503191 0.477300 0.484175 0.482311 0.506096 0.532346 0.488392 0.480536 0.498741 0.515875 0.527365 0.528101 0.512729 0.490650 0.498894 0.476086 0.459896 0.473153 0.473497 0.461058 0.477306 0.473160 0.506889 0.498223 0.470806 0.491256 0.494351 0.496030 0.510361 0.525733 0.520180 0.523519 0.513491 0.463085 0.485554 0.474833 0.430619 0.437423 0.454763 0.445154 0.448465 0.423378 0.421401 0.396179 0.366048 0.363711 0.356497 0.317789 0.283075 0.287697 0.289920 0.257556 0.224397 0.246130 0.197644 0.188361 0.206744 0.211062 0.195687 0.201108 0.224576 0.224576 0.224576 0.224576 0.224576 0.224576 0.224576 0.224576 0.224576 0.224576 0.224576 0.224576 0.224576 0.224576 0.249903 0.249903 0.249903 0.249903 0.249903 0.249903 0.249903 0.249903 0.249903 0.249903 0.249903 0.249903
0.000000 0.000000 0.000000 0.000000 0.000000 0.000000 0.000000 0.000000 0.000000 0.000000 0.000000 0.000000 0.000000 0.000000 0.000000 0.000000 0.000000 0.000000 0.000000 0.000000 0.000000 0.000000 0.000000 0.000000 0.000000 0.000000 0.000000 0.000000 0.000000 0.000000 0.000000 0.000000 0.000000 0.000000 0.000000 0.000000 0.000000 0.000000 0.000000 0.000000 0.000000 0.000000 0.000000 0.000000 0.000000 0.000000 0.000000 0.000000 0.000000 0.000000 0.000000 0.000000 0.209657 0.209657 0.209657 0.209657 0.209657 0.209657 0.209657 0.209657 0.209657 0.209657 0.209657 0.209657 0.209657 0.209657 0.209657 0.209657 0.209657 0.209657 0.209657 0.209657 0.209657 0.209657 0.209657 0.209657 0.209657 0.209657 0.209657 0.209657 0.209657 0.209657 0.209657 0.209657 0.209657 0.244339 0.244339 0.244339 0.244339 0.244339 0.244339 0.244339 0.244339 0.244339 0.244339 0.244339 0.244339 0.244339 0.244339 0.244339 0.244339 0.244339 0.244339 0.244339 0.244339 0.244339 0.244339 0.244339 0.244339 0.244339 0.260378 0.260378 0.260378 0.260378 0.260378 0.260378 0.260378 0.260378 0.260378 0.260378 0.260378 0.260378 0.260378 0.260378 0.260378 0.260378 0.260378 0.260378 0.260378 0.260378 0.269680 0.269680 0.269680 0.269680 0.269680 0.269680 0.269680 0.269680 0.269680 0.269680 0.269680 0.269680 0.269680 0.269680 0.269680 0.269680 0.269680 0.269680 0.269680 0.269680 0.269680 0.269680 0.269680 0.269680 0.269680 0.269680 0.269680 0.269680 0.269680 0.269680 0.269680 0.269680 0.269680 0.280056 0.280056 0.280056 0.280056 0.280056 0.280056 0.280056 0.280056 0.280056 0.280056 0.280056 0.280056 0.280056 0.280056 0.280056 0.280056 0.280056 0.280056 0.280056 0.280056 0.280056 0.280056 0.280056 0.280056 0.280056 0.280056 0.280056 0.274721 0.274721 0.274721 0.274721 0.274721 0.274721 0.274721 0.274721 0.274721 0.274721 0.274721 0.274721 0.274721 0.285714 0.285714 0.285714 0.285714 0.285714 0.285714 0.285714 0.285714 0.285714 0.285714 0.285714 0.280056 0.280056 0.280056 0.280056 0.280056 0.280056 0.280056 0.280056 0.280056 0.280056 0.280056 0.274721 0.274721 0.274721 0.274721 0.274721 0.274721 0.274721 0.274721 0.274721 0.274721 0.274721 0.280056 0.280056 0.280056 0.280056 0.280056 0.280056 0.280056 0.280056 0.280056 0.280056 0.285714 0.285714 0.285714 0.285714 0.285714 0.285714 0.285714 0.285714 0.285714 0.269680 0.269680 0.269680 0.269680 0.269680 0.269680 0.269680 0.269680 0.269680 0.269680 0.274721 0.274721 0.274721 0.274721 0.274721 0.274721 0.274721 0.274721 0.274721 0.285714 0.285714 0.285714 0.285714 0.285714 0.285714 0.285714 0.285714 0.264906 0.264906 0.264906 0.264906 0.264906 0.264906 0.264906 0.264906 0.264906 0.274721 0.274721 0.274721 0.274721 0.274721 0.274721 0.274721 0.274721 0.269680 0.269680 0.269680 0.269680 0.269680 0.269680 0.269680 0.269680 0.269680 0.269680 0.269680 0.269680 0.269680 0.269680 0.269680 0.269680 0.280056 0.280056 0.280056 0.280056 0.280056 0.280056 0.280056 0.260378 0.260378 0.260378 0.260378 0.260378 0.260378 0.260378 0.260378 0.269680 0.269680 0.269680 0.269680 0.269680 0.269680 0.269680 0.264906 0.264906 0.264906 0.264906 0.264906 0.264906 0.264906 0.264906 0.264906 0.264906 0.264906 0.264906 0.264906 0.264906 0.260378 0.260378 0.260378 0.260378 0.260378 0.260378 0.260378 0.260378 0.260378 0.260378 0.260378 0.260378
