# Output from CTFFind version 4.1.9, run on 2019-11-02 17:47:04
# Input file: stack16_bm3d_averaged_1_1.25_0_1250_half.mrc ; Number of micrographs: 1
# Pixel size: 3.000 Angstroms ; acceleration voltage: 300.0 keV ; spherical aberration: 0.00 mm ; amplitude contrast: 0.07
# Box size: 512 pixels ; min. res.: 30.0 Angstroms ; max. res.: 5.0 Angstroms ; min. def.: 5000.0 um; max. def. 50000.0 um; num. frames averaged: 1
# 6 lines per micrograph: #1 - spatial frequency (1/Angstroms); #2 - 1D rotational average of spectrum (assuming no astigmatism); #3 - 1D rotational average of spectrum; #4 - CTF fit; #5 - cross-correlation between spectrum and CTF fit; #6 - 2sigma of expected cross correlation of noise
0.000000 0.000651 0.001302 0.001953 0.002604 0.003255 0.003906 0.004557 0.005208 0.005859 0.006510 0.007161 0.007812 0.008464 0.009115 0.009766 0.010417 0.011068 0.011719 0.012370 0.013021 0.013672 0.014323 0.014974 0.015625 0.016276 0.016927 0.017578 0.018229 0.018880 0.019531 0.020182 0.020833 0.021484 0.022135 0.022786 0.023438 0.024089 0.024740 0.025391 0.026042 0.026693 0.027344 0.027995 0.028646 0.029297 0.029948 0.030599 0.031250 0.031901 0.032552 0.033203 0.033854 0.034505 0.035156 0.035807 0.036458 0.037109 0.037760 0.038411 0.039062 0.039714 0.040365 0.041016 0.041667 0.042318 0.042969 0.043620 0.044271 0.044922 0.045573 0.046224 0.046875 0.047526 0.048177 0.048828 0.049479 0.050130 0.050781 0.051432 0.052083 0.052734 0.053385 0.054036 0.054688 0.055339 0.055990 0.056641 0.057292 0.057943 0.058594 0.059245 0.059896 0.060547 0.061198 0.061849 0.062500 0.063151 0.063802 0.064453 0.065104 0.065755 0.066406 0.067057 0.067708 0.068359 0.069010 0.069661 0.070312 0.070964 0.071615 0.072266 0.072917 0.073568 0.074219 0.074870 0.075521 0.076172 0.076823 0.077474 0.078125 0.078776 0.079427 0.080078 0.080729 0.081380 0.082031 0.082682 0.083333 0.083984 0.084635 0.085286 0.085938 0.086589 0.087240 0.087891 0.088542 0.089193 0.089844 0.090495 0.091146 0.091797 0.092448 0.093099 0.093750 0.094401 0.095052 0.095703 0.096354 0.097005 0.097656 0.098307 0.098958 0.099609 0.100260 0.100911 0.101562 0.102214 0.102865 0.103516 0.104167 0.104818 0.105469 0.106120 0.106771 0.107422 0.108073 0.108724 0.109375 0.110026 0.110677 0.111328 0.111979 0.112630 0.113281 0.113932 0.114583 0.115234 0.115885 0.116536 0.117188 0.117839 0.118490 0.119141 0.119792 0.120443 0.121094 0.121745 0.122396 0.123047 0.123698 0.124349 0.125000 0.125651 0.126302 0.126953 0.127604 0.128255 0.128906 0.129557 0.130208 0.130859 0.131510 0.132161 0.132812 0.133464 0.134115 0.134766 0.135417 0.136068 0.136719 0.137370 0.138021 0.138672 0.139323 0.139974 0.140625 0.141276 0.141927 0.142578 0.143229 0.143880 0.144531 0.145182 0.145833 0.146484 0.147135 0.147786 0.148438 0.149089 0.149740 0.150391 0.151042 0.151693 0.152344 0.152995 0.153646 0.154297 0.154948 0.155599 0.156250 0.156901 0.157552 0.158203 0.158854 0.159505 0.160156 0.160807 0.161458 0.162109 0.162760 0.163411 0.164062 0.164714 0.165365 0.166016 0.166667 0.167318 0.167969 0.168620 0.169271 0.169922 0.170573 0.171224 0.171875 0.172526 0.173177 0.173828 0.174479 0.175130 0.175781 0.176432 0.177083 0.177734 0.178385 0.179036 0.179688 0.180339 0.180990 0.181641 0.182292 0.182943 0.183594 0.184245 0.184896 0.185547 0.186198 0.186849 0.187500 0.188151 0.188802 0.189453 0.190104 0.190755 0.191406 0.192057 0.192708 0.193359 0.194010 0.194661 0.195312 0.195964 0.196615 0.197266 0.197917 0.198568 0.199219 0.199870 0.200521 0.201172 0.201823 0.202474 0.203125 0.203776 0.204427 0.205078 0.205729 0.206380 0.207031 0.207682 0.208333 0.208984 0.209635 0.210286 0.210938 0.211589 0.212240 0.212891 0.213542 0.214193 0.214844 0.215495 0.216146 0.216797 0.217448 0.218099 0.218750 0.219401 0.220052 0.220703 0.221354 0.222005 0.222656 0.223307 0.223958 0.224609 0.225260 0.225911 0.226562 0.227214 0.227865 0.228516 0.229167 0.229818 0.230469 0.231120 0.231771 0.232422 0.233073 0.233724 0.234375 0.235026 0.235677
       0.34323        0.34323        0.34323        0.34323        0.34323        0.34323        0.34323        0.34323        0.34323        0.34323        0.34323        0.34323        0.34323        0.34323        0.34323        0.34323        0.34323        0.34323        0.34323        0.34323        0.34323        0.34323        0.34323        0.34323        0.34323        0.34323        0.34323        0.34323        0.34323        0.34323        0.34323        0.34323        0.34323        0.34323        0.34323        0.34323        0.34323        0.34323        0.34323        0.34323        0.34323        0.34323        0.34323        0.34323        0.34323        0.34323        0.34323        0.34323        0.34323        0.34323        0.34323        0.48900        0.70141        0.45643       -0.11093       -0.41272       -0.57122       -0.66083       -0.74427       -0.76072       -0.87003       -0.91474       -0.75960       -0.92561       -0.87242       -1.02542       -1.09745       -0.98922       -0.96157       -0.88427       -0.85821       -0.74955       -0.64094       -0.49961       -0.42250       -0.21863       -0.11738       -0.02373        0.20228        0.24344        0.30897        0.38424        0.43709        0.51490        0.58073        0.59850        0.59117        0.50144        0.54703        0.48549        0.39297        0.32692        0.20623        0.17202        0.09979       -0.05916       -0.11332       -0.09044        0.01169       -0.01773        0.01357        0.02782        0.20681        0.21783        0.39088        0.45738        0.56245        0.70184        0.76269        0.73227        0.70663        0.70181        0.58437        0.54145        0.39940        0.27581        0.19606        0.14756        0.06793        0.02674        0.02337        0.06267        0.08029        0.27469        0.41776        0.50534        0.58902        0.63891        0.70389        0.65926        0.65270        0.67238        0.60895        0.48227        0.28557        0.23582        0.20481        0.12938        0.04453        0.09279        0.11661        0.25110        0.34447        0.41560        0.50235        0.54079        0.66001        0.60745        0.55337        0.50976        0.36355        0.20719        0.21077        0.15407        0.11862        0.12139        0.21465        0.25482        0.36021        0.44244        0.43832        0.56170        0.51114        0.45183        0.45569        0.38231        0.32377        0.27532        0.21515        0.23431        0.21351        0.20948        0.32097        0.45067        0.48758        0.48193        0.55224        0.49776        0.45545        0.39760        0.29564        0.22623        0.23311        0.24330        0.26596        0.27294        0.32811        0.44292        0.50176        0.49006        0.46041        0.41685        0.38875        0.36231        0.25006        0.22631        0.24897        0.29461        0.35606        0.36335        0.39246        0.41058        0.44279        0.37352        0.34826        0.31531        0.30875        0.26800        0.25844        0.30907        0.34717        0.41583        0.41791        0.39588        0.39211        0.40534        0.34779        0.28613        0.29441        0.28133        0.31010        0.35906        0.36956        0.41570        0.35922        0.36472        0.38880        0.34456        0.31288        0.28341        0.29239        0.33895        0.32919        0.32433        0.37417        0.39597        0.33566        0.35283        0.29904        0.30804        0.28669        0.28172        0.30196        0.33015        0.38375        0.36699        0.34792        0.32767        0.28542        0.27623        0.29822        0.28426        0.31520        0.36883        0.39494        0.33591        0.31800        0.31092        0.29962        0.28939        0.27816        0.30131        0.34078        0.33389        0.34436        0.32113        0.35027        0.32321        0.28810        0.31304        0.32230        0.33815        0.33967        0.31990        0.31384        0.30273        0.32996        0.31513        0.33860        0.39122        0.33511        0.36195        0.31734        0.30880        0.28918        0.30905        0.29099        0.31073        0.32053        0.35276        0.36251        0.31095        0.32138        0.31707        0.29785        0.29305        0.29089        0.32952        0.34181        0.35613        0.33696        0.32073        0.26280        0.26307        0.31257        0.35052        0.31731        0.29402        0.28140        0.28971        0.32810        0.31236        0.30616        0.33605        0.33973        0.31257        0.24411        0.28506        0.28717        0.28769        0.32446        0.32540        0.34731        0.34245        0.28428        0.27079        0.29741        0.26975        0.29487        0.27399        0.24757        0.26204        0.25720        0.28079        0.28716        0.28038        0.26644        0.31836        0.32619        0.31364        0.28317        0.29524        0.24143        0.26947        0.25159        0.32405        0.35147        0.22979        0.25294        0.28291        0.24701        0.24403        0.30512        0.23632        0.13743        0.17713        0.22972        0.27007        0.23248        0.13904        0.04611       -0.40697       -0.76710
3.052307 3.014339 2.976615 2.939135 2.901900 2.864908 2.828161 2.791658 2.755398 2.719383 2.683612 2.648085 2.612803 2.577764 2.542969 2.508419 2.474112 2.440050 2.406232 2.372658 2.339328 2.306242 2.273400 2.240803 2.208449 2.176340 2.144474 2.112853 2.081476 2.050343 2.019454 1.988809 1.958408 1.928252 1.898339 1.868671 1.839247 1.810066 1.781130 1.752438 1.723990 1.695787 1.667827 1.640111 1.612640 1.585413 1.558429 1.531690 1.505195 1.478944 1.452937 1.510616 1.695368 1.610751 0.965003 0.682254 0.476907 0.431346 0.322775 0.266441 0.200352 0.021364 0.197544 0.081859 -0.007388 -0.058578 -0.197728 -0.151225 -0.088967 -0.091862 -0.094088 0.011178 0.033269 0.232495 0.151139 0.364450 0.444676 0.475911 0.712843 0.697900 0.707536 0.835440 0.818321 0.848420 0.920116 0.892750 0.936211 0.749387 0.834454 0.837042 0.621437 0.607535 0.456151 0.435775 0.380441 0.210894 0.118395 0.099887 0.207282 0.143309 0.196571 0.111292 0.307545 0.284942 0.456523 0.412882 0.579364 0.642545 0.762234 0.705362 0.653515 0.665225 0.528780 0.503352 0.364280 0.294091 0.119066 0.148098 0.002033 -0.009949 -0.038033 -0.029043 -0.001160 0.034391 0.275100 0.328967 0.386808 0.394018 0.465645 0.516744 0.469331 0.504577 0.397650 0.389805 0.154451 0.068679 0.072690 -0.003386 -0.125039 -0.042762 -0.113357 0.014981 0.138598 0.156652 0.253539 0.257594 0.383020 0.455143 0.351043 0.389228 0.282750 0.124655 0.048089 0.051825 0.018239 0.004198 0.007762 0.108867 0.128072 0.265440 0.236146 0.302487 0.366528 0.242789 0.245399 0.218980 0.129993 0.083640 0.049681 0.024733 0.040554 -0.013013 0.027982 0.184053 0.219245 0.253020 0.281468 0.232377 0.239604 0.147654 0.109072 -0.021232 -0.014922 -0.006946 0.016634 0.008897 0.028663 0.105437 0.189923 0.203975 0.221173 0.136826 0.145597 0.079585 0.059086 -0.059538 -0.014648 -0.002316 0.054778 0.066856 0.076297 0.153630 0.090166 0.162502 0.068034 0.052295 0.047416 0.029333 0.002285 0.007592 0.051659 0.086101 0.129425 0.139526 0.067856 0.126820 0.097503 0.012499 0.008600 0.007070 -0.002460 0.053561 0.059594 0.099658 0.097143 0.063944 0.070047 0.079072 0.032017 0.012273 -0.010491 0.006783 0.060069 0.022876 0.036099 0.073147 0.088961 0.055761 0.032401 0.010336 0.012810 -0.007476 -0.012907 0.013349 0.051361 0.102100 0.062370 0.058419 0.037342 -0.013565 -0.002039 0.016962 0.012201 0.027799 0.103993 0.062822 0.018687 0.044575 0.002815 0.027450 -0.007791 -0.005005 0.025385 0.061842 0.030110 0.045106 0.031816 0.055370 0.023529 -0.006478 0.025614 0.041601 0.041121 0.036925 0.026658 -0.001513 -0.008906 0.028447 0.010221 0.047651 0.075850 0.043128 0.024077 0.011702 -0.002260 -0.006837 0.008102 0.002258 0.013422 -0.000469 0.080413 0.052347 0.028702 0.042605 0.002927 0.012565 0.007945 -0.004327 0.045738 0.066444 0.084224 0.051133 0.047329 -0.022385 0.010705 0.033225 0.072217 0.039338 0.032967 0.001525 0.005324 0.056474 0.051848 0.032983 0.062029 0.068765 0.053261 -0.024106 0.014169 0.046188 0.018619 0.042601 0.075922 0.076733 0.065623 0.016545 0.006544 0.014809 -0.003419 0.024825 -0.022920 -0.027607 -0.021186 -0.040809 -0.003859 -0.005841 0.007602 -0.078477 0.002385 0.007332 -0.006331 -0.046076 0.012116 -0.099472 -0.026167 -0.053476 0.017858 0.067232 -0.112713 -0.027589 0.036998 0.003906 -0.046141 0.044468 0.027939 -0.025271 -0.039632 0.051070 0.236563 0.203740 0.094135 0.043324 -0.671426
0.072396 0.073046 0.074995 0.078243 0.082788 0.088630 0.095766 0.104193 0.113907 0.124903 0.137174 0.150713 0.165509 0.181549 0.198817 0.217297 0.236965 0.257795 0.279757 0.302816 0.326931 0.352055 0.378134 0.405107 0.432908 0.461459 0.490676 0.520464 0.550719 0.581328 0.612167 0.643099 0.673980 0.704650 0.734940 0.764672 0.793651 0.821676 0.848533 0.873999 0.897840 0.919815 0.939676 0.957169 0.972033 0.984009 0.992834 0.998248 0.999996 0.997830 0.991512 0.980818 0.965540 0.945493 0.920515 0.890473 0.855269 0.814839 0.769163 0.718265 0.662221 0.601158 0.535260 0.464775 0.390009 0.311337 0.229199 0.144103 0.056626 0.032592 0.122843 0.213361 0.303322 0.391851 0.478031 0.560909 0.639507 0.712837 0.779906 0.839737 0.891382 0.933937 0.966562 0.988495 0.999074 0.997752 0.984116 0.957906 0.919028 0.867570 0.803814 0.728246 0.641565 0.544684 0.438729 0.325039 0.205152 0.080794 0.046142 0.173617 0.299479 0.421497 0.537397 0.644908 0.741807 0.825970 0.895425 0.948400 0.983380 0.999151 0.994856 0.970028 0.924630 0.859084 0.774288 0.671625 0.552954 0.420602 0.277326 0.126269 0.029094 0.185034 0.337649 0.482960 0.617019 0.736019 0.836406 0.915005 0.969123 0.996663 0.996216 0.967142 0.909632 0.824746 0.714428 0.581487 0.429558 0.263015 0.086877 0.093339 0.271777 0.442431 0.599342 0.736818 0.849654 0.933341 0.984270 0.999912 0.978965 0.921465 0.828845 0.703949 0.550983 0.375409 0.183781 0.016478 0.217342 0.410504 0.587709 0.741126 0.863703 0.949519 0.994101 0.994694 0.950454 0.862584 0.734353 0.571036 0.379743 0.169150 0.050864 0.269663 0.476354 0.660336 0.811861 0.922575 0.986018 0.998044 0.957142 0.864615 0.724633 0.544098 0.332378 0.100859 0.137627 0.369493 0.581169 0.759907 0.894574 0.976395 0.999574 0.961765 0.864349 0.712485 0.514913 0.283535 0.032741 0.221437 0.462334 0.673746 0.841043 0.952229 0.998858 0.976749 0.886433 0.733272 0.527250 0.282402 0.015928 0.252963 0.504424 0.719436 0.881283 0.976903 0.998026 0.941976 0.812062 0.617518 0.372949 0.097331 0.187403 0.458071 0.692127 0.869577 0.974741 0.997737 0.935508 0.792301 0.579525 0.314962 0.021381 0.275349 0.548519 0.772985 0.927541 0.997001 0.973807 0.858975 0.662243 0.401403 0.100815 0.210787 0.502986 0.746656 0.916920 0.995778 0.974130 0.852975 0.643584 0.366630 0.050270 0.272611 0.567777 0.803294 0.953036 0.999714 0.937009 0.770582 0.517768 0.205937 0.130330 0.452999 0.724876 0.913938 0.997220 0.963755 0.816196 0.570862 0.256124 0.090715 0.427743 0.713475 0.912029 0.997721 0.958578 0.798199 0.535694 0.203624 0.155880 0.496359 0.773015 0.948689 0.998985 0.915863 0.709127 0.405533 0.045548 0.321903 0.646010 0.881133 0.993356 0.965567 0.800302 0.519851 0.163516 0.217713 0.568351 0.836483 0.981562 0.980734 0.832689 0.558355 0.198235 0.193367 0.556400 0.834267 0.982764 0.977311 0.817297 0.526721 0.150889 0.250414 0.612314 0.875353 0.995381 0.951218 0.748683 0.420214 0.019984 0.384816 0.725192 0.942126 0.997035 0.878907 0.606816 0.227233 0.193652 0.581284 0.865939 0.995421 0.944873 0.721920 0.365933 0.058567 0.473394 0.801012 0.979130 0.972795 0.781617 0.440533 0.013831 0.416712 0.767412 0.968978 0.980494 0.798070 0.456365 0.022427 0.417198 0.773564 0.973447 0.974631 0.775222 0.414843 0.032826 0.474795 0.818009 0.989017 0.950029 0.707682 0.312469 0.151344 0.583441
1.000000 1.000000 1.000000 1.000000 1.000000 1.000000 1.000000 1.000000 1.000000 1.000000 1.000000 1.000000 1.000000 1.000000 1.000000 1.000000 1.000000 1.000000 1.000000 1.000000 1.000000 1.000000 1.000000 1.000000 1.000000 1.000000 1.000000 1.000000 1.000000 1.000000 1.000000 1.000000 1.000000 1.000000 1.000000 1.000000 1.000000 1.000000 1.000000 1.000000 1.000000 1.000000 1.000000 1.000000 1.000000 1.000000 1.000000 1.000000 1.000000 1.000000 1.000000 1.000000 0.933173 0.933173 0.933173 0.933173 0.933173 0.933173 0.933173 0.933173 0.933173 0.933173 0.933173 0.933173 0.933173 0.933173 0.933173 0.933173 0.933173 0.933173 0.933173 0.933173 0.933173 0.933173 0.933173 0.933173 0.933173 0.933173 0.933173 0.933173 0.933173 0.933173 0.933173 0.933173 0.933173 0.922488 0.923974 0.926938 0.928006 0.927966 0.927510 0.927198 0.927419 0.929135 0.931453 0.948054 0.950170 0.950748 0.952026 0.952265 0.954775 0.953027 0.952892 0.963431 0.962265 0.962990 0.956089 0.957648 0.956754 0.955840 0.956327 0.956554 0.954642 0.952515 0.950843 0.950216 0.949847 0.951611 0.952086 0.952061 0.953524 0.953498 0.953229 0.949909 0.948457 0.949921 0.951937 0.951074 0.956777 0.956612 0.964654 0.965461 0.964073 0.963970 0.964168 0.964364 0.955539 0.949719 0.944569 0.932700 0.923868 0.921543 0.924384 0.926085 0.924920 0.920185 0.919145 0.916614 0.911823 0.910995 0.910755 0.912275 0.908247 0.904890 0.888570 0.888003 0.890641 0.890275 0.888084 0.879756 0.874971 0.875681 0.878778 0.876358 0.873034 0.889004 0.883875 0.888784 0.891810 0.894828 0.898679 0.894564 0.893073 0.889380 0.885857 0.880382 0.881759 0.872204 0.874971 0.869998 0.860921 0.854179 0.856949 0.865985 0.873838 0.881795 0.880859 0.881053 0.880283 0.870934 0.872345 0.861728 0.862638 0.867978 0.873733 0.870781 0.867944 0.872519 0.870735 0.871362 0.874003 0.870677 0.868901 0.859707 0.860041 0.862354 0.878662 0.879674 0.867688 0.858248 0.846635 0.853550 0.856572 0.855700 0.857400 0.849664 0.851358 0.840884 0.828652 0.829457 0.834503 0.830606 0.833291 0.832277 0.836584 0.837867 0.836438 0.832045 0.830464 0.835085 0.807628 0.814055 0.816271 0.810757 0.815235 0.806948 0.800452 0.795778 0.795107 0.788610 0.799545 0.798013 0.763664 0.757298 0.764789 0.750030 0.740501 0.736969 0.738168 0.716308 0.701517 0.670556 0.666244 0.651057 0.649322 0.648165 0.638802 0.621862 0.609026 0.597394 0.612887 0.616921 0.593263 0.595258 0.589138 0.584623 0.578917 0.574074 0.572196 0.577810 0.583058 0.549099 0.542768 0.549110 0.521337 0.520517 0.519450 0.509311 0.482284 0.487887 0.483101 0.504935 0.536463 0.489367 0.481447 0.495886 0.511895 0.523748 0.522736 0.508989 0.491548 0.505323 0.482765 0.461917 0.477280 0.483509 0.474406 0.486714 0.478260 0.505945 0.498226 0.478213 0.502666 0.506370 0.501155 0.508376 0.523597 0.518576 0.521355 0.513476 0.469599 0.480464 0.462440 0.403673 0.400896 0.412524 0.399390 0.399259 0.374387 0.376810 0.350657 0.322031 0.324509 0.318599 0.282567 0.248277 0.253188 0.254936 0.225312 0.195934 0.215624 0.168157 0.161382 0.181711 0.188195 0.174292 0.177717 0.199517 0.199517 0.199517 0.199517 0.199517 0.199517 0.199517 0.199517 0.199517 0.199517 0.199517 0.199517 0.199517 0.199517 0.224354 0.224354 0.224354 0.224354 0.224354 0.224354 0.224354 0.224354 0.224354 0.224354 0.224354 0.224354
0.000000 0.000000 0.000000 0.000000 0.000000 0.000000 0.000000 0.000000 0.000000 0.000000 0.000000 0.000000 0.000000 0.000000 0.000000 0.000000 0.000000 0.000000 0.000000 0.000000 0.000000 0.000000 0.000000 0.000000 0.000000 7.000000 4.000000 0.000000 0.000000 0.000000 0.000000 0.000000 0.000000 0.000000 0.000000 0.000000 0.000000 0.000000 0.000000 0.000000 0.000000 0.000000 0.000000 0.000000 0.000000 0.000000 0.000000 0.000000 0.000000 0.000000 0.000000 0.000000 0.209657 0.209657 0.209657 0.209657 0.209657 0.209657 0.209657 0.209657 0.209657 0.209657 0.209657 0.209657 0.209657 0.209657 0.209657 0.209657 0.209657 0.209657 0.209657 0.209657 0.209657 0.209657 0.209657 0.209657 0.209657 0.209657 0.209657 0.209657 0.209657 0.209657 0.209657 0.209657 0.209657 0.244339 0.244339 0.244339 0.244339 0.244339 0.244339 0.244339 0.244339 0.244339 0.244339 0.244339 0.244339 0.244339 0.244339 0.244339 0.244339 0.244339 0.244339 0.244339 0.244339 0.244339 0.244339 0.244339 0.244339 0.244339 0.260378 0.260378 0.260378 0.260378 0.260378 0.260378 0.260378 0.260378 0.260378 0.260378 0.260378 0.260378 0.260378 0.260378 0.260378 0.260378 0.260378 0.260378 0.260378 0.260378 0.269680 0.269680 0.269680 0.269680 0.269680 0.269680 0.269680 0.269680 0.269680 0.269680 0.269680 0.269680 0.269680 0.269680 0.269680 0.269680 0.269680 0.269680 0.269680 0.269680 0.269680 0.269680 0.269680 0.269680 0.269680 0.269680 0.269680 0.269680 0.269680 0.269680 0.269680 0.269680 0.269680 0.280056 0.280056 0.280056 0.280056 0.280056 0.280056 0.280056 0.280056 0.280056 0.280056 0.280056 0.280056 0.280056 0.280056 0.280056 0.280056 0.280056 0.280056 0.280056 0.280056 0.280056 0.280056 0.280056 0.280056 0.280056 0.280056 0.280056 0.274721 0.274721 0.274721 0.274721 0.274721 0.274721 0.274721 0.274721 0.274721 0.274721 0.274721 0.274721 0.274721 0.285714 0.285714 0.285714 0.285714 0.285714 0.285714 0.285714 0.285714 0.285714 0.285714 0.285714 0.280056 0.280056 0.280056 0.280056 0.280056 0.280056 0.280056 0.280056 0.280056 0.280056 0.280056 0.274721 0.274721 0.274721 0.274721 0.274721 0.274721 0.274721 0.274721 0.274721 0.274721 0.274721 0.280056 0.280056 0.280056 0.280056 0.280056 0.280056 0.280056 0.280056 0.280056 0.280056 0.285714 0.285714 0.285714 0.285714 0.285714 0.285714 0.285714 0.285714 0.285714 0.269680 0.269680 0.269680 0.269680 0.269680 0.269680 0.269680 0.269680 0.269680 0.269680 0.274721 0.274721 0.274721 0.274721 0.274721 0.274721 0.274721 0.274721 0.274721 0.285714 0.285714 0.285714 0.285714 0.285714 0.285714 0.285714 0.285714 0.264906 0.264906 0.264906 0.264906 0.264906 0.264906 0.264906 0.264906 0.264906 0.274721 0.274721 0.274721 0.274721 0.274721 0.274721 0.274721 0.274721 0.269680 0.269680 0.269680 0.269680 0.269680 0.269680 0.269680 0.269680 0.269680 0.269680 0.269680 0.269680 0.269680 0.269680 0.269680 0.269680 0.280056 0.280056 0.280056 0.280056 0.280056 0.280056 0.280056 0.260378 0.260378 0.260378 0.260378 0.260378 0.260378 0.260378 0.260378 0.269680 0.269680 0.269680 0.269680 0.269680 0.269680 0.269680 0.264906 0.264906 0.264906 0.264906 0.264906 0.264906 0.264906 0.264906 0.264906 0.264906 0.264906 0.264906 0.264906 0.264906 0.260378 0.260378 0.260378 0.260378 0.260378 0.260378 0.260378 0.260378 0.260378 0.260378 0.260378 0.260378
