# Output from CTFFind version 4.1.9, run on 2019-11-03 19:24:54
# Input file: stack6_bm3d_averaged_1_3.75_0_250_half.mrc ; Number of micrographs: 1
# Pixel size: 3.000 Angstroms ; acceleration voltage: 300.0 keV ; spherical aberration: 0.00 mm ; amplitude contrast: 0.07
# Box size: 512 pixels ; min. res.: 30.0 Angstroms ; max. res.: 5.0 Angstroms ; min. def.: 5000.0 um; max. def. 50000.0 um; num. frames averaged: 1
# 6 lines per micrograph: #1 - spatial frequency (1/Angstroms); #2 - 1D rotational average of spectrum (assuming no astigmatism); #3 - 1D rotational average of spectrum; #4 - CTF fit; #5 - cross-correlation between spectrum and CTF fit; #6 - 2sigma of expected cross correlation of noise
0.000000 0.000651 0.001302 0.001953 0.002604 0.003255 0.003906 0.004557 0.005208 0.005859 0.006510 0.007161 0.007812 0.008464 0.009115 0.009766 0.010417 0.011068 0.011719 0.012370 0.013021 0.013672 0.014323 0.014974 0.015625 0.016276 0.016927 0.017578 0.018229 0.018880 0.019531 0.020182 0.020833 0.021484 0.022135 0.022786 0.023438 0.024089 0.024740 0.025391 0.026042 0.026693 0.027344 0.027995 0.028646 0.029297 0.029948 0.030599 0.031250 0.031901 0.032552 0.033203 0.033854 0.034505 0.035156 0.035807 0.036458 0.037109 0.037760 0.038411 0.039062 0.039714 0.040365 0.041016 0.041667 0.042318 0.042969 0.043620 0.044271 0.044922 0.045573 0.046224 0.046875 0.047526 0.048177 0.048828 0.049479 0.050130 0.050781 0.051432 0.052083 0.052734 0.053385 0.054036 0.054688 0.055339 0.055990 0.056641 0.057292 0.057943 0.058594 0.059245 0.059896 0.060547 0.061198 0.061849 0.062500 0.063151 0.063802 0.064453 0.065104 0.065755 0.066406 0.067057 0.067708 0.068359 0.069010 0.069661 0.070312 0.070964 0.071615 0.072266 0.072917 0.073568 0.074219 0.074870 0.075521 0.076172 0.076823 0.077474 0.078125 0.078776 0.079427 0.080078 0.080729 0.081380 0.082031 0.082682 0.083333 0.083984 0.084635 0.085286 0.085938 0.086589 0.087240 0.087891 0.088542 0.089193 0.089844 0.090495 0.091146 0.091797 0.092448 0.093099 0.093750 0.094401 0.095052 0.095703 0.096354 0.097005 0.097656 0.098307 0.098958 0.099609 0.100260 0.100911 0.101562 0.102214 0.102865 0.103516 0.104167 0.104818 0.105469 0.106120 0.106771 0.107422 0.108073 0.108724 0.109375 0.110026 0.110677 0.111328 0.111979 0.112630 0.113281 0.113932 0.114583 0.115234 0.115885 0.116536 0.117188 0.117839 0.118490 0.119141 0.119792 0.120443 0.121094 0.121745 0.122396 0.123047 0.123698 0.124349 0.125000 0.125651 0.126302 0.126953 0.127604 0.128255 0.128906 0.129557 0.130208 0.130859 0.131510 0.132161 0.132812 0.133464 0.134115 0.134766 0.135417 0.136068 0.136719 0.137370 0.138021 0.138672 0.139323 0.139974 0.140625 0.141276 0.141927 0.142578 0.143229 0.143880 0.144531 0.145182 0.145833 0.146484 0.147135 0.147786 0.148438 0.149089 0.149740 0.150391 0.151042 0.151693 0.152344 0.152995 0.153646 0.154297 0.154948 0.155599 0.156250 0.156901 0.157552 0.158203 0.158854 0.159505 0.160156 0.160807 0.161458 0.162109 0.162760 0.163411 0.164062 0.164714 0.165365 0.166016 0.166667 0.167318 0.167969 0.168620 0.169271 0.169922 0.170573 0.171224 0.171875 0.172526 0.173177 0.173828 0.174479 0.175130 0.175781 0.176432 0.177083 0.177734 0.178385 0.179036 0.179688 0.180339 0.180990 0.181641 0.182292 0.182943 0.183594 0.184245 0.184896 0.185547 0.186198 0.186849 0.187500 0.188151 0.188802 0.189453 0.190104 0.190755 0.191406 0.192057 0.192708 0.193359 0.194010 0.194661 0.195312 0.195964 0.196615 0.197266 0.197917 0.198568 0.199219 0.199870 0.200521 0.201172 0.201823 0.202474 0.203125 0.203776 0.204427 0.205078 0.205729 0.206380 0.207031 0.207682 0.208333 0.208984 0.209635 0.210286 0.210938 0.211589 0.212240 0.212891 0.213542 0.214193 0.214844 0.215495 0.216146 0.216797 0.217448 0.218099 0.218750 0.219401 0.220052 0.220703 0.221354 0.222005 0.222656 0.223307 0.223958 0.224609 0.225260 0.225911 0.226562 0.227214 0.227865 0.228516 0.229167 0.229818 0.230469 0.231120 0.231771 0.232422 0.233073 0.233724 0.234375 0.235026 0.235677
       0.30204        0.30204        0.30204        0.30204        0.30204        0.30204        0.30204        0.30204        0.30204        0.30204        0.30204        0.30204        0.30204        0.30204        0.30204        0.30204        0.30204        0.30204        0.30204        0.30204        0.30204        0.30204        0.30204        0.30204        0.30204        0.30204        0.30204        0.30204        0.30204        0.30204        0.30204        0.30204        0.30204        0.30204        0.30204        0.30204        0.30204        0.30204        0.30204        0.30204        0.30204        0.30204        0.30204        0.30204        0.30204        0.30204        0.30204        0.30204        0.30204        0.30204        0.30204        0.60869        0.75175        0.36650        0.21646        0.13617       -0.14708        0.11558        0.02606        0.03772        0.09671        0.32349        0.36294        0.29784        0.17721       -0.02898        0.00510        0.04771       -0.15801       -0.16879       -0.08969       -0.11930       -0.26353       -0.16338       -0.29341       -0.29444       -0.30588       -0.37458       -0.44894       -0.41543       -0.33206       -0.29161       -0.38710       -0.29370       -0.35529       -0.29157       -0.22345       -0.17106       -0.13184       -0.05069       -0.02438        0.09281        0.13201        0.21801        0.32726        0.39138        0.36614        0.47316        0.56363        0.57716        0.65894        0.62020        0.66990        0.61051        0.63653        0.63550        0.57652        0.57221        0.57773        0.40373        0.33491        0.35779        0.34309        0.18203        0.13012        0.08618        0.07518        0.06857       -0.03465        0.02962       -0.01084       -0.04967        0.07242        0.15590        0.25852        0.34035        0.33021        0.37841        0.49017        0.52090        0.45996        0.65525        0.53051        0.49952        0.55955        0.51961        0.51827        0.46817        0.37572        0.32842        0.23544        0.19889        0.16680        0.16282        0.13150        0.07154        0.12332        0.15305        0.19161        0.17315        0.23990        0.27395        0.32898        0.45435        0.42089        0.42730        0.47270        0.52055        0.51346        0.47658        0.37965        0.40173        0.35449        0.27837        0.22622        0.23037        0.19756        0.17302        0.15888        0.18218        0.17387        0.22442        0.28940        0.33928        0.39177        0.39944        0.45527        0.47006        0.45036        0.43283        0.39845        0.40315        0.38946        0.34403        0.30038        0.28461        0.23450        0.25297        0.24281        0.20199        0.24378        0.24081        0.25440        0.32359        0.35885        0.38521        0.38932        0.40095        0.40650        0.40455        0.40580        0.29688        0.28414        0.25191        0.26906        0.23071        0.19664        0.25982        0.30649        0.29303        0.27622        0.32513        0.26946        0.35965        0.34869        0.35302        0.36454        0.36960        0.31108        0.30664        0.28925        0.28041        0.26341        0.25199        0.25629        0.28672        0.28669        0.30917        0.35378        0.36758        0.34357        0.33555        0.35041        0.31279        0.29110        0.29041        0.26803        0.27452        0.26285        0.29583        0.29400        0.27689        0.29675        0.30637        0.32157        0.32805        0.32937        0.27867        0.26222        0.28946        0.27674        0.26671        0.25462        0.22438        0.24659        0.25600        0.24689        0.26222        0.27677        0.31930        0.31632        0.30275        0.30642        0.23094        0.22140        0.27257        0.23978        0.20669        0.25859        0.31754        0.25677        0.29612        0.29240        0.29789        0.31138        0.27700        0.26949        0.28912        0.26408        0.27603        0.23588        0.25610        0.25108        0.29210        0.29004        0.31989        0.31052        0.32183        0.23151        0.28624        0.28063        0.22590        0.27217        0.25863        0.29245        0.28588        0.30569        0.30198        0.34507        0.29197        0.25704        0.24983        0.21946        0.23462        0.26666        0.29752        0.28165        0.28704        0.29060        0.27659        0.27295        0.27327        0.23931        0.27872        0.23441        0.23006        0.22420        0.29967        0.30076        0.28170        0.28165        0.22093        0.27989        0.25462        0.20483        0.22756        0.26971        0.27445        0.30793        0.21052        0.19694        0.25030        0.24128        0.25942        0.22704        0.21526        0.20228        0.23893        0.25827        0.22597        0.26125        0.23250        0.26465        0.19827        0.26954        0.29751        0.20166        0.15029        0.15517        0.12577        0.20958        0.14738        0.08864        0.30915        0.17555        0.09964        0.10291        0.08996        0.18550        0.23414       -0.02418       -0.74296       -1.07594
3.024192 2.994208 2.964378 2.934702 2.905179 2.875810 2.846595 2.817533 2.788626 2.759872 2.731272 2.702825 2.674532 2.646393 2.618408 2.590576 2.562898 2.535374 2.508004 2.480787 2.453724 2.426815 2.400060 2.373458 2.347010 2.320715 2.294575 2.268588 2.242755 2.217075 2.191549 2.166178 2.140959 2.115895 2.090984 2.066227 2.041624 2.017174 1.992878 1.968736 1.944748 1.920913 1.897232 1.873705 1.850331 1.827111 1.804045 1.781133 1.758374 1.735769 1.713318 2.059521 2.391980 1.755222 1.679673 1.379360 0.837840 1.238656 1.097583 1.131049 0.989059 1.597727 1.511926 1.507247 1.256173 0.918051 0.757944 1.003995 0.745692 0.425873 0.551897 0.659282 0.394551 0.447698 0.284007 0.217036 0.137903 0.138888 -0.117330 -0.052352 0.062548 0.044655 0.003572 0.099010 -0.054891 -0.013949 0.138581 0.205012 0.262472 0.328292 0.361953 0.638450 0.553655 0.678482 0.900996 0.981501 0.892601 1.193978 1.188057 1.272969 1.344000 1.215264 1.418023 1.216166 1.191281 1.356793 1.153641 1.083066 1.187049 0.949766 0.661184 0.699877 0.753379 0.447514 0.368581 0.262713 0.179638 0.161793 0.007680 0.125128 0.038630 -0.078346 0.071129 0.198428 0.309471 0.520657 0.523118 0.511054 0.703707 0.815425 0.578033 0.984639 0.913008 0.629600 0.789763 0.674971 0.746620 0.711775 0.443805 0.432691 0.249526 0.182155 0.132833 0.014663 0.055713 -0.111102 -0.031346 -0.021604 0.096357 -0.032971 0.199090 0.169915 0.180783 0.406424 0.478126 0.392835 0.372373 0.592980 0.576624 0.476025 0.362194 0.340415 0.302839 0.187797 0.056336 0.040957 0.009217 -0.012218 -0.095378 -0.054642 -0.114261 0.047190 0.010796 0.176806 0.231222 0.258177 0.363871 0.349577 0.396549 0.367344 0.422178 0.371352 0.260540 0.322718 0.147234 0.195395 0.063888 0.104669 0.045065 0.046619 -0.039859 0.078855 0.019687 0.130345 0.230762 0.236426 0.277864 0.281021 0.297365 0.304110 0.307359 0.205115 0.079898 0.094843 0.034738 0.029356 -0.047362 -0.040170 0.059386 0.131761 0.075822 0.083987 0.087444 0.133916 0.197110 0.179993 0.182325 0.234248 0.148539 0.090224 0.089873 0.065604 0.061666 -0.026979 0.027288 0.080969 0.009660 0.092351 0.116927 0.208418 0.204610 0.186881 0.156522 0.184398 0.081426 0.095139 0.092833 0.038426 0.026932 0.071465 0.081937 0.088468 0.054509 0.106765 0.103515 0.147582 0.146631 0.113721 0.054953 0.012494 0.078985 0.023184 0.064515 -0.023818 -0.052529 0.020934 -0.004240 -0.013543 0.042633 0.028028 0.130203 0.119863 0.059312 0.076682 -0.066797 -0.010905 0.045505 -0.056873 -0.069118 0.059389 0.091115 -0.015823 0.065316 0.054001 0.089501 0.082141 -0.012633 0.014562 0.108758 -0.060129 0.039498 -0.033070 0.011366 -0.038954 0.083383 0.028626 0.097982 0.060124 0.098001 -0.073189 0.049867 -0.007006 -0.063717 0.010749 -0.015231 0.025146 0.027975 0.113654 0.054271 0.081586 0.055146 -0.087253 0.002630 -0.109115 -0.034919 0.022999 0.028661 0.026508 0.006776 0.052365 0.019741 -0.006206 0.017279 -0.060536 0.046228 -0.036418 -0.070266 -0.038826 0.063651 0.036478 0.042342 0.048881 -0.045755 0.048439 0.008519 -0.086512 -0.018064 0.026817 0.079972 0.101090 -0.054016 -0.050039 0.051569 0.027314 -0.004254 0.025539 -0.076673 0.023324 0.050627 0.077077 0.027236 0.111159 0.039742 0.171375 -0.006336 0.191928 0.224136 0.028427 -0.025582 0.003284 -0.156371 0.168996 0.005327 -0.000739 0.509970 0.236774 0.157804 0.191248 0.176168 0.263224 0.352483 -0.026581 -1.767510
0.072396 0.072835 0.074150 0.076341 0.079409 0.083352 0.088170 0.093861 0.100423 0.107856 0.116155 0.125319 0.135343 0.146223 0.157954 0.170529 0.183940 0.198179 0.213235 0.229097 0.245750 0.263180 0.281367 0.300293 0.319935 0.340266 0.361260 0.382885 0.405106 0.427884 0.451179 0.474944 0.499130 0.523682 0.548542 0.573647 0.598928 0.624313 0.649723 0.675077 0.700284 0.725253 0.749885 0.774075 0.797715 0.820691 0.842885 0.864172 0.884427 0.903516 0.921305 0.937655 0.952425 0.965473 0.976654 0.985822 0.992833 0.997542 0.999808 0.999493 0.996460 0.990581 0.981733 0.969802 0.954683 0.936280 0.914512 0.889311 0.860623 0.828413 0.792664 0.753378 0.710581 0.664320 0.614668 0.561723 0.505610 0.446484 0.384529 0.319955 0.253008 0.183961 0.113120 0.040820 0.032574 0.106666 0.181035 0.255231 0.328783 0.401195 0.471955 0.540534 0.606392 0.668982 0.727754 0.782159 0.831656 0.875719 0.913840 0.945537 0.970361 0.987900 0.997791 0.999721 0.993438 0.978755 0.955558 0.923810 0.883557 0.834935 0.778169 0.713581 0.641590 0.562712 0.477561 0.386849 0.291379 0.192044 0.089821 0.014239 0.119018 0.223341 0.325991 0.425721 0.521268 0.611371 0.694790 0.770320 0.836814 0.893199 0.938501 0.971858 0.992544 0.999984 0.993771 0.973685 0.939700 0.891997 0.830975 0.757251 0.671662 0.575263 0.469323 0.355306 0.234866 0.109819 0.017878 0.146152 0.272851 0.395775 0.512718 0.621505 0.720038 0.806336 0.878581 0.935162 0.974711 0.996150 0.998716 0.981997 0.945956 0.890946 0.817720 0.727433 0.621635 0.502255 0.371573 0.232182 0.086950 0.061042 0.208557 0.352272 0.488854 0.615037 0.727705 0.823971 0.901264 0.957398 0.990645 0.999799 0.984226 0.943902 0.879440 0.792097 0.683764 0.556944 0.414702 0.260606 0.098645 0.066868 0.231404 0.390341 0.539096 0.673257 0.788719 0.881827 0.949488 0.989297 0.999630 0.979725 0.929734 0.850753 0.744819 0.614878 0.464722 0.298890 0.122551 0.058654 0.238786 0.411795 0.571726 0.712935 0.830285 0.919357 0.976623 0.999606 0.987004 0.938777 0.856187 0.741797 0.599413 0.433984 0.251446 0.058525 0.137498 0.329061 0.508604 0.668875 0.803235 0.905941 0.972414 0.999463 0.985458 0.930452 0.836222 0.706252 0.545634 0.360890 0.159733 0.049242 0.256910 0.454013 0.631575 0.781323 0.896081 0.970143 0.999575 0.982460 0.919036 0.811757 0.665230 0.486055 0.282557 0.064424 0.157740 0.372917 0.570225 0.739472 0.871706 0.959702 0.998392 0.985191 0.920197 0.806260 0.648901 0.456092 0.237877 0.005881 0.227293 0.448739 0.645968 0.807621 0.924148 0.988406 0.996128 0.946249 0.841049 0.686112 0.490060 0.264140 0.021583 0.223130 0.455123 0.660044 0.824955 0.939183 0.995049 0.988419 0.919066 0.790766 0.611171 0.391390 0.145346 0.111064 0.360992 0.587727 0.775838 0.912239 0.987143 0.994812 0.934047 0.808377 0.625929 0.398951 0.143049 0.123847 0.382732 0.614867 0.803149 0.933404 0.995500 0.984186 0.899603 0.747385 0.538367 0.287869 0.014622 0.260593 0.516512 0.733044 0.892872 0.982873 0.995269 0.928350 0.786759 0.581236 0.327900 0.047010 0.238575 0.505279 0.730732 0.895680 0.985688 0.992453 0.914658 0.758220 0.535935 0.266517 0.026941 0.318877 0.583492 0.797041 0.939995 0.998893 0.967681 0.848418 0.651255 0.393658 0.098933 0.205816 0.492158 0.732995 0.905155 0.991673 0.983549 0.880771 0.692495 0.436333 0.136784 0.177029 0.474178 0.724956 0.903894
1.000000 1.000000 1.000000 1.000000 1.000000 1.000000 1.000000 1.000000 1.000000 1.000000 1.000000 1.000000 1.000000 1.000000 1.000000 1.000000 1.000000 1.000000 1.000000 1.000000 1.000000 1.000000 1.000000 1.000000 1.000000 1.000000 1.000000 1.000000 1.000000 1.000000 1.000000 1.000000 1.000000 1.000000 1.000000 1.000000 1.000000 1.000000 1.000000 1.000000 1.000000 1.000000 1.000000 1.000000 1.000000 1.000000 1.000000 1.000000 1.000000 1.000000 1.000000 1.000000 0.824897 0.824897 0.824897 0.824897 0.824897 0.824897 0.824897 0.799684 0.799684 0.799684 0.799684 0.799684 0.799684 0.799684 0.799684 0.799684 0.799684 0.799684 0.799684 0.799684 0.799684 0.799684 0.799684 0.799684 0.799684 0.799684 0.799684 0.799684 0.799684 0.799684 0.799684 0.799684 0.799684 0.799684 0.799684 0.799684 0.799684 0.799684 0.799684 0.799684 0.799684 0.799684 0.799684 0.799684 0.799684 0.799684 0.799684 0.799684 0.799684 0.799684 0.799684 0.948312 0.949112 0.949437 0.950049 0.948468 0.948162 0.944060 0.943148 0.945599 0.944705 0.944703 0.945497 0.945050 0.946259 0.947740 0.949667 0.950117 0.958265 0.961998 0.961417 0.960573 0.959538 0.973268 0.973131 0.972903 0.972869 0.972993 0.971433 0.970041 0.969943 0.970558 0.972505 0.972961 0.971138 0.969377 0.968667 0.968094 0.967906 0.967280 0.967625 0.968419 0.968503 0.969054 0.971749 0.970865 0.971500 0.970127 0.969391 0.968290 0.966405 0.966448 0.966268 0.965827 0.963690 0.961683 0.962465 0.960757 0.961205 0.961511 0.961780 0.962058 0.962022 0.961906 0.961926 0.962747 0.960485 0.948073 0.944146 0.940827 0.941404 0.943324 0.945869 0.945851 0.944490 0.942262 0.937017 0.932988 0.918517 0.911310 0.907733 0.912426 0.911518 0.912254 0.913056 0.909289 0.907646 0.907833 0.905747 0.908831 0.908203 0.905512 0.897735 0.895376 0.892996 0.894673 0.897055 0.899201 0.898448 0.894082 0.876184 0.869133 0.872981 0.872999 0.879817 0.875556 0.874447 0.874524 0.863885 0.859232 0.850302 0.849234 0.850476 0.851666 0.852729 0.854358 0.853057 0.833739 0.828302 0.824958 0.815471 0.819958 0.829628 0.830191 0.827479 0.812857 0.805197 0.789839 0.790500 0.794103 0.793202 0.799229 0.779806 0.780041 0.757505 0.756410 0.752704 0.741186 0.737878 0.726993 0.732096 0.737274 0.745606 0.746893 0.729186 0.723516 0.686225 0.693113 0.662720 0.669932 0.668912 0.657727 0.644327 0.633544 0.642369 0.644635 0.650041 0.623059 0.615354 0.595659 0.589220 0.595673 0.592981 0.596874 0.596203 0.590799 0.581909 0.588664 0.598943 0.604364 0.587323 0.587087 0.590489 0.562934 0.542018 0.525866 0.516994 0.528666 0.547727 0.546101 0.549422 0.545539 0.513017 0.497218 0.523199 0.533255 0.545696 0.536753 0.524547 0.517704 0.524838 0.498057 0.520495 0.516711 0.519008 0.497101 0.452729 0.404202 0.350547 0.369434 0.379867 0.386518 0.383925 0.383962 0.363332 0.322407 0.314684 0.316572 0.338008 0.330226 0.303709 0.315335 0.313346 0.315778 0.316715 0.308915 0.317041 0.312307 0.341719 0.344319 0.283571 0.259554 0.208104 0.197274 0.200108 0.228556 0.249772 0.240916 0.214336 0.103702 0.126506 0.155286 0.155286 0.155286 0.155286 0.155286 0.155286 0.155286 0.155286 0.155286 0.155286 0.155286 0.089623 0.089623 0.089623 0.089623 0.089623 0.089623 0.089623 0.089623 0.089623 0.089623 0.089623 0.089623 0.089623 0.089623 0.089623 0.089623 0.089623 0.089623 0.089623
0.000000 0.000000 0.000000 0.000000 0.000000 0.000000 0.000000 0.000000 0.000000 0.000000 0.000000 0.000000 0.000000 0.000000 0.000000 0.000000 0.000000 0.000000 0.000000 0.000000 0.000000 0.000000 0.000000 0.000000 0.000000 0.000000 0.000000 0.000000 0.000000 0.000000 0.000000 0.000000 0.000000 0.000000 0.000000 0.000000 0.000000 0.000000 0.000000 0.000000 0.000000 0.000000 0.000000 0.000000 0.000000 0.000000 0.000000 0.000000 0.000000 0.000000 0.000000 0.000000 0.173422 0.173422 0.173422 0.173422 0.173422 0.173422 0.173422 0.191565 0.191565 0.191565 0.191565 0.191565 0.191565 0.191565 0.191565 0.191565 0.191565 0.191565 0.191565 0.191565 0.191565 0.191565 0.191565 0.191565 0.191565 0.191565 0.191565 0.191565 0.191565 0.191565 0.191565 0.191565 0.191565 0.191565 0.191565 0.191565 0.191565 0.191565 0.191565 0.191565 0.191565 0.191565 0.191565 0.191565 0.191565 0.191565 0.191565 0.191565 0.191565 0.191565 0.191565 0.219529 0.219529 0.219529 0.219529 0.219529 0.219529 0.219529 0.219529 0.219529 0.219529 0.219529 0.219529 0.219529 0.219529 0.219529 0.219529 0.219529 0.219529 0.219529 0.219529 0.219529 0.219529 0.219529 0.219529 0.219529 0.219529 0.219529 0.219529 0.219529 0.219529 0.219529 0.237356 0.237356 0.237356 0.237356 0.237356 0.237356 0.237356 0.237356 0.237356 0.237356 0.237356 0.237356 0.237356 0.237356 0.237356 0.237356 0.237356 0.237356 0.237356 0.237356 0.237356 0.237356 0.237356 0.237356 0.244339 0.244339 0.244339 0.244339 0.244339 0.244339 0.244339 0.244339 0.244339 0.244339 0.244339 0.244339 0.244339 0.244339 0.244339 0.244339 0.244339 0.244339 0.244339 0.244339 0.244339 0.248069 0.248069 0.248069 0.248069 0.248069 0.248069 0.248069 0.248069 0.248069 0.248069 0.248069 0.248069 0.248069 0.248069 0.248069 0.248069 0.248069 0.248069 0.248069 0.248069 0.248069 0.248069 0.248069 0.248069 0.248069 0.248069 0.248069 0.248069 0.248069 0.248069 0.248069 0.248069 0.248069 0.248069 0.248069 0.248069 0.248069 0.256074 0.256074 0.256074 0.256074 0.256074 0.256074 0.256074 0.256074 0.256074 0.256074 0.256074 0.256074 0.256074 0.256074 0.256074 0.256074 0.256074 0.256074 0.256074 0.256074 0.256074 0.256074 0.256074 0.256074 0.256074 0.256074 0.256074 0.256074 0.256074 0.256074 0.256074 0.256074 0.256074 0.256074 0.256074 0.256074 0.256074 0.256074 0.256074 0.256074 0.256074 0.256074 0.256074 0.256074 0.256074 0.260378 0.260378 0.260378 0.260378 0.260378 0.260378 0.260378 0.260378 0.260378 0.260378 0.260378 0.260378 0.260378 0.256074 0.256074 0.256074 0.256074 0.256074 0.256074 0.256074 0.256074 0.256074 0.256074 0.256074 0.256074 0.256074 0.260378 0.260378 0.260378 0.260378 0.260378 0.260378 0.260378 0.260378 0.260378 0.260378 0.260378 0.260378 0.251976 0.251976 0.251976 0.251976 0.251976 0.251976 0.251976 0.251976 0.251976 0.251976 0.251976 0.251976 0.256074 0.256074 0.256074 0.256074 0.256074 0.256074 0.256074 0.256074 0.256074 0.256074 0.256074 0.251976 0.251976 0.251976 0.251976 0.251976 0.251976 0.251976 0.251976 0.251976 0.251976 0.251976 0.248069 0.248069 0.248069 0.248069 0.248069 0.248069 0.248069 0.248069 0.248069 0.248069 0.248069 0.256074 0.256074 0.256074 0.256074 0.256074 0.256074 0.256074 0.256074 0.256074 0.256074 0.256074 0.256074 0.256074 0.256074 0.256074 0.256074 0.256074 0.256074 0.256074
