# Output from CTFFind version 4.1.9, run on 2019-11-03 20:05:23
# Input file: stack11_bm3d_averaged_1_7.5_0_750_half.mrc ; Number of micrographs: 1
# Pixel size: 3.000 Angstroms ; acceleration voltage: 300.0 keV ; spherical aberration: 0.00 mm ; amplitude contrast: 0.07
# Box size: 512 pixels ; min. res.: 30.0 Angstroms ; max. res.: 5.0 Angstroms ; min. def.: 5000.0 um; max. def. 50000.0 um; num. frames averaged: 1
# 6 lines per micrograph: #1 - spatial frequency (1/Angstroms); #2 - 1D rotational average of spectrum (assuming no astigmatism); #3 - 1D rotational average of spectrum; #4 - CTF fit; #5 - cross-correlation between spectrum and CTF fit; #6 - 2sigma of expected cross correlation of noise
0.000000 0.000651 0.001302 0.001953 0.002604 0.003255 0.003906 0.004557 0.005208 0.005859 0.006510 0.007161 0.007812 0.008464 0.009115 0.009766 0.010417 0.011068 0.011719 0.012370 0.013021 0.013672 0.014323 0.014974 0.015625 0.016276 0.016927 0.017578 0.018229 0.018880 0.019531 0.020182 0.020833 0.021484 0.022135 0.022786 0.023438 0.024089 0.024740 0.025391 0.026042 0.026693 0.027344 0.027995 0.028646 0.029297 0.029948 0.030599 0.031250 0.031901 0.032552 0.033203 0.033854 0.034505 0.035156 0.035807 0.036458 0.037109 0.037760 0.038411 0.039062 0.039714 0.040365 0.041016 0.041667 0.042318 0.042969 0.043620 0.044271 0.044922 0.045573 0.046224 0.046875 0.047526 0.048177 0.048828 0.049479 0.050130 0.050781 0.051432 0.052083 0.052734 0.053385 0.054036 0.054688 0.055339 0.055990 0.056641 0.057292 0.057943 0.058594 0.059245 0.059896 0.060547 0.061198 0.061849 0.062500 0.063151 0.063802 0.064453 0.065104 0.065755 0.066406 0.067057 0.067708 0.068359 0.069010 0.069661 0.070312 0.070964 0.071615 0.072266 0.072917 0.073568 0.074219 0.074870 0.075521 0.076172 0.076823 0.077474 0.078125 0.078776 0.079427 0.080078 0.080729 0.081380 0.082031 0.082682 0.083333 0.083984 0.084635 0.085286 0.085938 0.086589 0.087240 0.087891 0.088542 0.089193 0.089844 0.090495 0.091146 0.091797 0.092448 0.093099 0.093750 0.094401 0.095052 0.095703 0.096354 0.097005 0.097656 0.098307 0.098958 0.099609 0.100260 0.100911 0.101562 0.102214 0.102865 0.103516 0.104167 0.104818 0.105469 0.106120 0.106771 0.107422 0.108073 0.108724 0.109375 0.110026 0.110677 0.111328 0.111979 0.112630 0.113281 0.113932 0.114583 0.115234 0.115885 0.116536 0.117188 0.117839 0.118490 0.119141 0.119792 0.120443 0.121094 0.121745 0.122396 0.123047 0.123698 0.124349 0.125000 0.125651 0.126302 0.126953 0.127604 0.128255 0.128906 0.129557 0.130208 0.130859 0.131510 0.132161 0.132812 0.133464 0.134115 0.134766 0.135417 0.136068 0.136719 0.137370 0.138021 0.138672 0.139323 0.139974 0.140625 0.141276 0.141927 0.142578 0.143229 0.143880 0.144531 0.145182 0.145833 0.146484 0.147135 0.147786 0.148438 0.149089 0.149740 0.150391 0.151042 0.151693 0.152344 0.152995 0.153646 0.154297 0.154948 0.155599 0.156250 0.156901 0.157552 0.158203 0.158854 0.159505 0.160156 0.160807 0.161458 0.162109 0.162760 0.163411 0.164062 0.164714 0.165365 0.166016 0.166667 0.167318 0.167969 0.168620 0.169271 0.169922 0.170573 0.171224 0.171875 0.172526 0.173177 0.173828 0.174479 0.175130 0.175781 0.176432 0.177083 0.177734 0.178385 0.179036 0.179688 0.180339 0.180990 0.181641 0.182292 0.182943 0.183594 0.184245 0.184896 0.185547 0.186198 0.186849 0.187500 0.188151 0.188802 0.189453 0.190104 0.190755 0.191406 0.192057 0.192708 0.193359 0.194010 0.194661 0.195312 0.195964 0.196615 0.197266 0.197917 0.198568 0.199219 0.199870 0.200521 0.201172 0.201823 0.202474 0.203125 0.203776 0.204427 0.205078 0.205729 0.206380 0.207031 0.207682 0.208333 0.208984 0.209635 0.210286 0.210938 0.211589 0.212240 0.212891 0.213542 0.214193 0.214844 0.215495 0.216146 0.216797 0.217448 0.218099 0.218750 0.219401 0.220052 0.220703 0.221354 0.222005 0.222656 0.223307 0.223958 0.224609 0.225260 0.225911 0.226562 0.227214 0.227865 0.228516 0.229167 0.229818 0.230469 0.231120 0.231771 0.232422 0.233073 0.233724 0.234375 0.235026 0.235677
       0.34630        0.34630        0.34630        0.34630        0.34630        0.34630        0.34630        0.34630        0.34630        0.34630        0.34630        0.34630        0.34630        0.34630        0.34630        0.34630        0.34630        0.34630        0.34630        0.34630        0.34630        0.34630        0.34630        0.34630        0.34630        0.34630        0.34630        0.34630        0.34630        0.34630        0.34630        0.34631        0.34630        0.34630        0.34630        0.34630        0.34630        0.34630        0.34631        0.34630        0.34630        0.34630        0.34630        0.34630        0.34630        0.34630        0.34630        0.34630        0.34630        0.34630        0.34630        0.69970        0.85729        0.53874        0.10551       -0.02875       -0.38332       -0.17930       -0.28825       -0.11680       -0.05462       -0.11310       -0.05324       -0.16448       -0.20456       -0.21227       -0.30582       -0.31714       -0.44208       -0.36134       -0.42401       -0.41933       -0.39177       -0.40330       -0.44310       -0.50458       -0.55711       -0.54644       -0.52033       -0.35419       -0.32286       -0.28848       -0.26855       -0.18452       -0.16794        0.06296        0.14462        0.17835        0.26826        0.38157        0.45825        0.52367        0.60277        0.59993        0.58582        0.70128        0.80238        0.70199        0.74504        0.61819        0.56864        0.48406        0.43414        0.51289        0.39912        0.27536        0.11884        0.11665        0.09753       -0.01017        0.04933        0.05562        0.01537        0.02906        0.03431        0.23671        0.27228        0.29695        0.43637        0.45433        0.41557        0.60269        0.61704        0.63249        0.72271        0.67512        0.64746        0.65464        0.55992        0.45965        0.41929        0.30535        0.27390        0.18747        0.13812        0.05279        0.06926        0.08029        0.10188        0.16315        0.24834        0.30180        0.42631        0.46657        0.48166        0.56244        0.60118        0.63659        0.61374        0.55712        0.46351        0.47373        0.37899        0.28033        0.21425        0.15648        0.17523        0.15507        0.16550        0.19553        0.32648        0.34130        0.41102        0.44924        0.42503        0.47880        0.56417        0.55662        0.50516        0.45792        0.41546        0.37610        0.34490        0.31265        0.26864        0.24856        0.25945        0.25919        0.22803        0.31232        0.36656        0.38499        0.43957        0.45622        0.46717        0.42935        0.41463        0.40273        0.36459        0.34206        0.27593        0.28496        0.27117        0.25095        0.29890        0.29642        0.35455        0.38561        0.43844        0.47689        0.40661        0.42257        0.43296        0.41325        0.35198        0.33145        0.29325        0.32933        0.27846        0.32655        0.31816        0.33626        0.34432        0.36693        0.31237        0.38736        0.41185        0.38182        0.35369        0.36997        0.32093        0.29741        0.31067        0.32023        0.30921        0.32151        0.34809        0.36054        0.34219        0.36405        0.36262        0.42709        0.39308        0.34203        0.35121        0.30127        0.29693        0.32841        0.32160        0.33214        0.34543        0.34615        0.39009        0.33203        0.33105        0.33989        0.35201        0.30564        0.31373        0.28419        0.30389        0.33403        0.30468        0.33434        0.36130        0.37455        0.30155        0.34703        0.30166        0.29191        0.28028        0.24869        0.31062        0.30988        0.34373        0.34101        0.34759        0.32957        0.35069        0.31713        0.34688        0.30531        0.32836        0.29624        0.33921        0.33562        0.37727        0.33479        0.33790        0.33699        0.29410        0.27801        0.31509        0.25296        0.23191        0.34123        0.32529        0.37006        0.34860        0.36568        0.33876        0.33454        0.35441        0.26810        0.27339        0.32148        0.30215        0.31192        0.31316        0.33989        0.32928        0.28894        0.29296        0.34660        0.32370        0.32560        0.30349        0.32145        0.33737        0.39159        0.36670        0.32314        0.28486        0.30391        0.29124        0.31153        0.28208        0.27486        0.31311        0.32897        0.34702        0.35731        0.33458        0.29867        0.30266        0.27333        0.28156        0.25842        0.30622        0.25908        0.25193        0.28593        0.28092        0.26238        0.29331        0.22253        0.21912        0.23681        0.19551        0.27699        0.35161        0.25522        0.24935        0.32035        0.29978        0.30693        0.31478        0.27725        0.25498        0.19698        0.21154        0.21397        0.29263        0.23762        0.28579        0.36852        0.37881        0.26143        0.18984        0.14249       -0.01804       -0.14442       -0.62820
2.731749 2.702746 2.673902 2.645216 2.616687 2.588317 2.560104 2.532050 2.504153 2.476415 2.448834 2.421411 2.394146 2.367040 2.340091 2.313300 2.286667 2.260192 2.233875 2.207716 2.181714 2.155871 2.130186 2.104658 2.079289 2.054078 2.029024 2.004129 1.979391 1.954811 1.930390 1.906126 1.882020 1.858072 1.834282 1.810650 1.787176 1.763860 1.740702 1.717702 1.694860 1.672175 1.649649 1.627281 1.605070 1.583018 1.561123 1.539387 1.517808 1.496387 1.475124 1.687149 2.102157 1.669604 1.160060 1.026241 0.443578 0.827643 0.545133 0.821653 0.794936 0.796374 0.736471 0.737456 0.581520 0.546424 0.488229 0.414947 0.243140 0.352762 0.192871 0.321319 0.211436 0.206015 0.181187 0.040760 -0.000621 0.018265 -0.068564 0.129632 0.227315 0.183766 0.175470 0.314419 0.178496 0.509130 0.609741 0.621083 0.637380 0.854658 0.815080 0.920260 0.919388 1.012645 0.984453 1.063378 1.142979 1.017807 1.139980 0.887071 0.906480 0.777342 0.638334 0.790514 0.677048 0.487276 0.325815 0.245383 0.264680 0.145856 0.136616 0.163100 0.107256 0.114127 0.082184 0.240889 0.339675 0.331985 0.465300 0.530776 0.405596 0.580636 0.714483 0.624342 0.700574 0.691309 0.700943 0.627797 0.580353 0.474826 0.356121 0.270349 0.214008 0.091695 0.113098 -0.117102 -0.048145 -0.061576 -0.083192 -0.016572 0.124869 0.070607 0.237747 0.299828 0.327795 0.360662 0.481045 0.451189 0.465639 0.475760 0.296354 0.285091 0.278734 0.083615 0.044829 -0.081552 -0.016559 -0.061710 -0.095141 -0.065381 0.039975 0.093069 0.124211 0.221789 0.215772 0.211795 0.306003 0.332229 0.435466 0.248584 0.225713 0.222049 0.139680 0.142383 0.117391 -0.004451 0.014144 0.077387 -0.011136 0.042758 0.130179 0.131468 0.206039 0.226752 0.247748 0.158354 0.205973 0.125716 0.119182 0.113815 0.024722 -0.025777 -0.001639 -0.019946 -0.049906 0.054596 0.003171 0.104119 0.134533 0.190133 0.154239 0.117277 0.135590 0.153771 0.106174 0.033464 -0.025951 0.025213 0.029686 -0.044531 0.038699 0.018391 0.046753 0.038445 0.053123 0.018031 0.127772 0.112182 0.044241 0.034784 0.039782 0.003971 -0.029790 0.007414 0.001929 -0.005692 0.001186 0.058088 0.052122 0.036726 0.069239 0.060511 0.162842 0.062981 0.041956 0.043205 -0.034009 0.013046 0.047388 0.008228 0.031895 0.055589 0.076798 0.057873 0.041330 0.008202 0.078683 0.029436 0.019790 0.025458 -0.004565 0.031138 0.027611 0.020728 0.069343 0.074655 0.079946 0.042243 0.054223 0.021076 0.017650 -0.026655 -0.023091 0.038078 0.051819 0.078475 0.078738 0.065395 0.069028 0.094256 0.041462 0.085517 0.053017 0.045283 0.017898 0.102494 0.063277 0.124974 0.060971 0.068871 0.089540 0.026927 0.002422 0.082942 -0.038690 -0.030186 0.086888 0.041448 0.154043 0.087269 0.085438 0.063210 0.025309 0.086406 -0.028195 -0.023692 0.043074 0.028326 0.028140 0.011420 0.097480 0.025389 -0.015203 0.046919 0.036382 0.051260 0.053634 -0.007244 0.050752 0.044492 0.109867 0.059978 0.028094 -0.029583 -0.031624 -0.004187 0.011161 -0.055795 -0.019147 -0.000941 0.006088 0.041874 0.060457 0.005617 -0.029836 -0.027107 -0.017566 -0.062159 -0.043098 -0.037473 -0.127617 -0.092009 -0.064654 -0.098812 -0.106274 -0.030572 -0.150025 -0.099978 -0.116222 -0.194441 -0.069579 0.059118 -0.076148 -0.128823 0.049292 0.019734 -0.031871 0.067241 -0.023573 -0.004592 -0.078712 -0.042391 0.050916 0.135158 0.050191 0.135381 0.162127 0.474263 0.209001 0.327728 0.178949 -0.023122 -0.684853
0.072396 0.072899 0.074408 0.076923 0.080443 0.084967 0.090494 0.097023 0.104551 0.113075 0.122592 0.133097 0.144586 0.157052 0.170488 0.184883 0.200227 0.216507 0.233708 0.251812 0.270801 0.290649 0.311333 0.332821 0.355081 0.378076 0.401764 0.426099 0.451030 0.476501 0.502451 0.528812 0.555511 0.582471 0.609604 0.636819 0.664017 0.691093 0.717935 0.744424 0.770433 0.795830 0.820476 0.844225 0.866926 0.888422 0.908548 0.927140 0.944025 0.959029 0.971975 0.982685 0.990981 0.996685 0.999623 0.999622 0.996516 0.990146 0.980362 0.967024 0.950004 0.929190 0.904485 0.875814 0.843120 0.806371 0.765561 0.720710 0.671869 0.619123 0.562587 0.502415 0.438796 0.371959 0.302172 0.229742 0.155019 0.078391 0.000287 0.078824 0.158437 0.238011 0.316974 0.394722 0.470627 0.544042 0.614303 0.680735 0.742662 0.799414 0.850328 0.894766 0.932117 0.961808 0.983313 0.996165 0.999962 0.994378 0.979173 0.954201 0.919419 0.874892 0.820804 0.757460 0.685289 0.604850 0.516832 0.422051 0.321448 0.216083 0.107128 0.004141 0.116361 0.228092 0.337839 0.444064 0.545218 0.639753 0.726156 0.802969 0.868820 0.922450 0.962738 0.988731 0.999670 0.995012 0.974451 0.937943 0.885711 0.818267 0.736409 0.641226 0.534093 0.416658 0.290823 0.158726 0.022702 0.114747 0.251000 0.383365 0.509125 0.625605 0.730228 0.820574 0.894441 0.949912 0.985405 0.999729 0.992131 0.962331 0.910557 0.837560 0.744619 0.633538 0.506624 0.366645 0.216792 0.060609 0.098085 0.255284 0.406892 0.548832 0.677156 0.788167 0.878526 0.945368 0.986399 0.999996 0.985273 0.942147 0.871367 0.774533 0.654078 0.513227 0.355931 0.186767 0.010821 0.166458 0.339422 0.502404 0.649908 0.776792 0.878473 0.951097 0.991703 0.998363 0.970293 0.907920 0.812915 0.688179 0.537782 0.366853 0.181422 0.011766 0.205500 0.392355 0.564986 0.716414 0.840330 0.931365 0.985348 0.999523 0.972710 0.905414 0.799858 0.659951 0.491176 0.300405 0.095639 0.114304 0.320166 0.512644 0.682829 0.822620 0.925133 0.985070 0.999015 0.965667 0.885969 0.763136 0.602568 0.411656 0.199468 0.023646 0.246553 0.457874 0.646580 0.802571 0.917242 0.983990 0.998630 0.959696 0.868602 0.729659 0.549915 0.338847 0.107904 0.130102 0.361680 0.573420 0.752788 0.888887 0.973150 0.999923 0.966893 0.875324 0.730079 0.539433 0.314641 0.069330 0.181307 0.421435 0.635569 0.809603 0.931753 0.993413 0.989805 0.920406 0.789101 0.604043 0.377202 0.123658 0.139379 0.393697 0.621360 0.805970 0.933894 0.995319 0.985061 0.903067 0.754558 0.549773 0.303341 0.033285 0.240249 0.496487 0.715597 0.880263 0.977098 0.997788 0.939889 0.807160 0.609432 0.361940 0.084249 0.201277 0.471228 0.703073 0.877080 0.978031 0.996636 0.930465 0.784326 0.570017 0.305475 0.013337 0.280937 0.551272 0.773290 0.926554 0.996515 0.975975 0.865921 0.675632 0.421993 0.128103 0.178775 0.469695 0.716771 0.895869 0.989041 0.986409 0.887315 0.700596 0.443919 0.142207 0.174695 0.474931 0.727856 0.907166 0.993737 0.977748 0.859917 0.651652 0.374080 0.056014 0.268976 0.566053 0.802874 0.953155 0.999685 0.936414 0.769362 0.516200 0.204510 0.131110 0.452840 0.723886 0.912721 0.996848 0.965592 0.821598 0.580785 0.270750 0.072295 0.407670 0.695021 0.899231 0.994780 0.969072 0.824240 0.577176 0.257721 0.094804 0.436376 0.723732 0.919903 0.999062 0.950070 0.778201 0.504778 0.164686 0.197930
1.000000 1.000000 1.000000 1.000000 1.000000 1.000000 1.000000 1.000000 1.000000 1.000000 1.000000 1.000000 1.000000 1.000000 1.000000 1.000000 1.000000 1.000000 1.000000 1.000000 1.000000 1.000000 1.000000 1.000000 1.000000 1.000000 1.000000 1.000000 1.000000 1.000000 1.000000 1.000000 1.000000 1.000000 1.000000 1.000000 1.000000 1.000000 1.000000 1.000000 1.000000 1.000000 1.000000 1.000000 1.000000 1.000000 1.000000 1.000000 1.000000 1.000000 1.000000 1.000000 0.914217 0.914217 0.914217 0.911311 0.911311 0.911311 0.911311 0.911311 0.911311 0.911311 0.911311 0.911311 0.911311 0.911311 0.911311 0.911311 0.911311 0.911311 0.911311 0.911311 0.911311 0.911311 0.911311 0.911311 0.911311 0.911311 0.911311 0.911311 0.911311 0.911311 0.911311 0.911311 0.911311 0.911311 0.911311 0.911311 0.911311 0.911311 0.911311 0.911311 0.911311 0.911311 0.911311 0.911311 0.939737 0.941165 0.949522 0.949044 0.948502 0.946526 0.945259 0.945049 0.944964 0.945317 0.946053 0.947048 0.953264 0.954200 0.958605 0.961327 0.961300 0.963044 0.965019 0.964662 0.956384 0.956136 0.954696 0.953976 0.956090 0.954737 0.953514 0.953991 0.951644 0.955982 0.955552 0.954348 0.952712 0.951123 0.947537 0.947034 0.946070 0.946893 0.946988 0.948599 0.951650 0.951827 0.951574 0.948843 0.948441 0.949652 0.949210 0.951005 0.938842 0.938085 0.936515 0.936460 0.938964 0.938838 0.938723 0.939639 0.939337 0.939257 0.939409 0.933654 0.933353 0.926339 0.922462 0.921230 0.915652 0.911638 0.914354 0.917095 0.918291 0.918686 0.909188 0.906284 0.907274 0.906022 0.907439 0.908085 0.909246 0.909639 0.909559 0.904480 0.895080 0.893537 0.884551 0.887285 0.883482 0.880798 0.877958 0.869451 0.861042 0.872915 0.859935 0.818462 0.822040 0.826616 0.819351 0.815708 0.820075 0.821606 0.826414 0.820372 0.819240 0.813106 0.799563 0.795824 0.789160 0.774591 0.770674 0.761290 0.751010 0.744940 0.768230 0.761949 0.773698 0.777931 0.777513 0.773683 0.763980 0.752611 0.752817 0.751731 0.747586 0.723691 0.715247 0.715275 0.713090 0.699999 0.702889 0.691527 0.691782 0.678863 0.683918 0.689818 0.693270 0.688542 0.681844 0.673609 0.668779 0.682716 0.696004 0.688044 0.684608 0.693740 0.684628 0.679129 0.670446 0.674067 0.665586 0.661198 0.662565 0.695989 0.669533 0.659310 0.665561 0.665984 0.663567 0.663473 0.642348 0.636739 0.613266 0.630733 0.635462 0.651111 0.653373 0.656854 0.667556 0.673491 0.684154 0.688899 0.686782 0.646110 0.650663 0.668000 0.675955 0.665761 0.656010 0.650273 0.640348 0.677276 0.661719 0.620221 0.615934 0.616644 0.570760 0.549701 0.547961 0.549233 0.576645 0.574714 0.558273 0.532306 0.534200 0.534306 0.530150 0.529265 0.508587 0.518754 0.502326 0.479501 0.492533 0.501037 0.499774 0.483844 0.477594 0.491395 0.472074 0.495771 0.474248 0.457422 0.473528 0.472773 0.460766 0.389403 0.396011 0.387102 0.371835 0.329160 0.338409 0.348486 0.327963 0.251789 0.246300 0.247100 0.243367 0.221401 0.195488 0.182182 0.172535 0.149913 0.091285 0.041839 0.044841 0.048802 0.075139 0.037174 0.091062 0.160986 0.157442 0.157442 0.157442 0.157442 0.157442 0.157442 0.157442 0.157442 0.134084 0.134084 0.134084 0.134084 0.134084 0.134084 0.134084 0.134084 0.134084 0.157442 0.157442 0.157442 0.157442 0.157442 0.157442 0.157442 0.157442 0.157442 0.157442 0.157442 0.157442 0.157442 0.157442
0.000000 0.000000 0.000000 0.000000 0.000000 0.000000 0.000000 0.000000 0.000000 0.000000 0.000000 0.000000 0.000000 0.000000 0.000000 0.000000 0.000000 0.000000 0.000000 0.000000 0.000000 0.000000 0.000000 0.000000 0.000000 0.000000 0.000000 0.000000 0.000000 0.000000 0.000000 0.000000 0.000000 0.000000 0.000000 0.000000 0.000000 0.000000 0.000000 0.000000 0.000000 0.000000 0.000000 0.000000 0.000000 0.000000 0.000000 0.000000 0.000000 0.000000 0.000000 0.000000 0.180334 0.180334 0.180334 0.199007 0.199007 0.199007 0.199007 0.199007 0.199007 0.199007 0.199007 0.199007 0.199007 0.199007 0.199007 0.199007 0.199007 0.199007 0.199007 0.199007 0.199007 0.199007 0.199007 0.199007 0.199007 0.199007 0.199007 0.199007 0.199007 0.199007 0.199007 0.199007 0.199007 0.199007 0.199007 0.199007 0.199007 0.199007 0.199007 0.199007 0.199007 0.199007 0.199007 0.199007 0.225018 0.225018 0.225018 0.225018 0.225018 0.225018 0.225018 0.225018 0.225018 0.225018 0.225018 0.225018 0.225018 0.225018 0.225018 0.225018 0.225018 0.225018 0.225018 0.225018 0.225018 0.225018 0.225018 0.225018 0.225018 0.225018 0.225018 0.225018 0.225018 0.244339 0.244339 0.244339 0.244339 0.244339 0.244339 0.244339 0.244339 0.244339 0.244339 0.244339 0.244339 0.244339 0.244339 0.244339 0.244339 0.244339 0.244339 0.244339 0.244339 0.244339 0.244339 0.244339 0.256074 0.256074 0.256074 0.256074 0.256074 0.256074 0.256074 0.256074 0.256074 0.256074 0.256074 0.256074 0.256074 0.256074 0.256074 0.256074 0.256074 0.256074 0.256074 0.256074 0.256074 0.256074 0.256074 0.256074 0.256074 0.256074 0.256074 0.256074 0.256074 0.256074 0.256074 0.256074 0.256074 0.256074 0.256074 0.256074 0.256074 0.264906 0.264906 0.264906 0.264906 0.264906 0.264906 0.264906 0.264906 0.264906 0.264906 0.264906 0.264906 0.264906 0.264906 0.264906 0.264906 0.264906 0.264906 0.264906 0.264906 0.264906 0.264906 0.264906 0.264906 0.264906 0.264906 0.264906 0.264906 0.264906 0.264906 0.264906 0.264906 0.264906 0.264906 0.264906 0.264906 0.264906 0.264906 0.264906 0.264906 0.264906 0.264906 0.264906 0.264906 0.264906 0.264906 0.264906 0.264906 0.264906 0.264906 0.264906 0.264906 0.264906 0.264906 0.264906 0.264906 0.264906 0.264906 0.260378 0.260378 0.260378 0.260378 0.260378 0.260378 0.260378 0.260378 0.260378 0.260378 0.260378 0.260378 0.260378 0.264906 0.264906 0.264906 0.264906 0.264906 0.264906 0.264906 0.264906 0.264906 0.264906 0.264906 0.264906 0.269680 0.269680 0.269680 0.269680 0.269680 0.269680 0.269680 0.269680 0.269680 0.269680 0.269680 0.264906 0.264906 0.264906 0.264906 0.264906 0.264906 0.264906 0.264906 0.264906 0.264906 0.264906 0.256074 0.256074 0.256074 0.256074 0.256074 0.256074 0.256074 0.256074 0.256074 0.256074 0.256074 0.264906 0.264906 0.264906 0.264906 0.264906 0.264906 0.264906 0.264906 0.264906 0.264906 0.260378 0.260378 0.260378 0.260378 0.260378 0.260378 0.260378 0.260378 0.260378 0.260378 0.264906 0.264906 0.264906 0.264906 0.264906 0.264906 0.264906 0.264906 0.264906 0.251976 0.251976 0.251976 0.251976 0.251976 0.251976 0.251976 0.251976 0.251976 0.251976 0.256074 0.256074 0.256074 0.256074 0.256074 0.256074 0.256074 0.256074 0.256074 0.251976 0.251976 0.251976 0.251976 0.251976 0.251976 0.251976 0.251976 0.251976 0.251976 0.251976 0.251976 0.251976 0.251976
