# Output from CTFFind version 4.1.9, run on 2019-11-03 20:09:15
# Input file: stack1_bm3d_averaged_1_6.0_0_2500_half.mrc ; Number of micrographs: 1
# Pixel size: 3.000 Angstroms ; acceleration voltage: 300.0 keV ; spherical aberration: 0.00 mm ; amplitude contrast: 0.07
# Box size: 512 pixels ; min. res.: 30.0 Angstroms ; max. res.: 5.0 Angstroms ; min. def.: 5000.0 um; max. def. 50000.0 um; num. frames averaged: 1
# 6 lines per micrograph: #1 - spatial frequency (1/Angstroms); #2 - 1D rotational average of spectrum (assuming no astigmatism); #3 - 1D rotational average of spectrum; #4 - CTF fit; #5 - cross-correlation between spectrum and CTF fit; #6 - 2sigma of expected cross correlation of noise
0.000000 0.000651 0.001302 0.001953 0.002604 0.003255 0.003906 0.004557 0.005208 0.005859 0.006510 0.007161 0.007812 0.008464 0.009115 0.009766 0.010417 0.011068 0.011719 0.012370 0.013021 0.013672 0.014323 0.014974 0.015625 0.016276 0.016927 0.017578 0.018229 0.018880 0.019531 0.020182 0.020833 0.021484 0.022135 0.022786 0.023438 0.024089 0.024740 0.025391 0.026042 0.026693 0.027344 0.027995 0.028646 0.029297 0.029948 0.030599 0.031250 0.031901 0.032552 0.033203 0.033854 0.034505 0.035156 0.035807 0.036458 0.037109 0.037760 0.038411 0.039062 0.039714 0.040365 0.041016 0.041667 0.042318 0.042969 0.043620 0.044271 0.044922 0.045573 0.046224 0.046875 0.047526 0.048177 0.048828 0.049479 0.050130 0.050781 0.051432 0.052083 0.052734 0.053385 0.054036 0.054688 0.055339 0.055990 0.056641 0.057292 0.057943 0.058594 0.059245 0.059896 0.060547 0.061198 0.061849 0.062500 0.063151 0.063802 0.064453 0.065104 0.065755 0.066406 0.067057 0.067708 0.068359 0.069010 0.069661 0.070312 0.070964 0.071615 0.072266 0.072917 0.073568 0.074219 0.074870 0.075521 0.076172 0.076823 0.077474 0.078125 0.078776 0.079427 0.080078 0.080729 0.081380 0.082031 0.082682 0.083333 0.083984 0.084635 0.085286 0.085938 0.086589 0.087240 0.087891 0.088542 0.089193 0.089844 0.090495 0.091146 0.091797 0.092448 0.093099 0.093750 0.094401 0.095052 0.095703 0.096354 0.097005 0.097656 0.098307 0.098958 0.099609 0.100260 0.100911 0.101562 0.102214 0.102865 0.103516 0.104167 0.104818 0.105469 0.106120 0.106771 0.107422 0.108073 0.108724 0.109375 0.110026 0.110677 0.111328 0.111979 0.112630 0.113281 0.113932 0.114583 0.115234 0.115885 0.116536 0.117188 0.117839 0.118490 0.119141 0.119792 0.120443 0.121094 0.121745 0.122396 0.123047 0.123698 0.124349 0.125000 0.125651 0.126302 0.126953 0.127604 0.128255 0.128906 0.129557 0.130208 0.130859 0.131510 0.132161 0.132812 0.133464 0.134115 0.134766 0.135417 0.136068 0.136719 0.137370 0.138021 0.138672 0.139323 0.139974 0.140625 0.141276 0.141927 0.142578 0.143229 0.143880 0.144531 0.145182 0.145833 0.146484 0.147135 0.147786 0.148438 0.149089 0.149740 0.150391 0.151042 0.151693 0.152344 0.152995 0.153646 0.154297 0.154948 0.155599 0.156250 0.156901 0.157552 0.158203 0.158854 0.159505 0.160156 0.160807 0.161458 0.162109 0.162760 0.163411 0.164062 0.164714 0.165365 0.166016 0.166667 0.167318 0.167969 0.168620 0.169271 0.169922 0.170573 0.171224 0.171875 0.172526 0.173177 0.173828 0.174479 0.175130 0.175781 0.176432 0.177083 0.177734 0.178385 0.179036 0.179688 0.180339 0.180990 0.181641 0.182292 0.182943 0.183594 0.184245 0.184896 0.185547 0.186198 0.186849 0.187500 0.188151 0.188802 0.189453 0.190104 0.190755 0.191406 0.192057 0.192708 0.193359 0.194010 0.194661 0.195312 0.195964 0.196615 0.197266 0.197917 0.198568 0.199219 0.199870 0.200521 0.201172 0.201823 0.202474 0.203125 0.203776 0.204427 0.205078 0.205729 0.206380 0.207031 0.207682 0.208333 0.208984 0.209635 0.210286 0.210938 0.211589 0.212240 0.212891 0.213542 0.214193 0.214844 0.215495 0.216146 0.216797 0.217448 0.218099 0.218750 0.219401 0.220052 0.220703 0.221354 0.222005 0.222656 0.223307 0.223958 0.224609 0.225260 0.225911 0.226562 0.227214 0.227865 0.228516 0.229167 0.229818 0.230469 0.231120 0.231771 0.232422 0.233073 0.233724 0.234375 0.235026 0.235677
       0.34992        0.34992        0.34992        0.34992        0.34992        0.34992        0.34992        0.34992        0.34992        0.34992        0.34992        0.34992        0.34992        0.34992        0.34992        0.34992        0.34992        0.34992        0.34992        0.34992        0.34992        0.34992        0.34992        0.34992        0.34992        0.34992        0.34992        0.34992        0.34992        0.34992        0.34992        0.34992        0.34992        0.34992        0.34992        0.34992        0.34992        0.34992        0.34992        0.34992        0.34992        0.34992        0.34992        0.34992        0.34992        0.34992        0.34992        0.34992        0.34992        0.34992        0.34992        0.37742        0.54552        0.25176        0.09964       -0.00732       -0.27153       -0.10667       -0.17292       -0.21838        0.01591       -0.13743       -0.09533       -0.05771       -0.03918       -0.12861       -0.15531       -0.27818       -0.35699       -0.47011       -0.40690       -0.30271       -0.24800       -0.35286       -0.26897       -0.35110       -0.30751       -0.34165       -0.16679       -0.16919       -0.23128       -0.06116       -0.00627       -0.03699        0.08376        0.03009        0.21260        0.23729        0.34057        0.35985        0.42061        0.45929        0.52439        0.58606        0.62453        0.53983        0.50460        0.50904        0.46995        0.55214        0.46941        0.41556        0.40897        0.34091        0.29372        0.31195        0.33548        0.23231        0.19957        0.11117        0.13929        0.14924        0.17980        0.14463        0.21342        0.26083        0.30738        0.30169        0.35719        0.46872        0.40624        0.48661        0.62294        0.60121        0.53874        0.55203        0.59142        0.42442        0.48767        0.37845        0.31621        0.29457        0.26704        0.25701        0.18274        0.17784        0.14356        0.21558        0.26076        0.28717        0.35040        0.31404        0.41783        0.45886        0.46596        0.46171        0.49197        0.53865        0.48579        0.45754        0.41983        0.34174        0.33657        0.28871        0.31210        0.24352        0.23038        0.27802        0.24704        0.27171        0.32981        0.42990        0.42959        0.43476        0.41365        0.49136        0.48892        0.47169        0.45380        0.38291        0.37979        0.40877        0.38628        0.31632        0.28633        0.32351        0.29406        0.30079        0.29627        0.33043        0.36129        0.38914        0.45307        0.48179        0.38389        0.44482        0.43127        0.37439        0.30868        0.36367        0.32322        0.31495        0.33757        0.27354        0.26039        0.31813        0.33708        0.44064        0.41863        0.38758        0.38801        0.41120        0.36161        0.36469        0.33001        0.32912        0.31606        0.30618        0.29732        0.35529        0.36481        0.34596        0.35249        0.40382        0.39889        0.45830        0.40944        0.35328        0.35430        0.35695        0.33452        0.32344        0.34319        0.38877        0.35014        0.36161        0.34356        0.43251        0.37635        0.35248        0.34715        0.37577        0.37572        0.33368        0.33214        0.30338        0.32469        0.33445        0.31339        0.32671        0.34785        0.36065        0.34654        0.33949        0.30487        0.30111        0.28645        0.33322        0.32133        0.35904        0.32581        0.34530        0.36728        0.33659        0.33200        0.31743        0.28665        0.33849        0.32177        0.32941        0.32151        0.31957        0.32498        0.31653        0.34066        0.36022        0.35326        0.33458        0.29871        0.33558        0.30633        0.34165        0.32996        0.27022        0.32124        0.30211        0.33796        0.32758        0.39275        0.33014        0.31252        0.26698        0.31898        0.38544        0.34952        0.31712        0.33615        0.31730        0.32589        0.32048        0.32329        0.30076        0.31406        0.27192        0.28463        0.31643        0.30006        0.30036        0.31246        0.24562        0.31312        0.34232        0.36476        0.35443        0.31278        0.31873        0.28621        0.30677        0.31066        0.29539        0.32850        0.28269        0.29752        0.33531        0.36920        0.35295        0.28488        0.27506        0.32784        0.30315        0.31626        0.35680        0.36620        0.29083        0.27937        0.32585        0.32552        0.26807        0.22275        0.23810        0.26170        0.30159        0.31884        0.27567        0.34522        0.29501        0.26217        0.29322        0.28880        0.21451        0.27198        0.32013        0.26294        0.20132        0.22616        0.30778        0.41975        0.30633        0.24373        0.15352        0.23004        0.27499        0.28193        0.40005        0.22519        0.15885        0.26231        0.30902        0.28306        0.19367       -0.01935       -0.59048       -0.95419
3.116646 3.082493 3.048531 3.014758 2.981176 2.947784 2.914581 2.881569 2.848747 2.816115 2.783674 2.751422 2.719360 2.687489 2.655807 2.624316 2.593015 2.561904 2.530982 2.500252 2.469711 2.439360 2.409199 2.379229 2.349448 2.319858 2.290458 2.261248 2.232228 2.203398 2.174758 2.146308 2.118049 2.089979 2.062100 2.034410 2.006911 1.979602 1.952483 1.925554 1.898815 1.872266 1.845908 1.819739 1.793761 1.767972 1.742374 1.716966 1.691748 1.666720 1.641882 1.579078 1.907907 1.643594 1.181580 1.031399 0.385004 0.888901 0.508694 0.632832 0.896684 0.674754 0.598298 0.753620 0.688334 0.621757 0.497507 0.329835 0.143841 -0.024980 -0.020902 0.049227 0.399304 -0.029312 0.150688 0.028816 0.095705 -0.062811 0.234249 0.186185 0.091711 0.282588 0.440286 0.279398 0.472324 0.383605 0.700989 0.599185 0.833509 0.798893 0.839830 1.032297 0.928710 1.174240 1.132848 1.088108 0.915390 0.943916 0.897400 0.895043 0.901015 0.741930 0.667275 0.616538 0.557423 0.470121 0.539721 0.412296 0.318098 0.180351 0.135718 0.174562 0.220397 0.150815 0.168753 0.300758 0.334022 0.350373 0.423943 0.462519 0.532353 0.390548 0.769311 0.759431 0.668466 0.606256 0.705910 0.480321 0.436597 0.432477 0.195215 0.218926 0.082617 0.176277 -0.022104 -0.014701 -0.086297 -0.083908 0.125561 0.034950 0.134480 0.171468 0.196940 0.316034 0.339357 0.317006 0.356825 0.410180 0.388231 0.297186 0.279214 0.159229 0.137713 0.060109 0.018177 0.013657 -0.097162 -0.022495 -0.005134 -0.073344 -0.027390 0.134351 0.275386 0.172795 0.233769 0.210762 0.442056 0.271081 0.297819 0.282535 0.160115 0.129542 0.304699 0.036687 0.058183 0.023184 0.077812 0.008435 0.084811 -0.003128 0.147784 0.008013 0.230536 0.286345 0.249276 0.170223 0.218448 0.157632 0.053034 0.077961 0.092910 -0.006711 0.020068 0.058377 -0.114961 -0.047741 0.009851 0.096759 0.250138 0.113713 0.122827 0.105910 0.121232 0.048156 0.051298 -0.023229 0.014353 -0.039167 -0.046548 -0.002247 0.045711 0.059006 -0.005825 0.053437 0.128450 0.104375 0.248663 0.045706 0.041806 0.044375 0.003926 0.019449 -0.018847 0.057294 0.100138 0.005227 0.040469 0.035889 0.185373 0.023042 0.017113 0.027842 0.053767 0.056893 -0.028679 0.007966 -0.057419 -0.020797 0.001697 -0.022719 -0.028590 0.040825 -0.014809 0.017501 -0.026800 -0.085636 -0.048470 -0.082463 -0.022924 -0.021606 0.022772 -0.020048 0.006640 0.053573 -0.018873 0.024440 -0.035139 -0.053145 0.032053 -0.020015 0.026301 0.009209 0.000387 0.005690 -0.014228 0.064750 0.074065 0.077127 0.005204 0.006420 0.026404 0.018343 0.054457 0.040975 -0.051676 0.043761 0.017568 0.047728 0.019328 0.146623 0.024396 -0.026814 -0.068336 0.042172 0.141674 0.024439 0.005236 0.019692 0.078504 0.025996 0.007727 0.027217 0.010042 0.014069 -0.051845 -0.040901 0.027694 -0.006846 -0.015853 -0.047011 -0.150392 0.035918 0.057768 0.065471 0.023166 -0.000084 -0.020363 -0.041198 -0.045137 -0.055371 -0.041727 -0.015394 -0.115748 -0.071234 0.013543 0.044294 0.006897 -0.084514 -0.162020 -0.078018 -0.054147 -0.113337 0.023493 0.003758 -0.101306 -0.097968 -0.039860 -0.040473 -0.094425 -0.136809 -0.146903 -0.016540 0.038740 -0.025682 -0.074567 0.107521 0.045919 -0.189022 0.066353 0.007010 -0.108099 0.038725 0.098384 -0.001993 -0.063142 -0.017524 0.046154 0.264450 0.085426 0.082807 -0.205605 0.001503 0.185794 0.096389 0.342842 0.292183 0.248882 0.457634 0.543170 0.293831 0.279465 -0.021244 -1.459761
0.072396 0.072906 0.074435 0.076983 0.080549 0.085132 0.090732 0.097346 0.104972 0.113607 0.123248 0.133891 0.145529 0.158157 0.171765 0.186345 0.201886 0.218373 0.235792 0.254123 0.273347 0.293440 0.314375 0.336120 0.358642 0.381902 0.405856 0.430458 0.455654 0.481386 0.507591 0.534198 0.561133 0.588313 0.615649 0.643047 0.670404 0.697612 0.724553 0.751106 0.777139 0.802516 0.827093 0.850720 0.873240 0.894492 0.914309 0.932518 0.948944 0.963409 0.975731 0.985728 0.993220 0.998025 0.999967 0.998871 0.994571 0.986907 0.975730 0.960901 0.942297 0.919809 0.893346 0.862838 0.828238 0.789525 0.746702 0.699803 0.648897 0.594081 0.535491 0.473301 0.407721 0.339004 0.267441 0.193367 0.117158 0.039230 0.039959 0.119912 0.200095 0.279939 0.358843 0.436179 0.511294 0.583518 0.652168 0.716553 0.775987 0.829790 0.877299 0.917878 0.950927 0.975890 0.992263 0.999611 0.997571 0.985863 0.964303 0.932808 0.891403 0.840234 0.779568 0.709800 0.631458 0.545200 0.451816 0.352228 0.247480 0.138737 0.027267 0.085563 0.198303 0.309444 0.417427 0.520672 0.617598 0.706652 0.786331 0.855213 0.911985 0.955472 0.984664 0.998742 0.997108 0.979403 0.945529 0.895665 0.830282 0.750143 0.656314 0.550150 0.433293 0.307647 0.175364 0.038798 0.099516 0.236918 0.370666 0.497991 0.616160 0.722531 0.814622 0.890171 0.947200 0.984072 0.999550 0.992842 0.963645 0.912170 0.839167 0.745930 0.634289 0.506590 0.365657 0.214745 0.057469 0.102273 0.260390 0.412706 0.555065 0.683453 0.794111 0.883662 0.949216 0.988480 0.999852 0.982494 0.936394 0.862401 0.762232 0.638458 0.494457 0.334341 0.162850 0.014771 0.192925 0.365840 0.527751 0.673097 0.796720 0.894061 0.961341 0.995731 0.995480 0.960032 0.890082 0.787603 0.655825 0.499148 0.323036 0.133831 0.061452 0.255375 0.440365 0.608996 0.754314 0.870119 0.951261 0.993888 0.995652 0.955865 0.875586 0.757633 0.606531 0.428362 0.230553 0.021590 0.189336 0.392718 0.579166 0.739851 0.866932 0.953969 0.996271 0.991189 0.938305 0.839531 0.699088 0.523370 0.320691 0.100924 0.124963 0.345431 0.548967 0.724687 0.862938 0.955854 0.997841 0.985952 0.920133 0.803312 0.641330 0.442694 0.218180 0.019721 0.257484 0.481298 0.677879 0.835276 0.943626 0.995810 0.987972 0.919848 0.794887 0.620146 0.405946 0.165313 0.086774 0.334303 0.561228 0.752530 0.895227 0.979308 0.998471 0.950666 0.838343 0.668418 0.451905 0.203271 0.060490 0.320989 0.559716 0.759361 0.905112 0.985784 0.994748 0.930539 0.797100 0.603638 0.364049 0.095997 0.180351 0.443817 0.673836 0.852078 0.963964 0.999911 0.956235 0.835591 0.646924 0.404885 0.128787 0.158909 0.434373 0.674375 0.858283 0.969879 0.998859 0.941870 0.802973 0.593466 0.331063 0.038467 0.258526 0.533298 0.760779 0.919793 0.995085 0.978877 0.871762 0.682852 0.429111 0.133931 0.174956 0.468044 0.716880 0.896841 0.989659 0.985352 0.883416 0.693077 0.432604 0.127636 0.191245 0.491549 0.742187 0.916726 0.996263 0.971565 0.844274 0.626953 0.342001 0.019432 0.306207 0.599489 0.828006 0.965990 0.997324 0.917551 0.734621 0.468259 0.147961 0.190165 0.507417 0.766942 0.938052 0.999951 0.944399 0.776943 0.516538 0.193563 0.153626 0.483189 0.754814 0.934720 0.999948 0.941434 0.765420 0.492973 0.157636 0.198605 0.530501 0.795278 0.958235 0.997388 0.906604 0.696710 0.394400 0.039003 0.322547 0.641823 0.875442
1.000000 1.000000 1.000000 1.000000 1.000000 1.000000 1.000000 1.000000 1.000000 1.000000 1.000000 1.000000 1.000000 1.000000 1.000000 1.000000 1.000000 1.000000 1.000000 1.000000 1.000000 1.000000 1.000000 1.000000 1.000000 1.000000 1.000000 1.000000 1.000000 1.000000 1.000000 1.000000 1.000000 1.000000 1.000000 1.000000 1.000000 1.000000 1.000000 1.000000 1.000000 1.000000 1.000000 1.000000 1.000000 1.000000 1.000000 1.000000 1.000000 1.000000 1.000000 1.000000 0.828124 0.828124 0.828124 0.825737 0.825737 0.825737 0.825737 0.825737 0.825737 0.825737 0.825737 0.825737 0.825737 0.825737 0.825737 0.825737 0.825737 0.825737 0.825737 0.825737 0.825737 0.825737 0.825737 0.825737 0.825737 0.825737 0.825737 0.825737 0.825737 0.825737 0.825737 0.825737 0.825737 0.825737 0.825737 0.825737 0.825737 0.825737 0.825737 0.825737 0.825737 0.825737 0.825737 0.825737 0.851468 0.858812 0.861572 0.864485 0.865853 0.863167 0.861977 0.861467 0.861310 0.862261 0.868323 0.893244 0.910005 0.916720 0.930079 0.933841 0.939055 0.942061 0.950829 0.954585 0.956159 0.952603 0.951871 0.954001 0.954110 0.943774 0.941881 0.942182 0.956281 0.945312 0.941315 0.940112 0.938431 0.935012 0.936092 0.935827 0.933191 0.933634 0.928137 0.928868 0.929371 0.927273 0.926089 0.909120 0.910091 0.909433 0.912436 0.891314 0.886184 0.874545 0.860553 0.881152 0.874121 0.855965 0.854833 0.843839 0.845016 0.845190 0.843777 0.836685 0.835393 0.831947 0.825902 0.826843 0.823711 0.832979 0.831984 0.832073 0.821748 0.803528 0.781801 0.766342 0.765357 0.769372 0.772944 0.776011 0.777339 0.773821 0.771768 0.767753 0.765597 0.774598 0.777211 0.774147 0.770143 0.768528 0.745708 0.743630 0.739109 0.720554 0.707122 0.704154 0.705134 0.682296 0.673681 0.676369 0.681702 0.686931 0.697151 0.691342 0.689625 0.662444 0.637101 0.608571 0.621583 0.628869 0.607184 0.600223 0.577803 0.611404 0.623195 0.638076 0.655478 0.658512 0.653867 0.625781 0.583352 0.584040 0.582049 0.583703 0.582455 0.573637 0.577371 0.604182 0.577008 0.575797 0.566471 0.563026 0.570811 0.585477 0.566569 0.560141 0.532766 0.507157 0.479947 0.475015 0.435853 0.431133 0.426376 0.429842 0.393380 0.393349 0.409596 0.427093 0.425516 0.433152 0.422547 0.413107 0.373062 0.341805 0.336013 0.322443 0.317476 0.289442 0.258999 0.247134 0.258024 0.266217 0.310212 0.310463 0.302148 0.275671 0.281662 0.299736 0.330599 0.333704 0.332558 0.310984 0.294938 0.255517 0.251219 0.298807 0.333438 0.311503 0.294838 0.280790 0.275061 0.247579 0.241028 0.175667 0.122027 0.085256 0.086985 0.094218 0.084141 0.060947 0.025973 0.044015 0.058453 0.096605 0.076730 0.067122 0.010375 0.011513 -0.009061 -0.000970 -0.034428 -0.073246 -0.050049 -0.033626 -0.066415 -0.085785 -0.127226 -0.108761 -0.127047 -0.125744 -0.123363 -0.126943 -0.159102 -0.146765 -0.144296 -0.122712 -0.133519 -0.129492 -0.122766 -0.130531 -0.204242 -0.242357 -0.231230 -0.234485 -0.232551 -0.232715 -0.238570 -0.243288 -0.239673 -0.245831 -0.197668 -0.227592 -0.243650 -0.246256 -0.245765 -0.270725 -0.226121 -0.201205 -0.206797 -0.230784 -0.227592 -0.227592 -0.227592 -0.227592 -0.227592 -0.227592 -0.217051 -0.217051 -0.217051 -0.217051 -0.217051 -0.217051 -0.217051 -0.217051 -0.217051 -0.152321 -0.152321 -0.152321 -0.152321 -0.152321 -0.152321 -0.152321 -0.152321 -0.152321 -0.152321 -0.152321 -0.152321 -0.152321 -0.152321 -0.152321 -0.152321
0.000000 0.000000 0.000000 0.000000 0.000000 0.000000 0.000000 0.000000 0.000000 0.000000 0.000000 0.000000 0.000000 0.000000 0.000000 0.000000 0.000000 0.000000 0.000000 0.000000 0.000000 0.000000 0.000000 0.000000 0.000000 0.000000 0.000000 0.000000 0.000000 0.000000 0.000000 0.000000 0.000000 0.000000 0.000000 0.000000 0.000000 0.000000 0.000000 0.000000 0.000000 0.000000 0.000000 0.000000 0.000000 0.000000 0.000000 0.000000 0.000000 0.000000 0.000000 0.000000 0.180334 0.180334 0.180334 0.199007 0.199007 0.199007 0.199007 0.199007 0.199007 0.199007 0.199007 0.199007 0.199007 0.199007 0.199007 0.199007 0.199007 0.199007 0.199007 0.199007 0.199007 0.199007 0.199007 0.199007 0.199007 0.199007 0.199007 0.199007 0.199007 0.199007 0.199007 0.199007 0.199007 0.199007 0.199007 0.199007 0.199007 0.199007 0.199007 0.199007 0.199007 0.199007 0.199007 0.199007 0.230940 0.230940 0.230940 0.230940 0.230940 0.230940 0.230940 0.230940 0.230940 0.230940 0.230940 0.230940 0.230940 0.230940 0.230940 0.230940 0.230940 0.230940 0.230940 0.230940 0.230940 0.230940 0.230940 0.230940 0.230940 0.230940 0.230940 0.230940 0.244339 0.244339 0.244339 0.244339 0.244339 0.244339 0.244339 0.244339 0.244339 0.244339 0.244339 0.244339 0.244339 0.244339 0.244339 0.244339 0.244339 0.244339 0.244339 0.244339 0.244339 0.244339 0.244339 0.256074 0.256074 0.256074 0.256074 0.256074 0.256074 0.256074 0.256074 0.256074 0.256074 0.256074 0.256074 0.256074 0.256074 0.256074 0.256074 0.256074 0.256074 0.256074 0.256074 0.256074 0.256074 0.256074 0.256074 0.256074 0.256074 0.256074 0.256074 0.256074 0.256074 0.256074 0.256074 0.256074 0.256074 0.256074 0.256074 0.256074 0.264906 0.264906 0.264906 0.264906 0.264906 0.264906 0.264906 0.264906 0.264906 0.264906 0.264906 0.264906 0.264906 0.264906 0.264906 0.264906 0.264906 0.264906 0.264906 0.264906 0.264906 0.264906 0.264906 0.264906 0.264906 0.264906 0.264906 0.264906 0.264906 0.264906 0.264906 0.264906 0.264906 0.264906 0.264906 0.264906 0.264906 0.264906 0.264906 0.264906 0.264906 0.264906 0.264906 0.264906 0.264906 0.264906 0.264906 0.264906 0.264906 0.264906 0.264906 0.264906 0.264906 0.264906 0.264906 0.264906 0.264906 0.264906 0.269680 0.269680 0.269680 0.269680 0.269680 0.269680 0.269680 0.269680 0.269680 0.269680 0.269680 0.269680 0.264906 0.264906 0.264906 0.264906 0.264906 0.264906 0.264906 0.264906 0.264906 0.264906 0.264906 0.264906 0.269680 0.269680 0.269680 0.269680 0.269680 0.269680 0.269680 0.269680 0.269680 0.269680 0.269680 0.264906 0.264906 0.264906 0.264906 0.264906 0.264906 0.264906 0.264906 0.264906 0.264906 0.264906 0.256074 0.256074 0.256074 0.256074 0.256074 0.256074 0.256074 0.256074 0.256074 0.256074 0.256074 0.264906 0.264906 0.264906 0.264906 0.264906 0.264906 0.264906 0.264906 0.264906 0.264906 0.260378 0.260378 0.260378 0.260378 0.260378 0.260378 0.260378 0.260378 0.260378 0.260378 0.264906 0.264906 0.264906 0.264906 0.264906 0.264906 0.264906 0.264906 0.264906 0.251976 0.251976 0.251976 0.251976 0.251976 0.251976 0.251976 0.251976 0.251976 0.251976 0.256074 0.256074 0.256074 0.256074 0.256074 0.256074 0.256074 0.256074 0.256074 0.269680 0.269680 0.269680 0.269680 0.269680 0.269680 0.269680 0.269680 0.269680 0.269680 0.269680 0.269680 0.269680 0.269680 0.269680 0.269680
