# Output from CTFFind version 4.1.9, run on 2019-11-02 17:47:43
# Input file: stack11_bm3d_averaged_1_1.25_0_1500_half.mrc ; Number of micrographs: 1
# Pixel size: 3.000 Angstroms ; acceleration voltage: 300.0 keV ; spherical aberration: 0.00 mm ; amplitude contrast: 0.07
# Box size: 512 pixels ; min. res.: 30.0 Angstroms ; max. res.: 5.0 Angstroms ; min. def.: 5000.0 um; max. def. 50000.0 um; num. frames averaged: 1
# 6 lines per micrograph: #1 - spatial frequency (1/Angstroms); #2 - 1D rotational average of spectrum (assuming no astigmatism); #3 - 1D rotational average of spectrum; #4 - CTF fit; #5 - cross-correlation between spectrum and CTF fit; #6 - 2sigma of expected cross correlation of noise
0.000000 0.000651 0.001302 0.001953 0.002604 0.003255 0.003906 0.004557 0.005208 0.005859 0.006510 0.007161 0.007812 0.008464 0.009115 0.009766 0.010417 0.011068 0.011719 0.012370 0.013021 0.013672 0.014323 0.014974 0.015625 0.016276 0.016927 0.017578 0.018229 0.018880 0.019531 0.020182 0.020833 0.021484 0.022135 0.022786 0.023438 0.024089 0.024740 0.025391 0.026042 0.026693 0.027344 0.027995 0.028646 0.029297 0.029948 0.030599 0.031250 0.031901 0.032552 0.033203 0.033854 0.034505 0.035156 0.035807 0.036458 0.037109 0.037760 0.038411 0.039062 0.039714 0.040365 0.041016 0.041667 0.042318 0.042969 0.043620 0.044271 0.044922 0.045573 0.046224 0.046875 0.047526 0.048177 0.048828 0.049479 0.050130 0.050781 0.051432 0.052083 0.052734 0.053385 0.054036 0.054688 0.055339 0.055990 0.056641 0.057292 0.057943 0.058594 0.059245 0.059896 0.060547 0.061198 0.061849 0.062500 0.063151 0.063802 0.064453 0.065104 0.065755 0.066406 0.067057 0.067708 0.068359 0.069010 0.069661 0.070312 0.070964 0.071615 0.072266 0.072917 0.073568 0.074219 0.074870 0.075521 0.076172 0.076823 0.077474 0.078125 0.078776 0.079427 0.080078 0.080729 0.081380 0.082031 0.082682 0.083333 0.083984 0.084635 0.085286 0.085938 0.086589 0.087240 0.087891 0.088542 0.089193 0.089844 0.090495 0.091146 0.091797 0.092448 0.093099 0.093750 0.094401 0.095052 0.095703 0.096354 0.097005 0.097656 0.098307 0.098958 0.099609 0.100260 0.100911 0.101562 0.102214 0.102865 0.103516 0.104167 0.104818 0.105469 0.106120 0.106771 0.107422 0.108073 0.108724 0.109375 0.110026 0.110677 0.111328 0.111979 0.112630 0.113281 0.113932 0.114583 0.115234 0.115885 0.116536 0.117188 0.117839 0.118490 0.119141 0.119792 0.120443 0.121094 0.121745 0.122396 0.123047 0.123698 0.124349 0.125000 0.125651 0.126302 0.126953 0.127604 0.128255 0.128906 0.129557 0.130208 0.130859 0.131510 0.132161 0.132812 0.133464 0.134115 0.134766 0.135417 0.136068 0.136719 0.137370 0.138021 0.138672 0.139323 0.139974 0.140625 0.141276 0.141927 0.142578 0.143229 0.143880 0.144531 0.145182 0.145833 0.146484 0.147135 0.147786 0.148438 0.149089 0.149740 0.150391 0.151042 0.151693 0.152344 0.152995 0.153646 0.154297 0.154948 0.155599 0.156250 0.156901 0.157552 0.158203 0.158854 0.159505 0.160156 0.160807 0.161458 0.162109 0.162760 0.163411 0.164062 0.164714 0.165365 0.166016 0.166667 0.167318 0.167969 0.168620 0.169271 0.169922 0.170573 0.171224 0.171875 0.172526 0.173177 0.173828 0.174479 0.175130 0.175781 0.176432 0.177083 0.177734 0.178385 0.179036 0.179688 0.180339 0.180990 0.181641 0.182292 0.182943 0.183594 0.184245 0.184896 0.185547 0.186198 0.186849 0.187500 0.188151 0.188802 0.189453 0.190104 0.190755 0.191406 0.192057 0.192708 0.193359 0.194010 0.194661 0.195312 0.195964 0.196615 0.197266 0.197917 0.198568 0.199219 0.199870 0.200521 0.201172 0.201823 0.202474 0.203125 0.203776 0.204427 0.205078 0.205729 0.206380 0.207031 0.207682 0.208333 0.208984 0.209635 0.210286 0.210938 0.211589 0.212240 0.212891 0.213542 0.214193 0.214844 0.215495 0.216146 0.216797 0.217448 0.218099 0.218750 0.219401 0.220052 0.220703 0.221354 0.222005 0.222656 0.223307 0.223958 0.224609 0.225260 0.225911 0.226562 0.227214 0.227865 0.228516 0.229167 0.229818 0.230469 0.231120 0.231771 0.232422 0.233073 0.233724 0.234375 0.235026 0.235677
       0.31693        0.31693        0.31693        0.31693        0.31693        0.31693        0.31693        0.31693        0.31693        0.31693        0.31693        0.31693        0.31693        0.31693        0.31693        0.31693        0.31693        0.31693        0.31693        0.31693        0.31693        0.31693        0.31693        0.31693        0.31693        0.31693        0.31693        0.31693        0.31693        0.31693        0.31693        0.31693        0.31693        0.31693        0.31693        0.31693        0.31693        0.31693        0.31693        0.31693        0.31693        0.31693        0.31693        0.31693        0.31693        0.31693        0.31693        0.31693        0.31693        0.31693        0.31693        0.68393        0.87004        0.52242        0.08750       -0.06530       -0.42575       -0.20691       -0.29627       -0.11847       -0.07741       -0.11834       -0.06905       -0.20825       -0.23568       -0.25793       -0.33071       -0.33767       -0.49121       -0.38320       -0.46638       -0.44926       -0.42175       -0.46990       -0.54459       -0.56257       -0.58832       -0.62496       -0.57882       -0.41535       -0.37871       -0.33136       -0.31617       -0.21173       -0.19972        0.01817        0.07078        0.10479        0.22543        0.37270        0.44293        0.51663        0.55911        0.55369        0.57188        0.69846        0.81298        0.74330        0.73360        0.67088        0.58089        0.48560        0.40669        0.49371        0.37455        0.20176        0.07768        0.04562        0.00999       -0.06129       -0.03977       -0.02392       -0.07351       -0.00706       -0.02139        0.21207        0.25047        0.29096        0.43054        0.46427        0.40332        0.53483        0.62757        0.70046        0.76561        0.69038        0.65927        0.69893        0.58628        0.50281        0.41922        0.29016        0.18732        0.15634        0.10818        0.03681        0.01245       -0.00119        0.07542        0.13197        0.20353        0.28182        0.40076        0.41626        0.50844        0.60042        0.63434        0.61499        0.63078        0.55300        0.44636        0.44589        0.35200        0.22849        0.18541        0.14936        0.10785        0.12210        0.06823        0.10061        0.22402        0.26319        0.34056        0.35047        0.45206        0.51305        0.53744        0.54970        0.47057        0.42920        0.39056        0.37027        0.30740        0.25088        0.20151        0.18612        0.16223        0.19391        0.17770        0.26907        0.33283        0.36443        0.42293        0.46094        0.47783        0.44406        0.39339        0.41331        0.37502        0.28820        0.27373        0.22624        0.21260        0.19477        0.21401        0.22966        0.32792        0.37383        0.36824        0.46023        0.43776        0.43917        0.43026        0.39459        0.34438        0.32893        0.27838        0.23710        0.23718        0.27000        0.27117        0.30078        0.30148        0.33916        0.32926        0.40864        0.41533        0.37557        0.34510        0.36439        0.28069        0.28107        0.26195        0.27704        0.26122        0.28112        0.29162        0.31349        0.34984        0.35873        0.35948        0.33310        0.35224        0.28666        0.32387        0.26944        0.24721        0.28396        0.28372        0.30713        0.31310        0.33052        0.32602        0.31381        0.31806        0.28699        0.28607        0.25888        0.28159        0.26851        0.31016        0.28412        0.26405        0.30726        0.30995        0.31477        0.28755        0.29828        0.28861        0.24674        0.24079        0.21848        0.27879        0.27557        0.31428        0.31481        0.32121        0.31649        0.30583        0.27692        0.28414        0.33133        0.27100        0.26257        0.29456        0.29336        0.34214        0.33699        0.35950        0.33424        0.31173        0.28147        0.26468        0.26041        0.22690        0.26867        0.30291        0.29726        0.27865        0.29489        0.26859        0.32368        0.33323        0.25236        0.22001        0.27224        0.33823        0.27659        0.31200        0.32592        0.32599        0.29770        0.32275        0.34377        0.29666        0.29118        0.25877        0.27906        0.35071        0.35246        0.25977        0.26764        0.25582        0.28151        0.22296        0.29343        0.22336        0.24978        0.33240        0.32011        0.34852        0.29721        0.23939        0.23775        0.24105        0.23868        0.18347        0.22344        0.26383        0.29664        0.27523        0.30631        0.29568        0.27492        0.28024        0.20955        0.17553        0.19109        0.22961        0.19767        0.21552        0.23092        0.20536        0.25031        0.33983        0.29822        0.31039        0.22265        0.25956        0.23300        0.28005        0.29734        0.14389        0.22504        0.22519        0.12105        0.22564        0.11082        0.16324        0.20543        0.12782       -0.13132       -0.63280
2.585077 2.558103 2.531275 2.504594 2.478058 2.451668 2.425425 2.399328 2.373378 2.347573 2.321914 2.296402 2.271036 2.245816 2.220743 2.195815 2.171034 2.146399 2.121910 2.097567 2.073371 2.049321 2.025417 2.001659 1.978047 1.954581 1.931262 1.908089 1.885062 1.862181 1.839447 1.816858 1.794416 1.772120 1.749970 1.727967 1.706109 1.684398 1.662833 1.641414 1.620142 1.599015 1.578035 1.557201 1.536513 1.515971 1.495576 1.475327 1.455224 1.435267 1.415456 1.636860 2.042954 1.615961 1.128591 0.987802 0.421126 0.811539 0.561249 0.833610 0.772274 0.787008 0.751556 0.710189 0.562053 0.513606 0.484664 0.444093 0.205260 0.378665 0.202755 0.307184 0.237008 0.180032 0.131107 0.004799 0.041618 -0.014444 -0.055819 0.105047 0.206709 0.194330 0.152777 0.332562 0.197698 0.495936 0.575967 0.549376 0.593430 0.878252 0.809835 0.945789 0.888992 0.973681 0.941742 1.080398 1.139614 1.076584 1.126879 0.952108 0.942940 0.785800 0.651341 0.770037 0.705675 0.460866 0.307614 0.253360 0.213775 0.147629 0.089307 0.127720 0.067086 0.152960 0.052129 0.262055 0.379126 0.359559 0.480298 0.582470 0.466759 0.545348 0.698116 0.744824 0.781891 0.732773 0.734770 0.715250 0.627113 0.569314 0.429671 0.287080 0.207565 0.078074 0.132811 -0.044436 -0.030002 -0.079873 -0.038081 0.004366 0.146236 0.089076 0.301120 0.277914 0.363268 0.453041 0.523319 0.507220 0.520139 0.504725 0.333200 0.309879 0.278689 0.099286 0.048865 -0.002873 -0.033681 -0.039948 -0.090108 -0.102999 -0.013137 0.055720 0.134727 0.139402 0.228063 0.332113 0.309814 0.419226 0.392272 0.285130 0.230923 0.247104 0.205653 0.103064 0.074169 0.018836 0.001140 0.009128 -0.014856 0.057350 0.147872 0.142640 0.226741 0.253469 0.304771 0.258666 0.221665 0.183644 0.212423 0.146183 0.045639 0.045545 -0.010964 -0.011641 -0.030548 0.015912 0.015985 0.169770 0.127786 0.182991 0.236855 0.200400 0.192475 0.196345 0.138846 0.103538 0.065370 0.046819 -0.037754 0.008677 0.022425 0.054361 0.050954 0.078206 0.096903 0.120838 0.134417 0.184529 0.078311 0.096306 0.072015 -0.001264 0.004624 0.008610 -0.010555 0.018802 0.004034 0.029600 0.066897 0.080066 0.119440 0.048325 0.099497 0.054878 0.012863 0.063752 -0.035385 -0.014625 0.024035 0.001432 0.052552 0.052702 0.049405 0.054655 0.053981 0.047012 0.020613 -0.001448 0.007770 0.015640 -0.010180 0.070839 -0.014026 0.010257 0.056674 0.046281 0.035183 0.043431 0.037054 0.018070 -0.021034 -0.040719 -0.017843 0.019778 0.026041 0.067308 0.059586 0.061758 0.082171 0.063502 0.024119 0.063754 0.087886 0.018198 0.021071 0.059386 0.054898 0.104334 0.109536 0.117216 0.116773 0.067165 0.043861 0.032326 0.004918 -0.000147 0.050213 0.080931 0.048278 0.033026 0.026643 0.021914 0.092007 0.064812 -0.045457 -0.051785 0.031540 0.096413 0.005502 0.029179 0.058839 0.088401 0.021942 0.059415 0.081857 0.030954 0.037084 -0.041130 0.019443 0.107920 0.068080 -0.054698 -0.021788 -0.048530 0.019335 -0.108422 0.039364 -0.107528 -0.035821 0.055167 0.029886 0.031949 -0.044442 -0.067692 -0.090995 -0.085420 -0.070522 -0.131305 -0.093819 -0.035833 0.022964 -0.034065 0.039792 -0.021731 -0.049309 0.052039 -0.111694 -0.099306 -0.091296 -0.016785 -0.053690 -0.042390 -0.000209 0.006869 0.017538 0.185338 -0.010057 0.148077 0.008134 0.267065 0.248548 0.321145 0.272418 0.107884 0.227899 0.268235 0.038893 0.249860 0.117820 0.135671 0.274553 0.130771 -0.654359
0.072396 0.072899 0.074406 0.076917 0.080433 0.084951 0.090471 0.096991 0.104508 0.113021 0.122526 0.133018 0.144492 0.156942 0.170360 0.184736 0.200061 0.216320 0.233499 0.251581 0.270546 0.290370 0.311028 0.332491 0.354725 0.377693 0.401354 0.425662 0.450567 0.476012 0.501935 0.528272 0.554948 0.581885 0.608997 0.636193 0.663375 0.690438 0.717269 0.743751 0.769757 0.795156 0.819808 0.843569 0.866287 0.887806 0.907963 0.926591 0.943521 0.958577 0.971585 0.982365 0.990740 0.996532 0.999568 0.999675 0.996687 0.990445 0.980799 0.967608 0.950745 0.930097 0.905567 0.877079 0.844575 0.808022 0.767412 0.722766 0.674133 0.621594 0.565265 0.505297 0.441877 0.375231 0.305624 0.233364 0.158794 0.082302 0.004314 0.074705 0.154253 0.233791 0.312750 0.390529 0.466502 0.540024 0.610433 0.677057 0.739221 0.796253 0.847495 0.892305 0.930073 0.960225 0.982232 0.995625 0.999997 0.995018 0.980444 0.956122 0.922002 0.878142 0.824718 0.762025 0.690484 0.610644 0.523184 0.428908 0.328748 0.223753 0.115086 0.004013 0.108112 0.219856 0.329731 0.436206 0.537731 0.632764 0.719789 0.797348 0.864062 0.918665 0.960027 0.987183 0.999357 0.995990 0.976757 0.941591 0.890693 0.824548 0.743929 0.649900 0.543807 0.427271 0.302172 0.170623 0.034938 0.102398 0.238781 0.371523 0.497917 0.615286 0.721046 0.812764 0.888220 0.945472 0.982906 0.999295 0.993841 0.966221 0.916611 0.845708 0.754738 0.645449 0.520093 0.381390 0.232487 0.076884 0.081631 0.239073 0.391358 0.534411 0.664275 0.777224 0.869885 0.939340 0.983238 0.999878 0.988295 0.948314 0.880591 0.786628 0.668762 0.530125 0.374584 0.206638 0.031317 0.145979 0.319625 0.483959 0.633462 0.762956 0.867788 0.944018 0.988573 0.999403 0.975578 0.917376 0.826315 0.705138 0.557769 0.389204 0.205359 0.012886 0.181062 0.369086 0.543827 0.698260 0.825985 0.921504 0.980489 0.999991 0.978621 0.916654 0.816083 0.680589 0.515442 0.327329 0.124098 0.085540 0.292383 0.487126 0.660799 0.805179 0.913204 0.979343 0.999909 0.973293 0.900115 0.783261 0.627818 0.440893 0.231318 0.009263 0.214241 0.427836 0.620429 0.781763 0.902997 0.977213 0.999850 0.969021 0.885698 0.753751 0.579813 0.373002 0.144468 0.093165 0.326483 0.542046 0.727154 0.870625 0.963500 0.999644 0.976195 0.893837 0.756856 0.572983 0.353007 0.110195 0.140486 0.383267 0.602571 0.784018 0.915406 0.987564 0.995050 0.936612 0.815387 0.638817 0.418245 0.168253 0.094265 0.351220 0.584570 0.777596 0.916133 0.989654 0.992131 0.922592 0.785327 0.589706 0.349614 0.082521 0.191741 0.452435 0.679487 0.855044 0.964941 0.999887 0.956333 0.836894 0.650295 0.410820 0.137293 0.148358 0.422813 0.663284 0.849402 0.965019 0.999652 0.949527 0.818063 0.615754 0.359417 0.070872 0.224847 0.501652 0.734711 0.902689 0.989783 0.987278 0.894517 0.719152 0.476618 0.188880 0.117499 0.413752 0.671609 0.866023 0.977658 0.994899 0.915163 0.745357 0.501401 0.206853 0.109287 0.415398 0.680366 0.876794 0.983889 0.989771 0.892892 0.702433 0.437559 0.125614 0.200624 0.506347 0.758429 0.929061 0.998898 0.959375 0.813875 0.577608 0.276156 0.057186 0.385024 0.670036 0.879251 0.987939 0.982645 0.862992 0.642000 0.344808 0.005957 0.334549 0.635934 0.861553 0.983416 0.985797 0.867389 0.641768 0.335997 0.012476 0.360340 0.663727 0.883816 0.991862 0.973090 0.828874 0.576873 0.249041 0.112285
1.000000 1.000000 1.000000 1.000000 1.000000 1.000000 1.000000 1.000000 1.000000 1.000000 1.000000 1.000000 1.000000 1.000000 1.000000 1.000000 1.000000 1.000000 1.000000 1.000000 1.000000 1.000000 1.000000 1.000000 1.000000 1.000000 1.000000 1.000000 1.000000 1.000000 1.000000 1.000000 1.000000 1.000000 1.000000 1.000000 1.000000 1.000000 1.000000 1.000000 1.000000 1.000000 1.000000 1.000000 1.000000 1.000000 1.000000 1.000000 1.000000 1.000000 1.000000 1.000000 0.931507 0.931507 0.931507 0.921944 0.921944 0.921944 0.921944 0.921944 0.921944 0.921944 0.921944 0.921944 0.921944 0.921944 0.921944 0.921944 0.921944 0.921944 0.921944 0.921944 0.921944 0.921944 0.921944 0.921944 0.921944 0.921944 0.921944 0.921944 0.921944 0.921944 0.921944 0.921944 0.921944 0.921944 0.921944 0.921944 0.921944 0.921944 0.921944 0.921944 0.921944 0.921944 0.921944 0.921944 0.947252 0.948535 0.956450 0.956278 0.955748 0.953602 0.952650 0.951505 0.951042 0.951331 0.951972 0.952852 0.964627 0.965693 0.967266 0.968091 0.968806 0.969452 0.969280 0.970002 0.969210 0.968646 0.968129 0.964148 0.964776 0.965338 0.965451 0.966483 0.966361 0.968389 0.968562 0.967956 0.967067 0.966318 0.965596 0.965170 0.964888 0.965393 0.965687 0.966995 0.970175 0.969599 0.969303 0.969461 0.969562 0.969743 0.970178 0.971870 0.968127 0.968769 0.967113 0.964937 0.969138 0.966281 0.966061 0.967423 0.967805 0.968203 0.967014 0.963294 0.957177 0.956224 0.953475 0.944357 0.943047 0.943655 0.946045 0.946495 0.945037 0.937671 0.938253 0.931984 0.933158 0.936445 0.931325 0.931404 0.932547 0.931908 0.930781 0.930152 0.927461 0.924754 0.923198 0.922848 0.925820 0.925777 0.926940 0.926817 0.921451 0.913155 0.900667 0.899224 0.893860 0.896919 0.886742 0.886597 0.886742 0.882401 0.885812 0.885381 0.886300 0.883173 0.867271 0.849810 0.842380 0.845951 0.850893 0.846047 0.844685 0.837663 0.849170 0.828860 0.841486 0.853181 0.849829 0.850284 0.849763 0.847616 0.841041 0.841862 0.844172 0.845846 0.844065 0.841808 0.840976 0.823121 0.823906 0.759512 0.742113 0.734539 0.740165 0.746569 0.747781 0.747064 0.754844 0.760001 0.754554 0.737514 0.729617 0.721384 0.726242 0.727366 0.730810 0.716293 0.689652 0.684542 0.652869 0.670429 0.683620 0.643150 0.666289 0.677093 0.675257 0.674224 0.667308 0.664767 0.660764 0.663725 0.670869 0.683749 0.702702 0.725892 0.722667 0.712801 0.712755 0.693548 0.684123 0.676863 0.689849 0.669139 0.664972 0.683120 0.682590 0.668387 0.647097 0.635834 0.625925 0.621757 0.632111 0.623362 0.619068 0.607595 0.582504 0.574713 0.611093 0.627219 0.647665 0.617198 0.603560 0.592812 0.574784 0.588355 0.531734 0.531390 0.551669 0.559090 0.537623 0.523123 0.533549 0.541142 0.543182 0.533729 0.520423 0.510685 0.526933 0.557920 0.548103 0.527746 0.529915 0.529088 0.523863 0.436865 0.430240 0.401767 0.371026 0.310674 0.288601 0.281123 0.263426 0.250385 0.215535 0.211813 0.221194 0.229732 0.245515 0.247807 0.231884 0.238492 0.231022 0.217687 0.155906 0.144890 0.137414 0.127262 0.126984 0.102157 0.125647 0.192717 0.195444 0.195444 0.195444 0.195444 0.195444 0.195444 0.206447 0.206447 0.206447 0.206447 0.206447 0.206447 0.206447 0.206447 0.206447 0.216088 0.216088 0.216088 0.216088 0.216088 0.216088 0.216088 0.216088 0.216088 0.216088 0.216088 0.216088 0.216088 0.216088
0.000000 0.000000 0.000000 0.000000 0.000000 0.000000 0.000000 0.000000 0.000000 0.000000 0.000000 0.000000 0.000000 0.000000 0.000000 0.000000 0.000000 0.000000 0.000000 0.000000 0.000000 0.000000 0.000000 0.000000 0.000000 7.000000 4.000000 0.000000 0.000000 0.000000 0.000000 0.000000 0.000000 0.000000 0.000000 0.000000 0.000000 0.000000 0.000000 0.000000 0.000000 0.000000 0.000000 0.000000 0.000000 0.000000 0.000000 0.000000 0.000000 0.000000 0.000000 0.000000 0.180334 0.180334 0.180334 0.199007 0.199007 0.199007 0.199007 0.199007 0.199007 0.199007 0.199007 0.199007 0.199007 0.199007 0.199007 0.199007 0.199007 0.199007 0.199007 0.199007 0.199007 0.199007 0.199007 0.199007 0.199007 0.199007 0.199007 0.199007 0.199007 0.199007 0.199007 0.199007 0.199007 0.199007 0.199007 0.199007 0.199007 0.199007 0.199007 0.199007 0.199007 0.199007 0.199007 0.199007 0.225018 0.225018 0.225018 0.225018 0.225018 0.225018 0.225018 0.225018 0.225018 0.225018 0.225018 0.225018 0.225018 0.225018 0.225018 0.225018 0.225018 0.225018 0.225018 0.225018 0.225018 0.225018 0.225018 0.225018 0.225018 0.225018 0.225018 0.225018 0.225018 0.244339 0.244339 0.244339 0.244339 0.244339 0.244339 0.244339 0.244339 0.244339 0.244339 0.244339 0.244339 0.244339 0.244339 0.244339 0.244339 0.244339 0.244339 0.244339 0.244339 0.244339 0.244339 0.244339 0.251976 0.251976 0.251976 0.251976 0.251976 0.251976 0.251976 0.251976 0.251976 0.251976 0.251976 0.251976 0.251976 0.251976 0.251976 0.251976 0.251976 0.251976 0.251976 0.251976 0.264906 0.264906 0.264906 0.264906 0.264906 0.264906 0.264906 0.264906 0.264906 0.264906 0.264906 0.264906 0.264906 0.264906 0.264906 0.264906 0.264906 0.264906 0.264906 0.264906 0.264906 0.264906 0.264906 0.264906 0.264906 0.264906 0.264906 0.264906 0.264906 0.264906 0.264906 0.264906 0.264906 0.264906 0.264906 0.264906 0.264906 0.264906 0.264906 0.264906 0.264906 0.264906 0.264906 0.264906 0.264906 0.264906 0.264906 0.264906 0.264906 0.264906 0.264906 0.264906 0.264906 0.264906 0.264906 0.264906 0.264906 0.264906 0.264906 0.264906 0.264906 0.264906 0.256074 0.256074 0.256074 0.256074 0.256074 0.256074 0.256074 0.256074 0.256074 0.256074 0.256074 0.256074 0.256074 0.256074 0.269680 0.269680 0.269680 0.269680 0.269680 0.269680 0.269680 0.269680 0.269680 0.269680 0.269680 0.269680 0.264906 0.264906 0.264906 0.264906 0.264906 0.264906 0.264906 0.264906 0.264906 0.264906 0.264906 0.264906 0.269680 0.269680 0.269680 0.269680 0.269680 0.269680 0.269680 0.269680 0.269680 0.269680 0.269680 0.264906 0.264906 0.264906 0.264906 0.264906 0.264906 0.264906 0.264906 0.264906 0.264906 0.264906 0.256074 0.256074 0.256074 0.256074 0.256074 0.256074 0.256074 0.256074 0.256074 0.256074 0.256074 0.264906 0.264906 0.264906 0.264906 0.264906 0.264906 0.264906 0.264906 0.264906 0.264906 0.260378 0.260378 0.260378 0.260378 0.260378 0.260378 0.260378 0.260378 0.260378 0.260378 0.256074 0.256074 0.256074 0.256074 0.256074 0.256074 0.256074 0.256074 0.256074 0.256074 0.260378 0.260378 0.260378 0.260378 0.260378 0.260378 0.260378 0.260378 0.260378 0.256074 0.256074 0.256074 0.256074 0.256074 0.256074 0.256074 0.256074 0.256074 0.251976 0.251976 0.251976 0.251976 0.251976 0.251976 0.251976 0.251976 0.251976 0.251976 0.251976 0.251976 0.251976 0.251976
