# Output from CTFFind version 4.1.9, run on 2019-11-03 19:41:19
# Input file: stack1_bm3d_averaged_1_4.75_0_1500_half.mrc ; Number of micrographs: 1
# Pixel size: 3.000 Angstroms ; acceleration voltage: 300.0 keV ; spherical aberration: 0.00 mm ; amplitude contrast: 0.07
# Box size: 512 pixels ; min. res.: 30.0 Angstroms ; max. res.: 5.0 Angstroms ; min. def.: 5000.0 um; max. def. 50000.0 um; num. frames averaged: 1
# 6 lines per micrograph: #1 - spatial frequency (1/Angstroms); #2 - 1D rotational average of spectrum (assuming no astigmatism); #3 - 1D rotational average of spectrum; #4 - CTF fit; #5 - cross-correlation between spectrum and CTF fit; #6 - 2sigma of expected cross correlation of noise
0.000000 0.000651 0.001302 0.001953 0.002604 0.003255 0.003906 0.004557 0.005208 0.005859 0.006510 0.007161 0.007812 0.008464 0.009115 0.009766 0.010417 0.011068 0.011719 0.012370 0.013021 0.013672 0.014323 0.014974 0.015625 0.016276 0.016927 0.017578 0.018229 0.018880 0.019531 0.020182 0.020833 0.021484 0.022135 0.022786 0.023438 0.024089 0.024740 0.025391 0.026042 0.026693 0.027344 0.027995 0.028646 0.029297 0.029948 0.030599 0.031250 0.031901 0.032552 0.033203 0.033854 0.034505 0.035156 0.035807 0.036458 0.037109 0.037760 0.038411 0.039062 0.039714 0.040365 0.041016 0.041667 0.042318 0.042969 0.043620 0.044271 0.044922 0.045573 0.046224 0.046875 0.047526 0.048177 0.048828 0.049479 0.050130 0.050781 0.051432 0.052083 0.052734 0.053385 0.054036 0.054688 0.055339 0.055990 0.056641 0.057292 0.057943 0.058594 0.059245 0.059896 0.060547 0.061198 0.061849 0.062500 0.063151 0.063802 0.064453 0.065104 0.065755 0.066406 0.067057 0.067708 0.068359 0.069010 0.069661 0.070312 0.070964 0.071615 0.072266 0.072917 0.073568 0.074219 0.074870 0.075521 0.076172 0.076823 0.077474 0.078125 0.078776 0.079427 0.080078 0.080729 0.081380 0.082031 0.082682 0.083333 0.083984 0.084635 0.085286 0.085938 0.086589 0.087240 0.087891 0.088542 0.089193 0.089844 0.090495 0.091146 0.091797 0.092448 0.093099 0.093750 0.094401 0.095052 0.095703 0.096354 0.097005 0.097656 0.098307 0.098958 0.099609 0.100260 0.100911 0.101562 0.102214 0.102865 0.103516 0.104167 0.104818 0.105469 0.106120 0.106771 0.107422 0.108073 0.108724 0.109375 0.110026 0.110677 0.111328 0.111979 0.112630 0.113281 0.113932 0.114583 0.115234 0.115885 0.116536 0.117188 0.117839 0.118490 0.119141 0.119792 0.120443 0.121094 0.121745 0.122396 0.123047 0.123698 0.124349 0.125000 0.125651 0.126302 0.126953 0.127604 0.128255 0.128906 0.129557 0.130208 0.130859 0.131510 0.132161 0.132812 0.133464 0.134115 0.134766 0.135417 0.136068 0.136719 0.137370 0.138021 0.138672 0.139323 0.139974 0.140625 0.141276 0.141927 0.142578 0.143229 0.143880 0.144531 0.145182 0.145833 0.146484 0.147135 0.147786 0.148438 0.149089 0.149740 0.150391 0.151042 0.151693 0.152344 0.152995 0.153646 0.154297 0.154948 0.155599 0.156250 0.156901 0.157552 0.158203 0.158854 0.159505 0.160156 0.160807 0.161458 0.162109 0.162760 0.163411 0.164062 0.164714 0.165365 0.166016 0.166667 0.167318 0.167969 0.168620 0.169271 0.169922 0.170573 0.171224 0.171875 0.172526 0.173177 0.173828 0.174479 0.175130 0.175781 0.176432 0.177083 0.177734 0.178385 0.179036 0.179688 0.180339 0.180990 0.181641 0.182292 0.182943 0.183594 0.184245 0.184896 0.185547 0.186198 0.186849 0.187500 0.188151 0.188802 0.189453 0.190104 0.190755 0.191406 0.192057 0.192708 0.193359 0.194010 0.194661 0.195312 0.195964 0.196615 0.197266 0.197917 0.198568 0.199219 0.199870 0.200521 0.201172 0.201823 0.202474 0.203125 0.203776 0.204427 0.205078 0.205729 0.206380 0.207031 0.207682 0.208333 0.208984 0.209635 0.210286 0.210938 0.211589 0.212240 0.212891 0.213542 0.214193 0.214844 0.215495 0.216146 0.216797 0.217448 0.218099 0.218750 0.219401 0.220052 0.220703 0.221354 0.222005 0.222656 0.223307 0.223958 0.224609 0.225260 0.225911 0.226562 0.227214 0.227865 0.228516 0.229167 0.229818 0.230469 0.231120 0.231771 0.232422 0.233073 0.233724 0.234375 0.235026 0.235677
       0.35699        0.35699        0.35699        0.35699        0.35699        0.35699        0.35699        0.35699        0.35699        0.35699        0.35699        0.35699        0.35699        0.35699        0.35699        0.35699        0.35699        0.35699        0.35699        0.35699        0.35699        0.35699        0.35699        0.35699        0.35699        0.35699        0.35699        0.35699        0.35699        0.35699        0.35699        0.35699        0.35699        0.35699        0.35699        0.35699        0.35699        0.35699        0.35699        0.35699        0.35699        0.35699        0.35699        0.35699        0.35699        0.35699        0.35699        0.35699        0.35699        0.35699        0.35699        0.43603        0.63561        0.31543        0.15576       -0.01460       -0.25785       -0.07632       -0.15820       -0.17211        0.02351       -0.11277       -0.11071       -0.04623       -0.02532       -0.11965       -0.15115       -0.29690       -0.42104       -0.51206       -0.46448       -0.37087       -0.28024       -0.41696       -0.32580       -0.43646       -0.35358       -0.40292       -0.23209       -0.22056       -0.26131       -0.11308       -0.06722       -0.04631        0.08524        0.03833        0.20520        0.20680        0.33125        0.37790        0.48277        0.51247        0.55989        0.61156        0.70336        0.60009        0.55998        0.51465        0.50745        0.59316        0.49877        0.45873        0.41643        0.32899        0.28941        0.30845        0.30144        0.20614        0.18980        0.07494        0.13117        0.12660        0.13335        0.11815        0.16915        0.23187        0.30111        0.29943        0.32767        0.46947        0.45907        0.49805        0.64259        0.63994        0.57466        0.57640        0.58593        0.45115        0.48421        0.37709        0.33442        0.29699        0.23684        0.24217        0.20520        0.16915        0.18271        0.23951        0.24603        0.27861        0.33867        0.35509        0.39947        0.47857        0.49071        0.47095        0.47755        0.57084        0.50008        0.50164        0.45060        0.37683        0.34963        0.26719        0.29901        0.23520        0.22876        0.28060        0.22706        0.24799        0.32404        0.39554        0.42204        0.46874        0.44736        0.51249        0.49459        0.46678        0.42485        0.40826        0.38197        0.38428        0.40415        0.38054        0.28369        0.32399        0.29314        0.29510        0.30160        0.35565        0.38781        0.41478        0.46463        0.49849        0.44486        0.43431        0.45263        0.40320        0.35672        0.37838        0.33126        0.33816        0.31974        0.32984        0.30180        0.34277        0.35599        0.39547        0.43733        0.43848        0.41892        0.39942        0.38607        0.38731        0.30451        0.32399        0.35422        0.28499        0.33563        0.32288        0.34204        0.35510        0.35303        0.38020        0.38881        0.46189        0.39209        0.35932        0.37291        0.32693        0.33070        0.34166        0.33015        0.36185        0.33602        0.36194        0.35098        0.40477        0.37832        0.38916        0.41404        0.39754        0.35968        0.34351        0.34596        0.31901        0.36522        0.33161        0.34089        0.35371        0.37788        0.34432        0.35420        0.34119        0.30084        0.29735        0.28512        0.31483        0.35294        0.35421        0.34419        0.31551        0.36427        0.34725        0.34494        0.31919        0.33183        0.34924        0.33061        0.30924        0.35752        0.33943        0.33856        0.31611        0.33263        0.35760        0.33376        0.31303        0.33515        0.30310        0.30765        0.36112        0.33174        0.32685        0.36468        0.32714        0.33103        0.37142        0.34631        0.29208        0.29750        0.27675        0.33702        0.34519        0.35471        0.32223        0.30205        0.34275        0.32467        0.28741        0.32484        0.33416        0.33469        0.35290        0.31788        0.28797        0.32771        0.31763        0.35324        0.32809        0.29862        0.35637        0.38543        0.39311        0.31844        0.34773        0.31746        0.33174        0.29422        0.35025        0.33677        0.25581        0.28577        0.36162        0.33397        0.32560        0.30515        0.34224        0.31928        0.29884        0.29437        0.32006        0.30678        0.26492        0.26481        0.29866        0.33206        0.28674        0.28828        0.31154        0.32781        0.28567        0.35151        0.31470        0.30809        0.30307        0.25343        0.31422        0.28583        0.24878        0.21568        0.21153        0.22165        0.24159        0.30237        0.26688        0.34706        0.28795        0.30354        0.28478        0.23213        0.27242        0.29100        0.23822        0.17157        0.22829        0.31702        0.44936        0.35772       -0.04167        0.03525       -0.41917       -0.73995
3.103346 3.069298 3.035438 3.001767 2.968284 2.934991 2.901886 2.868969 2.836242 2.803702 2.771352 2.739190 2.707217 2.675433 2.643837 2.612430 2.581212 2.550182 2.519341 2.488689 2.458225 2.427950 2.397863 2.367966 2.338257 2.308736 2.279404 2.250261 2.221307 2.192541 2.163964 2.135576 2.107376 2.079365 2.051543 2.023909 1.996464 1.969207 1.942140 1.915260 1.888570 1.862068 1.835755 1.809631 1.783695 1.757948 1.732390 1.707020 1.681839 1.656846 1.632043 1.614810 1.989395 1.487143 1.308040 1.040755 0.493428 0.957253 0.575880 0.731307 0.926051 0.727485 0.614013 0.801729 0.752192 0.645430 0.570344 0.351491 0.090009 -0.002746 -0.012184 -0.015106 0.393637 -0.038344 0.106189 -0.031173 0.041007 -0.054727 0.170458 0.165296 0.085684 0.250629 0.351763 0.295837 0.490007 0.405189 0.679287 0.556848 0.812495 0.765633 0.922194 1.064287 0.965918 1.130628 1.214899 1.027154 0.974155 0.896711 0.898415 0.961026 0.862262 0.790526 0.679357 0.585848 0.498453 0.480970 0.489699 0.314001 0.322286 0.147737 0.116590 0.169694 0.143741 0.089920 0.148242 0.205920 0.330374 0.322329 0.375714 0.389956 0.588429 0.384160 0.758913 0.754839 0.602026 0.631767 0.663233 0.461021 0.411107 0.383880 0.210133 0.228270 0.036494 0.123115 -0.014278 -0.005567 -0.072744 -0.021103 0.077426 0.024983 0.091809 0.176318 0.215583 0.256987 0.352655 0.329200 0.304483 0.409417 0.369305 0.343667 0.293188 0.217269 0.121825 0.047512 -0.029449 -0.017953 -0.133888 -0.005359 -0.027805 -0.107749 -0.073825 0.069826 0.208712 0.195899 0.254470 0.187495 0.336569 0.224496 0.221384 0.240086 0.113520 0.080835 0.226885 0.082717 0.048540 -0.003131 0.050785 -0.047271 0.034479 -0.021478 0.152739 0.071933 0.165436 0.278963 0.261131 0.104024 0.194307 0.151203 0.111179 0.054379 0.057962 0.027122 -0.003159 0.019106 -0.029742 -0.055651 0.084603 0.022638 0.147883 0.121896 0.138455 0.060288 0.071151 0.082022 0.005366 -0.078725 -0.012177 -0.010451 -0.076917 -0.014760 -0.035288 0.028477 -0.022225 0.052925 0.094355 0.114659 0.207753 0.024118 0.096578 0.061554 -0.029433 0.039931 0.021225 0.021632 0.090483 0.020634 0.046774 0.004839 0.115519 0.083943 0.097629 0.158035 0.052499 0.060295 0.026434 0.026819 0.001718 0.076372 0.018162 0.047162 0.016650 0.088604 0.017957 0.052588 0.019860 -0.033145 -0.038052 -0.045708 0.009286 0.066380 0.066746 0.039913 0.018507 0.104953 -0.000205 0.072644 0.015379 0.025338 0.064477 0.009887 0.032986 0.075392 0.034426 0.020451 0.062716 0.066961 0.065014 0.060835 0.032727 0.054214 -0.031661 0.033771 0.101728 0.046170 0.032977 0.108763 0.000075 -0.001833 0.085072 0.012347 -0.011089 -0.054942 -0.069050 0.057418 0.050612 0.029436 0.004296 -0.046841 0.089631 -0.046740 -0.024468 0.012209 0.036331 0.048441 0.040357 -0.010672 -0.011625 0.019620 0.031291 0.014186 0.035499 -0.008853 0.093208 0.121405 0.088376 -0.015213 0.022636 0.040485 -0.011174 -0.034644 0.032403 0.032865 -0.097613 -0.026047 0.082945 0.004073 0.028518 -0.060599 0.163106 -0.013986 0.039953 -0.039898 0.079267 -0.014991 -0.023430 -0.053808 0.008126 0.083949 0.002005 0.047474 0.010304 0.135099 -0.044741 0.135898 0.048820 0.005655 0.044271 -0.066360 0.104949 -0.047627 -0.063300 -0.114194 -0.109766 -0.104229 -0.219190 0.023760 -0.070174 0.068500 -0.139069 -0.000204 -0.097475 -0.254389 -0.066107 0.367534 0.304566 0.162435 0.315454 0.559391 0.695993 0.543501 -0.319822 0.055933 -1.049468
0.072396 0.072911 0.074456 0.077030 0.080632 0.085263 0.090920 0.097601 0.105305 0.114029 0.123768 0.134519 0.146276 0.159031 0.172777 0.187504 0.203200 0.219851 0.237442 0.255953 0.275364 0.295649 0.316782 0.338730 0.361458 0.384927 0.409092 0.433904 0.459308 0.485245 0.511649 0.538449 0.565567 0.592919 0.620412 0.647951 0.675429 0.702735 0.729749 0.756345 0.782389 0.807741 0.832254 0.855773 0.878140 0.899187 0.918744 0.936636 0.952684 0.966705 0.978516 0.987932 0.994768 0.998842 0.999975 0.997992 0.992726 0.984017 0.971718 0.955690 0.935813 0.911982 0.884111 0.852137 0.816018 0.775742 0.731322 0.682804 0.630267 0.573825 0.513627 0.449863 0.382763 0.312597 0.239678 0.164361 0.087043 0.008164 0.071796 0.152317 0.232843 0.312781 0.391509 0.468380 0.542721 0.613846 0.681057 0.743654 0.800942 0.852237 0.896878 0.934234 0.963714 0.984778 0.996947 0.999812 0.993044 0.976405 0.949758 0.913073 0.866436 0.810056 0.744273 0.669555 0.586509 0.495874 0.398525 0.295465 0.187822 0.076837 0.036142 0.149681 0.262271 0.372346 0.478309 0.578554 0.671486 0.755557 0.829285 0.891291 0.940321 0.975282 0.995265 0.999576 0.987754 0.959603 0.915200 0.854915 0.779419 0.689687 0.586996 0.472915 0.349294 0.218235 0.082069 0.056685 0.195360 0.331192 0.461372 0.583107 0.693681 0.790522 0.871260 0.933804 0.976391 0.997653 0.996663 0.972983 0.926693 0.858422 0.769348 0.661204 0.536253 0.397261 0.247438 0.090384 0.069996 0.229580 0.384135 0.529431 0.661352 0.776027 0.869949 0.940087 0.984006 0.999957 0.986963 0.944881 0.874439 0.777258 0.655829 0.513477 0.354286 0.183000 0.004892 0.174391 0.348994 0.513056 0.660900 0.787244 0.887397 0.957452 0.994456 0.996550 0.963085 0.894687 0.793291 0.662106 0.505554 0.329138 0.139269 0.056946 0.251962 0.438089 0.607785 0.753978 0.870373 0.951739 0.994172 0.995305 0.954465 0.872764 0.753111 0.600150 0.420111 0.220584 0.010224 0.201603 0.405245 0.591188 0.750521 0.875370 0.959319 0.997770 0.988219 0.930461 0.826665 0.681354 0.501240 0.294968 0.072714 0.154278 0.374266 0.575606 0.747386 0.880029 0.965865 0.999603 0.978706 0.903609 0.777797 0.607693 0.402384 0.173176 0.066995 0.304273 0.524680 0.714938 0.863297 0.960286 0.999371 0.977433 0.895070 0.756665 0.570220 0.346950 0.100658 0.153089 0.397919 0.617715 0.797688 0.925405 0.991690 0.991339 0.923589 0.792292 0.605778 0.376389 0.119727 0.146367 0.403043 0.631757 0.815637 0.940762 0.997274 0.980214 0.890025 0.732664 0.519294 0.265562 0.009483 0.284787 0.538893 0.751602 0.905641 0.988092 0.991563 0.914920 0.763540 0.549042 0.288462 0.002993 0.283717 0.547490 0.765673 0.919122 0.993938 0.982814 0.885829 0.710629 0.471924 0.190349 0.109251 0.399972 0.655268 0.851386 0.969636 0.998255 0.933669 0.781029 0.553921 0.273266 0.034516 0.339953 0.613310 0.827508 0.960862 0.999360 0.938243 0.782691 0.547526 0.255924 0.062792 0.376025 0.651232 0.859321 0.977803 0.993313 0.903238 0.716234 0.451544 0.137129 0.193178 0.503282 0.758767 0.930757 0.999270 0.955661 0.803849 0.560134 0.251593 0.086820 0.416157 0.697955 0.898741 0.994117 0.971836 0.833522 0.594762 0.283513 0.063051 0.402892 0.694187 0.900507 0.995473 0.966254 0.815462 0.561133 0.234733 0.122588 0.465121 0.748419 0.935126 0.999998 0.933483 0.743287 0.453686 0.102621 0.263193 0.594386 0.845607 0.981841 0.983412
1.000000 1.000000 1.000000 1.000000 1.000000 1.000000 1.000000 1.000000 1.000000 1.000000 1.000000 1.000000 1.000000 1.000000 1.000000 1.000000 1.000000 1.000000 1.000000 1.000000 1.000000 1.000000 1.000000 1.000000 1.000000 1.000000 1.000000 1.000000 1.000000 1.000000 1.000000 1.000000 1.000000 1.000000 1.000000 1.000000 1.000000 1.000000 1.000000 1.000000 1.000000 1.000000 1.000000 1.000000 1.000000 1.000000 1.000000 1.000000 1.000000 1.000000 1.000000 1.000000 0.845739 0.845739 0.873808 0.873808 0.873808 0.873808 0.873808 0.873808 0.873808 0.873808 0.873808 0.873808 0.873808 0.873808 0.873808 0.873808 0.873808 0.873808 0.873808 0.873808 0.873808 0.873808 0.873808 0.873808 0.873808 0.873808 0.873808 0.873808 0.873808 0.873808 0.873808 0.873808 0.873808 0.873808 0.873808 0.873808 0.873808 0.873808 0.873808 0.873808 0.873808 0.873808 0.873808 0.862615 0.869791 0.875567 0.878014 0.879823 0.881511 0.879467 0.877685 0.877684 0.878156 0.879947 0.890653 0.913700 0.928155 0.932166 0.939356 0.940469 0.945412 0.945148 0.951606 0.959674 0.959205 0.959744 0.958216 0.959742 0.949023 0.948321 0.940962 0.963037 0.950315 0.949141 0.939390 0.930892 0.929593 0.928489 0.927661 0.929835 0.919609 0.920434 0.920342 0.919823 0.917026 0.915488 0.909367 0.883974 0.885720 0.890292 0.879700 0.858438 0.844273 0.844950 0.841166 0.841038 0.828348 0.829703 0.830982 0.819868 0.820769 0.820505 0.803018 0.799262 0.796685 0.793783 0.793788 0.793678 0.797316 0.801568 0.801491 0.785178 0.747442 0.735903 0.745357 0.708184 0.696815 0.664932 0.670493 0.673313 0.674306 0.665890 0.659972 0.655555 0.649719 0.656451 0.652803 0.654578 0.654083 0.651762 0.635756 0.621801 0.591446 0.547231 0.559015 0.560976 0.560599 0.556621 0.554285 0.551584 0.568226 0.561251 0.565561 0.549219 0.537941 0.510169 0.491511 0.448825 0.457684 0.498001 0.500080 0.451902 0.474022 0.504737 0.515537 0.527548 0.529292 0.521738 0.484207 0.461439 0.440581 0.442475 0.443996 0.442015 0.441466 0.454473 0.472080 0.495881 0.492940 0.474723 0.474637 0.482219 0.475616 0.493142 0.474022 0.460571 0.441752 0.428992 0.387250 0.400249 0.408206 0.406114 0.382974 0.368848 0.382808 0.384047 0.391128 0.397677 0.393940 0.419625 0.394101 0.419098 0.401359 0.382196 0.388519 0.391335 0.382952 0.372871 0.360865 0.358245 0.355743 0.384526 0.418045 0.420404 0.465489 0.459775 0.447361 0.400683 0.426201 0.408842 0.415915 0.396066 0.361380 0.359263 0.371125 0.390477 0.378489 0.312493 0.288571 0.271931 0.262413 0.249382 0.242028 0.158185 0.120317 0.097620 0.109301 0.120360 0.116167 0.133876 0.097468 0.105585 0.143112 0.146548 0.137572 0.122381 0.117411 0.119959 0.089878 0.128403 0.113381 0.102236 0.125839 0.109779 0.114551 0.077145 0.076323 0.040751 0.037250 0.050014 0.058058 -0.000114 -0.016111 -0.009235 -0.004344 0.013473 -0.009003 -0.011221 -0.005356 -0.021960 -0.031167 -0.028825 -0.050714 -0.084974 -0.061019 -0.064065 -0.035699 -0.092299 -0.089306 -0.103992 -0.090592 -0.064742 -0.047252 -0.046742 -0.045402 -0.006842 -0.034700 -0.057326 -0.059663 -0.104744 -0.101401 -0.129732 -0.150936 -0.150936 -0.147786 -0.147786 -0.147786 -0.147786 -0.147786 -0.147786 -0.147786 -0.147786 -0.147786 -0.128793 -0.128793 -0.128793 -0.128793 -0.128793 -0.128793 -0.128793 -0.128793 -0.165529 -0.165529 -0.165529 -0.165529 -0.165529 -0.165529 -0.165529 -0.165529 -0.165529 -0.165529
0.000000 0.000000 0.000000 0.000000 0.000000 0.000000 0.000000 0.000000 0.000000 0.000000 0.000000 0.000000 0.000000 0.000000 0.000000 0.000000 0.000000 0.000000 0.000000 0.000000 0.000000 0.000000 0.000000 0.000000 0.000000 0.000000 0.000000 0.000000 0.000000 0.000000 0.000000 0.000000 0.000000 0.000000 0.000000 0.000000 0.000000 0.000000 0.000000 0.000000 0.000000 0.000000 0.000000 0.000000 0.000000 0.000000 0.000000 0.000000 0.000000 0.000000 0.000000 0.000000 0.181818 0.181818 0.199007 0.199007 0.199007 0.199007 0.199007 0.199007 0.199007 0.199007 0.199007 0.199007 0.199007 0.199007 0.199007 0.199007 0.199007 0.199007 0.199007 0.199007 0.199007 0.199007 0.199007 0.199007 0.199007 0.199007 0.199007 0.199007 0.199007 0.199007 0.199007 0.199007 0.199007 0.199007 0.199007 0.199007 0.199007 0.199007 0.199007 0.199007 0.199007 0.199007 0.199007 0.230940 0.230940 0.230940 0.230940 0.230940 0.230940 0.230940 0.230940 0.230940 0.230940 0.230940 0.230940 0.230940 0.230940 0.230940 0.230940 0.230940 0.230940 0.230940 0.230940 0.230940 0.230940 0.230940 0.230940 0.230940 0.230940 0.230940 0.230940 0.244339 0.244339 0.244339 0.244339 0.244339 0.244339 0.244339 0.244339 0.244339 0.244339 0.244339 0.244339 0.244339 0.244339 0.244339 0.244339 0.244339 0.244339 0.244339 0.244339 0.244339 0.244339 0.244339 0.251976 0.251976 0.251976 0.251976 0.251976 0.251976 0.251976 0.251976 0.251976 0.251976 0.251976 0.251976 0.251976 0.251976 0.251976 0.251976 0.251976 0.251976 0.251976 0.251976 0.264906 0.264906 0.264906 0.264906 0.264906 0.264906 0.264906 0.264906 0.264906 0.264906 0.264906 0.264906 0.264906 0.264906 0.264906 0.264906 0.264906 0.264906 0.264906 0.264906 0.264906 0.264906 0.264906 0.264906 0.264906 0.264906 0.264906 0.264906 0.264906 0.264906 0.264906 0.264906 0.264906 0.264906 0.264906 0.264906 0.264906 0.264906 0.264906 0.264906 0.264906 0.264906 0.264906 0.264906 0.264906 0.264906 0.264906 0.264906 0.264906 0.264906 0.264906 0.264906 0.264906 0.264906 0.264906 0.264906 0.264906 0.264906 0.264906 0.264906 0.264906 0.264906 0.264906 0.264906 0.264906 0.264906 0.264906 0.264906 0.264906 0.264906 0.264906 0.264906 0.264906 0.264906 0.264906 0.269680 0.269680 0.269680 0.269680 0.269680 0.269680 0.269680 0.269680 0.269680 0.269680 0.269680 0.269680 0.264906 0.264906 0.264906 0.264906 0.264906 0.264906 0.264906 0.264906 0.264906 0.264906 0.264906 0.264906 0.269680 0.269680 0.269680 0.269680 0.269680 0.269680 0.269680 0.269680 0.269680 0.269680 0.269680 0.264906 0.264906 0.264906 0.264906 0.264906 0.264906 0.264906 0.264906 0.264906 0.264906 0.264906 0.269680 0.269680 0.269680 0.269680 0.269680 0.269680 0.269680 0.269680 0.269680 0.269680 0.264906 0.264906 0.264906 0.264906 0.264906 0.264906 0.264906 0.264906 0.264906 0.264906 0.260378 0.260378 0.260378 0.260378 0.260378 0.260378 0.260378 0.260378 0.260378 0.260378 0.256074 0.256074 0.256074 0.256074 0.256074 0.256074 0.256074 0.256074 0.256074 0.256074 0.260378 0.260378 0.260378 0.260378 0.260378 0.260378 0.260378 0.260378 0.260378 0.256074 0.256074 0.256074 0.256074 0.256074 0.256074 0.256074 0.256074 0.256074 0.269680 0.269680 0.269680 0.269680 0.269680 0.269680 0.269680 0.269680 0.248069 0.248069 0.248069 0.248069 0.248069 0.248069 0.248069 0.248069 0.248069 0.248069
