# Output from CTFFind version 4.1.9, run on 2019-11-02 17:58:42
# Input file: stack6_bm3d_averaged_1_1.75_0_1000_half.mrc ; Number of micrographs: 1
# Pixel size: 3.000 Angstroms ; acceleration voltage: 300.0 keV ; spherical aberration: 0.00 mm ; amplitude contrast: 0.07
# Box size: 512 pixels ; min. res.: 30.0 Angstroms ; max. res.: 5.0 Angstroms ; min. def.: 5000.0 um; max. def. 50000.0 um; num. frames averaged: 1
# 6 lines per micrograph: #1 - spatial frequency (1/Angstroms); #2 - 1D rotational average of spectrum (assuming no astigmatism); #3 - 1D rotational average of spectrum; #4 - CTF fit; #5 - cross-correlation between spectrum and CTF fit; #6 - 2sigma of expected cross correlation of noise
0.000000 0.000651 0.001302 0.001953 0.002604 0.003255 0.003906 0.004557 0.005208 0.005859 0.006510 0.007161 0.007812 0.008464 0.009115 0.009766 0.010417 0.011068 0.011719 0.012370 0.013021 0.013672 0.014323 0.014974 0.015625 0.016276 0.016927 0.017578 0.018229 0.018880 0.019531 0.020182 0.020833 0.021484 0.022135 0.022786 0.023438 0.024089 0.024740 0.025391 0.026042 0.026693 0.027344 0.027995 0.028646 0.029297 0.029948 0.030599 0.031250 0.031901 0.032552 0.033203 0.033854 0.034505 0.035156 0.035807 0.036458 0.037109 0.037760 0.038411 0.039062 0.039714 0.040365 0.041016 0.041667 0.042318 0.042969 0.043620 0.044271 0.044922 0.045573 0.046224 0.046875 0.047526 0.048177 0.048828 0.049479 0.050130 0.050781 0.051432 0.052083 0.052734 0.053385 0.054036 0.054688 0.055339 0.055990 0.056641 0.057292 0.057943 0.058594 0.059245 0.059896 0.060547 0.061198 0.061849 0.062500 0.063151 0.063802 0.064453 0.065104 0.065755 0.066406 0.067057 0.067708 0.068359 0.069010 0.069661 0.070312 0.070964 0.071615 0.072266 0.072917 0.073568 0.074219 0.074870 0.075521 0.076172 0.076823 0.077474 0.078125 0.078776 0.079427 0.080078 0.080729 0.081380 0.082031 0.082682 0.083333 0.083984 0.084635 0.085286 0.085938 0.086589 0.087240 0.087891 0.088542 0.089193 0.089844 0.090495 0.091146 0.091797 0.092448 0.093099 0.093750 0.094401 0.095052 0.095703 0.096354 0.097005 0.097656 0.098307 0.098958 0.099609 0.100260 0.100911 0.101562 0.102214 0.102865 0.103516 0.104167 0.104818 0.105469 0.106120 0.106771 0.107422 0.108073 0.108724 0.109375 0.110026 0.110677 0.111328 0.111979 0.112630 0.113281 0.113932 0.114583 0.115234 0.115885 0.116536 0.117188 0.117839 0.118490 0.119141 0.119792 0.120443 0.121094 0.121745 0.122396 0.123047 0.123698 0.124349 0.125000 0.125651 0.126302 0.126953 0.127604 0.128255 0.128906 0.129557 0.130208 0.130859 0.131510 0.132161 0.132812 0.133464 0.134115 0.134766 0.135417 0.136068 0.136719 0.137370 0.138021 0.138672 0.139323 0.139974 0.140625 0.141276 0.141927 0.142578 0.143229 0.143880 0.144531 0.145182 0.145833 0.146484 0.147135 0.147786 0.148438 0.149089 0.149740 0.150391 0.151042 0.151693 0.152344 0.152995 0.153646 0.154297 0.154948 0.155599 0.156250 0.156901 0.157552 0.158203 0.158854 0.159505 0.160156 0.160807 0.161458 0.162109 0.162760 0.163411 0.164062 0.164714 0.165365 0.166016 0.166667 0.167318 0.167969 0.168620 0.169271 0.169922 0.170573 0.171224 0.171875 0.172526 0.173177 0.173828 0.174479 0.175130 0.175781 0.176432 0.177083 0.177734 0.178385 0.179036 0.179688 0.180339 0.180990 0.181641 0.182292 0.182943 0.183594 0.184245 0.184896 0.185547 0.186198 0.186849 0.187500 0.188151 0.188802 0.189453 0.190104 0.190755 0.191406 0.192057 0.192708 0.193359 0.194010 0.194661 0.195312 0.195964 0.196615 0.197266 0.197917 0.198568 0.199219 0.199870 0.200521 0.201172 0.201823 0.202474 0.203125 0.203776 0.204427 0.205078 0.205729 0.206380 0.207031 0.207682 0.208333 0.208984 0.209635 0.210286 0.210938 0.211589 0.212240 0.212891 0.213542 0.214193 0.214844 0.215495 0.216146 0.216797 0.217448 0.218099 0.218750 0.219401 0.220052 0.220703 0.221354 0.222005 0.222656 0.223307 0.223958 0.224609 0.225260 0.225911 0.226562 0.227214 0.227865 0.228516 0.229167 0.229818 0.230469 0.231120 0.231771 0.232422 0.233073 0.233724 0.234375 0.235026 0.235677
       0.30614        0.30614        0.30614        0.30614        0.30614        0.30614        0.30614        0.30614        0.30614        0.30614        0.30614        0.30614        0.30614        0.30614        0.30614        0.30614        0.30614        0.30614        0.30614        0.30614        0.30614        0.30614        0.30614        0.30614        0.30614        0.30614        0.30614        0.30614        0.30614        0.30614        0.30614        0.30614        0.30614        0.30614        0.30614        0.30614        0.30614        0.30614        0.30614        0.30614        0.30614        0.30614        0.30614        0.30614        0.30614        0.30614        0.30614        0.30614        0.30614        0.30614        0.30614        0.62858        0.80294        0.40720        0.30023        0.17977       -0.11077        0.11085       -0.00175        0.02959        0.11131        0.33612        0.41712        0.39248        0.21909       -0.01826        0.04164        0.06923       -0.17768       -0.18292       -0.08914       -0.11475       -0.30023       -0.19241       -0.30837       -0.26523       -0.28982       -0.41238       -0.47680       -0.47464       -0.42215       -0.34695       -0.43506       -0.36399       -0.41694       -0.35720       -0.27925       -0.20657       -0.19849       -0.13320       -0.08406        0.03949        0.07655        0.25023        0.28727        0.37112        0.40019        0.51414        0.58427        0.60886        0.73136        0.69106        0.73933        0.64843        0.65848        0.68696        0.62908        0.61504        0.60728        0.42766        0.38772        0.34905        0.32530        0.22195        0.12811        0.06055        0.04895       -0.00016       -0.08182       -0.02486       -0.03759       -0.07529        0.06495        0.16129        0.25491        0.31263        0.32890        0.41839        0.53247        0.57953        0.52711        0.67118        0.55847        0.52975        0.60094        0.62216        0.52657        0.46294        0.39863        0.37489        0.23824        0.19696        0.12645        0.11630        0.05656        0.04956        0.09272        0.14724        0.14360        0.17244        0.22191        0.23828        0.32464        0.44335        0.47952        0.48958        0.51495        0.57594        0.57048        0.52406        0.41216        0.38203        0.35941        0.26591        0.23771        0.20972        0.19885        0.18864        0.17266        0.15853        0.12831        0.18701        0.23898        0.33405        0.37472        0.40458        0.46073        0.53138        0.46186        0.48240        0.42716        0.40492        0.37917        0.36321        0.28217        0.24517        0.19542        0.23216        0.21728        0.19500        0.20985        0.21180        0.23842        0.31017        0.39543        0.38382        0.37697        0.39448        0.44938        0.46577        0.43319        0.35329        0.31267        0.27325        0.26848        0.25645        0.21757        0.27875        0.29191        0.29608        0.30971        0.30064        0.32255        0.37425        0.36560        0.36317        0.35159        0.31340        0.32560        0.32062        0.29031        0.28487        0.26573        0.21773        0.26306        0.26894        0.29408        0.30978        0.33463        0.36632        0.32150        0.30419        0.35377        0.35701        0.25485        0.28590        0.30098        0.23489        0.21093        0.26722        0.26664        0.27085        0.29708        0.29642        0.32835        0.33149        0.34766        0.31622        0.32093        0.30453        0.29116        0.26203        0.23718        0.24652        0.25145        0.27554        0.29426        0.29108        0.28420        0.31916        0.33686        0.27406        0.30191        0.26840        0.25371        0.25231        0.24223        0.25015        0.26203        0.31366        0.27538        0.31058        0.29107        0.26908        0.30406        0.28665        0.32189        0.31697        0.29443        0.24782        0.24572        0.25535        0.25909        0.31402        0.30585        0.32669        0.31865        0.30627        0.26313        0.29532        0.22242        0.18668        0.26319        0.27637        0.26159        0.27246        0.30531        0.29221        0.35918        0.29099        0.23592        0.20875        0.23955        0.28831        0.29448        0.29918        0.27051        0.27832        0.26787        0.30711        0.27099        0.24789        0.26424        0.24177        0.28806        0.25030        0.27488        0.32134        0.29002        0.21399        0.25211        0.28862        0.30487        0.23116        0.26178        0.24565        0.29119        0.28216        0.36630        0.28048        0.25185        0.27306        0.23949        0.20511        0.18944        0.23135        0.19737        0.18728        0.15875        0.20314        0.26265        0.21818        0.24184        0.19428        0.22656        0.20388        0.22310        0.18474        0.16287        0.19340        0.24602        0.14827        0.05955        0.21488        0.16941        0.11202        0.21854        0.13627        0.17215        0.18928       -0.10602       -0.50733       -0.85674
2.858501 2.830285 2.802215 2.774289 2.746510 2.718875 2.691386 2.664043 2.636845 2.609792 2.582884 2.556122 2.529505 2.503034 2.476708 2.450527 2.424492 2.398602 2.372858 2.347258 2.321804 2.296496 2.271333 2.246315 2.221443 2.196716 2.172134 2.147698 2.123407 2.099261 2.075261 2.051406 2.027697 2.004133 1.980714 1.957441 1.934313 1.911330 1.888493 1.865801 1.843255 1.820853 1.798598 1.776487 1.754522 1.732703 1.711028 1.689499 1.668116 1.646877 1.625785 1.923133 2.260079 1.694394 1.731073 1.379705 0.935871 1.203887 1.035176 1.080342 1.025922 1.502867 1.512638 1.535573 1.275834 0.944641 0.820595 1.018390 0.713649 0.486000 0.596713 0.677403 0.419039 0.488968 0.328545 0.358552 0.251908 0.159006 -0.038524 0.013703 0.033835 0.075099 0.048116 0.096924 -0.046329 0.026695 0.107624 0.224256 0.277295 0.222677 0.336881 0.566348 0.440049 0.726413 0.817781 0.882145 0.903081 1.125251 1.136922 1.179998 1.322060 1.219592 1.377795 1.191664 1.105948 1.307365 1.122590 1.057179 1.133561 0.880932 0.725306 0.672190 0.665473 0.473763 0.390758 0.272880 0.209100 0.103164 -0.012964 0.104977 0.017872 -0.066017 0.112305 0.259778 0.311380 0.460588 0.476692 0.542808 0.706686 0.804416 0.639301 0.957618 0.789345 0.657418 0.770227 0.774523 0.705144 0.641842 0.439468 0.502660 0.278262 0.169175 0.127968 0.003813 -0.010245 -0.113769 -0.024353 -0.000982 0.073376 -0.050952 0.248427 0.109943 0.196953 0.371059 0.412084 0.523047 0.417502 0.556003 0.666588 0.503793 0.386198 0.323977 0.312307 0.146507 0.122033 0.011427 0.089815 -0.001429 0.002576 -0.040260 -0.108061 -0.016244 0.008867 0.099109 0.276822 0.210961 0.344453 0.369470 0.439104 0.378708 0.421227 0.343615 0.224320 0.312946 0.167744 0.158816 -0.005137 0.059031 0.067873 -0.009229 0.002975 0.002924 0.058483 0.083438 0.240176 0.294974 0.232545 0.232851 0.362751 0.361298 0.355655 0.251505 0.163750 0.140445 0.086081 0.080489 0.038897 0.024065 0.132006 0.053486 0.183315 0.089984 0.116281 0.211384 0.218258 0.219675 0.187010 0.196822 0.106736 0.164385 0.121972 0.090809 0.118654 -0.018945 0.034033 0.076745 0.046441 0.139029 0.104860 0.204071 0.192534 0.124893 0.124903 0.216700 0.122987 0.056953 0.097190 0.059520 0.000567 -0.008103 0.070993 0.065693 0.044572 0.117219 0.105318 0.131954 0.152794 0.160715 0.141416 0.102400 0.109580 0.094055 0.023472 0.012273 0.038819 0.010421 0.077739 0.111281 0.086174 0.056398 0.116523 0.131119 0.026845 0.117977 0.030954 0.016980 0.016010 -0.003619 0.000771 0.075612 0.091298 0.010342 0.110457 0.069132 0.012624 0.104646 0.044226 0.088806 0.106323 0.015633 -0.004511 -0.027589 0.031757 -0.004595 0.078795 0.074847 0.091789 0.067048 0.122401 -0.012324 0.072803 -0.102257 -0.049178 -0.000499 0.030262 0.014626 -0.005769 0.094821 0.054553 0.108925 -0.054192 -0.066741 -0.108667 -0.082486 0.063942 0.008687 0.027842 -0.023072 -0.022953 -0.024428 0.063210 -0.040563 -0.045384 -0.018636 -0.103354 0.030781 -0.044065 0.003508 0.054980 -0.012745 -0.089685 0.005909 0.044511 0.012862 -0.055627 0.010183 -0.062465 0.102142 0.065179 0.156986 0.028917 -0.007809 0.043847 0.038924 -0.065252 -0.011098 0.047894 -0.021113 -0.048031 -0.061136 -0.005497 0.130135 -0.019213 0.127549 0.001977 0.106707 -0.018101 0.130490 -0.038681 0.005341 -0.012935 0.165690 0.018093 0.000091 0.299732 0.232012 0.162489 0.346721 0.214711 0.210210 0.318085 -0.144739 -1.196005
0.072396 0.072835 0.074150 0.076342 0.079410 0.083354 0.088172 0.093864 0.100427 0.107861 0.116162 0.125327 0.135352 0.146234 0.157966 0.170543 0.183956 0.198197 0.213255 0.229119 0.245775 0.263206 0.281397 0.300325 0.319969 0.340303 0.361300 0.382927 0.405151 0.427932 0.451230 0.474998 0.499186 0.523741 0.548603 0.573710 0.598993 0.624380 0.649792 0.675147 0.700356 0.725326 0.749958 0.774149 0.797788 0.820764 0.842956 0.864242 0.884494 0.903580 0.921366 0.937712 0.952477 0.965519 0.976693 0.985854 0.992856 0.997557 0.999813 0.999486 0.996441 0.990549 0.981687 0.969742 0.954606 0.936187 0.914401 0.889181 0.860475 0.828245 0.792476 0.753170 0.710352 0.664069 0.614396 0.561430 0.505297 0.446151 0.384175 0.319583 0.252618 0.183555 0.112700 0.040387 0.033018 0.107118 0.181493 0.255692 0.329243 0.401651 0.472404 0.540972 0.606816 0.669387 0.728135 0.782513 0.831978 0.876005 0.914086 0.945738 0.970512 0.987999 0.997834 0.999705 0.993360 0.978613 0.955349 0.923534 0.883213 0.834523 0.777691 0.713038 0.640984 0.562048 0.476843 0.386081 0.290569 0.191199 0.088948 0.015130 0.119917 0.224239 0.326876 0.426582 0.522093 0.612149 0.695508 0.770967 0.837378 0.893670 0.938868 0.972112 0.992677 0.999989 0.993645 0.973423 0.939301 0.891463 0.830308 0.756456 0.670747 0.574240 0.468201 0.354103 0.233598 0.108504 0.019219 0.147497 0.274176 0.397058 0.513933 0.622628 0.721046 0.807206 0.879293 0.935696 0.975052 0.996285 0.998635 0.981695 0.945433 0.890204 0.816768 0.726284 0.620309 0.500773 0.369963 0.230475 0.085181 0.062837 0.210336 0.353994 0.490477 0.616521 0.729010 0.825062 0.902107 0.957965 0.990915 0.999757 0.983863 0.943220 0.878446 0.790809 0.682208 0.555154 0.412721 0.258482 0.096432 0.069110 0.233613 0.392454 0.541048 0.674988 0.790173 0.882952 0.950244 0.989650 0.999560 0.979223 0.928804 0.849414 0.743103 0.612832 0.462401 0.296367 0.119900 0.061346 0.241428 0.414298 0.574001 0.714897 0.831858 0.920477 0.977238 0.999683 0.986528 0.937752 0.854638 0.739770 0.596972 0.431214 0.248443 0.055402 0.140626 0.332068 0.511369 0.671282 0.805179 0.907333 0.973185 0.999567 0.984877 0.929195 0.834327 0.703789 0.542695 0.357593 0.156213 0.052831 0.260411 0.457266 0.634428 0.783636 0.897737 0.971052 0.999679 0.981737 0.917504 0.809473 0.662289 0.482588 0.278722 0.060403 0.161747 0.376710 0.573607 0.742263 0.873750 0.960879 0.998624 0.984447 0.918498 0.803677 0.645558 0.452156 0.233551 0.001395 0.231693 0.452804 0.649462 0.810337 0.925918 0.989107 0.995701 0.944698 0.838447 0.682591 0.485818 0.259413 0.016648 0.227968 0.459574 0.663821 0.827812 0.940926 0.995547 0.987620 0.916995 0.787540 0.606975 0.386480 0.140037 0.116431 0.366056 0.592147 0.779304 0.914498 0.988021 0.994224 0.932010 0.805009 0.621441 0.393645 0.137293 0.129652 0.388166 0.619531 0.806691 0.935543 0.996054 0.983090 0.896912 0.743278 0.533129 0.281883 0.008340 0.266690 0.521950 0.737386 0.895754 0.984048 0.994614 0.925891 0.782663 0.575816 0.321575 0.040291 0.245145 0.511147 0.735392 0.898724 0.986833 0.991574 0.911798 0.753598 0.529925 0.259620 0.034125 0.325720 0.589384 0.801438 0.942480 0.999214 0.965776 0.844431 0.645522 0.386682 0.091346 0.213309 0.498851 0.738246 0.908441 0.992652 0.982094 0.876990 0.686722 0.429104 0.128792 0.185005 0.481339 0.730578 0.907392
1.000000 1.000000 1.000000 1.000000 1.000000 1.000000 1.000000 1.000000 1.000000 1.000000 1.000000 1.000000 1.000000 1.000000 1.000000 1.000000 1.000000 1.000000 1.000000 1.000000 1.000000 1.000000 1.000000 1.000000 1.000000 1.000000 1.000000 1.000000 1.000000 1.000000 1.000000 1.000000 1.000000 1.000000 1.000000 1.000000 1.000000 1.000000 1.000000 1.000000 1.000000 1.000000 1.000000 1.000000 1.000000 1.000000 1.000000 1.000000 1.000000 1.000000 1.000000 1.000000 0.834308 0.834308 0.834308 0.834308 0.834308 0.834308 0.834308 0.815150 0.815150 0.815150 0.815150 0.815150 0.815150 0.815150 0.815150 0.815150 0.815150 0.815150 0.815150 0.815150 0.815150 0.815150 0.815150 0.815150 0.815150 0.815150 0.815150 0.815150 0.815150 0.815150 0.815150 0.815150 0.815150 0.815150 0.815150 0.815150 0.815150 0.815150 0.815150 0.815150 0.815150 0.815150 0.815150 0.815150 0.815150 0.815150 0.815150 0.815150 0.815150 0.815150 0.815150 0.955473 0.956148 0.953384 0.952383 0.950822 0.947282 0.943196 0.942714 0.944023 0.944243 0.944877 0.946200 0.947163 0.948723 0.949689 0.950469 0.951244 0.959286 0.962952 0.962681 0.962448 0.958483 0.965326 0.964813 0.958230 0.958846 0.959061 0.959716 0.959644 0.959513 0.959101 0.957851 0.958454 0.958278 0.957595 0.956646 0.954701 0.954656 0.954270 0.954415 0.955344 0.956064 0.956794 0.957283 0.957285 0.957411 0.957414 0.957335 0.946856 0.946819 0.939270 0.938933 0.939803 0.939271 0.938148 0.936555 0.936637 0.936562 0.935559 0.935501 0.934356 0.923133 0.923314 0.923335 0.924172 0.920513 0.910726 0.904476 0.899539 0.901022 0.905084 0.909454 0.909562 0.905495 0.904757 0.888278 0.885061 0.867547 0.863743 0.856683 0.866247 0.867447 0.869046 0.863459 0.862173 0.860279 0.857629 0.842586 0.847390 0.846231 0.842733 0.839418 0.837871 0.835028 0.837412 0.842352 0.835765 0.823941 0.832187 0.820198 0.806070 0.804413 0.807445 0.817053 0.829089 0.827668 0.826820 0.818108 0.813297 0.803881 0.798004 0.799393 0.801906 0.798186 0.805949 0.806731 0.817127 0.810985 0.803187 0.808611 0.820340 0.825264 0.827764 0.828037 0.824932 0.825963 0.802418 0.803222 0.805541 0.776929 0.777735 0.774028 0.773876 0.774813 0.776873 0.773201 0.765986 0.759603 0.739630 0.752342 0.762613 0.737154 0.742689 0.734041 0.722644 0.687696 0.691697 0.697139 0.706617 0.707303 0.714812 0.704638 0.706576 0.715639 0.717243 0.722019 0.718185 0.708545 0.706224 0.713122 0.708977 0.694093 0.690116 0.689733 0.685280 0.679731 0.661270 0.670023 0.646169 0.633779 0.623731 0.588035 0.575451 0.566436 0.554481 0.535662 0.515219 0.528377 0.519303 0.514698 0.503247 0.478609 0.435271 0.423813 0.422047 0.409151 0.409322 0.394835 0.341567 0.354344 0.347597 0.342562 0.318602 0.302268 0.281752 0.216328 0.215928 0.172047 0.193830 0.202960 0.193263 0.174759 0.164853 0.194849 0.206824 0.224473 0.222805 0.250034 0.220497 0.171024 0.195950 0.186770 0.187858 0.174137 0.130828 0.155456 0.149088 0.156781 0.165613 0.118856 0.088886 0.062672 0.064256 0.080292 0.102858 0.119773 0.103978 0.083249 -0.008158 0.025203 0.055947 0.055947 0.055947 0.055947 0.055947 0.055947 0.055947 0.055947 0.055947 0.055947 0.055947 -0.001955 -0.001955 -0.001955 -0.001955 -0.001955 -0.001955 -0.001955 -0.001955 -0.001955 -0.001955 -0.001955 -0.001955 -0.001955 -0.001955 -0.001955 -0.001955 -0.001955 -0.001955 -0.001955
0.000000 0.000000 0.000000 0.000000 0.000000 0.000000 0.000000 0.000000 0.000000 0.000000 0.000000 0.000000 0.000000 0.000000 0.000000 0.000000 0.000000 0.000000 0.000000 0.000000 0.000000 0.000000 0.000000 0.000000 0.000000 0.000000 0.000000 0.000000 0.000000 0.000000 0.000000 0.000000 0.000000 0.000000 0.000000 0.000000 0.000000 0.000000 0.000000 0.000000 0.000000 0.000000 0.000000 0.000000 0.000000 0.000000 0.000000 0.000000 0.000000 0.000000 0.000000 0.000000 0.173422 0.173422 0.173422 0.173422 0.173422 0.173422 0.173422 0.191565 0.191565 0.191565 0.191565 0.191565 0.191565 0.191565 0.191565 0.191565 0.191565 0.191565 0.191565 0.191565 0.191565 0.191565 0.191565 0.191565 0.191565 0.191565 0.191565 0.191565 0.191565 0.191565 0.191565 0.191565 0.191565 0.191565 0.191565 0.191565 0.191565 0.191565 0.191565 0.191565 0.191565 0.191565 0.191565 0.191565 0.191565 0.191565 0.191565 0.191565 0.191565 0.191565 0.191565 0.219529 0.219529 0.219529 0.219529 0.219529 0.219529 0.219529 0.219529 0.219529 0.219529 0.219529 0.219529 0.219529 0.219529 0.219529 0.219529 0.219529 0.219529 0.219529 0.219529 0.219529 0.219529 0.219529 0.219529 0.219529 0.219529 0.219529 0.219529 0.219529 0.219529 0.219529 0.237356 0.237356 0.237356 0.237356 0.237356 0.237356 0.237356 0.237356 0.237356 0.237356 0.237356 0.237356 0.237356 0.237356 0.237356 0.237356 0.237356 0.237356 0.237356 0.237356 0.237356 0.237356 0.237356 0.237356 0.244339 0.244339 0.244339 0.244339 0.244339 0.244339 0.244339 0.244339 0.244339 0.244339 0.244339 0.244339 0.244339 0.244339 0.244339 0.244339 0.244339 0.244339 0.244339 0.244339 0.244339 0.248069 0.248069 0.248069 0.248069 0.248069 0.248069 0.248069 0.248069 0.248069 0.248069 0.248069 0.248069 0.248069 0.248069 0.248069 0.248069 0.248069 0.248069 0.248069 0.248069 0.248069 0.248069 0.248069 0.248069 0.248069 0.248069 0.248069 0.248069 0.248069 0.248069 0.248069 0.248069 0.248069 0.248069 0.248069 0.248069 0.248069 0.256074 0.256074 0.256074 0.256074 0.256074 0.256074 0.256074 0.256074 0.256074 0.256074 0.256074 0.256074 0.256074 0.256074 0.256074 0.256074 0.256074 0.256074 0.256074 0.256074 0.256074 0.256074 0.256074 0.256074 0.256074 0.256074 0.256074 0.256074 0.256074 0.256074 0.256074 0.256074 0.256074 0.256074 0.256074 0.256074 0.256074 0.256074 0.256074 0.256074 0.256074 0.256074 0.256074 0.256074 0.256074 0.260378 0.260378 0.260378 0.260378 0.260378 0.260378 0.260378 0.260378 0.260378 0.260378 0.260378 0.260378 0.260378 0.256074 0.256074 0.256074 0.256074 0.256074 0.256074 0.256074 0.256074 0.256074 0.256074 0.256074 0.256074 0.256074 0.260378 0.260378 0.260378 0.260378 0.260378 0.260378 0.260378 0.260378 0.260378 0.260378 0.260378 0.260378 0.251976 0.251976 0.251976 0.251976 0.251976 0.251976 0.251976 0.251976 0.251976 0.251976 0.251976 0.251976 0.256074 0.256074 0.256074 0.256074 0.256074 0.256074 0.256074 0.256074 0.256074 0.256074 0.256074 0.251976 0.251976 0.251976 0.251976 0.251976 0.251976 0.251976 0.251976 0.251976 0.251976 0.251976 0.248069 0.248069 0.248069 0.248069 0.248069 0.248069 0.248069 0.248069 0.248069 0.248069 0.248069 0.256074 0.256074 0.256074 0.256074 0.256074 0.256074 0.256074 0.256074 0.256074 0.256074 0.256074 0.256074 0.256074 0.256074 0.256074 0.256074 0.256074 0.256074 0.256074
