# Output from CTFFind version 4.1.9, run on 2019-11-03 19:43:05
# Input file: stack11_bm3d_averaged_1_4.75_0_2500_half.mrc ; Number of micrographs: 1
# Pixel size: 3.000 Angstroms ; acceleration voltage: 300.0 keV ; spherical aberration: 0.00 mm ; amplitude contrast: 0.07
# Box size: 512 pixels ; min. res.: 30.0 Angstroms ; max. res.: 5.0 Angstroms ; min. def.: 5000.0 um; max. def. 50000.0 um; num. frames averaged: 1
# 6 lines per micrograph: #1 - spatial frequency (1/Angstroms); #2 - 1D rotational average of spectrum (assuming no astigmatism); #3 - 1D rotational average of spectrum; #4 - CTF fit; #5 - cross-correlation between spectrum and CTF fit; #6 - 2sigma of expected cross correlation of noise
0.000000 0.000651 0.001302 0.001953 0.002604 0.003255 0.003906 0.004557 0.005208 0.005859 0.006510 0.007161 0.007812 0.008464 0.009115 0.009766 0.010417 0.011068 0.011719 0.012370 0.013021 0.013672 0.014323 0.014974 0.015625 0.016276 0.016927 0.017578 0.018229 0.018880 0.019531 0.020182 0.020833 0.021484 0.022135 0.022786 0.023438 0.024089 0.024740 0.025391 0.026042 0.026693 0.027344 0.027995 0.028646 0.029297 0.029948 0.030599 0.031250 0.031901 0.032552 0.033203 0.033854 0.034505 0.035156 0.035807 0.036458 0.037109 0.037760 0.038411 0.039062 0.039714 0.040365 0.041016 0.041667 0.042318 0.042969 0.043620 0.044271 0.044922 0.045573 0.046224 0.046875 0.047526 0.048177 0.048828 0.049479 0.050130 0.050781 0.051432 0.052083 0.052734 0.053385 0.054036 0.054688 0.055339 0.055990 0.056641 0.057292 0.057943 0.058594 0.059245 0.059896 0.060547 0.061198 0.061849 0.062500 0.063151 0.063802 0.064453 0.065104 0.065755 0.066406 0.067057 0.067708 0.068359 0.069010 0.069661 0.070312 0.070964 0.071615 0.072266 0.072917 0.073568 0.074219 0.074870 0.075521 0.076172 0.076823 0.077474 0.078125 0.078776 0.079427 0.080078 0.080729 0.081380 0.082031 0.082682 0.083333 0.083984 0.084635 0.085286 0.085938 0.086589 0.087240 0.087891 0.088542 0.089193 0.089844 0.090495 0.091146 0.091797 0.092448 0.093099 0.093750 0.094401 0.095052 0.095703 0.096354 0.097005 0.097656 0.098307 0.098958 0.099609 0.100260 0.100911 0.101562 0.102214 0.102865 0.103516 0.104167 0.104818 0.105469 0.106120 0.106771 0.107422 0.108073 0.108724 0.109375 0.110026 0.110677 0.111328 0.111979 0.112630 0.113281 0.113932 0.114583 0.115234 0.115885 0.116536 0.117188 0.117839 0.118490 0.119141 0.119792 0.120443 0.121094 0.121745 0.122396 0.123047 0.123698 0.124349 0.125000 0.125651 0.126302 0.126953 0.127604 0.128255 0.128906 0.129557 0.130208 0.130859 0.131510 0.132161 0.132812 0.133464 0.134115 0.134766 0.135417 0.136068 0.136719 0.137370 0.138021 0.138672 0.139323 0.139974 0.140625 0.141276 0.141927 0.142578 0.143229 0.143880 0.144531 0.145182 0.145833 0.146484 0.147135 0.147786 0.148438 0.149089 0.149740 0.150391 0.151042 0.151693 0.152344 0.152995 0.153646 0.154297 0.154948 0.155599 0.156250 0.156901 0.157552 0.158203 0.158854 0.159505 0.160156 0.160807 0.161458 0.162109 0.162760 0.163411 0.164062 0.164714 0.165365 0.166016 0.166667 0.167318 0.167969 0.168620 0.169271 0.169922 0.170573 0.171224 0.171875 0.172526 0.173177 0.173828 0.174479 0.175130 0.175781 0.176432 0.177083 0.177734 0.178385 0.179036 0.179688 0.180339 0.180990 0.181641 0.182292 0.182943 0.183594 0.184245 0.184896 0.185547 0.186198 0.186849 0.187500 0.188151 0.188802 0.189453 0.190104 0.190755 0.191406 0.192057 0.192708 0.193359 0.194010 0.194661 0.195312 0.195964 0.196615 0.197266 0.197917 0.198568 0.199219 0.199870 0.200521 0.201172 0.201823 0.202474 0.203125 0.203776 0.204427 0.205078 0.205729 0.206380 0.207031 0.207682 0.208333 0.208984 0.209635 0.210286 0.210938 0.211589 0.212240 0.212891 0.213542 0.214193 0.214844 0.215495 0.216146 0.216797 0.217448 0.218099 0.218750 0.219401 0.220052 0.220703 0.221354 0.222005 0.222656 0.223307 0.223958 0.224609 0.225260 0.225911 0.226562 0.227214 0.227865 0.228516 0.229167 0.229818 0.230469 0.231120 0.231771 0.232422 0.233073 0.233724 0.234375 0.235026 0.235677
       0.33668        0.33668        0.33668        0.33668        0.33668        0.33668        0.33668        0.33668        0.33668        0.33668        0.33668        0.33668        0.33668        0.33668        0.33668        0.33668        0.33668        0.33668        0.33668        0.33668        0.33668        0.33668        0.33668        0.33668        0.33668        0.33668        0.33668        0.33668        0.33668        0.33668        0.33668        0.33668        0.33668        0.33668        0.33668        0.33668        0.33668        0.33668        0.33668        0.33668        0.33668        0.33668        0.33668        0.33668        0.33668        0.33668        0.33668        0.33668        0.33668        0.33668        0.33668        0.69408        0.85915        0.53340        0.10363       -0.03325       -0.39759       -0.18391       -0.28908       -0.11411       -0.05776       -0.11107       -0.05471       -0.17701       -0.21165       -0.22495       -0.31326       -0.32472       -0.45327       -0.36620       -0.43479       -0.42949       -0.40220       -0.42459       -0.46852       -0.51933       -0.56309       -0.56783       -0.54094       -0.36971       -0.34259       -0.30378       -0.28329       -0.19162       -0.18017        0.05178        0.12873        0.15997        0.25475        0.37871        0.45485        0.51973        0.58746        0.58565        0.57620        0.69558        0.80522        0.71052        0.74017        0.62932        0.56744        0.48229        0.42435        0.50861        0.39157        0.25140        0.10703        0.09561        0.07264       -0.02849        0.02132        0.03507       -0.00917        0.01736        0.01253        0.23659        0.26688        0.29245        0.42794        0.44982        0.40957        0.58092        0.62605        0.65213        0.73207        0.67976        0.65007        0.66704        0.56383        0.46781        0.41790        0.29863        0.24814        0.17228        0.13121        0.05314        0.04970        0.05388        0.09113        0.14872        0.23538        0.28400        0.40664        0.45756        0.48335        0.57801        0.60965        0.63747        0.62079        0.56161        0.45621        0.46910        0.37490        0.26093        0.20213        0.15714        0.16080        0.14469        0.13900        0.16639        0.30125        0.31344        0.39073        0.42942        0.42880        0.49234        0.55587        0.55192        0.49225        0.45310        0.40569        0.35757        0.32803        0.29387        0.24242        0.23580        0.22849        0.24141        0.21691        0.30201        0.35960        0.38786        0.43917        0.45567        0.47253        0.42385        0.40195        0.40285        0.35917        0.31268        0.27004        0.26086        0.25764        0.22644        0.27539        0.27708        0.34365        0.37465        0.41459        0.47475        0.41382        0.42680        0.43161        0.40493        0.34452        0.32177        0.29115        0.31045        0.26732        0.30731        0.30180        0.32106        0.32862        0.35228        0.31769        0.39748        0.41602        0.37822        0.34460        0.37116        0.30980        0.28819        0.29345        0.31896        0.29965        0.31211        0.32912        0.34204        0.34028        0.36749        0.36931        0.40081        0.37812        0.32852        0.33608        0.29341        0.27984        0.31945        0.31431        0.32437        0.33192        0.32903        0.37141        0.32685        0.32681        0.32729        0.33258        0.29905        0.30722        0.27116        0.29786        0.31943        0.30092        0.32161        0.34268        0.34939        0.28555        0.32157        0.28910        0.30097        0.27961        0.23904        0.29424        0.29580        0.34113        0.33227        0.33168        0.32236        0.34506        0.30507        0.34167        0.31837        0.30400        0.27672        0.32451        0.31000        0.35442        0.32281        0.33406        0.34188        0.29462        0.27432        0.30944        0.24490        0.22328        0.33133        0.31700        0.34593        0.33336        0.34845        0.32051        0.34077        0.34203        0.26217        0.24764        0.30630        0.30385        0.30686        0.31955        0.33842        0.33326        0.30016        0.29164        0.34073        0.31682        0.29833        0.27535        0.31960        0.34699        0.39341        0.33295        0.29727        0.27526        0.30413        0.27460        0.29164        0.26765        0.25213        0.31091        0.33286        0.34442        0.34767        0.31294        0.28268        0.29186        0.25868        0.26355        0.24694        0.31646        0.27922        0.22731        0.31707        0.31104        0.26537        0.28640        0.20861        0.21462        0.25241        0.18640        0.25105        0.31427        0.23508        0.21482        0.31061        0.32595        0.32256        0.31923        0.25598        0.22449        0.18484        0.21691        0.19039        0.20873        0.21868        0.26113        0.30522        0.28127        0.21608        0.10884        0.06237       -0.01228       -0.09785       -0.61215
2.719158 2.690373 2.661746 2.633275 2.604962 2.576806 2.548807 2.520966 2.493281 2.465754 2.438384 2.411171 2.384116 2.357218 2.330476 2.303893 2.277466 2.251196 2.225084 2.199129 2.173331 2.147690 2.122207 2.096881 2.071712 2.046700 2.021845 1.997148 1.972608 1.948225 1.923999 1.899930 1.876019 1.852265 1.828668 1.805228 1.781946 1.758820 1.735852 1.713041 1.690388 1.667891 1.645552 1.623370 1.601345 1.579477 1.557767 1.536214 1.514818 1.493579 1.472498 1.688541 2.104844 1.667952 1.168234 1.034575 0.440346 0.839809 0.559383 0.840385 0.800568 0.810641 0.754388 0.737518 0.587928 0.547271 0.494828 0.428120 0.241066 0.369576 0.201500 0.324422 0.223800 0.200542 0.173249 0.038501 0.018270 0.016047 -0.066848 0.127848 0.226290 0.186631 0.170743 0.329513 0.184724 0.510704 0.614807 0.612881 0.630696 0.869821 0.826125 0.935867 0.914096 1.012509 0.978145 1.071142 1.156105 1.040001 1.145414 0.910837 0.923313 0.787269 0.646211 0.792451 0.698085 0.476881 0.327895 0.249533 0.257069 0.147777 0.121598 0.156345 0.103746 0.127852 0.071542 0.254962 0.360953 0.343393 0.469187 0.545979 0.420156 0.580243 0.719811 0.676004 0.739278 0.702271 0.718974 0.658398 0.598571 0.510010 0.379857 0.277189 0.220322 0.081611 0.121106 -0.085049 -0.044266 -0.059495 -0.071332 -0.018588 0.141429 0.069194 0.242480 0.304559 0.338832 0.395444 0.502800 0.478692 0.483122 0.493202 0.308817 0.292987 0.283881 0.087179 0.043740 -0.064972 -0.008160 -0.059258 -0.089058 -0.085919 0.037261 0.079719 0.122896 0.210599 0.228947 0.245855 0.291524 0.435968 0.390037 0.267141 0.240648 0.220874 0.151833 0.143206 0.112835 0.003054 0.019236 0.063622 -0.000027 0.061686 0.144349 0.148236 0.235480 0.246709 0.286833 0.182597 0.215722 0.146095 0.169900 0.115871 0.050029 -0.005745 0.011948 -0.001775 -0.043680 0.060303 0.024642 0.125029 0.151121 0.189468 0.193814 0.158718 0.159809 0.177618 0.127663 0.059838 0.002021 0.053093 0.024607 -0.017719 0.033859 0.040098 0.057496 0.050524 0.062543 0.076357 0.129283 0.151868 0.055965 0.056704 0.055641 0.015280 -0.024057 0.015332 0.022177 0.006161 0.015252 0.043215 0.059072 0.054290 0.091986 0.061628 0.140944 0.060095 0.027470 0.038490 -0.032882 0.002939 0.042397 0.003833 0.037288 0.050370 0.022412 0.116612 0.031080 0.007688 0.054928 0.004706 0.015251 0.004981 -0.021874 0.028789 0.007884 0.007042 0.056854 0.059386 0.047929 0.033923 0.035603 0.035033 0.025178 -0.012496 -0.024461 0.032312 0.053905 0.083338 0.086716 0.063072 0.078652 0.117082 0.057272 0.116501 0.089857 0.036752 0.039457 0.102107 0.075201 0.115837 0.100648 0.063622 0.135633 0.060612 0.021734 0.098112 -0.026138 -0.002303 0.111163 0.059710 0.148899 0.092745 0.103881 0.049192 0.097045 0.093017 -0.011208 -0.028848 0.059813 0.071377 0.039364 0.046090 0.096486 0.078752 0.003473 0.049356 0.071689 0.056722 0.046476 -0.021099 0.074596 0.084328 0.133977 0.023148 0.010004 -0.021744 0.015000 -0.023213 0.005162 -0.043166 -0.033760 0.012199 0.053907 0.011351 0.035060 -0.011441 -0.036924 -0.044132 -0.031435 -0.072467 -0.064497 0.006220 0.013423 -0.096751 0.019036 -0.026719 -0.064049 0.006438 -0.129002 -0.075452 -0.078592 -0.175458 -0.034653 0.044089 -0.043848 -0.151021 0.049603 0.085946 -0.030103 0.078079 -0.039442 0.243899 0.151811 0.228100 0.241016 0.236902 0.232834 0.294597 0.295378 0.320085 0.196573 0.194366 0.090235 -0.017660 -0.661722
0.072396 0.072899 0.074406 0.076919 0.080436 0.084956 0.090478 0.097000 0.104521 0.113037 0.122545 0.133041 0.144519 0.156974 0.170396 0.184778 0.200108 0.216374 0.233559 0.251648 0.270619 0.290450 0.311116 0.332586 0.354828 0.377803 0.401472 0.425788 0.450700 0.476152 0.502084 0.528427 0.555110 0.582053 0.609171 0.636373 0.663560 0.690626 0.717461 0.743944 0.769952 0.795350 0.820000 0.843758 0.866471 0.887983 0.908131 0.926749 0.943666 0.958707 0.971697 0.982457 0.990810 0.996577 0.999584 0.999660 0.996638 0.990360 0.980674 0.967440 0.950532 0.929837 0.905257 0.876716 0.844157 0.807548 0.766880 0.722175 0.673482 0.620884 0.564496 0.504469 0.440991 0.374290 0.304632 0.232322 0.157709 0.081177 0.003156 0.075890 0.155457 0.235005 0.313965 0.391735 0.467689 0.541181 0.611547 0.678116 0.740212 0.797164 0.848312 0.893016 0.930664 0.960683 0.982547 0.995784 0.999990 0.994838 0.980082 0.955574 0.921263 0.877212 0.823596 0.760716 0.688994 0.608982 0.521360 0.426939 0.326650 0.221549 0.112799 0.001668 0.110485 0.222226 0.332065 0.438469 0.539889 0.634780 0.721627 0.798972 0.865439 0.919762 0.960816 0.987639 0.999458 0.995720 0.976105 0.940553 0.889271 0.822752 0.741776 0.647414 0.541020 0.424225 0.298913 0.167204 0.031419 0.105951 0.242299 0.374934 0.501149 0.618265 0.723700 0.815025 0.890026 0.946768 0.983645 0.999440 0.993371 0.965124 0.914891 0.843384 0.751846 0.642040 0.516232 0.377160 0.227980 0.072205 0.086365 0.243742 0.395838 0.538575 0.667999 0.780396 0.872398 0.941105 0.984181 0.999947 0.987461 0.946575 0.877971 0.783180 0.664565 0.525287 0.369234 0.200932 0.025423 0.151876 0.325333 0.489286 0.638221 0.766971 0.870905 0.946101 0.989524 0.999156 0.974110 0.914707 0.822507 0.700300 0.552054 0.382799 0.198487 0.005796 0.188101 0.375802 0.549948 0.703529 0.830168 0.924405 0.981957 0.999930 0.976994 0.913491 0.811479 0.674706 0.508505 0.319612 0.115924 0.093821 0.300398 0.494510 0.667196 0.810270 0.916721 0.981084 0.999749 0.971196 0.896138 0.777553 0.620622 0.432530 0.222182 0.000203 0.223559 0.436526 0.628024 0.787841 0.907204 0.979283 0.999625 0.966462 0.880896 0.746921 0.571291 0.363228 0.133971 0.103803 0.336654 0.551150 0.734635 0.876010 0.966424 0.999881 0.973675 0.888656 0.749277 0.563427 0.342031 0.098458 0.152254 0.394315 0.612171 0.791521 0.920279 0.989434 0.993733 0.932132 0.807988 0.628942 0.406523 0.155458 0.107264 0.363515 0.595280 0.785931 0.921449 0.991510 0.990327 0.917193 0.776663 0.578361 0.336388 0.068378 0.205746 0.465227 0.690050 0.862526 0.968697 0.999555 0.951866 0.828575 0.638724 0.396875 0.122073 0.163626 0.436869 0.674932 0.857629 0.969066 0.999101 0.944348 0.808623 0.602799 0.344015 0.054341 0.241062 0.516104 0.746072 0.909881 0.992080 0.984389 0.886623 0.706901 0.461082 0.171462 0.135178 0.430013 0.684875 0.874966 0.981339 0.992874 0.907538 0.732798 0.485079 0.188343 0.128161 0.432720 0.694346 0.885942 0.987186 0.986783 0.883833 0.688160 0.419506 0.105646 0.220400 0.523791 0.771616 0.936484 0.999656 0.953283 0.801506 0.560254 0.255689 0.078494 0.404761 0.685923 0.889400 0.991089 0.978326 0.851602 0.624774 0.323704 0.016564 0.355812 0.653352 0.872959 0.987335 0.981638 0.855552 0.623610 0.313695 0.036189 0.382483 0.681476 0.894842 0.994658 0.967179 0.814904 0.556551 0.224945 0.137030
1.000000 1.000000 1.000000 1.000000 1.000000 1.000000 1.000000 1.000000 1.000000 1.000000 1.000000 1.000000 1.000000 1.000000 1.000000 1.000000 1.000000 1.000000 1.000000 1.000000 1.000000 1.000000 1.000000 1.000000 1.000000 1.000000 1.000000 1.000000 1.000000 1.000000 1.000000 1.000000 1.000000 1.000000 1.000000 1.000000 1.000000 1.000000 1.000000 1.000000 1.000000 1.000000 1.000000 1.000000 1.000000 1.000000 1.000000 1.000000 1.000000 1.000000 1.000000 1.000000 0.919842 0.919842 0.919842 0.911997 0.911997 0.911997 0.911997 0.911997 0.911997 0.911997 0.911997 0.911997 0.911997 0.911997 0.911997 0.911997 0.911997 0.911997 0.911997 0.911997 0.911997 0.911997 0.911997 0.911997 0.911997 0.911997 0.911997 0.911997 0.911997 0.911997 0.911997 0.911997 0.911997 0.911997 0.911997 0.911997 0.911997 0.911997 0.911997 0.911997 0.911997 0.911997 0.911997 0.911997 0.941237 0.942697 0.950846 0.950511 0.949905 0.947792 0.946628 0.946261 0.946151 0.946476 0.947182 0.948146 0.954417 0.955646 0.960104 0.961757 0.962499 0.963135 0.963775 0.963350 0.954588 0.954390 0.953032 0.952437 0.954964 0.953975 0.953154 0.954121 0.953992 0.954799 0.954694 0.953973 0.952859 0.951734 0.950768 0.950337 0.950118 0.950854 0.951274 0.952766 0.956094 0.956669 0.956795 0.956950 0.957049 0.958346 0.957220 0.956764 0.952775 0.952992 0.952559 0.952810 0.956344 0.956286 0.956843 0.957405 0.958986 0.959275 0.951487 0.949268 0.940094 0.937639 0.933611 0.927817 0.923400 0.925249 0.926630 0.927470 0.927966 0.923402 0.923196 0.920657 0.918507 0.921120 0.920455 0.921168 0.922557 0.921247 0.920309 0.919541 0.917549 0.909490 0.897252 0.896321 0.896788 0.901489 0.902808 0.901830 0.904184 0.892268 0.875816 0.859846 0.861721 0.865246 0.856113 0.853546 0.854104 0.854931 0.858499 0.851163 0.848298 0.844292 0.834598 0.826406 0.819943 0.813101 0.816653 0.812143 0.802496 0.800375 0.809917 0.803410 0.818041 0.823132 0.821980 0.821163 0.818121 0.812426 0.789414 0.788151 0.775709 0.754857 0.755331 0.753532 0.751999 0.749575 0.756176 0.745898 0.742958 0.727320 0.726971 0.730130 0.732179 0.730948 0.725793 0.728897 0.733664 0.715681 0.703606 0.691818 0.696053 0.699453 0.699391 0.697279 0.673738 0.641846 0.619617 0.639241 0.644326 0.613046 0.637387 0.650732 0.631270 0.628444 0.619749 0.623192 0.613062 0.616775 0.617274 0.619115 0.621674 0.636720 0.624338 0.619313 0.627344 0.629378 0.641375 0.639754 0.640573 0.609607 0.608890 0.631276 0.634790 0.617243 0.630149 0.617888 0.633830 0.669576 0.676090 0.648915 0.643637 0.618706 0.572970 0.560165 0.553713 0.565473 0.597126 0.580947 0.547150 0.524145 0.529560 0.546786 0.553769 0.555889 0.540237 0.544225 0.535747 0.511465 0.517909 0.530065 0.531473 0.520109 0.504638 0.512938 0.515983 0.535214 0.524445 0.482175 0.496980 0.493858 0.486758 0.430701 0.447295 0.431877 0.420106 0.374163 0.383624 0.393263 0.380771 0.311374 0.293514 0.293755 0.293466 0.289806 0.273073 0.248332 0.239970 0.217266 0.218194 0.206058 0.182065 0.178523 0.164512 0.153694 0.155167 0.114861 0.159983 0.221793 0.223568 0.223568 0.223568 0.223568 0.223568 0.223568 0.224102 0.224102 0.224102 0.224102 0.224102 0.224102 0.224102 0.224102 0.224102 0.247225 0.247225 0.247225 0.247225 0.247225 0.247225 0.247225 0.247225 0.247225 0.247225 0.247225 0.247225 0.247225 0.247225
0.000000 0.000000 0.000000 0.000000 0.000000 0.000000 0.000000 0.000000 0.000000 0.000000 0.000000 0.000000 0.000000 0.000000 0.000000 0.000000 0.000000 0.000000 0.000000 0.000000 0.000000 0.000000 0.000000 0.000000 0.000000 7.000000 4.000000 0.000000 0.000000 0.000000 0.000000 0.000000 0.000000 0.000000 0.000000 0.000000 0.000000 0.000000 0.000000 0.000000 0.000000 0.000000 0.000000 0.000000 0.000000 0.000000 0.000000 0.000000 0.000000 0.000000 0.000000 0.000000 0.180334 0.180334 0.180334 0.199007 0.199007 0.199007 0.199007 0.199007 0.199007 0.199007 0.199007 0.199007 0.199007 0.199007 0.199007 0.199007 0.199007 0.199007 0.199007 0.199007 0.199007 0.199007 0.199007 0.199007 0.199007 0.199007 0.199007 0.199007 0.199007 0.199007 0.199007 0.199007 0.199007 0.199007 0.199007 0.199007 0.199007 0.199007 0.199007 0.199007 0.199007 0.199007 0.199007 0.199007 0.225018 0.225018 0.225018 0.225018 0.225018 0.225018 0.225018 0.225018 0.225018 0.225018 0.225018 0.225018 0.225018 0.225018 0.225018 0.225018 0.225018 0.225018 0.225018 0.225018 0.225018 0.225018 0.225018 0.225018 0.225018 0.225018 0.225018 0.225018 0.225018 0.244339 0.244339 0.244339 0.244339 0.244339 0.244339 0.244339 0.244339 0.244339 0.244339 0.244339 0.244339 0.244339 0.244339 0.244339 0.244339 0.244339 0.244339 0.244339 0.244339 0.244339 0.244339 0.244339 0.251976 0.251976 0.251976 0.251976 0.251976 0.251976 0.251976 0.251976 0.251976 0.251976 0.251976 0.251976 0.251976 0.251976 0.251976 0.251976 0.251976 0.251976 0.251976 0.251976 0.264906 0.264906 0.264906 0.264906 0.264906 0.264906 0.264906 0.264906 0.264906 0.264906 0.264906 0.264906 0.264906 0.264906 0.264906 0.264906 0.264906 0.264906 0.264906 0.264906 0.264906 0.264906 0.264906 0.264906 0.264906 0.264906 0.264906 0.264906 0.264906 0.264906 0.264906 0.264906 0.264906 0.264906 0.264906 0.264906 0.264906 0.264906 0.264906 0.264906 0.264906 0.264906 0.264906 0.264906 0.264906 0.264906 0.264906 0.264906 0.264906 0.264906 0.264906 0.264906 0.264906 0.264906 0.264906 0.264906 0.264906 0.264906 0.264906 0.264906 0.264906 0.264906 0.256074 0.256074 0.256074 0.256074 0.256074 0.256074 0.256074 0.256074 0.256074 0.256074 0.256074 0.256074 0.256074 0.256074 0.269680 0.269680 0.269680 0.269680 0.269680 0.269680 0.269680 0.269680 0.269680 0.269680 0.269680 0.269680 0.264906 0.264906 0.264906 0.264906 0.264906 0.264906 0.264906 0.264906 0.264906 0.264906 0.264906 0.264906 0.269680 0.269680 0.269680 0.269680 0.269680 0.269680 0.269680 0.269680 0.269680 0.269680 0.269680 0.264906 0.264906 0.264906 0.264906 0.264906 0.264906 0.264906 0.264906 0.264906 0.264906 0.264906 0.256074 0.256074 0.256074 0.256074 0.256074 0.256074 0.256074 0.256074 0.256074 0.256074 0.256074 0.264906 0.264906 0.264906 0.264906 0.264906 0.264906 0.264906 0.264906 0.264906 0.264906 0.260378 0.260378 0.260378 0.260378 0.260378 0.260378 0.260378 0.260378 0.260378 0.260378 0.256074 0.256074 0.256074 0.256074 0.256074 0.256074 0.256074 0.256074 0.256074 0.256074 0.260378 0.260378 0.260378 0.260378 0.260378 0.260378 0.260378 0.260378 0.260378 0.256074 0.256074 0.256074 0.256074 0.256074 0.256074 0.256074 0.256074 0.256074 0.251976 0.251976 0.251976 0.251976 0.251976 0.251976 0.251976 0.251976 0.251976 0.251976 0.251976 0.251976 0.251976 0.251976
