# Output from CTFFind version 4.1.9, run on 2019-11-03 20:07:10
# Input file: stack11_bm3d_averaged_1_7.5_0_1250_half.mrc ; Number of micrographs: 1
# Pixel size: 3.000 Angstroms ; acceleration voltage: 300.0 keV ; spherical aberration: 0.00 mm ; amplitude contrast: 0.07
# Box size: 512 pixels ; min. res.: 30.0 Angstroms ; max. res.: 5.0 Angstroms ; min. def.: 5000.0 um; max. def. 50000.0 um; num. frames averaged: 1
# 6 lines per micrograph: #1 - spatial frequency (1/Angstroms); #2 - 1D rotational average of spectrum (assuming no astigmatism); #3 - 1D rotational average of spectrum; #4 - CTF fit; #5 - cross-correlation between spectrum and CTF fit; #6 - 2sigma of expected cross correlation of noise
0.000000 0.000651 0.001302 0.001953 0.002604 0.003255 0.003906 0.004557 0.005208 0.005859 0.006510 0.007161 0.007812 0.008464 0.009115 0.009766 0.010417 0.011068 0.011719 0.012370 0.013021 0.013672 0.014323 0.014974 0.015625 0.016276 0.016927 0.017578 0.018229 0.018880 0.019531 0.020182 0.020833 0.021484 0.022135 0.022786 0.023438 0.024089 0.024740 0.025391 0.026042 0.026693 0.027344 0.027995 0.028646 0.029297 0.029948 0.030599 0.031250 0.031901 0.032552 0.033203 0.033854 0.034505 0.035156 0.035807 0.036458 0.037109 0.037760 0.038411 0.039062 0.039714 0.040365 0.041016 0.041667 0.042318 0.042969 0.043620 0.044271 0.044922 0.045573 0.046224 0.046875 0.047526 0.048177 0.048828 0.049479 0.050130 0.050781 0.051432 0.052083 0.052734 0.053385 0.054036 0.054688 0.055339 0.055990 0.056641 0.057292 0.057943 0.058594 0.059245 0.059896 0.060547 0.061198 0.061849 0.062500 0.063151 0.063802 0.064453 0.065104 0.065755 0.066406 0.067057 0.067708 0.068359 0.069010 0.069661 0.070312 0.070964 0.071615 0.072266 0.072917 0.073568 0.074219 0.074870 0.075521 0.076172 0.076823 0.077474 0.078125 0.078776 0.079427 0.080078 0.080729 0.081380 0.082031 0.082682 0.083333 0.083984 0.084635 0.085286 0.085938 0.086589 0.087240 0.087891 0.088542 0.089193 0.089844 0.090495 0.091146 0.091797 0.092448 0.093099 0.093750 0.094401 0.095052 0.095703 0.096354 0.097005 0.097656 0.098307 0.098958 0.099609 0.100260 0.100911 0.101562 0.102214 0.102865 0.103516 0.104167 0.104818 0.105469 0.106120 0.106771 0.107422 0.108073 0.108724 0.109375 0.110026 0.110677 0.111328 0.111979 0.112630 0.113281 0.113932 0.114583 0.115234 0.115885 0.116536 0.117188 0.117839 0.118490 0.119141 0.119792 0.120443 0.121094 0.121745 0.122396 0.123047 0.123698 0.124349 0.125000 0.125651 0.126302 0.126953 0.127604 0.128255 0.128906 0.129557 0.130208 0.130859 0.131510 0.132161 0.132812 0.133464 0.134115 0.134766 0.135417 0.136068 0.136719 0.137370 0.138021 0.138672 0.139323 0.139974 0.140625 0.141276 0.141927 0.142578 0.143229 0.143880 0.144531 0.145182 0.145833 0.146484 0.147135 0.147786 0.148438 0.149089 0.149740 0.150391 0.151042 0.151693 0.152344 0.152995 0.153646 0.154297 0.154948 0.155599 0.156250 0.156901 0.157552 0.158203 0.158854 0.159505 0.160156 0.160807 0.161458 0.162109 0.162760 0.163411 0.164062 0.164714 0.165365 0.166016 0.166667 0.167318 0.167969 0.168620 0.169271 0.169922 0.170573 0.171224 0.171875 0.172526 0.173177 0.173828 0.174479 0.175130 0.175781 0.176432 0.177083 0.177734 0.178385 0.179036 0.179688 0.180339 0.180990 0.181641 0.182292 0.182943 0.183594 0.184245 0.184896 0.185547 0.186198 0.186849 0.187500 0.188151 0.188802 0.189453 0.190104 0.190755 0.191406 0.192057 0.192708 0.193359 0.194010 0.194661 0.195312 0.195964 0.196615 0.197266 0.197917 0.198568 0.199219 0.199870 0.200521 0.201172 0.201823 0.202474 0.203125 0.203776 0.204427 0.205078 0.205729 0.206380 0.207031 0.207682 0.208333 0.208984 0.209635 0.210286 0.210938 0.211589 0.212240 0.212891 0.213542 0.214193 0.214844 0.215495 0.216146 0.216797 0.217448 0.218099 0.218750 0.219401 0.220052 0.220703 0.221354 0.222005 0.222656 0.223307 0.223958 0.224609 0.225260 0.225911 0.226562 0.227214 0.227865 0.228516 0.229167 0.229818 0.230469 0.231120 0.231771 0.232422 0.233073 0.233724 0.234375 0.235026 0.235677
       0.34623        0.34623        0.34623        0.34623        0.34623        0.34623        0.34623        0.34623        0.34623        0.34623        0.34623        0.34623        0.34623        0.34623        0.34623        0.34623        0.34623        0.34623        0.34623        0.34623        0.34623        0.34623        0.34623        0.34623        0.34623        0.34623        0.34623        0.34623        0.34623        0.34623        0.34623        0.34623        0.34623        0.34623        0.34623        0.34623        0.34623        0.34623        0.34623        0.34623        0.34623        0.34623        0.34623        0.34623        0.34623        0.34623        0.34623        0.34623        0.34623        0.34623        0.34623        0.69966        0.85729        0.53869        0.10550       -0.02876       -0.38343       -0.17935       -0.28825       -0.11679       -0.05465       -0.11310       -0.05325       -0.16458       -0.20462       -0.21234       -0.30588       -0.31722       -0.44217       -0.36137       -0.42412       -0.41941       -0.39184       -0.40344       -0.44325       -0.50469       -0.55716       -0.54658       -0.52048       -0.35430       -0.32299       -0.28860       -0.26867       -0.18460       -0.16802        0.06289        0.14451        0.17822        0.26818        0.38157        0.45822        0.52363        0.60267        0.59983        0.58574        0.70123        0.80242        0.70201        0.74498        0.61824        0.56862        0.48400        0.43404        0.51287        0.39906        0.27519        0.11875        0.11652        0.09736       -0.01033        0.04911        0.05548        0.01522        0.02900        0.03415        0.23672        0.27225        0.29692        0.43632        0.45428        0.41551        0.60256        0.61710        0.63262        0.72277        0.67512        0.64744        0.65469        0.55991        0.45968        0.41928        0.30526        0.27371        0.18734        0.13806        0.05277        0.06912        0.08010        0.10181        0.16304        0.24824        0.30166        0.42610        0.46653        0.48164        0.56250        0.60118        0.63657        0.61382        0.55717        0.46346        0.47373        0.37898        0.28020        0.21415        0.15645        0.17511        0.15500        0.16530        0.19530        0.32634        0.34115        0.41089        0.44913        0.42506        0.47885        0.56413        0.55657        0.50506        0.45791        0.41540        0.37599        0.34478        0.31252        0.26845        0.24846        0.25924        0.25907        0.22795        0.31224        0.36647        0.38499        0.43954        0.45623        0.46721        0.42929        0.41456        0.40269        0.36451        0.34185        0.27587        0.28481        0.27107        0.25079        0.29877        0.29630        0.35445        0.38545        0.43829        0.47687        0.40661        0.42255        0.43294        0.41318        0.35192        0.33135        0.29323        0.32920        0.27834        0.32640        0.31804        0.33614        0.34420        0.36684        0.31243        0.38739        0.41185        0.38177        0.35364        0.36997        0.32087        0.29730        0.31056        0.32023        0.30917        0.32148        0.34796        0.36039        0.34211        0.36407        0.36265        0.42693        0.39296        0.34195        0.35113        0.30123        0.29680        0.32831        0.32154        0.33210        0.34536        0.34601        0.38999        0.33199        0.33099        0.33986        0.35189        0.30565        0.31371        0.28410        0.30387        0.33391        0.30467        0.33425        0.36118        0.37438        0.30146        0.34686        0.30156        0.29193        0.28026        0.24861        0.31049        0.30975        0.34371        0.34099        0.34749        0.32951        0.35068        0.31703        0.34684        0.30535        0.32825        0.29607        0.33911        0.33542        0.37707        0.33464        0.33788        0.33703        0.29405        0.27791        0.31502        0.25287        0.23180        0.34126        0.32520        0.36994        0.34852        0.36556        0.33862        0.33452        0.35429        0.26800        0.27322        0.32140        0.30216        0.31187        0.31323        0.33985        0.32927        0.28895        0.29286        0.34661        0.32363        0.32544        0.30325        0.32147        0.33738        0.39167        0.36653        0.32296        0.28474        0.30387        0.29117        0.31135        0.28194        0.27472        0.31314        0.32911        0.34698        0.35727        0.33447        0.29857        0.30256        0.27319        0.28138        0.25833        0.30624        0.25918        0.25175        0.28606        0.28109        0.26249        0.29333        0.22236        0.21890        0.23688        0.19539        0.27682        0.35140        0.25511        0.24908        0.32035        0.29992        0.30698        0.31473        0.27709        0.25473        0.19694        0.21153        0.21363        0.29211        0.23763        0.28588        0.36836        0.37838        0.26112        0.18915        0.14180       -0.01815       -0.14364       -0.62774
2.730704 2.701714 2.672881 2.644206 2.615689 2.587330 2.559129 2.531086 2.503200 2.475473 2.447903 2.420492 2.393238 2.366142 2.339204 2.312423 2.285801 2.259337 2.233030 2.206882 2.180891 2.155058 2.129383 2.103866 2.078507 2.053305 2.028262 2.003376 1.978649 1.954079 1.929667 1.905413 1.881317 1.857379 1.833598 1.809976 1.786511 1.763204 1.740056 1.717065 1.694232 1.671556 1.649039 1.626680 1.604478 1.582435 1.560549 1.538821 1.517251 1.495839 1.474585 1.686570 2.101416 1.668983 1.159720 1.025968 0.443390 0.827438 0.545056 0.821493 0.794689 0.796192 0.736345 0.737189 0.581350 0.546273 0.488099 0.414869 0.243046 0.352775 0.192824 0.321225 0.211466 0.205907 0.181098 0.040742 -0.000512 0.018258 -0.068525 0.129577 0.227239 0.183695 0.175378 0.314391 0.178481 0.508963 0.609583 0.620788 0.637128 0.854474 0.814873 0.920030 0.919019 1.012281 0.984053 1.063036 1.142675 1.017585 1.139573 0.886861 0.906263 0.777088 0.638105 0.790241 0.676932 0.487019 0.325686 0.245322 0.264529 0.145784 0.136431 0.162999 0.107188 0.114199 0.082078 0.240878 0.339723 0.331949 0.465156 0.530656 0.405515 0.580439 0.714252 0.624458 0.700462 0.691182 0.700743 0.627721 0.580222 0.474858 0.356148 0.270260 0.213919 0.091549 0.113098 -0.116891 -0.048103 -0.061563 -0.083112 -0.016567 0.124869 0.070568 0.237587 0.299724 0.327722 0.360691 0.481007 0.451162 0.465594 0.475749 0.296337 0.285089 0.278721 0.083636 0.044806 -0.081477 -0.016486 -0.061674 -0.095067 -0.065558 0.039936 0.093009 0.124162 0.221655 0.215800 0.211905 0.305987 0.332205 0.435279 0.248614 0.225683 0.221983 0.139650 0.142340 0.117288 -0.004459 0.014133 0.077231 -0.011067 0.042802 0.130145 0.131480 0.206096 0.226699 0.247845 0.158463 0.205935 0.125691 0.119381 0.113641 0.024809 -0.025729 -0.001632 -0.019906 -0.049910 0.054575 0.003259 0.104053 0.134485 0.190008 0.157121 0.111883 0.135611 0.153818 0.106182 0.033556 -0.025891 0.025334 0.029586 -0.044451 0.038565 0.018444 0.046744 0.038433 0.053157 0.018247 0.127806 0.112287 0.044271 0.034882 0.039832 0.004018 -0.029817 0.007449 0.002046 -0.005613 0.001279 0.057932 0.052095 0.036750 0.069421 0.060461 0.162649 0.062932 0.041913 0.043165 -0.033952 0.012970 0.047303 0.008237 0.031924 0.055544 0.076717 0.057806 0.041320 0.008216 0.078658 0.029299 0.019904 0.025391 -0.004615 0.031193 0.027535 0.020739 0.069288 0.074556 0.079819 0.042233 0.054090 0.021156 0.017708 -0.026566 -0.023096 0.037997 0.051788 0.078528 0.078818 0.065427 0.069067 0.094352 0.041491 0.085671 0.053200 0.045210 0.017963 0.102427 0.063223 0.124795 0.061070 0.068925 0.089810 0.027091 0.002465 0.083004 -0.038674 -0.030039 0.087125 0.041476 0.154053 0.087337 0.085418 0.063203 0.025592 0.086450 -0.028111 -0.023705 0.043245 0.028534 0.028290 0.011738 0.097539 0.025626 -0.015029 0.046944 0.036613 0.051289 0.053684 -0.007357 0.050999 0.044696 0.110113 0.059782 0.028017 -0.029529 -0.031357 -0.004194 0.011051 -0.055727 -0.019191 -0.000775 0.006208 0.041909 0.060315 0.005628 -0.029847 -0.027236 -0.017618 -0.062350 -0.043126 -0.037240 -0.127605 -0.092066 -0.064335 -0.098470 -0.105944 -0.030372 -0.149995 -0.100146 -0.115984 -0.194122 -0.069567 0.059009 -0.075987 -0.128997 0.049407 0.020223 -0.031681 0.067429 -0.023481 -0.004600 -0.078623 -0.042113 0.050737 0.134693 0.050432 0.135659 0.162477 0.473567 0.208519 0.326617 0.178215 -0.023251 -0.684064
0.072396 0.072899 0.074408 0.076923 0.080443 0.084967 0.090494 0.097023 0.104550 0.113074 0.122591 0.133097 0.144586 0.157052 0.170487 0.184882 0.200226 0.216506 0.233707 0.251811 0.270799 0.290648 0.311331 0.332820 0.355080 0.378074 0.401762 0.426097 0.451028 0.476499 0.502448 0.528809 0.555509 0.582468 0.609601 0.636816 0.664014 0.691090 0.717932 0.744420 0.770430 0.795827 0.820473 0.844222 0.866923 0.888419 0.908546 0.927138 0.944023 0.959027 0.971973 0.982684 0.990980 0.996685 0.999622 0.999622 0.996517 0.990148 0.980364 0.967026 0.950007 0.929194 0.904490 0.875820 0.843127 0.806379 0.765569 0.720719 0.671879 0.619134 0.562599 0.502428 0.438810 0.371974 0.302187 0.229758 0.155036 0.078408 0.000305 0.078805 0.158418 0.237992 0.316955 0.394703 0.470609 0.544025 0.614285 0.680718 0.742647 0.799400 0.850315 0.894755 0.932108 0.961800 0.983308 0.996163 0.999962 0.994381 0.979179 0.954210 0.919431 0.874907 0.820822 0.757480 0.685312 0.604876 0.516861 0.422082 0.321481 0.216117 0.107164 0.004105 0.116324 0.228055 0.337802 0.444029 0.545185 0.639722 0.726128 0.802944 0.868799 0.922433 0.962726 0.988725 0.999669 0.995016 0.974462 0.937959 0.885733 0.818295 0.736443 0.641265 0.534137 0.416705 0.290874 0.158779 0.022757 0.114692 0.250946 0.383312 0.509074 0.625559 0.730187 0.820539 0.894414 0.949893 0.985395 0.999728 0.992139 0.962348 0.910584 0.837596 0.744665 0.633592 0.506684 0.366711 0.216863 0.060682 0.098012 0.255213 0.406824 0.548767 0.677099 0.788119 0.878488 0.945341 0.986386 0.999996 0.985287 0.942175 0.871409 0.774588 0.654145 0.513303 0.356015 0.186856 0.010913 0.166366 0.339334 0.502324 0.649834 0.776731 0.878426 0.951066 0.991690 0.998369 0.970318 0.907963 0.812976 0.688256 0.537872 0.366952 0.181531 0.011656 0.205389 0.392252 0.564892 0.716334 0.840267 0.931322 0.985328 0.999527 0.972738 0.905466 0.799931 0.660044 0.491284 0.300525 0.095767 0.114176 0.320041 0.512531 0.682732 0.822544 0.925082 0.985046 0.999021 0.965703 0.886035 0.763228 0.602682 0.411786 0.199610 0.023499 0.246408 0.457741 0.646464 0.802480 0.917180 0.983962 0.998639 0.959740 0.868681 0.729769 0.550050 0.339002 0.108067 0.129938 0.361524 0.573281 0.752676 0.888808 0.973110 0.999925 0.966939 0.875410 0.730202 0.539584 0.314815 0.069513 0.181127 0.421266 0.635424 0.809491 0.931684 0.993391 0.989833 0.920482 0.789221 0.604201 0.377386 0.123855 0.139179 0.393508 0.621199 0.805846 0.933819 0.995299 0.985097 0.903159 0.754698 0.549954 0.303548 0.033506 0.240034 0.496291 0.715439 0.880156 0.977049 0.997803 0.939967 0.807300 0.609617 0.362161 0.084485 0.201041 0.471016 0.702900 0.876961 0.977979 0.996656 0.930557 0.784482 0.570224 0.305719 0.013593 0.280688 0.551052 0.773123 0.926455 0.996493 0.976033 0.866057 0.675831 0.422242 0.128375 0.178501 0.469449 0.716574 0.895743 0.988999 0.986456 0.887447 0.700803 0.444178 0.142498 0.174402 0.474673 0.727650 0.907041 0.993703 0.977812 0.860073 0.651886 0.374370 0.056326 0.268675 0.565795 0.802685 0.953059 0.999693 0.936528 0.769569 0.516481 0.204835 0.130781 0.452544 0.723654 0.912584 0.996821 0.965681 0.821794 0.581067 0.271084 0.071949 0.407349 0.694766 0.899074 0.994743 0.969161 0.824445 0.577472 0.258075 0.094440 0.436043 0.723474 0.919755 0.999046 0.950189 0.778440 0.505108 0.165070 0.197556
1.000000 1.000000 1.000000 1.000000 1.000000 1.000000 1.000000 1.000000 1.000000 1.000000 1.000000 1.000000 1.000000 1.000000 1.000000 1.000000 1.000000 1.000000 1.000000 1.000000 1.000000 1.000000 1.000000 1.000000 1.000000 1.000000 1.000000 1.000000 1.000000 1.000000 1.000000 1.000000 1.000000 1.000000 1.000000 1.000000 1.000000 1.000000 1.000000 1.000000 1.000000 1.000000 1.000000 1.000000 1.000000 1.000000 1.000000 1.000000 1.000000 1.000000 1.000000 1.000000 0.914202 0.914202 0.914202 0.911301 0.911301 0.911301 0.911301 0.911301 0.911301 0.911301 0.911301 0.911301 0.911301 0.911301 0.911301 0.911301 0.911301 0.911301 0.911301 0.911301 0.911301 0.911301 0.911301 0.911301 0.911301 0.911301 0.911301 0.911301 0.911301 0.911301 0.911301 0.911301 0.911301 0.911301 0.911301 0.911301 0.911301 0.911301 0.911301 0.911301 0.911301 0.911301 0.911301 0.911301 0.939730 0.941159 0.949515 0.949037 0.948495 0.946518 0.945251 0.945041 0.944956 0.945310 0.946046 0.947041 0.953256 0.954193 0.958598 0.961320 0.961293 0.963037 0.965011 0.964654 0.956373 0.956125 0.954686 0.953965 0.956078 0.954724 0.953500 0.953976 0.951628 0.955971 0.955540 0.954335 0.952698 0.951107 0.947520 0.947017 0.946052 0.946876 0.946971 0.948582 0.951634 0.951810 0.951557 0.948824 0.948423 0.949634 0.949190 0.950987 0.938818 0.938064 0.936496 0.936441 0.938941 0.938818 0.938703 0.939617 0.939315 0.939235 0.939387 0.933633 0.933328 0.926291 0.922427 0.921182 0.915609 0.911597 0.914315 0.917053 0.918256 0.918653 0.909171 0.906259 0.907243 0.905994 0.907459 0.907062 0.908235 0.908643 0.908561 0.903489 0.894103 0.892543 0.883605 0.886364 0.882566 0.879876 0.877027 0.868521 0.860133 0.871936 0.858948 0.817660 0.821257 0.825864 0.818637 0.815039 0.819415 0.820954 0.825775 0.819702 0.818543 0.812423 0.798919 0.795154 0.788503 0.773971 0.770168 0.760803 0.750509 0.744417 0.767727 0.761438 0.773214 0.777485 0.777076 0.773262 0.763582 0.752228 0.752414 0.751339 0.747250 0.723417 0.714908 0.714939 0.712684 0.699592 0.702492 0.691066 0.691316 0.678447 0.683515 0.689423 0.692865 0.688325 0.682312 0.674088 0.669259 0.683176 0.696487 0.688586 0.685146 0.694113 0.684983 0.679452 0.670809 0.674454 0.665982 0.661435 0.662915 0.696239 0.669763 0.659536 0.665799 0.666221 0.663793 0.663733 0.642638 0.637032 0.613616 0.631063 0.635795 0.651454 0.653684 0.657106 0.667831 0.673743 0.684401 0.689127 0.687041 0.646433 0.650926 0.668299 0.676257 0.666015 0.656261 0.650550 0.640745 0.677632 0.662114 0.620544 0.616318 0.616978 0.571217 0.550180 0.548467 0.549770 0.577124 0.575059 0.558535 0.532538 0.534419 0.534606 0.530576 0.529712 0.509124 0.519323 0.502929 0.480074 0.493018 0.501493 0.500207 0.484285 0.478069 0.491861 0.472422 0.496331 0.474669 0.457759 0.473899 0.473105 0.460989 0.389612 0.396248 0.387231 0.372040 0.329305 0.338575 0.348646 0.328214 0.251985 0.246445 0.247246 0.243538 0.221670 0.195860 0.182551 0.172844 0.150225 0.091526 0.042140 0.045088 0.049064 0.075459 0.037503 0.091299 0.161122 0.157666 0.157666 0.157666 0.157666 0.157666 0.157666 0.157666 0.157666 0.134266 0.134266 0.134266 0.134266 0.134266 0.134266 0.134266 0.134266 0.134266 0.157666 0.157666 0.157666 0.157666 0.157666 0.157666 0.157666 0.157666 0.157666 0.157666 0.157666 0.157666 0.157666 0.157666
0.000000 0.000000 0.000000 0.000000 0.000000 0.000000 0.000000 0.000000 0.000000 0.000000 0.000000 0.000000 0.000000 0.000000 0.000000 0.000000 0.000000 0.000000 0.000000 0.000000 0.000000 0.000000 0.000000 0.000000 0.000000 0.000000 0.000000 0.000000 0.000000 0.000000 0.000000 0.000000 0.000000 0.000000 0.000000 0.000000 0.000000 0.000000 0.000000 0.000000 0.000000 0.000000 0.000000 0.000000 0.000000 0.000000 0.000000 0.000000 0.000000 0.000000 0.000000 0.000000 0.180334 0.180334 0.180334 0.199007 0.199007 0.199007 0.199007 0.199007 0.199007 0.199007 0.199007 0.199007 0.199007 0.199007 0.199007 0.199007 0.199007 0.199007 0.199007 0.199007 0.199007 0.199007 0.199007 0.199007 0.199007 0.199007 0.199007 0.199007 0.199007 0.199007 0.199007 0.199007 0.199007 0.199007 0.199007 0.199007 0.199007 0.199007 0.199007 0.199007 0.199007 0.199007 0.199007 0.199007 0.225018 0.225018 0.225018 0.225018 0.225018 0.225018 0.225018 0.225018 0.225018 0.225018 0.225018 0.225018 0.225018 0.225018 0.225018 0.225018 0.225018 0.225018 0.225018 0.225018 0.225018 0.225018 0.225018 0.225018 0.225018 0.225018 0.225018 0.225018 0.225018 0.244339 0.244339 0.244339 0.244339 0.244339 0.244339 0.244339 0.244339 0.244339 0.244339 0.244339 0.244339 0.244339 0.244339 0.244339 0.244339 0.244339 0.244339 0.244339 0.244339 0.244339 0.244339 0.244339 0.256074 0.256074 0.256074 0.256074 0.256074 0.256074 0.256074 0.256074 0.256074 0.256074 0.256074 0.256074 0.256074 0.256074 0.256074 0.256074 0.256074 0.256074 0.256074 0.256074 0.256074 0.256074 0.256074 0.256074 0.256074 0.256074 0.256074 0.256074 0.256074 0.256074 0.256074 0.256074 0.256074 0.256074 0.256074 0.256074 0.256074 0.264906 0.264906 0.264906 0.264906 0.264906 0.264906 0.264906 0.264906 0.264906 0.264906 0.264906 0.264906 0.264906 0.264906 0.264906 0.264906 0.264906 0.264906 0.264906 0.264906 0.264906 0.264906 0.264906 0.264906 0.264906 0.264906 0.264906 0.264906 0.264906 0.264906 0.264906 0.264906 0.264906 0.264906 0.264906 0.264906 0.264906 0.264906 0.264906 0.264906 0.264906 0.264906 0.264906 0.264906 0.264906 0.264906 0.264906 0.264906 0.264906 0.264906 0.264906 0.264906 0.264906 0.264906 0.264906 0.264906 0.264906 0.264906 0.260378 0.260378 0.260378 0.260378 0.260378 0.260378 0.260378 0.260378 0.260378 0.260378 0.260378 0.260378 0.260378 0.264906 0.264906 0.264906 0.264906 0.264906 0.264906 0.264906 0.264906 0.264906 0.264906 0.264906 0.264906 0.269680 0.269680 0.269680 0.269680 0.269680 0.269680 0.269680 0.269680 0.269680 0.269680 0.269680 0.264906 0.264906 0.264906 0.264906 0.264906 0.264906 0.264906 0.264906 0.264906 0.264906 0.264906 0.256074 0.256074 0.256074 0.256074 0.256074 0.256074 0.256074 0.256074 0.256074 0.256074 0.256074 0.264906 0.264906 0.264906 0.264906 0.264906 0.264906 0.264906 0.264906 0.264906 0.264906 0.260378 0.260378 0.260378 0.260378 0.260378 0.260378 0.260378 0.260378 0.260378 0.260378 0.264906 0.264906 0.264906 0.264906 0.264906 0.264906 0.264906 0.264906 0.264906 0.251976 0.251976 0.251976 0.251976 0.251976 0.251976 0.251976 0.251976 0.251976 0.251976 0.256074 0.256074 0.256074 0.256074 0.256074 0.256074 0.256074 0.256074 0.256074 0.251976 0.251976 0.251976 0.251976 0.251976 0.251976 0.251976 0.251976 0.251976 0.251976 0.251976 0.251976 0.251976 0.251976
