# Output from CTFFind version 4.1.9, run on 2019-11-03 19:01:40
# Input file: stack11_bm3d_averaged_1_3.25_0_1000_half.mrc ; Number of micrographs: 1
# Pixel size: 3.000 Angstroms ; acceleration voltage: 300.0 keV ; spherical aberration: 0.00 mm ; amplitude contrast: 0.07
# Box size: 512 pixels ; min. res.: 30.0 Angstroms ; max. res.: 5.0 Angstroms ; min. def.: 5000.0 um; max. def. 50000.0 um; num. frames averaged: 1
# 6 lines per micrograph: #1 - spatial frequency (1/Angstroms); #2 - 1D rotational average of spectrum (assuming no astigmatism); #3 - 1D rotational average of spectrum; #4 - CTF fit; #5 - cross-correlation between spectrum and CTF fit; #6 - 2sigma of expected cross correlation of noise
0.000000 0.000651 0.001302 0.001953 0.002604 0.003255 0.003906 0.004557 0.005208 0.005859 0.006510 0.007161 0.007812 0.008464 0.009115 0.009766 0.010417 0.011068 0.011719 0.012370 0.013021 0.013672 0.014323 0.014974 0.015625 0.016276 0.016927 0.017578 0.018229 0.018880 0.019531 0.020182 0.020833 0.021484 0.022135 0.022786 0.023438 0.024089 0.024740 0.025391 0.026042 0.026693 0.027344 0.027995 0.028646 0.029297 0.029948 0.030599 0.031250 0.031901 0.032552 0.033203 0.033854 0.034505 0.035156 0.035807 0.036458 0.037109 0.037760 0.038411 0.039062 0.039714 0.040365 0.041016 0.041667 0.042318 0.042969 0.043620 0.044271 0.044922 0.045573 0.046224 0.046875 0.047526 0.048177 0.048828 0.049479 0.050130 0.050781 0.051432 0.052083 0.052734 0.053385 0.054036 0.054688 0.055339 0.055990 0.056641 0.057292 0.057943 0.058594 0.059245 0.059896 0.060547 0.061198 0.061849 0.062500 0.063151 0.063802 0.064453 0.065104 0.065755 0.066406 0.067057 0.067708 0.068359 0.069010 0.069661 0.070312 0.070964 0.071615 0.072266 0.072917 0.073568 0.074219 0.074870 0.075521 0.076172 0.076823 0.077474 0.078125 0.078776 0.079427 0.080078 0.080729 0.081380 0.082031 0.082682 0.083333 0.083984 0.084635 0.085286 0.085938 0.086589 0.087240 0.087891 0.088542 0.089193 0.089844 0.090495 0.091146 0.091797 0.092448 0.093099 0.093750 0.094401 0.095052 0.095703 0.096354 0.097005 0.097656 0.098307 0.098958 0.099609 0.100260 0.100911 0.101562 0.102214 0.102865 0.103516 0.104167 0.104818 0.105469 0.106120 0.106771 0.107422 0.108073 0.108724 0.109375 0.110026 0.110677 0.111328 0.111979 0.112630 0.113281 0.113932 0.114583 0.115234 0.115885 0.116536 0.117188 0.117839 0.118490 0.119141 0.119792 0.120443 0.121094 0.121745 0.122396 0.123047 0.123698 0.124349 0.125000 0.125651 0.126302 0.126953 0.127604 0.128255 0.128906 0.129557 0.130208 0.130859 0.131510 0.132161 0.132812 0.133464 0.134115 0.134766 0.135417 0.136068 0.136719 0.137370 0.138021 0.138672 0.139323 0.139974 0.140625 0.141276 0.141927 0.142578 0.143229 0.143880 0.144531 0.145182 0.145833 0.146484 0.147135 0.147786 0.148438 0.149089 0.149740 0.150391 0.151042 0.151693 0.152344 0.152995 0.153646 0.154297 0.154948 0.155599 0.156250 0.156901 0.157552 0.158203 0.158854 0.159505 0.160156 0.160807 0.161458 0.162109 0.162760 0.163411 0.164062 0.164714 0.165365 0.166016 0.166667 0.167318 0.167969 0.168620 0.169271 0.169922 0.170573 0.171224 0.171875 0.172526 0.173177 0.173828 0.174479 0.175130 0.175781 0.176432 0.177083 0.177734 0.178385 0.179036 0.179688 0.180339 0.180990 0.181641 0.182292 0.182943 0.183594 0.184245 0.184896 0.185547 0.186198 0.186849 0.187500 0.188151 0.188802 0.189453 0.190104 0.190755 0.191406 0.192057 0.192708 0.193359 0.194010 0.194661 0.195312 0.195964 0.196615 0.197266 0.197917 0.198568 0.199219 0.199870 0.200521 0.201172 0.201823 0.202474 0.203125 0.203776 0.204427 0.205078 0.205729 0.206380 0.207031 0.207682 0.208333 0.208984 0.209635 0.210286 0.210938 0.211589 0.212240 0.212891 0.213542 0.214193 0.214844 0.215495 0.216146 0.216797 0.217448 0.218099 0.218750 0.219401 0.220052 0.220703 0.221354 0.222005 0.222656 0.223307 0.223958 0.224609 0.225260 0.225911 0.226562 0.227214 0.227865 0.228516 0.229167 0.229818 0.230469 0.231120 0.231771 0.232422 0.233073 0.233724 0.234375 0.235026 0.235677
       0.32430        0.32430        0.32430        0.32430        0.32430        0.32430        0.32430        0.32430        0.32430        0.32430        0.32430        0.32430        0.32430        0.32430        0.32430        0.32430        0.32430        0.32430        0.32430        0.32430        0.32430        0.32430        0.32430        0.32430        0.32430        0.32430        0.32430        0.32430        0.32430        0.32430        0.32430        0.32430        0.32430        0.32430        0.32430        0.32430        0.32430        0.32430        0.32430        0.32430        0.32430        0.32430        0.32430        0.32430        0.32430        0.32430        0.32430        0.32430        0.32430        0.32430        0.32430        0.68522        0.86154        0.52679        0.09701       -0.04781       -0.41523       -0.19475       -0.29510       -0.11446       -0.06609       -0.11433       -0.06215       -0.19435       -0.22238       -0.24104       -0.32380       -0.33321       -0.46924       -0.37507       -0.44915       -0.44130       -0.41348       -0.44785       -0.50313       -0.54139       -0.57530       -0.59607       -0.56083       -0.39239       -0.36557       -0.32067       -0.30051       -0.20133       -0.19370        0.03241        0.10248        0.13401        0.23996        0.37344        0.44707        0.51133        0.56816        0.56634        0.56744        0.69059        0.80526        0.72115        0.73314        0.64322        0.56752        0.48255        0.41440        0.50081        0.38581        0.22706        0.08828        0.06777        0.04198       -0.04947       -0.00957        0.01131       -0.04074        0.00037       -0.00873        0.22679        0.25807        0.28709        0.42223        0.44715        0.40553        0.56013        0.62485        0.67088        0.74295        0.68340        0.64930        0.67926        0.56870        0.47825        0.41614        0.29222        0.22020        0.16140        0.11717        0.04787        0.02459        0.02386        0.07981        0.13338        0.21722        0.27239        0.39662        0.43817        0.48988        0.59204        0.62071        0.63166        0.62038        0.55720        0.45009        0.45918        0.36193        0.23940        0.18895        0.14981        0.13765        0.13575        0.10871        0.13604        0.26704        0.28195        0.36269        0.39189        0.43620        0.50659        0.54311        0.54752        0.47801        0.44387        0.39126        0.34698        0.30966        0.27006        0.21917        0.21260        0.19314        0.21586        0.19768        0.28893        0.34663        0.37627        0.43382        0.45421        0.47508        0.41965        0.38978        0.40689        0.36338        0.28350        0.26214        0.22966        0.23329        0.20552        0.24500        0.24792        0.33114        0.36976        0.38779        0.47237        0.42613        0.43147        0.43189        0.40063        0.34317        0.31790        0.28548        0.28082        0.25325        0.28560        0.28606        0.31141        0.31523        0.33320        0.31956        0.40346        0.41722        0.37985        0.34611        0.36859        0.28946        0.28352        0.26967        0.29615        0.27715        0.29051        0.30461        0.31985        0.34073        0.36432        0.37020        0.36794        0.36220        0.30686        0.32610        0.28035        0.25342        0.30651        0.29981        0.31379        0.31263        0.31956        0.34557        0.32254        0.32113        0.29880        0.31086        0.28014        0.29259        0.26367        0.29228        0.29713        0.28675        0.30809        0.32352        0.33077        0.27175        0.30677        0.27685        0.28586        0.26726        0.22603        0.28296        0.28644        0.34049        0.31640        0.31816        0.31699        0.32291        0.28399        0.31949        0.32795        0.27705        0.26605        0.30928        0.29384        0.34159        0.32943        0.33196        0.33098        0.29159        0.27390        0.29432        0.24677        0.22106        0.29856        0.31425        0.30989        0.29859        0.31433        0.28822        0.33949        0.33257        0.26016        0.23589        0.29195        0.30662        0.28637        0.31237        0.33162        0.33246        0.30801        0.29938        0.33458        0.30890        0.27622        0.25823        0.30927        0.35048        0.38210        0.29371        0.27105        0.26895        0.30043        0.24115        0.28669        0.26056        0.24915        0.32042        0.33003        0.34140        0.31649        0.26762        0.25630        0.26330        0.24962        0.23065        0.23673        0.31394        0.29334        0.21898        0.32635        0.32358        0.25640        0.26062        0.20017        0.19210        0.24521        0.19171        0.22746        0.24449        0.22285        0.19451        0.27320        0.35144        0.33197        0.34082        0.24203        0.19766        0.17639        0.23769        0.24464        0.14406        0.18931        0.24413        0.17351        0.19115        0.14544        0.10753        0.17232        0.06581       -0.10120       -0.59505
2.658590 2.630641 2.602844 2.575200 2.547707 2.520367 2.493178 2.466142 2.439258 2.412526 2.385946 2.359519 2.333243 2.307119 2.281148 2.255329 2.229661 2.204146 2.178783 2.153572 2.128514 2.103607 2.078852 2.054250 2.029800 2.005501 1.981355 1.957361 1.933519 1.909830 1.886292 1.862906 1.839673 1.816592 1.793662 1.770885 1.748260 1.725787 1.703467 1.681298 1.659281 1.637417 1.615704 1.594144 1.572736 1.551480 1.530376 1.509424 1.488624 1.467977 1.447481 1.665069 2.080875 1.647567 1.155110 1.017024 0.427681 0.831212 0.559581 0.843071 0.790467 0.806260 0.755407 0.724374 0.579572 0.535912 0.490077 0.435341 0.227618 0.376445 0.205911 0.316615 0.230845 0.191508 0.155116 0.023361 0.030900 0.002396 -0.062053 0.118156 0.214932 0.188232 0.161659 0.335089 0.190376 0.500898 0.602248 0.587717 0.616001 0.876041 0.823605 0.938802 0.899615 0.995481 0.960293 1.078605 1.142666 1.054372 1.144506 0.929284 0.931078 0.790059 0.652670 0.785343 0.709958 0.471903 0.318514 0.248154 0.241901 0.144538 0.105758 0.145331 0.093968 0.137009 0.060273 0.260765 0.374478 0.351118 0.473924 0.557305 0.440594 0.573269 0.712242 0.714211 0.765739 0.714106 0.728408 0.684818 0.613032 0.539653 0.405525 0.280306 0.220903 0.080810 0.125118 -0.059142 -0.041283 -0.067087 -0.054482 -0.018274 0.149624 0.069862 0.265368 0.297382 0.346659 0.432426 0.515868 0.492876 0.508582 0.502396 0.323528 0.306024 0.282435 0.091877 0.046730 -0.040031 -0.017128 -0.046511 -0.081979 -0.095364 0.023840 0.065897 0.124392 0.178819 0.229437 0.290667 0.315687 0.411223 0.390482 0.283085 0.237308 0.219566 0.168885 0.121580 0.100360 0.007754 0.010732 0.036500 -0.009564 0.068487 0.152555 0.139731 0.245128 0.248776 0.297446 0.207174 0.218539 0.151322 0.205456 0.112409 0.042460 0.004020 -0.004906 -0.008841 -0.041127 0.036375 0.020314 0.140810 0.146623 0.176602 0.228611 0.183206 0.171541 0.190262 0.142555 0.077309 0.034113 0.061515 0.000152 -0.002254 0.025951 0.053958 0.063542 0.060160 0.070148 0.110939 0.132757 0.177454 0.076559 0.081366 0.066250 0.009714 -0.009931 0.010979 0.012882 0.011403 0.010724 0.032167 0.060042 0.063952 0.136728 0.060804 0.126813 0.063437 0.021722 0.053002 -0.030443 -0.006453 0.046866 0.004329 0.051848 0.049208 0.031088 0.088272 0.055191 0.025773 0.042447 0.012036 0.022507 0.010499 -0.011499 0.050925 0.000360 0.020874 0.060338 0.061656 0.043673 0.043813 0.039131 0.035776 0.022699 -0.009900 -0.017699 0.034841 0.059636 0.096768 0.073930 0.075190 0.082676 0.093955 0.043325 0.103903 0.102171 0.021484 0.041614 0.082445 0.074238 0.104407 0.115730 0.068986 0.139415 0.075249 0.029601 0.087802 -0.012596 0.014849 0.093488 0.085795 0.089142 0.067704 0.068394 0.035290 0.127741 0.078517 -0.010644 -0.027056 0.050944 0.083323 0.033416 0.039307 0.086743 0.102389 0.028813 0.059928 0.080500 0.054381 0.027294 -0.030647 0.073881 0.110559 0.115017 -0.010165 -0.008251 -0.017885 0.051660 -0.068661 0.028684 -0.033915 -0.024111 0.033649 0.075750 0.012535 0.008414 -0.043898 -0.033887 -0.063357 -0.023912 -0.080928 -0.067448 0.030121 0.080650 -0.092400 0.065593 0.014456 -0.051175 0.025864 -0.104835 -0.075961 -0.035649 -0.071926 -0.019303 -0.018053 0.006971 -0.085216 0.042924 0.195826 0.007672 0.170368 0.025002 0.211300 0.171957 0.264788 0.274427 0.138364 0.192663 0.292278 0.146005 0.212191 0.137626 0.140813 0.255381 0.067264 -0.631818
0.072396 0.072899 0.074406 0.076917 0.080433 0.084951 0.090471 0.096991 0.104509 0.113023 0.122527 0.133020 0.144494 0.156944 0.170363 0.184740 0.200064 0.216324 0.233504 0.251586 0.270552 0.290377 0.311035 0.332499 0.354733 0.377702 0.401364 0.425673 0.450578 0.476023 0.501948 0.528284 0.554961 0.581898 0.609011 0.636208 0.663390 0.690453 0.717285 0.743767 0.769773 0.795172 0.819824 0.843584 0.866302 0.887820 0.907976 0.926604 0.943533 0.958588 0.971594 0.982372 0.990745 0.996536 0.999569 0.999673 0.996683 0.990438 0.980789 0.967594 0.950728 0.930076 0.905542 0.877049 0.844541 0.807983 0.767369 0.722718 0.674080 0.621536 0.565203 0.505229 0.441805 0.375154 0.305544 0.233279 0.158706 0.082211 0.004220 0.074802 0.154351 0.233890 0.312849 0.390627 0.466599 0.540118 0.610524 0.677143 0.739301 0.796327 0.847561 0.892363 0.930122 0.960262 0.982258 0.995638 0.999996 0.995004 0.980415 0.956077 0.921942 0.878067 0.824627 0.761919 0.690363 0.610510 0.523036 0.428748 0.328578 0.223574 0.114901 0.003823 0.108304 0.220049 0.329921 0.436390 0.537907 0.632928 0.719939 0.797480 0.864174 0.918755 0.960092 0.987220 0.999366 0.995968 0.976705 0.941507 0.890578 0.824403 0.743755 0.649698 0.543580 0.427023 0.301908 0.170345 0.034652 0.102688 0.239067 0.371801 0.498180 0.615529 0.721262 0.812948 0.888367 0.945578 0.982967 0.999307 0.993804 0.966133 0.916472 0.845520 0.754503 0.645172 0.519779 0.381047 0.232121 0.076504 0.082016 0.239452 0.391723 0.534750 0.664577 0.777483 0.870090 0.939485 0.983316 0.999885 0.988228 0.948174 0.880379 0.786349 0.668422 0.529733 0.374149 0.206175 0.030837 0.146458 0.320089 0.484393 0.633850 0.763283 0.868043 0.944188 0.988652 0.999384 0.975460 0.917161 0.826006 0.704746 0.557305 0.388683 0.204801 0.012310 0.181634 0.369632 0.544325 0.698690 0.826326 0.921742 0.980610 0.999989 0.978491 0.916398 0.815710 0.680112 0.514880 0.326702 0.123434 0.086215 0.293034 0.487727 0.661320 0.805595 0.913492 0.979487 0.999899 0.973125 0.899794 0.782800 0.627236 0.440215 0.230576 0.008493 0.214999 0.428545 0.621048 0.782260 0.903342 0.977385 0.999835 0.968816 0.885312 0.753200 0.579123 0.372209 0.143615 0.094029 0.327313 0.542788 0.727765 0.871066 0.963742 0.999668 0.975995 0.893421 0.756243 0.572209 0.352116 0.109241 0.141444 0.384167 0.603353 0.784631 0.915806 0.987722 0.994948 0.936253 0.814790 0.638019 0.417295 0.167215 0.095320 0.352220 0.585446 0.778279 0.916571 0.989812 0.991991 0.922161 0.784630 0.588788 0.348541 0.081373 0.192879 0.453479 0.680351 0.855658 0.965254 0.999869 0.955979 0.836225 0.649361 0.409690 0.136058 0.149599 0.423961 0.664237 0.850080 0.965357 0.999617 0.949115 0.817306 0.614708 0.358167 0.069529 0.226167 0.502833 0.735641 0.903284 0.989980 0.987054 0.893885 0.718166 0.475363 0.187467 0.118939 0.415078 0.672696 0.866760 0.977969 0.994747 0.914555 0.744344 0.500080 0.205352 0.110823 0.416813 0.681514 0.877549 0.984171 0.989542 0.892169 0.701281 0.436097 0.123995 0.202234 0.507774 0.759515 0.929679 0.998975 0.958895 0.812883 0.576209 0.274499 0.058918 0.386632 0.671337 0.880091 0.988213 0.982311 0.862083 0.640610 0.343099 0.004126 0.336285 0.637364 0.862496 0.983754 0.985479 0.866444 0.640307 0.334193 0.014407 0.362147 0.665184 0.884731 0.992111 0.972631 0.827754 0.575232 0.247090 0.114301
1.000000 1.000000 1.000000 1.000000 1.000000 1.000000 1.000000 1.000000 1.000000 1.000000 1.000000 1.000000 1.000000 1.000000 1.000000 1.000000 1.000000 1.000000 1.000000 1.000000 1.000000 1.000000 1.000000 1.000000 1.000000 1.000000 1.000000 1.000000 1.000000 1.000000 1.000000 1.000000 1.000000 1.000000 1.000000 1.000000 1.000000 1.000000 1.000000 1.000000 1.000000 1.000000 1.000000 1.000000 1.000000 1.000000 1.000000 1.000000 1.000000 1.000000 1.000000 1.000000 0.919515 0.919515 0.919515 0.914551 0.914551 0.914551 0.914551 0.914551 0.914551 0.914551 0.914551 0.914551 0.914551 0.914551 0.914551 0.914551 0.914551 0.914551 0.914551 0.914551 0.914551 0.914551 0.914551 0.914551 0.914551 0.914551 0.914551 0.914551 0.914551 0.914551 0.914551 0.914551 0.914551 0.914551 0.914551 0.914551 0.914551 0.914551 0.914551 0.914551 0.914551 0.914551 0.914551 0.914551 0.942312 0.943768 0.951845 0.951693 0.951131 0.948970 0.947935 0.947463 0.947344 0.947655 0.948342 0.949285 0.958084 0.959275 0.962099 0.962964 0.963683 0.964296 0.964910 0.965510 0.956473 0.955392 0.954087 0.949931 0.952757 0.951947 0.951783 0.952743 0.952592 0.952965 0.953396 0.952626 0.951455 0.950412 0.949406 0.948803 0.948566 0.949315 0.949745 0.951277 0.954658 0.955223 0.955343 0.955498 0.955590 0.956895 0.955649 0.955325 0.951144 0.951400 0.950906 0.948558 0.954607 0.951799 0.952305 0.952877 0.954477 0.954799 0.949382 0.946382 0.936609 0.935472 0.930046 0.922236 0.918478 0.920454 0.922979 0.924306 0.924697 0.919385 0.919533 0.915811 0.911146 0.914258 0.912573 0.911783 0.913349 0.910951 0.907255 0.906285 0.902697 0.893474 0.885009 0.884965 0.889439 0.894419 0.896132 0.895092 0.894063 0.880363 0.860636 0.860543 0.856687 0.861230 0.854446 0.853954 0.854572 0.854137 0.857761 0.855697 0.855740 0.851982 0.839396 0.824884 0.815188 0.814279 0.820577 0.818353 0.811520 0.813731 0.827094 0.815500 0.829300 0.841460 0.833525 0.834439 0.834297 0.830342 0.813803 0.812133 0.814280 0.808052 0.808495 0.808172 0.803522 0.796075 0.801763 0.777855 0.769669 0.762722 0.767002 0.771109 0.768890 0.768582 0.768551 0.773237 0.776742 0.762766 0.750484 0.735904 0.742397 0.750333 0.755247 0.748053 0.728386 0.691933 0.636153 0.654844 0.704160 0.640197 0.662310 0.666304 0.651830 0.650383 0.641592 0.638117 0.620591 0.624129 0.630785 0.640630 0.648153 0.668931 0.660665 0.649190 0.657576 0.642358 0.639935 0.626225 0.629641 0.607673 0.600651 0.626549 0.627917 0.624584 0.635496 0.618921 0.607844 0.627345 0.637323 0.625602 0.622073 0.599234 0.560219 0.565203 0.569952 0.584531 0.609181 0.582105 0.555869 0.549727 0.545505 0.567032 0.549918 0.551662 0.560503 0.559147 0.541984 0.508120 0.511152 0.532452 0.534055 0.525805 0.496638 0.495120 0.500910 0.548903 0.538126 0.492054 0.507537 0.505044 0.506721 0.462508 0.475839 0.449497 0.433531 0.383009 0.374523 0.385274 0.372698 0.345667 0.317295 0.316338 0.320214 0.330621 0.322946 0.305683 0.285221 0.311054 0.315348 0.301131 0.242962 0.228215 0.213505 0.202225 0.205526 0.168368 0.193445 0.254197 0.256749 0.256749 0.256749 0.256749 0.256749 0.256749 0.272123 0.272123 0.272123 0.272123 0.272123 0.272123 0.272123 0.272123 0.272123 0.284840 0.284840 0.284840 0.284840 0.284840 0.284840 0.284840 0.284840 0.284840 0.284840 0.284840 0.284840 0.284840 0.284840
0.000000 0.000000 0.000000 0.000000 0.000000 0.000000 0.000000 0.000000 0.000000 0.000000 0.000000 0.000000 0.000000 0.000000 0.000000 0.000000 0.000000 0.000000 0.000000 0.000000 0.000000 0.000000 0.000000 0.000000 0.000000 7.000000 4.000000 0.000000 0.000000 0.000000 0.000000 0.000000 0.000000 0.000000 0.000000 0.000000 0.000000 0.000000 0.000000 0.000000 0.000000 0.000000 0.000000 0.000000 0.000000 0.000000 0.000000 0.000000 0.000000 0.000000 0.000000 0.000000 0.180334 0.180334 0.180334 0.199007 0.199007 0.199007 0.199007 0.199007 0.199007 0.199007 0.199007 0.199007 0.199007 0.199007 0.199007 0.199007 0.199007 0.199007 0.199007 0.199007 0.199007 0.199007 0.199007 0.199007 0.199007 0.199007 0.199007 0.199007 0.199007 0.199007 0.199007 0.199007 0.199007 0.199007 0.199007 0.199007 0.199007 0.199007 0.199007 0.199007 0.199007 0.199007 0.199007 0.199007 0.225018 0.225018 0.225018 0.225018 0.225018 0.225018 0.225018 0.225018 0.225018 0.225018 0.225018 0.225018 0.225018 0.225018 0.225018 0.225018 0.225018 0.225018 0.225018 0.225018 0.225018 0.225018 0.225018 0.225018 0.225018 0.225018 0.225018 0.225018 0.225018 0.244339 0.244339 0.244339 0.244339 0.244339 0.244339 0.244339 0.244339 0.244339 0.244339 0.244339 0.244339 0.244339 0.244339 0.244339 0.244339 0.244339 0.244339 0.244339 0.244339 0.244339 0.244339 0.244339 0.251976 0.251976 0.251976 0.251976 0.251976 0.251976 0.251976 0.251976 0.251976 0.251976 0.251976 0.251976 0.251976 0.251976 0.251976 0.251976 0.251976 0.251976 0.251976 0.251976 0.264906 0.264906 0.264906 0.264906 0.264906 0.264906 0.264906 0.264906 0.264906 0.264906 0.264906 0.264906 0.264906 0.264906 0.264906 0.264906 0.264906 0.264906 0.264906 0.264906 0.264906 0.264906 0.264906 0.264906 0.264906 0.264906 0.264906 0.264906 0.264906 0.264906 0.264906 0.264906 0.264906 0.264906 0.264906 0.264906 0.264906 0.264906 0.264906 0.264906 0.264906 0.264906 0.264906 0.264906 0.264906 0.264906 0.264906 0.264906 0.264906 0.264906 0.264906 0.264906 0.264906 0.264906 0.264906 0.264906 0.264906 0.264906 0.264906 0.264906 0.264906 0.264906 0.256074 0.256074 0.256074 0.256074 0.256074 0.256074 0.256074 0.256074 0.256074 0.256074 0.256074 0.256074 0.256074 0.256074 0.269680 0.269680 0.269680 0.269680 0.269680 0.269680 0.269680 0.269680 0.269680 0.269680 0.269680 0.269680 0.264906 0.264906 0.264906 0.264906 0.264906 0.264906 0.264906 0.264906 0.264906 0.264906 0.264906 0.264906 0.269680 0.269680 0.269680 0.269680 0.269680 0.269680 0.269680 0.269680 0.269680 0.269680 0.269680 0.264906 0.264906 0.264906 0.264906 0.264906 0.264906 0.264906 0.264906 0.264906 0.264906 0.264906 0.256074 0.256074 0.256074 0.256074 0.256074 0.256074 0.256074 0.256074 0.256074 0.256074 0.256074 0.264906 0.264906 0.264906 0.264906 0.264906 0.264906 0.264906 0.264906 0.264906 0.264906 0.260378 0.260378 0.260378 0.260378 0.260378 0.260378 0.260378 0.260378 0.260378 0.260378 0.256074 0.256074 0.256074 0.256074 0.256074 0.256074 0.256074 0.256074 0.256074 0.256074 0.260378 0.260378 0.260378 0.260378 0.260378 0.260378 0.260378 0.260378 0.260378 0.256074 0.256074 0.256074 0.256074 0.256074 0.256074 0.256074 0.256074 0.256074 0.251976 0.251976 0.251976 0.251976 0.251976 0.251976 0.251976 0.251976 0.251976 0.251976 0.251976 0.251976 0.251976 0.251976
