# Output from CTFFind version 4.1.9, run on 2019-11-02 17:47:17
# Input file: stack1_bm3d_averaged_1_1.25_0_1500_half.mrc ; Number of micrographs: 1
# Pixel size: 3.000 Angstroms ; acceleration voltage: 300.0 keV ; spherical aberration: 0.00 mm ; amplitude contrast: 0.07
# Box size: 512 pixels ; min. res.: 30.0 Angstroms ; max. res.: 5.0 Angstroms ; min. def.: 5000.0 um; max. def. 50000.0 um; num. frames averaged: 1
# 6 lines per micrograph: #1 - spatial frequency (1/Angstroms); #2 - 1D rotational average of spectrum (assuming no astigmatism); #3 - 1D rotational average of spectrum; #4 - CTF fit; #5 - cross-correlation between spectrum and CTF fit; #6 - 2sigma of expected cross correlation of noise
0.000000 0.000651 0.001302 0.001953 0.002604 0.003255 0.003906 0.004557 0.005208 0.005859 0.006510 0.007161 0.007812 0.008464 0.009115 0.009766 0.010417 0.011068 0.011719 0.012370 0.013021 0.013672 0.014323 0.014974 0.015625 0.016276 0.016927 0.017578 0.018229 0.018880 0.019531 0.020182 0.020833 0.021484 0.022135 0.022786 0.023438 0.024089 0.024740 0.025391 0.026042 0.026693 0.027344 0.027995 0.028646 0.029297 0.029948 0.030599 0.031250 0.031901 0.032552 0.033203 0.033854 0.034505 0.035156 0.035807 0.036458 0.037109 0.037760 0.038411 0.039062 0.039714 0.040365 0.041016 0.041667 0.042318 0.042969 0.043620 0.044271 0.044922 0.045573 0.046224 0.046875 0.047526 0.048177 0.048828 0.049479 0.050130 0.050781 0.051432 0.052083 0.052734 0.053385 0.054036 0.054688 0.055339 0.055990 0.056641 0.057292 0.057943 0.058594 0.059245 0.059896 0.060547 0.061198 0.061849 0.062500 0.063151 0.063802 0.064453 0.065104 0.065755 0.066406 0.067057 0.067708 0.068359 0.069010 0.069661 0.070312 0.070964 0.071615 0.072266 0.072917 0.073568 0.074219 0.074870 0.075521 0.076172 0.076823 0.077474 0.078125 0.078776 0.079427 0.080078 0.080729 0.081380 0.082031 0.082682 0.083333 0.083984 0.084635 0.085286 0.085938 0.086589 0.087240 0.087891 0.088542 0.089193 0.089844 0.090495 0.091146 0.091797 0.092448 0.093099 0.093750 0.094401 0.095052 0.095703 0.096354 0.097005 0.097656 0.098307 0.098958 0.099609 0.100260 0.100911 0.101562 0.102214 0.102865 0.103516 0.104167 0.104818 0.105469 0.106120 0.106771 0.107422 0.108073 0.108724 0.109375 0.110026 0.110677 0.111328 0.111979 0.112630 0.113281 0.113932 0.114583 0.115234 0.115885 0.116536 0.117188 0.117839 0.118490 0.119141 0.119792 0.120443 0.121094 0.121745 0.122396 0.123047 0.123698 0.124349 0.125000 0.125651 0.126302 0.126953 0.127604 0.128255 0.128906 0.129557 0.130208 0.130859 0.131510 0.132161 0.132812 0.133464 0.134115 0.134766 0.135417 0.136068 0.136719 0.137370 0.138021 0.138672 0.139323 0.139974 0.140625 0.141276 0.141927 0.142578 0.143229 0.143880 0.144531 0.145182 0.145833 0.146484 0.147135 0.147786 0.148438 0.149089 0.149740 0.150391 0.151042 0.151693 0.152344 0.152995 0.153646 0.154297 0.154948 0.155599 0.156250 0.156901 0.157552 0.158203 0.158854 0.159505 0.160156 0.160807 0.161458 0.162109 0.162760 0.163411 0.164062 0.164714 0.165365 0.166016 0.166667 0.167318 0.167969 0.168620 0.169271 0.169922 0.170573 0.171224 0.171875 0.172526 0.173177 0.173828 0.174479 0.175130 0.175781 0.176432 0.177083 0.177734 0.178385 0.179036 0.179688 0.180339 0.180990 0.181641 0.182292 0.182943 0.183594 0.184245 0.184896 0.185547 0.186198 0.186849 0.187500 0.188151 0.188802 0.189453 0.190104 0.190755 0.191406 0.192057 0.192708 0.193359 0.194010 0.194661 0.195312 0.195964 0.196615 0.197266 0.197917 0.198568 0.199219 0.199870 0.200521 0.201172 0.201823 0.202474 0.203125 0.203776 0.204427 0.205078 0.205729 0.206380 0.207031 0.207682 0.208333 0.208984 0.209635 0.210286 0.210938 0.211589 0.212240 0.212891 0.213542 0.214193 0.214844 0.215495 0.216146 0.216797 0.217448 0.218099 0.218750 0.219401 0.220052 0.220703 0.221354 0.222005 0.222656 0.223307 0.223958 0.224609 0.225260 0.225911 0.226562 0.227214 0.227865 0.228516 0.229167 0.229818 0.230469 0.231120 0.231771 0.232422 0.233073 0.233724 0.234375 0.235026 0.235677
       0.33215        0.33215        0.33215        0.33215        0.33215        0.33215        0.33215        0.33215        0.33215        0.33215        0.33215        0.33215        0.33215        0.33215        0.33215        0.33215        0.33215        0.33215        0.33215        0.33215        0.33215        0.33215        0.33215        0.33215        0.33215        0.33215        0.33215        0.33215        0.33215        0.33215        0.33215        0.33215        0.33215        0.33215        0.33215        0.33215        0.33215        0.33215        0.33215        0.33215        0.33215        0.33215        0.33215        0.33215        0.33215        0.33215        0.33215        0.33215        0.33215        0.33215        0.33215        0.50113        0.71745        0.42695        0.19050       -0.07984       -0.26140       -0.06878       -0.13244       -0.05653       -0.00229       -0.14791       -0.09557       -0.04940       -0.00177       -0.15223       -0.22129       -0.34430       -0.46391       -0.56272       -0.52018       -0.45120       -0.37199       -0.54989       -0.45013       -0.62177       -0.50407       -0.47415       -0.39179       -0.38292       -0.33908       -0.24836       -0.16245       -0.13908        0.03156       -0.01349        0.11808        0.16824        0.30462        0.41015        0.46321        0.49551        0.54000        0.54907        0.69203        0.64505        0.67728        0.58905        0.55541        0.65290        0.52654        0.42779        0.38629        0.31828        0.22918        0.26317        0.25108        0.10403        0.08295       -0.00022       -0.00783        0.03383       -0.00704        0.07277        0.09380        0.23034        0.28300        0.30194        0.38399        0.56046        0.53741        0.57709        0.66971        0.69697        0.62892        0.63364        0.63355        0.54897        0.57198        0.39456        0.34692        0.26538        0.18428        0.07263        0.14457        0.11744        0.09456        0.10786        0.20722        0.20683        0.31539        0.35688        0.41226        0.49146        0.57872        0.54425        0.55584        0.60574        0.53843        0.46257        0.48071        0.32310        0.24964        0.25542        0.24275        0.14052        0.14406        0.15111        0.22145        0.24761        0.33077        0.36753        0.39254        0.46486        0.44558        0.47499        0.44749        0.47077        0.44460        0.40253        0.37861        0.35588        0.31297        0.28598        0.20570        0.20172        0.22339        0.26989        0.26427        0.34622        0.37508        0.35590        0.40974        0.45469        0.44691        0.42428        0.43989        0.36598        0.33435        0.28075        0.26099        0.28761        0.26467        0.29402        0.30076        0.34645        0.33735        0.39913        0.39910        0.42266        0.41041        0.43261        0.40393        0.36634        0.28362        0.28984        0.30397        0.27722        0.25547        0.32994        0.37082        0.33781        0.35416        0.36111        0.35136        0.40547        0.39972        0.36023        0.33965        0.30883        0.31104        0.31737        0.31259        0.29926        0.28668        0.33708        0.35768        0.37408        0.33454        0.32959        0.33460        0.34547        0.30739        0.28073        0.30683        0.31821        0.33351        0.32100        0.33263        0.35416        0.33074        0.31572        0.32908        0.30061        0.25972        0.24954        0.26410        0.30446        0.32224        0.35289        0.29959        0.31242        0.33334        0.29220        0.31848        0.29164        0.28079        0.29022        0.29657        0.30936        0.34394        0.32201        0.32728        0.33080        0.31926        0.33365        0.31735        0.31980        0.31370        0.27765        0.28917        0.30889        0.28875        0.32443        0.33151        0.33476        0.31918        0.34518        0.32118        0.27765        0.24945        0.27224        0.32963        0.35942        0.34830        0.31683        0.29308        0.29870        0.31373        0.25062        0.29473        0.30059        0.32316        0.29454        0.30754        0.27747        0.33411        0.34207        0.34141        0.32333        0.29425        0.31191        0.39473        0.33307        0.31173        0.30405        0.29794        0.28392        0.29570        0.27402        0.30994        0.23277        0.27102        0.29727        0.31238        0.29709        0.27569        0.29290        0.23796        0.22748        0.26694        0.30857        0.30482        0.29069        0.28381        0.33424        0.25387        0.22130        0.30259        0.26346        0.26139        0.27738        0.38592        0.28432        0.28484        0.25539        0.24658        0.26589        0.24848        0.23189        0.16868        0.23924        0.23086        0.24867        0.31440        0.27712        0.34383        0.29447        0.25927        0.24255        0.21757        0.24475        0.28598        0.22018        0.13525        0.17282        0.24427        0.23399        0.32577        0.28424        0.04417       -0.41592       -0.92129
2.719110 2.690269 2.661584 2.633055 2.604681 2.576464 2.548402 2.520496 2.492745 2.465151 2.437712 2.410429 2.383302 2.356331 2.329515 2.302856 2.276352 2.250004 2.223811 2.197775 2.171894 2.146169 2.120600 2.095187 2.069929 2.044827 2.019881 1.995091 1.970457 1.945978 1.921655 1.897488 1.873477 1.849622 1.825922 1.802378 1.778990 1.755758 1.732682 1.709761 1.686996 1.664387 1.641934 1.619637 1.597495 1.575509 1.553679 1.532005 1.510486 1.489124 1.467917 1.537548 1.840640 1.531203 1.198814 0.948258 0.549932 0.919383 0.641148 0.876813 0.932388 0.596458 0.710731 0.788160 0.828122 0.631572 0.541677 0.353450 0.104376 0.076361 0.043543 0.077302 0.304002 -0.035991 0.081193 -0.134645 -0.015349 -0.016016 0.079727 0.065868 0.102167 0.179409 0.283850 0.249670 0.483372 0.398718 0.549915 0.530324 0.771853 0.792316 0.882428 0.926603 0.940513 0.950700 1.123636 0.942529 1.146667 0.950027 0.854084 1.020182 0.850381 0.761978 0.623387 0.595397 0.457492 0.420340 0.508852 0.264835 0.199395 0.157956 0.010226 0.204246 -0.007869 0.119720 0.174315 0.256640 0.335392 0.347574 0.431428 0.540970 0.668459 0.538585 0.742069 0.862440 0.640393 0.699081 0.670861 0.591184 0.538408 0.462918 0.301936 0.214906 0.118258 -0.042197 -0.017497 0.054869 -0.093042 -0.057878 0.050409 0.049717 0.110132 0.219759 0.239739 0.312193 0.442919 0.450750 0.437505 0.474223 0.454232 0.332464 0.336877 0.245412 0.052038 0.062274 0.018403 -0.044564 -0.098364 -0.095779 -0.014489 -0.046498 0.077343 0.127130 0.126809 0.263577 0.230947 0.240809 0.282167 0.239997 0.239326 0.210995 0.162160 0.112615 0.105543 0.023380 0.008801 -0.115825 -0.049184 0.006142 0.000014 0.019904 0.098649 0.082760 0.125601 0.208205 0.268946 0.179087 0.193697 0.114680 0.146143 0.025028 -0.031926 0.026704 -0.018764 0.011158 0.000828 0.042912 0.086058 0.060364 0.165730 0.103168 0.185152 0.082363 0.166804 0.105219 0.009085 -0.044523 -0.005789 -0.018537 -0.053111 -0.055001 0.076251 0.075912 -0.000359 0.098919 0.080098 0.078930 0.158744 0.085149 0.081974 0.067474 -0.006891 0.043566 0.015903 0.025879 0.018175 0.011529 0.058536 0.080188 0.082176 0.047305 0.059685 0.035795 0.075059 0.003126 -0.004105 0.036950 0.028519 0.070637 0.048678 0.067487 0.069692 0.056847 0.024685 0.039609 0.003358 -0.045443 -0.026913 -0.019117 0.027961 0.045593 0.104412 0.004519 0.062013 0.054265 -0.007372 0.068405 0.017193 0.003537 0.033860 0.048834 0.037161 0.089475 0.044939 0.067438 0.074920 0.081496 0.066595 0.071367 0.089046 0.042400 -0.010273 0.050596 0.042259 0.044597 0.075507 0.083533 0.025607 0.064422 0.086754 0.013457 0.006334 -0.063407 -0.013873 0.113290 0.084305 0.067802 0.028339 -0.000675 0.056589 0.027867 -0.059479 0.049554 0.034101 0.061043 0.040406 0.001130 0.044432 0.013037 0.056334 0.031924 0.040278 -0.043324 0.067058 0.115696 0.014300 -0.007978 0.009593 -0.008265 -0.037923 -0.020975 -0.041046 -0.012264 -0.101187 -0.027240 -0.030507 0.014014 -0.028236 -0.065742 0.021228 -0.064742 -0.047045 -0.077448 0.056426 0.010543 0.019902 -0.011671 0.086261 -0.049972 -0.071544 0.042430 -0.032954 0.007107 -0.008491 0.185467 -0.045016 0.020609 0.005984 -0.025673 0.000645 -0.022717 -0.020102 -0.155530 0.007272 -0.030147 -0.012244 0.055951 0.021844 0.140310 0.044881 0.026870 0.001183 0.015727 -0.020100 0.331421 0.266902 0.168555 0.220771 0.250321 0.314983 0.355578 0.332236 0.054205 -1.085883
0.072396 0.072910 0.074453 0.077024 0.080623 0.085248 0.090898 0.097572 0.105267 0.113980 0.123709 0.134447 0.146190 0.158931 0.172661 0.187371 0.203049 0.219681 0.237252 0.255743 0.275132 0.295396 0.316505 0.338430 0.361135 0.384580 0.408721 0.433508 0.458889 0.484802 0.511184 0.537962 0.565059 0.592391 0.619867 0.647389 0.674854 0.702148 0.729154 0.755746 0.781789 0.807145 0.831665 0.855197 0.877582 0.898653 0.918241 0.936170 0.952262 0.966335 0.978205 0.987688 0.994600 0.998759 0.999986 0.998106 0.992951 0.984364 0.972194 0.956304 0.936574 0.912898 0.885190 0.853384 0.817440 0.777343 0.733107 0.684775 0.632425 0.576169 0.516155 0.452571 0.385644 0.315642 0.242876 0.167699 0.090505 0.011732 0.068144 0.148604 0.229095 0.309028 0.387783 0.464713 0.539150 0.610408 0.677791 0.740602 0.798144 0.849734 0.894712 0.932445 0.962342 0.983860 0.996518 0.999902 0.993681 0.977612 0.951551 0.915462 0.869424 0.813640 0.748439 0.674283 0.591768 0.501624 0.404717 0.302040 0.194711 0.083963 0.028865 0.142347 0.254979 0.365204 0.471427 0.572045 0.665465 0.750135 0.824574 0.887395 0.937337 0.973298 0.994355 0.999799 0.989156 0.962206 0.919008 0.859910 0.785558 0.696903 0.595198 0.481989 0.359099 0.228610 0.092832 0.045733 0.184433 0.320515 0.451175 0.573623 0.685138 0.783138 0.865241 0.929331 0.973620 0.996707 0.997628 0.975903 0.931566 0.865198 0.777926 0.671434 0.547936 0.410147 0.261239 0.104771 0.055380 0.215119 0.370223 0.516464 0.649719 0.766096 0.862053 0.934516 0.980994 0.999672 0.989496 0.950242 0.882552 0.787956 0.668857 0.528495 0.370877 0.200675 0.023108 0.156217 0.331468 0.496785 0.646473 0.775209 0.878241 0.951578 0.992163 0.998020 0.968369 0.903697 0.805792 0.677727 0.523789 0.349356 0.160745 0.035016 0.230435 0.417831 0.589646 0.738752 0.858759 0.944313 0.991352 0.997328 0.961368 0.884372 0.769036 0.619799 0.442701 0.245175 0.035752 0.176285 0.381311 0.569788 0.732722 0.862105 0.951334 0.995576 0.992061 0.940291 0.842135 0.701818 0.525777 0.322418 0.101727 0.125177 0.346605 0.550882 0.726988 0.865156 0.957448 0.998250 0.984647 0.916674 0.797406 0.632876 0.431817 0.205251 0.034089 0.272457 0.495861 0.690903 0.845595 0.950130 0.997541 0.984218 0.910225 0.779413 0.599277 0.380592 0.136813 0.116714 0.363701 0.587953 0.774448 0.910376 0.986051 0.995661 0.937773 0.815552 0.636675 0.412901 0.159387 0.106330 0.365494 0.599462 0.791048 0.925839 0.993304 0.987701 0.908624 0.761178 0.555733 0.307275 0.034375 0.242163 0.500868 0.721275 0.885566 0.980070 0.996461 0.932574 0.792734 0.587571 0.333295 0.050484 0.237524 0.506540 0.733565 0.898775 0.987326 0.990753 0.907876 0.745077 0.515917 0.240102 0.058129 0.352113 0.615112 0.822762 0.955401 0.999982 0.951465 0.813478 0.598177 0.325279 0.020354 0.287506 0.568461 0.794800 0.943735 0.999781 0.956454 0.817142 0.594973 0.311721 0.004259 0.320778 0.605089 0.827271 0.963456 0.998475 0.927663 0.757597 0.505629 0.198245 0.131623 0.448077 0.716136 0.905655 0.994784 0.972617 0.840648 0.612866 0.314429 0.020999 0.354976 0.648651 0.867303 0.984543 0.985591 0.869303 0.648577 0.349094 0.006468 0.337919 0.641847 0.867492 0.986189 0.982211 0.855008 0.619579 0.304883 0.049585 0.398661 0.697240 0.906135 0.997322 0.957848 0.791830 0.520265 0.178531 0.188086 0.530295 0.801449 0.963961 0.994644
1.000000 1.000000 1.000000 1.000000 1.000000 1.000000 1.000000 1.000000 1.000000 1.000000 1.000000 1.000000 1.000000 1.000000 1.000000 1.000000 1.000000 1.000000 1.000000 1.000000 1.000000 1.000000 1.000000 1.000000 1.000000 1.000000 1.000000 1.000000 1.000000 1.000000 1.000000 1.000000 1.000000 1.000000 1.000000 1.000000 1.000000 1.000000 1.000000 1.000000 1.000000 1.000000 1.000000 1.000000 1.000000 1.000000 1.000000 1.000000 1.000000 1.000000 1.000000 1.000000 0.919763 0.919763 0.906553 0.906553 0.906553 0.906553 0.906553 0.906553 0.906553 0.906553 0.906553 0.906553 0.906553 0.906553 0.906553 0.906553 0.906553 0.906553 0.906553 0.906553 0.906553 0.906553 0.906553 0.906553 0.906553 0.906553 0.906553 0.906553 0.906553 0.906553 0.906553 0.906553 0.906553 0.906553 0.906553 0.906553 0.906553 0.906553 0.906553 0.906553 0.906553 0.906553 0.906553 0.902518 0.907497 0.909463 0.908029 0.911501 0.911546 0.910848 0.911228 0.910916 0.911272 0.912653 0.923090 0.934029 0.945187 0.945682 0.950852 0.955194 0.957722 0.958557 0.960239 0.970529 0.967965 0.967546 0.968192 0.969512 0.971537 0.970383 0.969774 0.972996 0.973585 0.972109 0.969718 0.969122 0.968542 0.968662 0.968324 0.968202 0.968052 0.968568 0.968786 0.968378 0.968524 0.968586 0.969590 0.970737 0.973221 0.974232 0.974135 0.973133 0.968147 0.971700 0.972796 0.972237 0.972235 0.971860 0.972121 0.956463 0.953244 0.953141 0.949397 0.948389 0.945639 0.943918 0.942615 0.943316 0.942308 0.942234 0.939012 0.925825 0.912190 0.899961 0.920725 0.905497 0.893123 0.868394 0.868748 0.861456 0.861884 0.854208 0.847594 0.843097 0.840479 0.842476 0.841764 0.846055 0.842779 0.826953 0.830518 0.826830 0.793540 0.779523 0.764651 0.762781 0.759729 0.760871 0.759507 0.753949 0.762757 0.754608 0.752487 0.742659 0.721273 0.688865 0.676180 0.687545 0.697847 0.698527 0.694388 0.678645 0.640043 0.653120 0.681075 0.673733 0.674857 0.667347 0.660585 0.669070 0.669061 0.666189 0.659661 0.658897 0.658657 0.668843 0.672401 0.665116 0.656912 0.643062 0.633285 0.622564 0.636881 0.643602 0.612893 0.606887 0.602113 0.596802 0.585671 0.558608 0.557573 0.537377 0.524577 0.523756 0.525830 0.528221 0.538716 0.538740 0.516780 0.541902 0.542878 0.575014 0.552980 0.551114 0.552605 0.561731 0.542294 0.526302 0.518817 0.520207 0.535608 0.569182 0.609902 0.604358 0.593316 0.584688 0.593515 0.576784 0.585085 0.608081 0.585758 0.514499 0.471972 0.469544 0.436901 0.427318 0.415942 0.392791 0.373783 0.371721 0.366218 0.351747 0.341933 0.286001 0.251433 0.232227 0.214740 0.220440 0.234341 0.225939 0.225054 0.257430 0.305315 0.305119 0.294826 0.288109 0.291484 0.293325 0.251186 0.251522 0.214021 0.202398 0.232447 0.177626 0.182794 0.127152 0.119294 0.133619 0.161382 0.173919 0.127613 0.113461 0.137259 0.154850 0.148764 0.139501 0.093206 0.063861 0.052343 0.065215 0.049728 0.016710 0.027964 0.033819 0.017905 0.001563 0.011281 0.012608 0.021604 0.009320 0.008850 0.056418 0.083388 0.073020 0.076334 0.093278 0.090195 0.068239 0.059938 0.047404 0.040628 -0.010162 -0.036284 -0.036284 -0.032152 -0.032152 -0.032152 -0.032152 -0.032152 -0.032152 -0.032152 -0.032152 -0.032152 -0.032733 -0.032733 -0.032733 -0.032733 -0.032733 -0.032733 -0.032733 -0.032733 -0.032733 -0.010555 -0.010555 -0.010555 -0.010555 -0.010555 -0.010555 -0.010555 -0.010555 -0.010555
0.000000 0.000000 0.000000 0.000000 0.000000 0.000000 0.000000 0.000000 0.000000 0.000000 0.000000 0.000000 0.000000 0.000000 0.000000 0.000000 0.000000 0.000000 0.000000 0.000000 0.000000 0.000000 0.000000 0.000000 0.000000 0.000000 0.000000 0.000000 0.000000 0.000000 0.000000 0.000000 0.000000 0.000000 0.000000 0.000000 0.000000 0.000000 0.000000 0.000000 0.000000 0.000000 0.000000 0.000000 0.000000 0.000000 0.000000 0.000000 0.000000 0.000000 0.000000 0.000000 0.181818 0.181818 0.199007 0.199007 0.199007 0.199007 0.199007 0.199007 0.199007 0.199007 0.199007 0.199007 0.199007 0.199007 0.199007 0.199007 0.199007 0.199007 0.199007 0.199007 0.199007 0.199007 0.199007 0.199007 0.199007 0.199007 0.199007 0.199007 0.199007 0.199007 0.199007 0.199007 0.199007 0.199007 0.199007 0.199007 0.199007 0.199007 0.199007 0.199007 0.199007 0.199007 0.199007 0.230940 0.230940 0.230940 0.230940 0.230940 0.230940 0.230940 0.230940 0.230940 0.230940 0.230940 0.230940 0.230940 0.230940 0.230940 0.230940 0.230940 0.230940 0.230940 0.230940 0.230940 0.230940 0.230940 0.230940 0.230940 0.230940 0.230940 0.230940 0.244339 0.244339 0.244339 0.244339 0.244339 0.244339 0.244339 0.244339 0.244339 0.244339 0.244339 0.244339 0.244339 0.244339 0.244339 0.244339 0.244339 0.244339 0.244339 0.244339 0.244339 0.244339 0.244339 0.251976 0.251976 0.251976 0.251976 0.251976 0.251976 0.251976 0.251976 0.251976 0.251976 0.251976 0.251976 0.251976 0.251976 0.251976 0.251976 0.251976 0.251976 0.251976 0.251976 0.264906 0.264906 0.264906 0.264906 0.264906 0.264906 0.264906 0.264906 0.264906 0.264906 0.264906 0.264906 0.264906 0.264906 0.264906 0.264906 0.264906 0.264906 0.264906 0.264906 0.264906 0.264906 0.264906 0.264906 0.264906 0.264906 0.264906 0.264906 0.264906 0.264906 0.264906 0.264906 0.264906 0.264906 0.264906 0.264906 0.264906 0.264906 0.264906 0.264906 0.264906 0.264906 0.264906 0.264906 0.264906 0.264906 0.264906 0.264906 0.264906 0.264906 0.264906 0.264906 0.264906 0.264906 0.264906 0.264906 0.264906 0.264906 0.264906 0.264906 0.264906 0.264906 0.264906 0.264906 0.264906 0.264906 0.264906 0.264906 0.264906 0.264906 0.264906 0.264906 0.264906 0.264906 0.264906 0.269680 0.269680 0.269680 0.269680 0.269680 0.269680 0.269680 0.269680 0.269680 0.269680 0.269680 0.269680 0.264906 0.264906 0.264906 0.264906 0.264906 0.264906 0.264906 0.264906 0.264906 0.264906 0.264906 0.264906 0.269680 0.269680 0.269680 0.269680 0.269680 0.269680 0.269680 0.269680 0.269680 0.269680 0.269680 0.264906 0.264906 0.264906 0.264906 0.264906 0.264906 0.264906 0.264906 0.264906 0.264906 0.264906 0.269680 0.269680 0.269680 0.269680 0.269680 0.269680 0.269680 0.269680 0.269680 0.269680 0.251976 0.251976 0.251976 0.251976 0.251976 0.251976 0.251976 0.251976 0.251976 0.251976 0.251976 0.269680 0.269680 0.269680 0.269680 0.269680 0.269680 0.269680 0.269680 0.269680 0.256074 0.256074 0.256074 0.256074 0.256074 0.256074 0.256074 0.256074 0.256074 0.256074 0.260378 0.260378 0.260378 0.260378 0.260378 0.260378 0.260378 0.260378 0.260378 0.256074 0.256074 0.256074 0.256074 0.256074 0.256074 0.256074 0.256074 0.256074 0.251976 0.251976 0.251976 0.251976 0.251976 0.251976 0.251976 0.251976 0.251976 0.264906 0.264906 0.264906 0.264906 0.264906 0.264906 0.264906 0.264906 0.264906
