# Output from CTFFind version 4.1.9, run on 2019-11-03 19:00:53
# Input file: stack6_bm3d_averaged_1_2.75_0_2500_half.mrc ; Number of micrographs: 1
# Pixel size: 3.000 Angstroms ; acceleration voltage: 300.0 keV ; spherical aberration: 0.00 mm ; amplitude contrast: 0.07
# Box size: 512 pixels ; min. res.: 30.0 Angstroms ; max. res.: 5.0 Angstroms ; min. def.: 5000.0 um; max. def. 50000.0 um; num. frames averaged: 1
# 6 lines per micrograph: #1 - spatial frequency (1/Angstroms); #2 - 1D rotational average of spectrum (assuming no astigmatism); #3 - 1D rotational average of spectrum; #4 - CTF fit; #5 - cross-correlation between spectrum and CTF fit; #6 - 2sigma of expected cross correlation of noise
0.000000 0.000651 0.001302 0.001953 0.002604 0.003255 0.003906 0.004557 0.005208 0.005859 0.006510 0.007161 0.007812 0.008464 0.009115 0.009766 0.010417 0.011068 0.011719 0.012370 0.013021 0.013672 0.014323 0.014974 0.015625 0.016276 0.016927 0.017578 0.018229 0.018880 0.019531 0.020182 0.020833 0.021484 0.022135 0.022786 0.023438 0.024089 0.024740 0.025391 0.026042 0.026693 0.027344 0.027995 0.028646 0.029297 0.029948 0.030599 0.031250 0.031901 0.032552 0.033203 0.033854 0.034505 0.035156 0.035807 0.036458 0.037109 0.037760 0.038411 0.039062 0.039714 0.040365 0.041016 0.041667 0.042318 0.042969 0.043620 0.044271 0.044922 0.045573 0.046224 0.046875 0.047526 0.048177 0.048828 0.049479 0.050130 0.050781 0.051432 0.052083 0.052734 0.053385 0.054036 0.054688 0.055339 0.055990 0.056641 0.057292 0.057943 0.058594 0.059245 0.059896 0.060547 0.061198 0.061849 0.062500 0.063151 0.063802 0.064453 0.065104 0.065755 0.066406 0.067057 0.067708 0.068359 0.069010 0.069661 0.070312 0.070964 0.071615 0.072266 0.072917 0.073568 0.074219 0.074870 0.075521 0.076172 0.076823 0.077474 0.078125 0.078776 0.079427 0.080078 0.080729 0.081380 0.082031 0.082682 0.083333 0.083984 0.084635 0.085286 0.085938 0.086589 0.087240 0.087891 0.088542 0.089193 0.089844 0.090495 0.091146 0.091797 0.092448 0.093099 0.093750 0.094401 0.095052 0.095703 0.096354 0.097005 0.097656 0.098307 0.098958 0.099609 0.100260 0.100911 0.101562 0.102214 0.102865 0.103516 0.104167 0.104818 0.105469 0.106120 0.106771 0.107422 0.108073 0.108724 0.109375 0.110026 0.110677 0.111328 0.111979 0.112630 0.113281 0.113932 0.114583 0.115234 0.115885 0.116536 0.117188 0.117839 0.118490 0.119141 0.119792 0.120443 0.121094 0.121745 0.122396 0.123047 0.123698 0.124349 0.125000 0.125651 0.126302 0.126953 0.127604 0.128255 0.128906 0.129557 0.130208 0.130859 0.131510 0.132161 0.132812 0.133464 0.134115 0.134766 0.135417 0.136068 0.136719 0.137370 0.138021 0.138672 0.139323 0.139974 0.140625 0.141276 0.141927 0.142578 0.143229 0.143880 0.144531 0.145182 0.145833 0.146484 0.147135 0.147786 0.148438 0.149089 0.149740 0.150391 0.151042 0.151693 0.152344 0.152995 0.153646 0.154297 0.154948 0.155599 0.156250 0.156901 0.157552 0.158203 0.158854 0.159505 0.160156 0.160807 0.161458 0.162109 0.162760 0.163411 0.164062 0.164714 0.165365 0.166016 0.166667 0.167318 0.167969 0.168620 0.169271 0.169922 0.170573 0.171224 0.171875 0.172526 0.173177 0.173828 0.174479 0.175130 0.175781 0.176432 0.177083 0.177734 0.178385 0.179036 0.179688 0.180339 0.180990 0.181641 0.182292 0.182943 0.183594 0.184245 0.184896 0.185547 0.186198 0.186849 0.187500 0.188151 0.188802 0.189453 0.190104 0.190755 0.191406 0.192057 0.192708 0.193359 0.194010 0.194661 0.195312 0.195964 0.196615 0.197266 0.197917 0.198568 0.199219 0.199870 0.200521 0.201172 0.201823 0.202474 0.203125 0.203776 0.204427 0.205078 0.205729 0.206380 0.207031 0.207682 0.208333 0.208984 0.209635 0.210286 0.210938 0.211589 0.212240 0.212891 0.213542 0.214193 0.214844 0.215495 0.216146 0.216797 0.217448 0.218099 0.218750 0.219401 0.220052 0.220703 0.221354 0.222005 0.222656 0.223307 0.223958 0.224609 0.225260 0.225911 0.226562 0.227214 0.227865 0.228516 0.229167 0.229818 0.230469 0.231120 0.231771 0.232422 0.233073 0.233724 0.234375 0.235026 0.235677
       0.30504        0.30504        0.30504        0.30504        0.30504        0.30504        0.30504        0.30504        0.30504        0.30504        0.30504        0.30504        0.30504        0.30504        0.30504        0.30504        0.30504        0.30504        0.30504        0.30504        0.30504        0.30504        0.30504        0.30504        0.30504        0.30504        0.30504        0.30504        0.30504        0.30504        0.30504        0.30504        0.30504        0.30504        0.30504        0.30504        0.30504        0.30504        0.30504        0.30504        0.30504        0.30504        0.30504        0.30504        0.30504        0.30504        0.30504        0.30504        0.30504        0.30504        0.30504        0.62392        0.78417        0.38620        0.27074        0.16495       -0.11863        0.12200        0.02373        0.03796        0.11007        0.34861        0.40779        0.36266        0.20991       -0.01771        0.03365        0.06869       -0.16990       -0.17590       -0.08558       -0.11135       -0.29108       -0.18271       -0.31285       -0.27212       -0.28776       -0.39381       -0.45853       -0.45085       -0.39050       -0.33622       -0.41390       -0.32339       -0.39504       -0.33318       -0.26370       -0.19823       -0.17820       -0.09318       -0.05363        0.05214        0.08895        0.23305        0.31774        0.38156        0.39276        0.50469        0.57015        0.60269        0.69490        0.66731        0.73248        0.62624        0.65668        0.66979        0.61094        0.60859        0.61754        0.40757        0.37214        0.36081        0.33510        0.20232        0.13268        0.06104        0.07420        0.02193       -0.06794       -0.00229       -0.03358       -0.07409        0.05995        0.16853        0.26688        0.31836        0.32139        0.39875        0.50930        0.54103        0.50224        0.65553        0.53904        0.51814        0.57929        0.58896        0.53216        0.48578        0.41758        0.37307        0.23601        0.18955        0.12707        0.13779        0.10896        0.06274        0.08450        0.14737        0.14152        0.15604        0.21281        0.24599        0.34089        0.44420        0.45909        0.46259        0.51632        0.57291        0.53533        0.51151        0.39714        0.40899        0.35813        0.28172        0.23689        0.21749        0.16556        0.18516        0.17819        0.17505        0.13880        0.20524        0.24483        0.34807        0.38632        0.40409        0.46631        0.49789        0.44029        0.45629        0.41353        0.40707        0.40686        0.35192        0.27715        0.26783        0.19803        0.21852        0.22218        0.19772        0.21786        0.21887        0.25493        0.32513        0.38700        0.37953        0.37478        0.37889        0.44271        0.43322        0.41178        0.33657        0.31857        0.28389        0.29587        0.24461        0.20820        0.26968        0.30124        0.28103        0.29070        0.33268        0.32459        0.37998        0.34547        0.34680        0.36185        0.33665        0.32687        0.30142        0.27809        0.28494        0.26042        0.22297        0.26641        0.26302        0.30854        0.30873        0.34330        0.36348        0.32465        0.30912        0.35154        0.34651        0.26195        0.28896        0.28863        0.25545        0.23836        0.28475        0.27866        0.27607        0.30864        0.30607        0.31956        0.32534        0.34569        0.28473        0.29580        0.31641        0.27817        0.25774        0.24972        0.24315        0.25493        0.27433        0.28377        0.27664        0.27685        0.31829        0.34396        0.27764        0.30088        0.25923        0.25067        0.24676        0.24922        0.24131        0.24055        0.28178        0.26012        0.29746        0.28394        0.28296        0.31888        0.26672        0.30217        0.29050        0.29947        0.25769        0.25183        0.24092        0.24901        0.30926        0.30409        0.33036        0.32047        0.31823        0.28645        0.32593        0.26140        0.18786        0.27839        0.27920        0.26579        0.28039        0.30105        0.29749        0.35941        0.28718        0.22392        0.22347        0.24082        0.28219        0.30414        0.29051        0.25976        0.27050        0.25522        0.28379        0.27619        0.25872        0.25844        0.24330        0.29873        0.24664        0.26116        0.31583        0.28552        0.24420        0.27861        0.27945        0.29148        0.20613        0.25050        0.25924        0.29922        0.28639        0.31606        0.26885        0.25749        0.27245        0.23517        0.20921        0.19086        0.23099        0.21455        0.22277        0.22304        0.21966        0.26840        0.24321        0.27597        0.22713        0.17231        0.18354        0.18427        0.16862        0.20863        0.17922        0.19410        0.19079        0.07058        0.21954        0.15137        0.04879        0.17811        0.11318        0.09353        0.13356       -0.21902       -0.50699       -0.79307
2.881999 2.853756 2.825657 2.797703 2.769894 2.742228 2.714708 2.687331 2.660099 2.633012 2.606069 2.579271 2.552617 2.526107 2.499742 2.473521 2.447445 2.421513 2.395726 2.370083 2.344585 2.319231 2.294021 2.268956 2.244036 2.219260 2.194628 2.170141 2.145798 2.121600 2.097546 2.073636 2.049872 2.026251 2.002775 1.979444 1.956256 1.933214 1.910316 1.887562 1.864953 1.842488 1.820167 1.797992 1.775960 1.754073 1.732331 1.710732 1.689279 1.667970 1.646805 1.966625 2.296368 1.695814 1.708322 1.373502 0.904378 1.214083 1.073204 1.109824 1.006421 1.557218 1.524498 1.533059 1.266040 0.946681 0.800622 1.024751 0.731357 0.455167 0.596065 0.675061 0.405460 0.474715 0.298665 0.309896 0.221049 0.175486 -0.064511 -0.004945 0.041075 0.047968 0.039754 0.134141 -0.052327 0.016500 0.111508 0.219104 0.256891 0.285848 0.345406 0.601679 0.464533 0.694192 0.887768 0.917142 0.917878 1.157037 1.149035 1.227315 1.329594 1.207282 1.425736 1.176349 1.164510 1.333492 1.140853 1.083012 1.197697 0.889309 0.720733 0.690144 0.713935 0.462735 0.408190 0.256755 0.224773 0.140426 -0.006839 0.127032 0.008819 -0.065030 0.105702 0.241444 0.359303 0.474436 0.493429 0.537921 0.716722 0.772423 0.621812 0.972659 0.828922 0.656330 0.766933 0.769207 0.729427 0.717211 0.476963 0.543118 0.256577 0.196436 0.117658 -0.008078 0.054036 -0.059691 -0.048273 -0.015749 0.077835 -0.066190 0.219303 0.135490 0.209887 0.398269 0.449599 0.482916 0.407875 0.622639 0.627328 0.490380 0.377998 0.352797 0.325169 0.167677 0.103830 0.044689 0.036415 -0.024265 -0.017605 -0.027214 -0.101468 -0.012035 0.019069 0.127112 0.281742 0.231080 0.377120 0.363890 0.400183 0.362818 0.430173 0.363705 0.251904 0.352096 0.138233 0.190369 0.023009 0.055013 0.039099 0.020166 -0.017895 0.019666 0.071082 0.123266 0.243356 0.300862 0.217717 0.242875 0.360890 0.337538 0.344694 0.206743 0.148231 0.155994 0.099409 0.106212 -0.010415 -0.009950 0.142789 0.061227 0.101609 0.102526 0.146484 0.219255 0.213474 0.174550 0.192993 0.205801 0.151267 0.147794 0.076708 0.079618 0.117816 -0.031648 0.038775 0.079359 0.029526 0.165410 0.107046 0.205205 0.201927 0.134242 0.116472 0.211276 0.128361 0.040932 0.099330 0.054248 0.020924 0.029478 0.087997 0.061325 0.037957 0.152753 0.090145 0.123473 0.134668 0.134937 0.101394 0.057441 0.118322 0.054024 0.013554 0.003995 0.002023 0.013055 0.039040 0.069777 0.062670 0.015714 0.106913 0.134936 -0.016552 0.082931 -0.000882 -0.017775 -0.016576 -0.024390 -0.040265 0.011576 0.028102 -0.042735 0.072829 0.028167 0.029119 0.069201 -0.006929 0.025535 0.054220 0.000686 -0.005692 -0.048588 -0.039532 -0.029596 0.056455 0.063640 0.061548 0.039301 0.123788 0.003119 0.103585 -0.067984 -0.121177 0.033379 -0.004888 0.002642 -0.009700 0.060515 0.034481 0.086959 -0.032832 -0.121426 -0.080618 -0.090401 0.053668 0.005660 0.008712 -0.044833 -0.043091 -0.049176 0.007677 -0.042430 -0.043155 -0.043011 -0.115421 0.035196 -0.080410 -0.007995 0.048048 -0.022520 -0.055972 0.039059 0.010140 0.015396 -0.121587 -0.007255 -0.038956 0.096865 0.074664 0.074252 0.018906 -0.005959 0.043259 0.014284 -0.087488 -0.001200 -0.028146 -0.002736 0.003040 0.008857 0.003650 0.106972 0.050056 0.155636 0.016211 -0.000412 -0.023203 0.032106 -0.054334 0.061557 -0.033040 0.093812 0.052796 -0.025661 0.328109 0.236088 0.078149 0.319343 0.217990 0.109532 0.312799 -0.321983 -1.172060
0.072396 0.072835 0.074150 0.076342 0.079410 0.083353 0.088171 0.093862 0.100425 0.107857 0.116157 0.125322 0.135346 0.146227 0.157958 0.170534 0.183946 0.198185 0.213242 0.229105 0.245759 0.263189 0.281378 0.300304 0.319947 0.340279 0.361274 0.382900 0.405121 0.427901 0.451197 0.474963 0.499150 0.523703 0.548564 0.573669 0.598951 0.624336 0.649747 0.675101 0.700309 0.725279 0.749910 0.774101 0.797741 0.820717 0.842910 0.864197 0.884450 0.903538 0.921326 0.937675 0.952444 0.965489 0.976668 0.985833 0.992841 0.997547 0.999810 0.999490 0.996453 0.990570 0.981717 0.969781 0.954656 0.936247 0.914473 0.889265 0.860571 0.828354 0.792598 0.753305 0.710501 0.664233 0.614573 0.561621 0.505501 0.446368 0.384405 0.319825 0.252872 0.183820 0.112973 0.040668 0.032729 0.106824 0.181195 0.255392 0.328943 0.401354 0.472112 0.540687 0.606540 0.669124 0.727887 0.782282 0.831769 0.875819 0.913926 0.945607 0.970414 0.987935 0.997806 0.999715 0.993411 0.978706 0.955485 0.923714 0.883437 0.834791 0.778002 0.713392 0.641379 0.562480 0.477311 0.386581 0.291096 0.191749 0.089516 0.014550 0.119332 0.223654 0.326300 0.426021 0.521556 0.611643 0.695041 0.770546 0.837011 0.893364 0.938629 0.971947 0.992591 0.999986 0.993728 0.973594 0.939561 0.891811 0.830742 0.756974 0.671343 0.574906 0.468932 0.354887 0.234424 0.109360 0.018346 0.146621 0.273313 0.396223 0.513142 0.621898 0.720390 0.806639 0.878830 0.935348 0.974831 0.996197 0.998688 0.981892 0.945774 0.890687 0.817388 0.727032 0.621173 0.501739 0.371011 0.231586 0.086332 0.061669 0.209178 0.352874 0.489422 0.615555 0.728160 0.824352 0.901559 0.957596 0.990740 0.999785 0.984100 0.943664 0.879094 0.791648 0.683221 0.556319 0.414011 0.259865 0.097872 0.067650 0.232175 0.391078 0.539778 0.673861 0.789228 0.882220 0.949752 0.989421 0.999606 0.979551 0.929410 0.850286 0.744220 0.614165 0.463912 0.298009 0.121627 0.059594 0.239708 0.412669 0.572521 0.713621 0.830835 0.919748 0.976838 0.999634 0.986839 0.938420 0.855648 0.741090 0.598562 0.433018 0.250399 0.057435 0.138590 0.330111 0.509570 0.669717 0.803914 0.906428 0.972685 0.999500 0.985257 0.930014 0.835562 0.705394 0.544609 0.359741 0.158504 0.050495 0.258132 0.455148 0.632573 0.782132 0.896661 0.970461 0.999613 0.982209 0.918503 0.810961 0.664204 0.484845 0.281219 0.063021 0.159139 0.374242 0.571405 0.740448 0.872421 0.960114 0.998475 0.984934 0.919606 0.805360 0.647736 0.454720 0.236367 0.004315 0.228829 0.450159 0.647190 0.808572 0.924768 0.988653 0.995981 0.945709 0.840144 0.684885 0.488583 0.262491 0.019859 0.224821 0.456678 0.661364 0.825954 0.939795 0.995226 0.988143 0.918345 0.789642 0.609709 0.389680 0.143492 0.112937 0.362759 0.589272 0.777050 0.913029 0.987453 0.994611 0.933339 0.807205 0.624365 0.397100 0.141041 0.125872 0.384630 0.616496 0.804388 0.934154 0.995697 0.983808 0.898668 0.745956 0.536543 0.285782 0.012429 0.262721 0.518412 0.734563 0.893883 0.983288 0.995045 0.927497 0.785332 0.579347 0.325693 0.044667 0.240871 0.507332 0.732363 0.896748 0.986092 0.992152 0.913666 0.756611 0.533844 0.264112 0.029447 0.321266 0.585550 0.798580 0.940868 0.999011 0.967022 0.847032 0.649258 0.391226 0.096287 0.208432 0.494497 0.734832 0.906307 0.992021 0.983047 0.879458 0.690486 0.433812 0.133999 0.179814 0.476682 0.726924 0.905123
1.000000 1.000000 1.000000 1.000000 1.000000 1.000000 1.000000 1.000000 1.000000 1.000000 1.000000 1.000000 1.000000 1.000000 1.000000 1.000000 1.000000 1.000000 1.000000 1.000000 1.000000 1.000000 1.000000 1.000000 1.000000 1.000000 1.000000 1.000000 1.000000 1.000000 1.000000 1.000000 1.000000 1.000000 1.000000 1.000000 1.000000 1.000000 1.000000 1.000000 1.000000 1.000000 1.000000 1.000000 1.000000 1.000000 1.000000 1.000000 1.000000 1.000000 1.000000 1.000000 0.831647 0.831647 0.831647 0.831647 0.831647 0.831647 0.831647 0.809796 0.809796 0.809796 0.809796 0.809796 0.809796 0.809796 0.809796 0.809796 0.809796 0.809796 0.809796 0.809796 0.809796 0.809796 0.809796 0.809796 0.809796 0.809796 0.809796 0.809796 0.809796 0.809796 0.809796 0.809796 0.809796 0.809796 0.809796 0.809796 0.809796 0.809796 0.809796 0.809796 0.809796 0.809796 0.809796 0.809796 0.809796 0.809796 0.809796 0.809796 0.809796 0.809796 0.809796 0.949161 0.949948 0.950259 0.949257 0.947666 0.944168 0.942445 0.941660 0.944348 0.944564 0.944806 0.945714 0.946285 0.947865 0.948847 0.950015 0.950802 0.958908 0.962616 0.962350 0.961510 0.962357 0.973057 0.970107 0.967675 0.967704 0.967862 0.967837 0.967725 0.967620 0.967174 0.966593 0.967072 0.966947 0.966402 0.965632 0.964627 0.964196 0.963579 0.963503 0.964339 0.964434 0.965042 0.966326 0.966269 0.966925 0.965560 0.964798 0.954084 0.951938 0.949714 0.949482 0.950550 0.950276 0.949502 0.948208 0.948273 0.948194 0.947114 0.946989 0.945875 0.937473 0.937631 0.937396 0.938289 0.931798 0.923039 0.920239 0.918452 0.919555 0.922680 0.926278 0.923560 0.922050 0.918520 0.910457 0.903903 0.895205 0.893742 0.889074 0.891522 0.892963 0.894640 0.894536 0.894583 0.892960 0.891494 0.876166 0.880350 0.877663 0.873694 0.869395 0.865517 0.863391 0.864869 0.867853 0.857515 0.840282 0.840472 0.830327 0.802122 0.800169 0.803890 0.814067 0.825231 0.823793 0.822827 0.807401 0.803593 0.787583 0.778307 0.780021 0.782995 0.780641 0.788621 0.793331 0.786889 0.771797 0.767059 0.773403 0.786786 0.797321 0.802132 0.801260 0.797963 0.796614 0.758376 0.757685 0.759869 0.725340 0.728846 0.723665 0.723407 0.729524 0.725663 0.722859 0.732216 0.729529 0.702675 0.708758 0.708862 0.707645 0.710570 0.697738 0.689966 0.661741 0.652485 0.639777 0.649632 0.652413 0.665667 0.655009 0.664885 0.676580 0.676636 0.686443 0.685316 0.667786 0.661495 0.670297 0.675331 0.639867 0.646347 0.645692 0.640980 0.633904 0.623258 0.635897 0.625336 0.605624 0.602430 0.557418 0.539394 0.529780 0.515164 0.495353 0.476708 0.490357 0.493487 0.491924 0.479952 0.455667 0.385643 0.389615 0.387558 0.370248 0.376275 0.363074 0.328510 0.372943 0.374741 0.384236 0.355720 0.337704 0.310491 0.212394 0.203521 0.166791 0.179912 0.185781 0.174676 0.167420 0.171231 0.170708 0.153746 0.165091 0.164367 0.185209 0.169171 0.137192 0.148935 0.140777 0.121462 0.100209 0.093688 0.134292 0.115308 0.123476 0.126144 0.078188 0.049950 -0.006509 0.005858 0.017018 0.046670 0.076025 0.068371 0.043050 -0.044852 -0.011106 0.015092 0.015092 0.015092 0.015092 0.015092 0.015092 0.015092 0.015092 0.015092 0.015092 0.015092 -0.045118 -0.045118 -0.045118 -0.045118 -0.045118 -0.045118 -0.045118 -0.045118 -0.045118 -0.045118 -0.045118 -0.045118 -0.045118 -0.045118 -0.045118 -0.045118 -0.045118 -0.045118 -0.045118
0.000000 0.000000 0.000000 0.000000 0.000000 0.000000 0.000000 0.000000 0.000000 0.000000 0.000000 0.000000 0.000000 0.000000 0.000000 0.000000 0.000000 0.000000 0.000000 0.000000 0.000000 0.000000 0.000000 0.000000 0.000000 0.000000 0.000000 0.000000 0.000000 0.000000 0.000000 0.000000 0.000000 0.000000 0.000000 0.000000 0.000000 0.000000 0.000000 0.000000 0.000000 0.000000 0.000000 0.000000 0.000000 0.000000 0.000000 0.000000 0.000000 0.000000 0.000000 0.000000 0.173422 0.173422 0.173422 0.173422 0.173422 0.173422 0.173422 0.191565 0.191565 0.191565 0.191565 0.191565 0.191565 0.191565 0.191565 0.191565 0.191565 0.191565 0.191565 0.191565 0.191565 0.191565 0.191565 0.191565 0.191565 0.191565 0.191565 0.191565 0.191565 0.191565 0.191565 0.191565 0.191565 0.191565 0.191565 0.191565 0.191565 0.191565 0.191565 0.191565 0.191565 0.191565 0.191565 0.191565 0.191565 0.191565 0.191565 0.191565 0.191565 0.191565 0.191565 0.219529 0.219529 0.219529 0.219529 0.219529 0.219529 0.219529 0.219529 0.219529 0.219529 0.219529 0.219529 0.219529 0.219529 0.219529 0.219529 0.219529 0.219529 0.219529 0.219529 0.219529 0.219529 0.219529 0.219529 0.219529 0.219529 0.219529 0.219529 0.219529 0.219529 0.219529 0.237356 0.237356 0.237356 0.237356 0.237356 0.237356 0.237356 0.237356 0.237356 0.237356 0.237356 0.237356 0.237356 0.237356 0.237356 0.237356 0.237356 0.237356 0.237356 0.237356 0.237356 0.237356 0.237356 0.237356 0.244339 0.244339 0.244339 0.244339 0.244339 0.244339 0.244339 0.244339 0.244339 0.244339 0.244339 0.244339 0.244339 0.244339 0.244339 0.244339 0.244339 0.244339 0.244339 0.244339 0.244339 0.248069 0.248069 0.248069 0.248069 0.248069 0.248069 0.248069 0.248069 0.248069 0.248069 0.248069 0.248069 0.248069 0.248069 0.248069 0.248069 0.248069 0.248069 0.248069 0.248069 0.248069 0.248069 0.248069 0.248069 0.248069 0.248069 0.248069 0.248069 0.248069 0.248069 0.248069 0.248069 0.248069 0.248069 0.248069 0.248069 0.248069 0.256074 0.256074 0.256074 0.256074 0.256074 0.256074 0.256074 0.256074 0.256074 0.256074 0.256074 0.256074 0.256074 0.256074 0.256074 0.256074 0.256074 0.256074 0.256074 0.256074 0.256074 0.256074 0.256074 0.256074 0.256074 0.256074 0.256074 0.256074 0.256074 0.256074 0.256074 0.256074 0.256074 0.256074 0.256074 0.256074 0.256074 0.256074 0.256074 0.256074 0.256074 0.256074 0.256074 0.256074 0.256074 0.260378 0.260378 0.260378 0.260378 0.260378 0.260378 0.260378 0.260378 0.260378 0.260378 0.260378 0.260378 0.260378 0.256074 0.256074 0.256074 0.256074 0.256074 0.256074 0.256074 0.256074 0.256074 0.256074 0.256074 0.256074 0.256074 0.260378 0.260378 0.260378 0.260378 0.260378 0.260378 0.260378 0.260378 0.260378 0.260378 0.260378 0.260378 0.251976 0.251976 0.251976 0.251976 0.251976 0.251976 0.251976 0.251976 0.251976 0.251976 0.251976 0.251976 0.256074 0.256074 0.256074 0.256074 0.256074 0.256074 0.256074 0.256074 0.256074 0.256074 0.256074 0.251976 0.251976 0.251976 0.251976 0.251976 0.251976 0.251976 0.251976 0.251976 0.251976 0.251976 0.248069 0.248069 0.248069 0.248069 0.248069 0.248069 0.248069 0.248069 0.248069 0.248069 0.248069 0.256074 0.256074 0.256074 0.256074 0.256074 0.256074 0.256074 0.256074 0.256074 0.256074 0.256074 0.256074 0.256074 0.256074 0.256074 0.256074 0.256074 0.256074 0.256074
