# Output from CTFFind version 4.1.9, run on 2019-11-03 19:36:12
# Input file: stack16_bm3d_averaged_1_4.25_0_2000_half.mrc ; Number of micrographs: 1
# Pixel size: 3.000 Angstroms ; acceleration voltage: 300.0 keV ; spherical aberration: 0.00 mm ; amplitude contrast: 0.07
# Box size: 512 pixels ; min. res.: 30.0 Angstroms ; max. res.: 5.0 Angstroms ; min. def.: 5000.0 um; max. def. 50000.0 um; num. frames averaged: 1
# 6 lines per micrograph: #1 - spatial frequency (1/Angstroms); #2 - 1D rotational average of spectrum (assuming no astigmatism); #3 - 1D rotational average of spectrum; #4 - CTF fit; #5 - cross-correlation between spectrum and CTF fit; #6 - 2sigma of expected cross correlation of noise
0.000000 0.000651 0.001302 0.001953 0.002604 0.003255 0.003906 0.004557 0.005208 0.005859 0.006510 0.007161 0.007812 0.008464 0.009115 0.009766 0.010417 0.011068 0.011719 0.012370 0.013021 0.013672 0.014323 0.014974 0.015625 0.016276 0.016927 0.017578 0.018229 0.018880 0.019531 0.020182 0.020833 0.021484 0.022135 0.022786 0.023438 0.024089 0.024740 0.025391 0.026042 0.026693 0.027344 0.027995 0.028646 0.029297 0.029948 0.030599 0.031250 0.031901 0.032552 0.033203 0.033854 0.034505 0.035156 0.035807 0.036458 0.037109 0.037760 0.038411 0.039062 0.039714 0.040365 0.041016 0.041667 0.042318 0.042969 0.043620 0.044271 0.044922 0.045573 0.046224 0.046875 0.047526 0.048177 0.048828 0.049479 0.050130 0.050781 0.051432 0.052083 0.052734 0.053385 0.054036 0.054688 0.055339 0.055990 0.056641 0.057292 0.057943 0.058594 0.059245 0.059896 0.060547 0.061198 0.061849 0.062500 0.063151 0.063802 0.064453 0.065104 0.065755 0.066406 0.067057 0.067708 0.068359 0.069010 0.069661 0.070312 0.070964 0.071615 0.072266 0.072917 0.073568 0.074219 0.074870 0.075521 0.076172 0.076823 0.077474 0.078125 0.078776 0.079427 0.080078 0.080729 0.081380 0.082031 0.082682 0.083333 0.083984 0.084635 0.085286 0.085938 0.086589 0.087240 0.087891 0.088542 0.089193 0.089844 0.090495 0.091146 0.091797 0.092448 0.093099 0.093750 0.094401 0.095052 0.095703 0.096354 0.097005 0.097656 0.098307 0.098958 0.099609 0.100260 0.100911 0.101562 0.102214 0.102865 0.103516 0.104167 0.104818 0.105469 0.106120 0.106771 0.107422 0.108073 0.108724 0.109375 0.110026 0.110677 0.111328 0.111979 0.112630 0.113281 0.113932 0.114583 0.115234 0.115885 0.116536 0.117188 0.117839 0.118490 0.119141 0.119792 0.120443 0.121094 0.121745 0.122396 0.123047 0.123698 0.124349 0.125000 0.125651 0.126302 0.126953 0.127604 0.128255 0.128906 0.129557 0.130208 0.130859 0.131510 0.132161 0.132812 0.133464 0.134115 0.134766 0.135417 0.136068 0.136719 0.137370 0.138021 0.138672 0.139323 0.139974 0.140625 0.141276 0.141927 0.142578 0.143229 0.143880 0.144531 0.145182 0.145833 0.146484 0.147135 0.147786 0.148438 0.149089 0.149740 0.150391 0.151042 0.151693 0.152344 0.152995 0.153646 0.154297 0.154948 0.155599 0.156250 0.156901 0.157552 0.158203 0.158854 0.159505 0.160156 0.160807 0.161458 0.162109 0.162760 0.163411 0.164062 0.164714 0.165365 0.166016 0.166667 0.167318 0.167969 0.168620 0.169271 0.169922 0.170573 0.171224 0.171875 0.172526 0.173177 0.173828 0.174479 0.175130 0.175781 0.176432 0.177083 0.177734 0.178385 0.179036 0.179688 0.180339 0.180990 0.181641 0.182292 0.182943 0.183594 0.184245 0.184896 0.185547 0.186198 0.186849 0.187500 0.188151 0.188802 0.189453 0.190104 0.190755 0.191406 0.192057 0.192708 0.193359 0.194010 0.194661 0.195312 0.195964 0.196615 0.197266 0.197917 0.198568 0.199219 0.199870 0.200521 0.201172 0.201823 0.202474 0.203125 0.203776 0.204427 0.205078 0.205729 0.206380 0.207031 0.207682 0.208333 0.208984 0.209635 0.210286 0.210938 0.211589 0.212240 0.212891 0.213542 0.214193 0.214844 0.215495 0.216146 0.216797 0.217448 0.218099 0.218750 0.219401 0.220052 0.220703 0.221354 0.222005 0.222656 0.223307 0.223958 0.224609 0.225260 0.225911 0.226562 0.227214 0.227865 0.228516 0.229167 0.229818 0.230469 0.231120 0.231771 0.232422 0.233073 0.233724 0.234375 0.235026 0.235677
       0.33124        0.33124        0.33124        0.33124        0.33124        0.33124        0.33124        0.33124        0.33124        0.33124        0.33124        0.33124        0.33124        0.33124        0.33124        0.33124        0.33124        0.33124        0.33124        0.33124        0.33124        0.33124        0.33124        0.33124        0.33124        0.33124        0.33124        0.33124        0.33124        0.33124        0.33123        0.33124        0.33124        0.33124        0.33124        0.33124        0.33124        0.33124        0.33124        0.33124        0.33124        0.33124        0.33124        0.33124        0.33124        0.33124        0.33124        0.33124        0.33123        0.33124        0.33124        0.42098        0.56953        0.35767       -0.18578       -0.45409       -0.56185       -0.65690       -0.73139       -0.75216       -0.86315       -0.91796       -0.71857       -0.88353       -0.85171       -1.00381       -1.04152       -0.92576       -0.88378       -0.82371       -0.75830       -0.67790       -0.59141       -0.49939       -0.42573       -0.20391       -0.09265       -0.00147        0.22780        0.23922        0.30084        0.36698        0.39262        0.49464        0.54042        0.57411        0.53822        0.47589        0.51474        0.49658        0.41799        0.31611        0.18420        0.16502        0.10178       -0.03750       -0.05066       -0.05259        0.02603       -0.01252        0.04366        0.02538        0.13955        0.18517        0.40179        0.45840        0.55447        0.65900        0.70536        0.71981        0.64482        0.62346        0.52877        0.44016        0.37715        0.25691        0.20191        0.18783        0.07674        0.06114        0.04107        0.05784        0.08046        0.28989        0.40448        0.50379        0.54511        0.58463        0.62593        0.59900        0.59813        0.59296        0.56511        0.46524        0.28260        0.24585        0.21349        0.11540        0.06145        0.11892        0.13991        0.26085        0.34910        0.40609        0.47341        0.53888        0.61152        0.55793        0.51340        0.48929        0.35652        0.22873        0.22223        0.15454        0.13329        0.18088        0.23158        0.26236        0.30923        0.41400        0.43352        0.51210        0.46362        0.45422        0.46825        0.37069        0.31475        0.26922        0.22426        0.20543        0.21850        0.22888        0.31761        0.42126        0.41757        0.48381        0.54147        0.45221        0.41901        0.35495        0.29021        0.23870        0.24107        0.26397        0.27669        0.30136        0.32089        0.40763        0.46562        0.43885        0.44572        0.34805        0.36309        0.34877        0.22700        0.22497        0.23542        0.28393        0.35154        0.36664        0.39166        0.43550        0.43451        0.36199        0.34138        0.30632        0.32345        0.28658        0.26657        0.26698        0.32131        0.36206        0.37176        0.39698        0.37476        0.39851        0.36601        0.28366        0.27489        0.29973        0.32878        0.35359        0.34935        0.40523        0.33805        0.36896        0.37674        0.31760        0.33381        0.28638        0.28648        0.33533        0.31970        0.31789        0.32689        0.34871        0.31239        0.33346        0.29361        0.30534        0.27257        0.28849        0.28800        0.33618        0.37194        0.35186        0.33409        0.28874        0.27016        0.27357        0.31017        0.27967        0.30013        0.35418        0.37187        0.33020        0.30366        0.30390        0.29597        0.26922        0.27527        0.27902        0.31233        0.33944        0.31032        0.27577        0.32645        0.30024        0.29443        0.33759        0.32893        0.31068        0.33052        0.29103        0.31670        0.27337        0.29584        0.29723        0.30862        0.38732        0.32058        0.34028        0.29993        0.30152        0.30375        0.31089        0.28465        0.27930        0.30639        0.30426        0.31838        0.29889        0.30843        0.28843        0.29201        0.31021        0.32714        0.31739        0.32900        0.32803        0.29757        0.27049        0.27643        0.25691        0.33496        0.31648        0.34187        0.29519        0.26812        0.29816        0.33404        0.30357        0.28792        0.26645        0.30312        0.27983        0.25299        0.30260        0.27358        0.27424        0.30615        0.29693        0.32986        0.34414        0.29152        0.25800        0.24205        0.25871        0.27352        0.26756        0.29903        0.26645        0.23002        0.28148        0.27036        0.27373        0.23223        0.31032        0.29331        0.27477        0.25270        0.24970        0.26794        0.22394        0.27082        0.32163        0.36218        0.26190        0.26571        0.24756        0.24312        0.19819        0.30487        0.22424        0.22323        0.15595        0.23732        0.22829        0.22967        0.07121        0.07171       -0.56342       -1.00765
2.994674 2.957423 2.920410 2.883638 2.847105 2.810811 2.774757 2.738943 2.703368 2.668032 2.632936 2.598080 2.563463 2.529086 2.494949 2.461051 2.427392 2.393973 2.360794 2.327854 2.295154 2.262693 2.230472 2.198490 2.166748 2.135245 2.103982 2.072959 2.042175 2.011630 1.981326 1.951260 1.921435 1.891848 1.862502 1.833395 1.804527 1.775899 1.747511 1.719362 1.691453 1.663783 1.636353 1.609162 1.582211 1.555499 1.529027 1.502795 1.476802 1.451049 1.425535 1.460012 1.568552 1.510015 0.852891 0.579251 0.431507 0.365920 0.276279 0.191458 0.143155 -0.065520 0.175692 0.039220 -0.052496 -0.130694 -0.249269 -0.165310 -0.083829 -0.095759 -0.096537 0.023039 0.017397 0.203129 0.097402 0.335250 0.447673 0.462651 0.736485 0.683098 0.675432 0.827178 0.794776 0.816918 0.916505 0.868309 0.899105 0.729845 0.814282 0.839728 0.662142 0.595751 0.443496 0.416702 0.369792 0.176696 0.169601 0.118638 0.215101 0.121269 0.215229 0.105796 0.241545 0.240340 0.472378 0.421250 0.602595 0.635678 0.682315 0.736841 0.652816 0.629254 0.482293 0.433996 0.319450 0.287832 0.118714 0.182674 -0.006459 0.030542 -0.037275 -0.035738 -0.017886 0.048627 0.299089 0.320633 0.401962 0.352054 0.434227 0.476859 0.448563 0.456434 0.382868 0.379687 0.151686 0.107839 0.070815 0.010843 -0.144457 -0.028759 -0.080552 0.044594 0.121432 0.183862 0.262073 0.264242 0.357036 0.453688 0.344843 0.394183 0.289497 0.148790 0.065552 0.070763 0.014654 0.033936 0.075536 0.113954 0.127506 0.221790 0.258060 0.302806 0.347128 0.252152 0.277652 0.240347 0.117628 0.103594 0.040107 0.041594 0.013403 0.019901 0.052422 0.176673 0.199033 0.198897 0.330666 0.203770 0.236196 0.106901 0.090642 -0.012748 -0.006310 0.005133 0.021257 0.037907 0.036513 0.088785 0.162447 0.173748 0.206153 0.114558 0.078195 0.104626 0.037150 -0.083016 -0.019805 0.008102 0.040744 0.061540 0.096549 0.162019 0.129673 0.162041 0.046886 0.063104 0.039830 0.046921 0.015421 -0.011424 0.025273 0.046089 0.086197 0.114897 0.103398 0.106571 0.122369 0.053950 -0.002927 0.005765 0.022866 0.079222 0.056517 0.103786 0.117733 0.050710 0.099596 0.067007 0.036776 0.059198 -0.030095 0.028058 0.061862 0.029121 0.026924 0.101418 0.038630 0.046753 0.041013 0.009785 0.024969 -0.024031 0.009661 0.005173 0.079392 0.073804 0.051641 0.036433 -0.015215 -0.018407 -0.007446 0.020482 -0.007295 0.017151 0.076452 0.074200 -0.004529 0.026210 -0.003645 0.005318 -0.028292 -0.021908 -0.010889 0.037975 0.002283 0.015132 -0.012282 0.022179 -0.010243 0.004061 0.039708 0.026791 0.036697 -0.024583 0.005403 0.007485 -0.042103 -0.003660 -0.001766 0.037954 0.085297 0.010177 0.023756 0.006886 0.018973 -0.010373 0.033096 -0.013414 -0.017295 0.013869 0.014060 0.026454 0.005157 0.056581 -0.029804 -0.000736 0.027414 0.030635 0.024902 0.054957 0.018211 0.023058 -0.000868 -0.024502 -0.005817 0.049765 0.043133 0.045346 0.005620 -0.017345 0.003451 0.060624 0.005644 0.015703 -0.019231 0.014502 -0.015304 -0.028349 0.005812 0.002000 -0.023554 0.024247 0.021883 0.075155 0.055876 0.018708 -0.003750 -0.044728 -0.010699 0.012992 -0.019677 0.059478 -0.022729 -0.070066 0.032996 -0.011712 -0.089965 -0.068746 0.002745 -0.038112 -0.060945 -0.076599 -0.060663 -0.028623 -0.094307 -0.024617 0.014656 0.063692 -0.081670 -0.006961 0.037382 -0.017626 -0.082584 0.117302 0.031906 0.089588 -0.000975 0.259565 0.205084 0.242546 -0.030195 0.071544 -0.934676
0.072396 0.073048 0.075002 0.078258 0.082815 0.088671 0.095825 0.104273 0.114011 0.125035 0.137337 0.150909 0.165742 0.181821 0.199133 0.217657 0.237373 0.258253 0.280268 0.303381 0.327551 0.352732 0.378869 0.405901 0.433760 0.462369 0.491642 0.521485 0.551793 0.582451 0.613334 0.644306 0.675220 0.705917 0.736226 0.765965 0.794943 0.822954 0.849785 0.875209 0.898993 0.920894 0.940663 0.958043 0.972774 0.984595 0.993243 0.998456 0.999979 0.997563 0.990971 0.979977 0.964376 0.943982 0.918635 0.888203 0.852591 0.811736 0.765623 0.714279 0.657783 0.596267 0.529921 0.458998 0.383811 0.304741 0.222235 0.136810 0.049048 0.040400 0.130820 0.221436 0.311417 0.399881 0.485904 0.568526 0.646766 0.719627 0.786116 0.845254 0.896093 0.937732 0.969333 0.990142 0.999505 0.996887 0.981889 0.954267 0.913945 0.861033 0.795836 0.718866 0.630849 0.532726 0.425654 0.310998 0.190327 0.065395 0.061879 0.189433 0.315096 0.436618 0.551717 0.658115 0.753592 0.836034 0.903482 0.954190 0.986674 0.999764 0.992648 0.964916 0.916594 0.848171 0.760617 0.655388 0.534422 0.400117 0.255302 0.103185 0.052705 0.208591 0.360537 0.504550 0.636678 0.753133 0.850401 0.925361 0.975402 0.998520 0.993423 0.959600 0.897383 0.807985 0.693502 0.556899 0.401954 0.233179 0.055706 0.124854 0.302585 0.471449 0.625497 0.759087 0.867104 0.945169 0.989846 0.998812 0.971001 0.906704 0.807627 0.676887 0.518954 0.339536 0.145395 0.055875 0.256140 0.447042 0.620353 0.768333 0.884107 0.962000 0.997849 0.989264 0.935813 0.839128 0.702919 0.532880 0.336505 0.122788 0.098154 0.315542 0.518462 0.696408 0.839855 0.940792 0.993211 0.993513 0.940796 0.837015 0.686985 0.498226 0.280645 0.046058 0.192416 0.421072 0.626409 0.795937 0.918977 0.987372 0.996091 0.943656 0.832364 0.668289 0.461020 0.223182 0.030290 0.283052 0.518385 0.720313 0.874717 0.970369 0.999816 0.960030 0.852780 0.684675 0.466847 0.214303 0.055041 0.321604 0.565537 0.768217 0.913711 0.990091 0.990494 0.913828 0.765046 0.554955 0.299528 0.018779 0.264749 0.527770 0.748175 0.906935 0.989808 0.988717 0.902646 0.737939 0.507980 0.232218 0.065382 0.358368 0.620137 0.826367 0.957334 0.999913 0.948991 0.808200 0.589833 0.313911 0.006462 0.302861 0.583599 0.807512 0.951476 0.999978 0.946926 0.796535 0.563191 0.270236 0.052250 0.370448 0.650329 0.861310 0.979704 0.991480 0.894101 0.697116 0.421416 0.097183 0.239292 0.549625 0.797719 0.954026 0.999208 0.926685 0.743764 0.471125 0.140676 0.208056 0.532560 0.792542 0.954987 0.998500 0.916308 0.717493 0.426230 0.079060 0.279569 0.602906 0.848019 0.981595 0.984629 0.855349 0.609873 0.280455 0.088552 0.446552 0.743613 0.937479 0.999743 0.920224 0.708857 0.394750 0.022409 0.354409 0.680382 0.906781 0.998914 0.941642 0.742137 0.429306 0.049866 0.338436 0.675546 0.908408 0.999479 0.933015 0.718074 0.387621 0.006236 0.400287 0.730278 0.941459 0.997846 0.888623 0.630509 0.265548 0.145444 0.532880 0.830136 0.985109 0.969609 0.784788 0.461588 0.055874 0.360947 0.714411 0.940323 0.996649 0.871619 0.586539 0.192547 0.238263 0.625839 0.897095 0.999812 0.913023 0.651659 0.264426 0.174960 0.581565 0.875628 0.998395 0.924134 0.665944 0.273903 0.174278 0.588410 0.883986 0.999552 0.909836 0.631694 0.221436 0.236221 0.645401 0.919151 0.998152 0.863920 0.543592 0.104920 0.357692 0.743308
1.000000 1.000000 1.000000 1.000000 1.000000 1.000000 1.000000 1.000000 1.000000 1.000000 1.000000 1.000000 1.000000 1.000000 1.000000 1.000000 1.000000 1.000000 1.000000 1.000000 1.000000 1.000000 1.000000 1.000000 1.000000 1.000000 1.000000 1.000000 1.000000 1.000000 1.000000 1.000000 1.000000 1.000000 1.000000 1.000000 1.000000 1.000000 1.000000 1.000000 1.000000 1.000000 1.000000 1.000000 1.000000 1.000000 1.000000 1.000000 1.000000 1.000000 1.000000 1.000000 0.934654 0.934654 0.934654 0.934654 0.934654 0.934654 0.934654 0.934654 0.934654 0.934654 0.934654 0.934654 0.934654 0.934654 0.934654 0.934654 0.934654 0.934654 0.934654 0.934654 0.934654 0.934654 0.934654 0.934654 0.934654 0.934654 0.934654 0.934654 0.934654 0.934654 0.934654 0.934654 0.934654 0.922778 0.920733 0.923521 0.924473 0.924368 0.923903 0.923633 0.923934 0.925404 0.927200 0.948520 0.950795 0.951390 0.952528 0.952594 0.955218 0.953570 0.958291 0.968976 0.968343 0.969264 0.963755 0.964515 0.964192 0.963654 0.965497 0.965134 0.963904 0.962437 0.961321 0.961021 0.960814 0.962348 0.962791 0.963108 0.963452 0.963428 0.963345 0.961027 0.958707 0.961161 0.960599 0.959500 0.964954 0.963660 0.965671 0.965672 0.966349 0.967166 0.967382 0.967553 0.961643 0.960446 0.958601 0.944330 0.938715 0.935100 0.937872 0.940906 0.938462 0.933520 0.931571 0.933727 0.925527 0.925046 0.916773 0.916155 0.901924 0.895365 0.885654 0.887253 0.888400 0.888612 0.885871 0.874780 0.864301 0.861411 0.865078 0.858455 0.855199 0.871256 0.867168 0.869482 0.872273 0.874125 0.879894 0.870855 0.865755 0.861518 0.857415 0.856593 0.858856 0.862341 0.864583 0.859255 0.851207 0.854730 0.847875 0.849249 0.854555 0.854128 0.848185 0.845228 0.845777 0.846954 0.842388 0.848286 0.835824 0.831934 0.831648 0.826666 0.824398 0.817146 0.816444 0.817609 0.820988 0.809734 0.815877 0.785880 0.796799 0.790919 0.798746 0.797181 0.792053 0.793063 0.775106 0.766301 0.762756 0.774081 0.784517 0.763469 0.760300 0.755468 0.737429 0.744526 0.752627 0.746322 0.743667 0.731938 0.741776 0.740952 0.742370 0.734945 0.715217 0.721153 0.731832 0.738918 0.714139 0.707210 0.702207 0.708594 0.705034 0.694517 0.703117 0.668756 0.658027 0.627026 0.620186 0.635080 0.625189 0.601111 0.585793 0.542002 0.541167 0.539881 0.538555 0.520521 0.521373 0.507682 0.512617 0.537888 0.522318 0.537640 0.541375 0.536607 0.553558 0.445745 0.453017 0.431232 0.432919 0.440382 0.435052 0.406194 0.418363 0.420053 0.429659 0.419612 0.404855 0.422108 0.404762 0.405504 0.420337 0.399452 0.392995 0.407324 0.422068 0.423837 0.409497 0.404951 0.410760 0.415994 0.357923 0.351115 0.376929 0.332042 0.330770 0.311019 0.329946 0.313448 0.335790 0.323019 0.329874 0.339827 0.298262 0.314333 0.297604 0.323602 0.336423 0.330258 0.308822 0.303217 0.320505 0.252601 0.262024 0.291132 0.272440 0.339670 0.283826 0.282754 0.200496 0.257628 0.228943 0.241679 0.218901 0.171643 0.164636 0.161015 0.140347 0.134510 0.143889 0.132556 0.105240 0.060558 0.066053 0.051922 0.067169 0.080510 0.050752 0.046365 0.046365 0.046365 0.046365 0.025362 0.025362 0.025362 0.025362 0.025362 0.025362 0.025362 0.025362 0.025362 0.025362 0.025362 0.025362 0.025362 0.025362 -0.070609 -0.070609 -0.070609 -0.070609 -0.070609 -0.070609 -0.070609 -0.070609 -0.070609 -0.070609 -0.070609 -0.070609
0.000000 0.000000 0.000000 0.000000 0.000000 0.000000 0.000000 0.000000 0.000000 0.000000 0.000000 0.000000 0.000000 0.000000 0.000000 0.000000 0.000000 0.000000 0.000000 0.000000 0.000000 0.000000 0.000000 0.000000 0.000000 7.000000 4.000000 0.000000 0.000000 0.000000 0.000000 0.000000 0.000000 0.000000 0.000000 0.000000 0.000000 0.000000 0.000000 0.000000 0.000000 0.000000 0.000000 0.000000 0.000000 0.000000 0.000000 0.000000 0.000000 0.000000 0.000000 0.000000 0.209657 0.209657 0.209657 0.209657 0.209657 0.209657 0.209657 0.209657 0.209657 0.209657 0.209657 0.209657 0.209657 0.209657 0.209657 0.209657 0.209657 0.209657 0.209657 0.209657 0.209657 0.209657 0.209657 0.209657 0.209657 0.209657 0.209657 0.209657 0.209657 0.209657 0.209657 0.209657 0.209657 0.244339 0.244339 0.244339 0.244339 0.244339 0.244339 0.244339 0.244339 0.244339 0.244339 0.244339 0.244339 0.244339 0.244339 0.244339 0.244339 0.244339 0.244339 0.244339 0.244339 0.244339 0.244339 0.244339 0.244339 0.244339 0.260378 0.260378 0.260378 0.260378 0.260378 0.260378 0.260378 0.260378 0.260378 0.260378 0.260378 0.260378 0.260378 0.260378 0.260378 0.260378 0.260378 0.260378 0.260378 0.260378 0.269680 0.269680 0.269680 0.269680 0.269680 0.269680 0.269680 0.269680 0.269680 0.269680 0.269680 0.269680 0.269680 0.269680 0.269680 0.269680 0.269680 0.269680 0.269680 0.269680 0.269680 0.269680 0.269680 0.269680 0.269680 0.269680 0.269680 0.269680 0.269680 0.269680 0.269680 0.269680 0.269680 0.280056 0.280056 0.280056 0.280056 0.280056 0.280056 0.280056 0.280056 0.280056 0.280056 0.280056 0.280056 0.280056 0.280056 0.280056 0.280056 0.280056 0.280056 0.280056 0.280056 0.280056 0.280056 0.280056 0.280056 0.280056 0.280056 0.280056 0.285714 0.285714 0.285714 0.285714 0.285714 0.285714 0.285714 0.285714 0.285714 0.285714 0.285714 0.285714 0.274721 0.274721 0.274721 0.274721 0.274721 0.274721 0.274721 0.274721 0.274721 0.274721 0.274721 0.274721 0.280056 0.280056 0.280056 0.280056 0.280056 0.280056 0.280056 0.280056 0.280056 0.280056 0.280056 0.285714 0.285714 0.285714 0.285714 0.285714 0.285714 0.285714 0.285714 0.285714 0.285714 0.280056 0.280056 0.280056 0.280056 0.280056 0.280056 0.280056 0.280056 0.280056 0.280056 0.274721 0.274721 0.274721 0.274721 0.274721 0.274721 0.274721 0.274721 0.274721 0.274721 0.280056 0.280056 0.280056 0.280056 0.280056 0.280056 0.280056 0.280056 0.280056 0.274721 0.274721 0.274721 0.274721 0.274721 0.274721 0.274721 0.274721 0.274721 0.269680 0.269680 0.269680 0.269680 0.269680 0.269680 0.269680 0.269680 0.269680 0.280056 0.280056 0.280056 0.280056 0.280056 0.280056 0.280056 0.280056 0.260378 0.260378 0.260378 0.260378 0.260378 0.260378 0.260378 0.260378 0.260378 0.269680 0.269680 0.269680 0.269680 0.269680 0.269680 0.269680 0.269680 0.285714 0.285714 0.285714 0.285714 0.285714 0.285714 0.285714 0.264906 0.264906 0.264906 0.264906 0.264906 0.264906 0.264906 0.264906 0.274721 0.274721 0.274721 0.274721 0.274721 0.274721 0.274721 0.256074 0.256074 0.256074 0.256074 0.256074 0.256074 0.256074 0.256074 0.264906 0.264906 0.264906 0.264906 0.264906 0.264906 0.264906 0.264906 0.264906 0.264906 0.264906 0.264906 0.264906 0.264906 0.280056 0.280056 0.280056 0.280056 0.280056 0.280056 0.280056 0.280056 0.280056 0.280056 0.280056 0.280056
