# Output from CTFFind version 4.1.9, run on 2019-11-02 17:59:17
# Input file: stack16_bm3d_averaged_1_1.75_0_3000_half.mrc ; Number of micrographs: 1
# Pixel size: 3.000 Angstroms ; acceleration voltage: 300.0 keV ; spherical aberration: 0.00 mm ; amplitude contrast: 0.07
# Box size: 512 pixels ; min. res.: 30.0 Angstroms ; max. res.: 5.0 Angstroms ; min. def.: 5000.0 um; max. def. 50000.0 um; num. frames averaged: 1
# 6 lines per micrograph: #1 - spatial frequency (1/Angstroms); #2 - 1D rotational average of spectrum (assuming no astigmatism); #3 - 1D rotational average of spectrum; #4 - CTF fit; #5 - cross-correlation between spectrum and CTF fit; #6 - 2sigma of expected cross correlation of noise
0.000000 0.000651 0.001302 0.001953 0.002604 0.003255 0.003906 0.004557 0.005208 0.005859 0.006510 0.007161 0.007812 0.008464 0.009115 0.009766 0.010417 0.011068 0.011719 0.012370 0.013021 0.013672 0.014323 0.014974 0.015625 0.016276 0.016927 0.017578 0.018229 0.018880 0.019531 0.020182 0.020833 0.021484 0.022135 0.022786 0.023438 0.024089 0.024740 0.025391 0.026042 0.026693 0.027344 0.027995 0.028646 0.029297 0.029948 0.030599 0.031250 0.031901 0.032552 0.033203 0.033854 0.034505 0.035156 0.035807 0.036458 0.037109 0.037760 0.038411 0.039062 0.039714 0.040365 0.041016 0.041667 0.042318 0.042969 0.043620 0.044271 0.044922 0.045573 0.046224 0.046875 0.047526 0.048177 0.048828 0.049479 0.050130 0.050781 0.051432 0.052083 0.052734 0.053385 0.054036 0.054688 0.055339 0.055990 0.056641 0.057292 0.057943 0.058594 0.059245 0.059896 0.060547 0.061198 0.061849 0.062500 0.063151 0.063802 0.064453 0.065104 0.065755 0.066406 0.067057 0.067708 0.068359 0.069010 0.069661 0.070312 0.070964 0.071615 0.072266 0.072917 0.073568 0.074219 0.074870 0.075521 0.076172 0.076823 0.077474 0.078125 0.078776 0.079427 0.080078 0.080729 0.081380 0.082031 0.082682 0.083333 0.083984 0.084635 0.085286 0.085938 0.086589 0.087240 0.087891 0.088542 0.089193 0.089844 0.090495 0.091146 0.091797 0.092448 0.093099 0.093750 0.094401 0.095052 0.095703 0.096354 0.097005 0.097656 0.098307 0.098958 0.099609 0.100260 0.100911 0.101562 0.102214 0.102865 0.103516 0.104167 0.104818 0.105469 0.106120 0.106771 0.107422 0.108073 0.108724 0.109375 0.110026 0.110677 0.111328 0.111979 0.112630 0.113281 0.113932 0.114583 0.115234 0.115885 0.116536 0.117188 0.117839 0.118490 0.119141 0.119792 0.120443 0.121094 0.121745 0.122396 0.123047 0.123698 0.124349 0.125000 0.125651 0.126302 0.126953 0.127604 0.128255 0.128906 0.129557 0.130208 0.130859 0.131510 0.132161 0.132812 0.133464 0.134115 0.134766 0.135417 0.136068 0.136719 0.137370 0.138021 0.138672 0.139323 0.139974 0.140625 0.141276 0.141927 0.142578 0.143229 0.143880 0.144531 0.145182 0.145833 0.146484 0.147135 0.147786 0.148438 0.149089 0.149740 0.150391 0.151042 0.151693 0.152344 0.152995 0.153646 0.154297 0.154948 0.155599 0.156250 0.156901 0.157552 0.158203 0.158854 0.159505 0.160156 0.160807 0.161458 0.162109 0.162760 0.163411 0.164062 0.164714 0.165365 0.166016 0.166667 0.167318 0.167969 0.168620 0.169271 0.169922 0.170573 0.171224 0.171875 0.172526 0.173177 0.173828 0.174479 0.175130 0.175781 0.176432 0.177083 0.177734 0.178385 0.179036 0.179688 0.180339 0.180990 0.181641 0.182292 0.182943 0.183594 0.184245 0.184896 0.185547 0.186198 0.186849 0.187500 0.188151 0.188802 0.189453 0.190104 0.190755 0.191406 0.192057 0.192708 0.193359 0.194010 0.194661 0.195312 0.195964 0.196615 0.197266 0.197917 0.198568 0.199219 0.199870 0.200521 0.201172 0.201823 0.202474 0.203125 0.203776 0.204427 0.205078 0.205729 0.206380 0.207031 0.207682 0.208333 0.208984 0.209635 0.210286 0.210938 0.211589 0.212240 0.212891 0.213542 0.214193 0.214844 0.215495 0.216146 0.216797 0.217448 0.218099 0.218750 0.219401 0.220052 0.220703 0.221354 0.222005 0.222656 0.223307 0.223958 0.224609 0.225260 0.225911 0.226562 0.227214 0.227865 0.228516 0.229167 0.229818 0.230469 0.231120 0.231771 0.232422 0.233073 0.233724 0.234375 0.235026 0.235677
       0.34533        0.34533        0.34533        0.34533        0.34533        0.34533        0.34533        0.34533        0.34533        0.34533        0.34533        0.34533        0.34533        0.34533        0.34533        0.34533        0.34533        0.34533        0.34533        0.34533        0.34533        0.34533        0.34533        0.34533        0.34533        0.34533        0.34533        0.34533        0.34533        0.34533        0.34533        0.34533        0.34533        0.34533        0.34533        0.34533        0.34533        0.34533        0.34533        0.34533        0.34533        0.34533        0.34533        0.34533        0.34533        0.34533        0.34533        0.34533        0.34533        0.34533        0.34533        0.48836        0.69875        0.45865       -0.10629       -0.41064       -0.56718       -0.65614       -0.73883       -0.75518       -0.87089       -0.91434       -0.75775       -0.92486       -0.87070       -1.02415       -1.09497       -0.98601       -0.95600       -0.88123       -0.85057       -0.74488       -0.63628       -0.49541       -0.41797       -0.21982       -0.11668       -0.02401        0.19884        0.24292        0.31098        0.38487        0.43561        0.51222        0.58330        0.60572        0.59322        0.50329        0.55067        0.48518        0.39353        0.32967        0.20617        0.17420        0.09899       -0.05408       -0.11505       -0.08634        0.01650       -0.01648        0.01865        0.02898        0.20439        0.21739        0.39167        0.45978        0.56760        0.70782        0.77055        0.73534        0.70632        0.69982        0.58853        0.54011        0.39760        0.28314        0.19922        0.15487        0.07244        0.03116        0.02423        0.06629        0.08756        0.28100        0.41541        0.50608        0.58871        0.64106        0.70668        0.66030        0.65699        0.67426        0.60921        0.48792        0.29073        0.24156        0.20792        0.12796        0.04253        0.09406        0.10887        0.25366        0.35344        0.42109        0.50958        0.54853        0.65576        0.60179        0.55514        0.51157        0.36461        0.20431        0.21476        0.16071        0.12839        0.12341        0.21323        0.25945        0.36441        0.44398        0.43690        0.55414        0.51519        0.45843        0.46011        0.38559        0.32719        0.27085        0.21089        0.23137        0.21630        0.21353        0.31799        0.45410        0.48873        0.48556        0.55305        0.50256        0.45271        0.40249        0.29625        0.23371        0.23723        0.24013        0.26243        0.27595        0.33433        0.44323        0.50476        0.49944        0.46225        0.41367        0.38770        0.35863        0.24808        0.22980        0.25647        0.29858        0.36101        0.36795        0.39870        0.41740        0.45062        0.38004        0.34966        0.31834        0.31680        0.27111        0.26170        0.31056        0.35093        0.41428        0.42206        0.39599        0.39099        0.40393        0.35025        0.28921        0.30083        0.28978        0.30546        0.35950        0.37737        0.41402        0.36030        0.36273        0.39151        0.34528        0.30740        0.28646        0.28738        0.33755        0.33394        0.32926        0.37255        0.39823        0.34328        0.35772        0.30353        0.30620        0.28502        0.28086        0.30534        0.32998        0.38530        0.36632        0.35160        0.32686        0.28717        0.27663        0.30051        0.28606        0.31639        0.37060        0.39829        0.33703        0.32297        0.31033        0.30501        0.30179        0.27998        0.31514        0.34132        0.33039        0.34380        0.32508        0.35374        0.33261        0.29641        0.31142        0.32231        0.34647        0.34581        0.31707        0.31690        0.30298        0.32833        0.31635        0.33821        0.39723        0.33784        0.36011        0.31497        0.31048        0.29313        0.31350        0.29510        0.31538        0.32835        0.34572        0.36102        0.30563        0.32516        0.31901        0.30286        0.29418        0.29967        0.32676        0.34000        0.35694        0.34150        0.31745        0.27233        0.25409        0.31171        0.35610        0.31227        0.29692        0.28672        0.29391        0.32677        0.31052        0.29765        0.34800        0.33230        0.31444        0.24638        0.28267        0.29020        0.29289        0.33269        0.32875        0.35224        0.34726        0.28819        0.28371        0.29852        0.27856        0.30701        0.26953        0.25879        0.27126        0.27674        0.29523        0.28384        0.28933        0.27086        0.30770        0.32783        0.32336        0.27574        0.27755        0.23673        0.26447        0.24505        0.30287        0.34955        0.23371        0.24524        0.29857        0.23986        0.23779        0.32145        0.25897        0.12256        0.16423        0.21820        0.29357        0.28839        0.14216        0.06261       -0.37423       -0.79416
3.059141 3.021081 2.983266 2.945695 2.908369 2.871288 2.834452 2.797861 2.761514 2.725413 2.689556 2.653944 2.618576 2.583454 2.548576 2.513943 2.479555 2.445411 2.411513 2.377859 2.344450 2.311286 2.278366 2.245692 2.213262 2.181077 2.149137 2.117441 2.085991 2.054785 2.023824 1.993108 1.962636 1.932410 1.902428 1.872691 1.843199 1.813951 1.784948 1.756191 1.727677 1.699409 1.671386 1.643607 1.616073 1.588784 1.561740 1.534940 1.508386 1.482076 1.456011 1.512882 1.694007 1.614195 0.969929 0.681311 0.478445 0.431995 0.325120 0.268422 0.197438 0.017068 0.196621 0.078633 -0.011333 -0.061838 -0.199724 -0.153895 -0.087206 -0.093570 -0.091000 0.009961 0.036058 0.230240 0.153899 0.362410 0.442112 0.475730 0.707627 0.697607 0.709083 0.835994 0.817434 0.842697 0.922409 0.901206 0.937884 0.749667 0.838648 0.837732 0.622229 0.607853 0.455818 0.438334 0.374480 0.213568 0.117061 0.097697 0.211540 0.141117 0.199988 0.113732 0.302603 0.282839 0.454181 0.413847 0.583488 0.648778 0.765891 0.703307 0.661523 0.664276 0.530402 0.505058 0.356870 0.298253 0.122740 0.152924 0.004185 -0.006898 -0.039866 -0.029252 0.001280 0.040194 0.274359 0.326007 0.384917 0.395758 0.469827 0.516937 0.473177 0.507447 0.393841 0.396844 0.155384 0.072810 0.075757 -0.007311 -0.129478 -0.043081 -0.120407 0.012612 0.141349 0.164151 0.255095 0.268522 0.377561 0.457968 0.353860 0.390783 0.287493 0.122448 0.049093 0.057114 0.025971 0.010667 0.007609 0.110295 0.131114 0.273479 0.235137 0.299451 0.367476 0.246182 0.249244 0.222860 0.131655 0.084680 0.042686 0.023654 0.038792 -0.011738 0.029782 0.181610 0.224908 0.255688 0.277330 0.239646 0.235800 0.149696 0.109400 -0.019696 -0.009721 -0.011527 0.013282 0.003560 0.032991 0.105652 0.188017 0.207653 0.226522 0.135058 0.139172 0.077986 0.053442 -0.061915 -0.011089 0.004614 0.054040 0.066783 0.080361 0.147470 0.093897 0.168201 0.063712 0.045916 0.047333 0.026444 0.002029 0.003451 0.044254 0.084325 0.124272 0.137224 0.056453 0.117844 0.094016 0.005417 0.009980 0.007360 -0.004828 0.040986 0.059596 0.099080 0.092033 0.054473 0.070554 0.080273 0.027218 0.005397 -0.006957 -0.003130 0.060823 0.024514 0.034608 0.078831 0.085185 0.063877 0.034035 0.011874 0.007238 -0.009161 -0.013590 0.012210 0.049716 0.105356 0.057239 0.062829 0.029144 -0.012587 -0.003326 0.018666 0.010667 0.024296 0.102520 0.068218 0.011220 0.048039 -0.000704 0.030931 -0.003650 -0.007503 0.036991 0.053335 0.021055 0.041281 0.023688 0.056575 0.022485 -0.005693 0.015379 0.033508 0.044047 0.036452 0.016021 -0.006992 -0.010178 0.018341 0.007958 0.041317 0.073544 0.033959 0.021842 0.003218 -0.003497 -0.011857 0.008106 -0.000482 0.009049 0.004561 0.063753 0.041716 0.015753 0.034661 0.002300 0.009399 0.000685 -0.003980 0.038229 0.057341 0.075424 0.049641 0.034066 -0.021162 -0.008022 0.020496 0.076594 0.017534 0.037157 -0.007459 0.009340 0.038938 0.042800 0.012102 0.068506 0.050863 0.043456 -0.037673 0.005314 0.036129 0.007326 0.034590 0.070542 0.064314 0.054946 0.000174 0.007104 -0.000895 -0.012617 0.022161 -0.042777 -0.025587 -0.030599 -0.029545 -0.006919 -0.025323 0.005531 -0.093061 -0.022651 -0.004518 -0.010847 -0.074598 -0.026371 -0.114671 -0.040529 -0.079057 -0.019112 0.057522 -0.112031 -0.049692 0.036412 -0.019662 -0.059305 0.048705 0.034082 -0.068212 -0.057418 0.021504 0.261959 0.277528 0.078386 0.057192 -0.697909
0.072396 0.073046 0.074995 0.078242 0.082787 0.088628 0.095763 0.104188 0.113901 0.124895 0.137165 0.150701 0.165495 0.181532 0.198799 0.217275 0.236940 0.257768 0.279727 0.302783 0.326894 0.352015 0.378090 0.405060 0.432858 0.461405 0.490618 0.520403 0.550656 0.581262 0.612098 0.643028 0.673906 0.704575 0.734864 0.764595 0.793574 0.821600 0.848459 0.873927 0.897772 0.919751 0.939618 0.957117 0.971989 0.983974 0.992809 0.998235 0.999997 0.997846 0.991544 0.980867 0.965609 0.945582 0.920626 0.890607 0.855426 0.815022 0.769371 0.718500 0.662483 0.601446 0.535576 0.465116 0.390375 0.311727 0.229611 0.144535 0.057074 0.032130 0.122371 0.212883 0.302842 0.391375 0.477563 0.560456 0.639076 0.712433 0.779536 0.839408 0.891100 0.933710 0.966395 0.988394 0.999044 0.997799 0.984244 0.958117 0.919324 0.867952 0.804282 0.728797 0.642196 0.545388 0.439500 0.325868 0.206028 0.081705 0.045210 0.172679 0.298553 0.420599 0.536545 0.644120 0.741102 0.825366 0.894939 0.948047 0.983173 0.999103 0.994974 0.970317 0.925093 0.859718 0.775087 0.672575 0.554043 0.421809 0.278625 0.127633 0.027696 0.183637 0.336288 0.481674 0.615844 0.734991 0.835560 0.914372 0.968729 0.996530 0.996358 0.967564 0.910334 0.825716 0.715647 0.582926 0.431179 0.264774 0.088720 0.091470 0.269945 0.440698 0.597773 0.735474 0.848591 0.932606 0.983902 0.999937 0.979397 0.922300 0.830066 0.705520 0.552855 0.377516 0.186045 0.014144 0.215034 0.408320 0.585746 0.739476 0.862447 0.948726 0.993822 0.994956 0.951263 0.863919 0.736167 0.573259 0.382279 0.171885 0.048060 0.266927 0.473825 0.658150 0.810140 0.921423 0.985512 0.998230 0.958028 0.866175 0.726798 0.546765 0.335411 0.104096 0.134369 0.366402 0.578432 0.757694 0.893035 0.975640 0.999670 0.962729 0.866144 0.715018 0.518044 0.287074 0.036469 0.217761 0.458953 0.670898 0.838935 0.951024 0.998661 0.977600 0.888296 0.736041 0.530748 0.286392 0.020129 0.248856 0.500721 0.716426 0.879212 0.975952 0.998296 0.943473 0.814698 0.621109 0.377228 0.101967 0.182783 0.453849 0.688664 0.867180 0.973641 0.998056 0.937250 0.795345 0.583631 0.319791 0.026518 0.270365 0.544138 0.769629 0.925540 0.996571 0.975024 0.861755 0.666355 0.406476 0.106377 0.205268 0.498059 0.742828 0.914597 0.995226 0.975442 0.856052 0.648145 0.372223 0.056331 0.266719 0.562689 0.799575 0.951120 0.999845 0.939214 0.774656 0.523286 0.212305 0.123818 0.447092 0.720267 0.911191 0.996693 0.965552 0.820148 0.576533 0.262858 0.083715 0.421329 0.708461 0.909058 0.997206 0.960629 0.802601 0.541925 0.210912 0.148464 0.489781 0.768163 0.946236 0.999303 0.918958 0.714627 0.412731 0.053481 0.314319 0.639839 0.877268 0.992383 0.967674 0.805238 0.526956 0.171793 0.209455 0.561328 0.831757 0.979877 0.982393 0.837497 0.565635 0.206909 0.184613 0.548920 0.829253 0.981042 0.979209 0.822571 0.534581 0.160106 0.241307 0.604810 0.870711 0.994416 0.954147 0.755076 0.429049 0.029807 0.375678 0.718306 0.938723 0.997759 0.883694 0.614892 0.237214 0.183514 0.572803 0.860668 0.994361 0.948283 0.729244 0.375880 0.047809 0.463824 0.794443 0.976843 0.975292 0.788489 0.450525 0.025060 0.406421 0.760079 0.966092 0.982688 0.804982 0.466680 0.034111 0.406478 0.766012 0.970654 0.977239 0.782771 0.425829 0.020654 0.463989 0.810869 0.987112 0.953840 0.716467 0.324402 0.138821 0.573053
1.000000 1.000000 1.000000 1.000000 1.000000 1.000000 1.000000 1.000000 1.000000 1.000000 1.000000 1.000000 1.000000 1.000000 1.000000 1.000000 1.000000 1.000000 1.000000 1.000000 1.000000 1.000000 1.000000 1.000000 1.000000 1.000000 1.000000 1.000000 1.000000 1.000000 1.000000 1.000000 1.000000 1.000000 1.000000 1.000000 1.000000 1.000000 1.000000 1.000000 1.000000 1.000000 1.000000 1.000000 1.000000 1.000000 1.000000 1.000000 1.000000 1.000000 1.000000 1.000000 0.936954 0.936954 0.936954 0.936954 0.936954 0.936954 0.936954 0.936954 0.936954 0.936954 0.936954 0.936954 0.936954 0.936954 0.936954 0.936954 0.936954 0.936954 0.936954 0.936954 0.936954 0.936954 0.936954 0.936954 0.936954 0.936954 0.936954 0.936954 0.936954 0.936954 0.936954 0.936954 0.936954 0.929608 0.930962 0.933690 0.934674 0.934648 0.934244 0.933969 0.934180 0.935027 0.937230 0.953767 0.955051 0.955545 0.956796 0.955530 0.958508 0.956926 0.956807 0.967501 0.966375 0.966952 0.959911 0.961423 0.960504 0.959567 0.960316 0.960625 0.958789 0.956726 0.955108 0.954504 0.954147 0.955871 0.956305 0.956265 0.957685 0.957632 0.957346 0.953933 0.952524 0.953943 0.955883 0.955168 0.961014 0.959318 0.962626 0.963403 0.961983 0.961894 0.962103 0.962310 0.953871 0.948390 0.943527 0.931597 0.922575 0.919375 0.922255 0.924212 0.923314 0.918888 0.917803 0.915470 0.910797 0.909984 0.910457 0.911975 0.908446 0.905189 0.888776 0.888425 0.891473 0.891394 0.889053 0.881591 0.878317 0.879404 0.882373 0.880181 0.877011 0.893110 0.887289 0.891667 0.894458 0.897665 0.901374 0.896135 0.893577 0.889920 0.886429 0.881394 0.882173 0.872860 0.875702 0.867871 0.856165 0.849283 0.852676 0.861899 0.870173 0.878115 0.877071 0.877770 0.876958 0.862850 0.865531 0.852918 0.853830 0.858117 0.864033 0.862433 0.859557 0.863839 0.861836 0.858981 0.862078 0.858005 0.855933 0.845787 0.845240 0.848896 0.864408 0.866009 0.851796 0.843422 0.831067 0.837392 0.840476 0.839964 0.841684 0.835801 0.837283 0.828778 0.817978 0.819500 0.824785 0.818315 0.823547 0.824101 0.829323 0.829915 0.828599 0.822509 0.821244 0.827622 0.794815 0.803578 0.806595 0.798190 0.801176 0.793812 0.786525 0.785485 0.782771 0.762963 0.776972 0.770975 0.737746 0.734127 0.741268 0.734394 0.723266 0.722667 0.724191 0.705794 0.686971 0.653416 0.650819 0.643083 0.637804 0.644752 0.633395 0.619458 0.608175 0.578381 0.592833 0.596647 0.591034 0.591278 0.585670 0.579872 0.572001 0.562902 0.559577 0.564260 0.567819 0.534182 0.527590 0.536367 0.507455 0.505230 0.505268 0.492622 0.475024 0.480779 0.470756 0.495473 0.505790 0.475602 0.464474 0.473946 0.491663 0.502542 0.505649 0.493273 0.473607 0.497996 0.475355 0.459258 0.476139 0.481246 0.474301 0.480782 0.472342 0.496642 0.486795 0.465102 0.496797 0.479179 0.477130 0.481713 0.473920 0.467099 0.463515 0.460002 0.411073 0.425509 0.403112 0.330790 0.343085 0.334715 0.322024 0.316276 0.292940 0.297343 0.269137 0.247233 0.247968 0.244455 0.206434 0.161704 0.168859 0.170619 0.141512 0.114256 0.122248 0.078870 0.071557 0.093388 0.095048 0.103290 0.095974 0.121320 0.121320 0.121320 0.121320 0.121320 0.121320 0.121320 0.121320 0.121320 0.121320 0.121320 0.121320 0.121320 0.121320 0.148425 0.148425 0.148425 0.148425 0.148425 0.148425 0.148425 0.148425 0.148425 0.148425 0.148425 0.148425
0.000000 0.000000 0.000000 0.000000 0.000000 0.000000 0.000000 0.000000 0.000000 0.000000 0.000000 0.000000 0.000000 0.000000 0.000000 0.000000 0.000000 0.000000 0.000000 0.000000 0.000000 0.000000 0.000000 0.000000 0.000000 7.000000 4.000000 0.000000 0.000000 0.000000 0.000000 0.000000 0.000000 0.000000 0.000000 0.000000 0.000000 0.000000 0.000000 0.000000 0.000000 0.000000 0.000000 0.000000 0.000000 0.000000 0.000000 0.000000 0.000000 0.000000 0.000000 0.000000 0.209657 0.209657 0.209657 0.209657 0.209657 0.209657 0.209657 0.209657 0.209657 0.209657 0.209657 0.209657 0.209657 0.209657 0.209657 0.209657 0.209657 0.209657 0.209657 0.209657 0.209657 0.209657 0.209657 0.209657 0.209657 0.209657 0.209657 0.209657 0.209657 0.209657 0.209657 0.209657 0.209657 0.244339 0.244339 0.244339 0.244339 0.244339 0.244339 0.244339 0.244339 0.244339 0.244339 0.244339 0.244339 0.244339 0.244339 0.244339 0.244339 0.244339 0.244339 0.244339 0.244339 0.244339 0.244339 0.244339 0.244339 0.244339 0.260378 0.260378 0.260378 0.260378 0.260378 0.260378 0.260378 0.260378 0.260378 0.260378 0.260378 0.260378 0.260378 0.260378 0.260378 0.260378 0.260378 0.260378 0.260378 0.260378 0.269680 0.269680 0.269680 0.269680 0.269680 0.269680 0.269680 0.269680 0.269680 0.269680 0.269680 0.269680 0.269680 0.269680 0.269680 0.269680 0.269680 0.269680 0.269680 0.269680 0.269680 0.269680 0.269680 0.269680 0.269680 0.269680 0.269680 0.269680 0.269680 0.269680 0.269680 0.269680 0.269680 0.280056 0.280056 0.280056 0.280056 0.280056 0.280056 0.280056 0.280056 0.280056 0.280056 0.280056 0.280056 0.280056 0.280056 0.280056 0.280056 0.280056 0.280056 0.280056 0.280056 0.280056 0.280056 0.280056 0.280056 0.280056 0.280056 0.280056 0.274721 0.274721 0.274721 0.274721 0.274721 0.274721 0.274721 0.274721 0.274721 0.274721 0.274721 0.274721 0.274721 0.285714 0.285714 0.285714 0.285714 0.285714 0.285714 0.285714 0.285714 0.285714 0.285714 0.285714 0.280056 0.280056 0.280056 0.280056 0.280056 0.280056 0.280056 0.280056 0.280056 0.280056 0.280056 0.274721 0.274721 0.274721 0.274721 0.274721 0.274721 0.274721 0.274721 0.274721 0.274721 0.274721 0.280056 0.280056 0.280056 0.280056 0.280056 0.280056 0.280056 0.280056 0.280056 0.280056 0.285714 0.285714 0.285714 0.285714 0.285714 0.285714 0.285714 0.285714 0.285714 0.269680 0.269680 0.269680 0.269680 0.269680 0.269680 0.269680 0.269680 0.269680 0.269680 0.274721 0.274721 0.274721 0.274721 0.274721 0.274721 0.274721 0.274721 0.274721 0.285714 0.285714 0.285714 0.285714 0.285714 0.285714 0.285714 0.285714 0.264906 0.264906 0.264906 0.264906 0.264906 0.264906 0.264906 0.264906 0.264906 0.274721 0.274721 0.274721 0.274721 0.274721 0.274721 0.274721 0.274721 0.269680 0.269680 0.269680 0.269680 0.269680 0.269680 0.269680 0.269680 0.269680 0.269680 0.269680 0.269680 0.269680 0.269680 0.269680 0.269680 0.280056 0.280056 0.280056 0.280056 0.280056 0.280056 0.280056 0.260378 0.260378 0.260378 0.260378 0.260378 0.260378 0.260378 0.260378 0.269680 0.269680 0.269680 0.269680 0.269680 0.269680 0.269680 0.264906 0.264906 0.264906 0.264906 0.264906 0.264906 0.264906 0.264906 0.264906 0.264906 0.264906 0.264906 0.264906 0.264906 0.260378 0.260378 0.260378 0.260378 0.260378 0.260378 0.260378 0.260378 0.260378 0.260378 0.260378 0.260378
