# Output from CTFFind version 4.1.9, run on 2019-11-03 20:08:10
# Input file: stack16_bm3d_averaged_1_6.0_0_1500_half.mrc ; Number of micrographs: 1
# Pixel size: 3.000 Angstroms ; acceleration voltage: 300.0 keV ; spherical aberration: 0.00 mm ; amplitude contrast: 0.07
# Box size: 512 pixels ; min. res.: 30.0 Angstroms ; max. res.: 5.0 Angstroms ; min. def.: 5000.0 um; max. def. 50000.0 um; num. frames averaged: 1
# 6 lines per micrograph: #1 - spatial frequency (1/Angstroms); #2 - 1D rotational average of spectrum (assuming no astigmatism); #3 - 1D rotational average of spectrum; #4 - CTF fit; #5 - cross-correlation between spectrum and CTF fit; #6 - 2sigma of expected cross correlation of noise
0.000000 0.000651 0.001302 0.001953 0.002604 0.003255 0.003906 0.004557 0.005208 0.005859 0.006510 0.007161 0.007812 0.008464 0.009115 0.009766 0.010417 0.011068 0.011719 0.012370 0.013021 0.013672 0.014323 0.014974 0.015625 0.016276 0.016927 0.017578 0.018229 0.018880 0.019531 0.020182 0.020833 0.021484 0.022135 0.022786 0.023438 0.024089 0.024740 0.025391 0.026042 0.026693 0.027344 0.027995 0.028646 0.029297 0.029948 0.030599 0.031250 0.031901 0.032552 0.033203 0.033854 0.034505 0.035156 0.035807 0.036458 0.037109 0.037760 0.038411 0.039062 0.039714 0.040365 0.041016 0.041667 0.042318 0.042969 0.043620 0.044271 0.044922 0.045573 0.046224 0.046875 0.047526 0.048177 0.048828 0.049479 0.050130 0.050781 0.051432 0.052083 0.052734 0.053385 0.054036 0.054688 0.055339 0.055990 0.056641 0.057292 0.057943 0.058594 0.059245 0.059896 0.060547 0.061198 0.061849 0.062500 0.063151 0.063802 0.064453 0.065104 0.065755 0.066406 0.067057 0.067708 0.068359 0.069010 0.069661 0.070312 0.070964 0.071615 0.072266 0.072917 0.073568 0.074219 0.074870 0.075521 0.076172 0.076823 0.077474 0.078125 0.078776 0.079427 0.080078 0.080729 0.081380 0.082031 0.082682 0.083333 0.083984 0.084635 0.085286 0.085938 0.086589 0.087240 0.087891 0.088542 0.089193 0.089844 0.090495 0.091146 0.091797 0.092448 0.093099 0.093750 0.094401 0.095052 0.095703 0.096354 0.097005 0.097656 0.098307 0.098958 0.099609 0.100260 0.100911 0.101562 0.102214 0.102865 0.103516 0.104167 0.104818 0.105469 0.106120 0.106771 0.107422 0.108073 0.108724 0.109375 0.110026 0.110677 0.111328 0.111979 0.112630 0.113281 0.113932 0.114583 0.115234 0.115885 0.116536 0.117188 0.117839 0.118490 0.119141 0.119792 0.120443 0.121094 0.121745 0.122396 0.123047 0.123698 0.124349 0.125000 0.125651 0.126302 0.126953 0.127604 0.128255 0.128906 0.129557 0.130208 0.130859 0.131510 0.132161 0.132812 0.133464 0.134115 0.134766 0.135417 0.136068 0.136719 0.137370 0.138021 0.138672 0.139323 0.139974 0.140625 0.141276 0.141927 0.142578 0.143229 0.143880 0.144531 0.145182 0.145833 0.146484 0.147135 0.147786 0.148438 0.149089 0.149740 0.150391 0.151042 0.151693 0.152344 0.152995 0.153646 0.154297 0.154948 0.155599 0.156250 0.156901 0.157552 0.158203 0.158854 0.159505 0.160156 0.160807 0.161458 0.162109 0.162760 0.163411 0.164062 0.164714 0.165365 0.166016 0.166667 0.167318 0.167969 0.168620 0.169271 0.169922 0.170573 0.171224 0.171875 0.172526 0.173177 0.173828 0.174479 0.175130 0.175781 0.176432 0.177083 0.177734 0.178385 0.179036 0.179688 0.180339 0.180990 0.181641 0.182292 0.182943 0.183594 0.184245 0.184896 0.185547 0.186198 0.186849 0.187500 0.188151 0.188802 0.189453 0.190104 0.190755 0.191406 0.192057 0.192708 0.193359 0.194010 0.194661 0.195312 0.195964 0.196615 0.197266 0.197917 0.198568 0.199219 0.199870 0.200521 0.201172 0.201823 0.202474 0.203125 0.203776 0.204427 0.205078 0.205729 0.206380 0.207031 0.207682 0.208333 0.208984 0.209635 0.210286 0.210938 0.211589 0.212240 0.212891 0.213542 0.214193 0.214844 0.215495 0.216146 0.216797 0.217448 0.218099 0.218750 0.219401 0.220052 0.220703 0.221354 0.222005 0.222656 0.223307 0.223958 0.224609 0.225260 0.225911 0.226562 0.227214 0.227865 0.228516 0.229167 0.229818 0.230469 0.231120 0.231771 0.232422 0.233073 0.233724 0.234375 0.235026 0.235677
       0.34508        0.34508        0.34508        0.34508        0.34508        0.34508        0.34508        0.34508        0.34508        0.34508        0.34508        0.34508        0.34508        0.34508        0.34508        0.34508        0.34508        0.34508        0.34508        0.34508        0.34508        0.34508        0.34508        0.34508        0.34508        0.34508        0.34508        0.34508        0.34508        0.34508        0.34508        0.34508        0.34508        0.34508        0.34508        0.34508        0.34508        0.34508        0.34508        0.34508        0.34508        0.34508        0.34508        0.34508        0.34508        0.34508        0.34508        0.34508        0.34508        0.34508        0.34508        0.42522        0.55589        0.34172       -0.21429       -0.45472       -0.54871       -0.64891       -0.71904       -0.72713       -0.82235       -0.89452       -0.68766       -0.84368       -0.82512       -0.96998       -1.00765       -0.88901       -0.84793       -0.80343       -0.71850       -0.64902       -0.56035       -0.46617       -0.40065       -0.17207       -0.06941        0.03118        0.25384        0.25495        0.31180        0.36974        0.39973        0.51641        0.53612        0.57178        0.53180        0.47167        0.50490        0.52306        0.44525        0.32896        0.21082        0.17787        0.10901        0.00463       -0.01157       -0.02026        0.05248        0.01881        0.07083        0.04464        0.16025        0.19315        0.40589        0.45797        0.54832        0.65711        0.68741        0.71302        0.63507        0.61055        0.53695        0.43813        0.38586        0.27288        0.21498        0.20981        0.09854        0.10658        0.10227        0.08300        0.09354        0.30378        0.41325        0.51978        0.53217        0.57000        0.60742        0.58688        0.57352        0.58188        0.56499        0.46442        0.30254        0.26237        0.25083        0.14544        0.08792        0.16444        0.20130        0.28196        0.35139        0.42375        0.47087        0.52909        0.60009        0.54416        0.50582        0.49894        0.35382        0.27062        0.25639        0.17288        0.19094        0.23029        0.27198        0.27974        0.32275        0.42513        0.45923        0.49810        0.45097        0.44143        0.48364        0.39036        0.32761        0.28459        0.25593        0.22935        0.22743        0.23665        0.33435        0.44077        0.42872        0.48811        0.55222        0.44486        0.41043        0.35434        0.31113        0.26688        0.27843        0.26827        0.28665        0.34374        0.35272        0.43306        0.47123        0.43687        0.45761        0.37224        0.37652        0.35320        0.26747        0.24907        0.24629        0.32568        0.37688        0.36437        0.38817        0.43166        0.43878        0.37360        0.33734        0.31893        0.34894        0.31114        0.27864        0.28121        0.35212        0.36940        0.38596        0.38695        0.38689        0.41586        0.40116        0.31950        0.28709        0.31330        0.34130        0.37353        0.35798        0.40222        0.34132        0.36893        0.39053        0.33466        0.35245        0.31820        0.29856        0.33591        0.33992        0.32627        0.35130        0.36930        0.32530        0.34503        0.31792        0.31423        0.29224        0.31755        0.31450        0.32591        0.36419        0.36923        0.35127        0.30647        0.29674        0.28428        0.32729        0.30905        0.31272        0.36795        0.35675        0.33956        0.31264        0.30305        0.30889        0.27361        0.31124        0.32533        0.33407        0.36856        0.34704        0.30673        0.33314        0.34211        0.32670        0.35389        0.34399        0.31023        0.33132        0.29036        0.32069        0.29339        0.31165        0.28690        0.31902        0.35186        0.32878        0.35252        0.30923        0.32574        0.34835        0.33812        0.31366        0.31619        0.35570        0.33770        0.33321        0.32351        0.31021        0.31053        0.31239        0.32118        0.31983        0.35097        0.33841        0.33719        0.29145        0.28201        0.26612        0.26798        0.36025        0.30937        0.34474        0.29478        0.26038        0.27745        0.36149        0.30632        0.28130        0.30729        0.31482        0.29505        0.26459        0.30526        0.26945        0.28665        0.30395        0.33131        0.33240        0.31894        0.30493        0.26460        0.27070        0.26578        0.27191        0.29265        0.35856        0.29093        0.19775        0.30109        0.28391        0.32079        0.24932        0.29839        0.30098        0.33351        0.28988        0.27567        0.26495        0.24177        0.29970        0.34185        0.34220        0.24583        0.29105        0.23824        0.23094        0.21041        0.33129        0.25006        0.17574        0.12259        0.20925        0.32825        0.22549        0.19034        0.10566       -0.49039       -0.59308
3.170657 3.130533 3.090669 3.051065 3.011721 2.972637 2.933813 2.895249 2.856945 2.818901 2.781117 2.743593 2.706329 2.669325 2.632580 2.596097 2.559872 2.523908 2.488204 2.452760 2.417576 2.382652 2.347988 2.313584 2.279440 2.245556 2.211932 2.178567 2.145463 2.112619 2.080035 2.047711 2.015647 1.983843 1.952299 1.921015 1.889991 1.859226 1.828722 1.798478 1.768494 1.738770 1.709306 1.680102 1.651158 1.622473 1.594049 1.565885 1.537981 1.510337 1.482953 1.517884 1.597843 1.537890 0.843251 0.593276 0.454008 0.385625 0.289972 0.214962 0.181270 -0.051184 0.203349 0.068704 -0.032021 -0.112849 -0.239481 -0.146099 -0.058082 -0.093889 -0.076138 0.034340 0.031629 0.225740 0.106431 0.354316 0.461380 0.489100 0.765349 0.684287 0.692080 0.824840 0.796108 0.837886 0.922873 0.853061 0.889068 0.725455 0.790822 0.844510 0.684325 0.604351 0.436156 0.425685 0.337889 0.188513 0.184548 0.115351 0.208929 0.120190 0.209332 0.105388 0.217618 0.229686 0.443341 0.404902 0.576296 0.615315 0.644730 0.722422 0.608675 0.584054 0.460772 0.412115 0.292349 0.263866 0.095895 0.155926 -0.026295 0.038176 -0.032405 -0.041265 -0.051974 0.029905 0.271146 0.294175 0.363896 0.306091 0.388822 0.399465 0.424089 0.404317 0.358958 0.333601 0.125784 0.079043 0.064783 -0.017095 -0.152917 -0.047284 -0.066135 0.038675 0.080904 0.154977 0.220835 0.230028 0.320361 0.409569 0.293299 0.363976 0.237953 0.140604 0.067126 0.038767 0.002386 0.048240 0.071368 0.099308 0.117696 0.175225 0.240506 0.308449 0.274279 0.215594 0.255457 0.227226 0.110953 0.065965 0.051046 0.027949 0.007203 -0.014917 0.032196 0.169674 0.189515 0.192315 0.301747 0.188517 0.196917 0.076322 0.068583 0.005714 -0.007155 0.000110 -0.007719 0.042645 0.062843 0.095749 0.156868 0.142054 0.221994 0.132934 0.077508 0.099808 0.045847 -0.054471 -0.022779 0.023516 0.062128 0.074627 0.070219 0.152149 0.120606 0.152117 0.036846 0.052158 0.045383 0.048837 0.025869 -0.021383 0.039632 0.046984 0.089205 0.101997 0.090516 0.110490 0.125453 0.078435 0.013758 -0.006219 0.027918 0.078029 0.067708 0.093206 0.088133 0.053654 0.107681 0.066607 0.042064 0.080236 -0.016064 0.016826 0.063486 0.038465 0.043427 0.061905 0.074202 0.050217 0.063782 0.014095 0.019769 0.002070 0.051876 0.006117 0.043360 0.067616 0.076645 0.041454 -0.007621 -0.004460 -0.018985 0.038420 0.000247 0.013137 0.071412 0.051901 -0.001436 0.009812 -0.014273 0.008977 -0.042618 0.002598 0.008517 0.036167 0.048677 0.022920 -0.012136 0.005248 0.021069 0.003906 0.039943 0.011791 -0.017460 0.022487 -0.043598 -0.023511 -0.054298 -0.012427 -0.056008 0.010036 0.018440 -0.001644 -0.004680 -0.005623 0.001695 0.025899 0.020309 -0.011830 0.003905 0.025688 0.038917 0.018608 0.009956 0.023238 -0.000857 -0.002156 0.018397 -0.004854 0.085651 0.047977 0.033050 0.001978 -0.010333 -0.033799 -0.000252 0.083716 -0.008510 0.067378 -0.023303 -0.024651 -0.020636 0.095452 -0.000522 -0.020747 0.047506 0.048829 0.010556 0.005119 0.024845 0.003745 0.029285 0.035645 0.074476 0.064146 0.048729 0.038637 -0.005569 0.007234 -0.006655 -0.010260 0.008545 0.101881 -0.021289 -0.093625 0.050329 -0.014379 0.068782 -0.057663 0.001898 0.011430 0.024776 0.002959 -0.019664 -0.021271 -0.071663 0.036153 0.049551 0.059969 -0.124848 0.007280 -0.013732 -0.011371 -0.113335 0.103424 0.015996 -0.036282 -0.092849 0.187642 0.276405 0.158267 0.143219 0.108597 -0.564719
0.072396 0.073047 0.074998 0.078249 0.082800 0.088648 0.095792 0.104228 0.113953 0.124961 0.137246 0.150799 0.165611 0.181668 0.198955 0.217455 0.237143 0.257996 0.279981 0.303064 0.327203 0.352351 0.378455 0.405455 0.433281 0.461857 0.491099 0.520911 0.551189 0.581820 0.612678 0.643628 0.674523 0.705204 0.735503 0.765238 0.794217 0.822236 0.849082 0.874529 0.898346 0.920289 0.940109 0.957552 0.972359 0.984267 0.993014 0.998341 0.999991 0.997715 0.991277 0.980452 0.965033 0.944834 0.919694 0.889482 0.854099 0.813483 0.767616 0.716523 0.660281 0.599019 0.532926 0.462248 0.387298 0.308451 0.226152 0.140911 0.053309 0.036010 0.126336 0.216898 0.306869 0.395370 0.481482 0.564249 0.642692 0.715818 0.782634 0.842163 0.893457 0.935612 0.967790 0.989232 0.999279 0.997391 0.983159 0.956331 0.916821 0.864726 0.800339 0.724156 0.636889 0.539463 0.433016 0.318901 0.198668 0.074055 0.053032 0.180547 0.306326 0.428132 0.543685 0.650714 0.746995 0.830409 0.898990 0.950976 0.984866 0.999466 0.993938 0.967839 0.921160 0.854353 0.768346 0.664555 0.544874 0.411661 0.267701 0.116171 0.039433 0.195360 0.347695 0.492449 0.625674 0.743571 0.842603 0.919618 0.971958 0.997568 0.995088 0.963934 0.904361 0.817493 0.705342 0.570786 0.417521 0.249983 0.073240 0.107148 0.285301 0.455194 0.610874 0.746671 0.857415 0.938656 0.986860 0.999585 0.975634 0.915152 0.819694 0.692221 0.537056 0.359770 0.167007 0.033731 0.234373 0.426586 0.602124 0.753196 0.872825 0.955195 0.995969 0.992549 0.944271 0.852525 0.720773 0.554475 0.360910 0.148895 0.071586 0.289831 0.494931 0.676329 0.824366 0.930839 0.989481 0.996385 0.950302 0.852822 0.708397 0.524203 0.309843 0.076898 0.161675 0.392226 0.601214 0.775995 0.905633 0.981616 0.998480 0.954257 0.850729 0.693455 0.491551 0.257237 0.005149 0.248535 0.487121 0.694494 0.856239 0.960691 0.999829 0.969976 0.872200 0.712413 0.501104 0.252743 0.015151 0.283194 0.531522 0.741279 0.896079 0.983347 0.995420 0.930311 0.792049 0.590562 0.341060 0.062989 0.221436 0.488972 0.717242 0.886659 0.982157 0.994633 0.921917 0.769178 0.548693 0.278991 0.016619 0.311989 0.580431 0.797134 0.941520 0.999286 0.963934 0.837620 0.631211 0.363491 0.059569 0.251379 0.538893 0.774194 0.933145 0.998809 0.963388 0.829285 0.609148 0.324837 0.005389 0.315864 0.604727 0.829822 0.966045 0.997507 0.919531 0.739484 0.476280 0.158558 0.178308 0.496068 0.757952 0.932970 0.999700 0.949075 0.785785 0.528081 0.205925 0.142341 0.474470 0.749434 0.932529 0.999902 0.941828 0.764308 0.488704 0.149374 0.210456 0.544102 0.807500 0.965091 0.994784 0.891259 0.667103 0.351533 0.013201 0.377331 0.690320 0.907903 0.998493 0.947964 0.762095 0.466212 0.101980 0.278268 0.618982 0.869507 0.991751 0.966175 0.795172 0.503215 0.133635 0.257611 0.610299 0.869225 0.992967 0.960741 0.776161 0.467219 0.082336 0.317026 0.666061 0.907186 0.999679 0.926829 0.699240 0.353670 0.052638 0.451203 0.773837 0.964340 0.988544 0.840721 0.545204 0.152753 0.267917 0.642011 0.901974 0.999838 0.916393 0.665280 0.291170 0.137826 0.542396 0.846625 0.992377 0.950679 0.727847 0.365001 0.069159 0.491113 0.818517 0.986383 0.960264 0.743692 0.378245 0.064029 0.494586 0.825985 0.989798 0.951032 0.715999 0.331841 0.122550 0.552424 0.866921 0.998388 0.917302 0.639327 0.222803 0.243096 0.657201
1.000000 1.000000 1.000000 1.000000 1.000000 1.000000 1.000000 1.000000 1.000000 1.000000 1.000000 1.000000 1.000000 1.000000 1.000000 1.000000 1.000000 1.000000 1.000000 1.000000 1.000000 1.000000 1.000000 1.000000 1.000000 1.000000 1.000000 1.000000 1.000000 1.000000 1.000000 1.000000 1.000000 1.000000 1.000000 1.000000 1.000000 1.000000 1.000000 1.000000 1.000000 1.000000 1.000000 1.000000 1.000000 1.000000 1.000000 1.000000 1.000000 1.000000 1.000000 1.000000 0.923122 0.923122 0.923122 0.923122 0.923122 0.923122 0.923122 0.923122 0.923122 0.923122 0.923122 0.923122 0.923122 0.923122 0.923122 0.923122 0.923122 0.923122 0.923122 0.923122 0.923122 0.923122 0.923122 0.923122 0.923122 0.923122 0.923122 0.923122 0.923122 0.923122 0.923122 0.923122 0.923122 0.913228 0.911335 0.912491 0.911038 0.909591 0.909001 0.908608 0.909648 0.911250 0.913328 0.934968 0.938072 0.939316 0.940643 0.942016 0.944301 0.942137 0.949704 0.956207 0.955141 0.956279 0.950104 0.951520 0.950859 0.950118 0.951465 0.951602 0.949901 0.947874 0.946292 0.945738 0.945424 0.949007 0.949604 0.949757 0.950351 0.950296 0.951013 0.951614 0.949755 0.952015 0.944120 0.942784 0.948053 0.945964 0.947333 0.947295 0.947983 0.948786 0.949105 0.949377 0.946367 0.945916 0.945047 0.937023 0.930071 0.929742 0.932208 0.935429 0.932940 0.929579 0.930786 0.933001 0.932279 0.935898 0.926649 0.922412 0.897520 0.884849 0.874307 0.874583 0.878112 0.880647 0.878325 0.871203 0.861897 0.858152 0.858052 0.854062 0.846418 0.862291 0.856556 0.854202 0.858026 0.861174 0.866566 0.864058 0.859599 0.854927 0.850353 0.841961 0.843530 0.847497 0.851641 0.835002 0.825468 0.842572 0.832923 0.823733 0.831427 0.833392 0.830379 0.829128 0.829590 0.827826 0.821422 0.815080 0.818638 0.827560 0.827457 0.816730 0.813725 0.810425 0.809974 0.804184 0.808636 0.809497 0.805913 0.798859 0.815713 0.781885 0.804423 0.804758 0.789248 0.773253 0.761347 0.770846 0.781433 0.783130 0.775736 0.776010 0.775550 0.766948 0.739277 0.738146 0.745019 0.743412 0.731066 0.714696 0.721686 0.724973 0.721134 0.717406 0.720420 0.721186 0.696164 0.709689 0.713807 0.701733 0.716278 0.718503 0.709301 0.711777 0.714822 0.717960 0.712639 0.675052 0.678311 0.660080 0.653668 0.607849 0.606503 0.603840 0.544759 0.549720 0.520516 0.505075 0.504573 0.484239 0.536650 0.473873 0.459094 0.489445 0.415815 0.348770 0.365399 0.365170 0.378693 0.385459 0.369135 0.369738 0.356691 0.337137 0.335134 0.359503 0.376228 0.341285 0.345011 0.332692 0.308860 0.273747 0.289575 0.293121 0.319284 0.321504 0.300721 0.327156 0.364333 0.304281 0.283413 0.262621 0.287028 0.300652 0.303338 0.292325 0.283118 0.256438 0.241139 0.264798 0.265324 0.285872 0.305368 0.333399 0.327818 0.330686 0.359116 0.310637 0.324635 0.326568 0.316655 0.333844 0.337308 0.340284 0.330273 0.351922 0.333121 0.344826 0.335937 0.336052 0.390860 0.370056 0.344710 0.331510 0.337094 0.337415 0.321992 0.269243 0.249506 0.247027 0.194604 0.164474 0.166448 0.166659 0.123385 0.104330 0.088334 0.050970 0.050029 0.054149 0.090301 0.059119 0.079874 0.083273 0.083273 0.083273 0.083273 0.083273 0.083273 0.083273 0.083273 0.083273 0.083273 0.083273 0.083273 0.083273 0.083273 0.105783 0.105783 0.105783 0.105783 0.105783 0.105783 0.105783 0.105783 0.105783 0.105783 0.105783 0.105783
0.000000 0.000000 0.000000 0.000000 0.000000 0.000000 0.000000 0.000000 0.000000 0.000000 0.000000 0.000000 0.000000 0.000000 0.000000 0.000000 0.000000 0.000000 0.000000 0.000000 0.000000 0.000000 0.000000 0.000000 0.000000 0.000000 0.000000 0.000000 0.000000 0.000000 0.000000 0.000000 0.000000 0.000000 0.000000 0.000000 0.000000 0.000000 0.000000 0.000000 0.000000 0.000000 0.000000 0.000000 0.000000 0.000000 0.000000 0.000000 0.000000 0.000000 0.000000 0.000000 0.209657 0.209657 0.209657 0.209657 0.209657 0.209657 0.209657 0.209657 0.209657 0.209657 0.209657 0.209657 0.209657 0.209657 0.209657 0.209657 0.209657 0.209657 0.209657 0.209657 0.209657 0.209657 0.209657 0.209657 0.209657 0.209657 0.209657 0.209657 0.209657 0.209657 0.209657 0.209657 0.209657 0.244339 0.244339 0.244339 0.244339 0.244339 0.244339 0.244339 0.244339 0.244339 0.244339 0.244339 0.244339 0.244339 0.244339 0.244339 0.244339 0.244339 0.244339 0.244339 0.244339 0.244339 0.244339 0.244339 0.244339 0.244339 0.260378 0.260378 0.260378 0.260378 0.260378 0.260378 0.260378 0.260378 0.260378 0.260378 0.260378 0.260378 0.260378 0.260378 0.260378 0.260378 0.260378 0.260378 0.260378 0.260378 0.269680 0.269680 0.269680 0.269680 0.269680 0.269680 0.269680 0.269680 0.269680 0.269680 0.269680 0.269680 0.269680 0.269680 0.269680 0.269680 0.269680 0.269680 0.269680 0.269680 0.269680 0.269680 0.269680 0.269680 0.269680 0.269680 0.269680 0.269680 0.269680 0.269680 0.269680 0.269680 0.269680 0.280056 0.280056 0.280056 0.280056 0.280056 0.280056 0.280056 0.280056 0.280056 0.280056 0.280056 0.280056 0.280056 0.280056 0.280056 0.280056 0.280056 0.280056 0.280056 0.280056 0.280056 0.280056 0.280056 0.280056 0.280056 0.280056 0.280056 0.274721 0.274721 0.274721 0.274721 0.274721 0.274721 0.274721 0.274721 0.274721 0.274721 0.274721 0.274721 0.274721 0.285714 0.285714 0.285714 0.285714 0.285714 0.285714 0.285714 0.285714 0.285714 0.285714 0.285714 0.280056 0.280056 0.280056 0.280056 0.280056 0.280056 0.280056 0.280056 0.280056 0.280056 0.280056 0.274721 0.274721 0.274721 0.274721 0.274721 0.274721 0.274721 0.274721 0.274721 0.274721 0.274721 0.280056 0.280056 0.280056 0.280056 0.280056 0.280056 0.280056 0.280056 0.280056 0.280056 0.285714 0.285714 0.285714 0.285714 0.285714 0.285714 0.285714 0.285714 0.285714 0.269680 0.269680 0.269680 0.269680 0.269680 0.269680 0.269680 0.269680 0.269680 0.269680 0.274721 0.274721 0.274721 0.274721 0.274721 0.274721 0.274721 0.274721 0.274721 0.285714 0.285714 0.285714 0.285714 0.285714 0.285714 0.285714 0.285714 0.264906 0.264906 0.264906 0.264906 0.264906 0.264906 0.264906 0.264906 0.264906 0.274721 0.274721 0.274721 0.274721 0.274721 0.274721 0.274721 0.274721 0.269680 0.269680 0.269680 0.269680 0.269680 0.269680 0.269680 0.269680 0.269680 0.269680 0.269680 0.269680 0.269680 0.269680 0.269680 0.269680 0.280056 0.280056 0.280056 0.280056 0.280056 0.280056 0.280056 0.260378 0.260378 0.260378 0.260378 0.260378 0.260378 0.260378 0.260378 0.269680 0.269680 0.269680 0.269680 0.269680 0.269680 0.269680 0.264906 0.264906 0.264906 0.264906 0.264906 0.264906 0.264906 0.264906 0.264906 0.264906 0.264906 0.264906 0.264906 0.264906 0.260378 0.260378 0.260378 0.260378 0.260378 0.260378 0.260378 0.260378 0.260378 0.260378 0.260378 0.260378
