# Output from CTFFind version 4.1.9, run on 2019-11-03 20:02:46
# Input file: stack11_bm3d_averaged_1_5.5_0_50_half.mrc ; Number of micrographs: 1
# Pixel size: 3.000 Angstroms ; acceleration voltage: 300.0 keV ; spherical aberration: 0.00 mm ; amplitude contrast: 0.07
# Box size: 512 pixels ; min. res.: 30.0 Angstroms ; max. res.: 5.0 Angstroms ; min. def.: 5000.0 um; max. def. 50000.0 um; num. frames averaged: 1
# 6 lines per micrograph: #1 - spatial frequency (1/Angstroms); #2 - 1D rotational average of spectrum (assuming no astigmatism); #3 - 1D rotational average of spectrum; #4 - CTF fit; #5 - cross-correlation between spectrum and CTF fit; #6 - 2sigma of expected cross correlation of noise
0.000000 0.000651 0.001302 0.001953 0.002604 0.003255 0.003906 0.004557 0.005208 0.005859 0.006510 0.007161 0.007812 0.008464 0.009115 0.009766 0.010417 0.011068 0.011719 0.012370 0.013021 0.013672 0.014323 0.014974 0.015625 0.016276 0.016927 0.017578 0.018229 0.018880 0.019531 0.020182 0.020833 0.021484 0.022135 0.022786 0.023438 0.024089 0.024740 0.025391 0.026042 0.026693 0.027344 0.027995 0.028646 0.029297 0.029948 0.030599 0.031250 0.031901 0.032552 0.033203 0.033854 0.034505 0.035156 0.035807 0.036458 0.037109 0.037760 0.038411 0.039062 0.039714 0.040365 0.041016 0.041667 0.042318 0.042969 0.043620 0.044271 0.044922 0.045573 0.046224 0.046875 0.047526 0.048177 0.048828 0.049479 0.050130 0.050781 0.051432 0.052083 0.052734 0.053385 0.054036 0.054688 0.055339 0.055990 0.056641 0.057292 0.057943 0.058594 0.059245 0.059896 0.060547 0.061198 0.061849 0.062500 0.063151 0.063802 0.064453 0.065104 0.065755 0.066406 0.067057 0.067708 0.068359 0.069010 0.069661 0.070312 0.070964 0.071615 0.072266 0.072917 0.073568 0.074219 0.074870 0.075521 0.076172 0.076823 0.077474 0.078125 0.078776 0.079427 0.080078 0.080729 0.081380 0.082031 0.082682 0.083333 0.083984 0.084635 0.085286 0.085938 0.086589 0.087240 0.087891 0.088542 0.089193 0.089844 0.090495 0.091146 0.091797 0.092448 0.093099 0.093750 0.094401 0.095052 0.095703 0.096354 0.097005 0.097656 0.098307 0.098958 0.099609 0.100260 0.100911 0.101562 0.102214 0.102865 0.103516 0.104167 0.104818 0.105469 0.106120 0.106771 0.107422 0.108073 0.108724 0.109375 0.110026 0.110677 0.111328 0.111979 0.112630 0.113281 0.113932 0.114583 0.115234 0.115885 0.116536 0.117188 0.117839 0.118490 0.119141 0.119792 0.120443 0.121094 0.121745 0.122396 0.123047 0.123698 0.124349 0.125000 0.125651 0.126302 0.126953 0.127604 0.128255 0.128906 0.129557 0.130208 0.130859 0.131510 0.132161 0.132812 0.133464 0.134115 0.134766 0.135417 0.136068 0.136719 0.137370 0.138021 0.138672 0.139323 0.139974 0.140625 0.141276 0.141927 0.142578 0.143229 0.143880 0.144531 0.145182 0.145833 0.146484 0.147135 0.147786 0.148438 0.149089 0.149740 0.150391 0.151042 0.151693 0.152344 0.152995 0.153646 0.154297 0.154948 0.155599 0.156250 0.156901 0.157552 0.158203 0.158854 0.159505 0.160156 0.160807 0.161458 0.162109 0.162760 0.163411 0.164062 0.164714 0.165365 0.166016 0.166667 0.167318 0.167969 0.168620 0.169271 0.169922 0.170573 0.171224 0.171875 0.172526 0.173177 0.173828 0.174479 0.175130 0.175781 0.176432 0.177083 0.177734 0.178385 0.179036 0.179688 0.180339 0.180990 0.181641 0.182292 0.182943 0.183594 0.184245 0.184896 0.185547 0.186198 0.186849 0.187500 0.188151 0.188802 0.189453 0.190104 0.190755 0.191406 0.192057 0.192708 0.193359 0.194010 0.194661 0.195312 0.195964 0.196615 0.197266 0.197917 0.198568 0.199219 0.199870 0.200521 0.201172 0.201823 0.202474 0.203125 0.203776 0.204427 0.205078 0.205729 0.206380 0.207031 0.207682 0.208333 0.208984 0.209635 0.210286 0.210938 0.211589 0.212240 0.212891 0.213542 0.214193 0.214844 0.215495 0.216146 0.216797 0.217448 0.218099 0.218750 0.219401 0.220052 0.220703 0.221354 0.222005 0.222656 0.223307 0.223958 0.224609 0.225260 0.225911 0.226562 0.227214 0.227865 0.228516 0.229167 0.229818 0.230469 0.231120 0.231771 0.232422 0.233073 0.233724 0.234375 0.235026 0.235677
       0.34250        0.34250        0.34250        0.34250        0.34250        0.34250        0.34250        0.34250        0.34250        0.34250        0.34250        0.34250        0.34250        0.34250        0.34250        0.34250        0.34250        0.34250        0.34250        0.34250        0.34250        0.34250        0.34250        0.34250        0.34250        0.34250        0.34250        0.34250        0.34250        0.34250        0.34250        0.34250        0.34250        0.34250        0.34250        0.34250        0.34250        0.34250        0.34250        0.34250        0.34250        0.34250        0.34250        0.34250        0.34250        0.34250        0.34250        0.34250        0.34250        0.34250        0.34250        0.69753        0.85937        0.53727        0.10531       -0.03044       -0.38985       -0.18089       -0.28792       -0.11286       -0.05475       -0.11048       -0.05313       -0.16902       -0.20623       -0.21697       -0.30817       -0.31941       -0.44670       -0.36297       -0.42811       -0.42194       -0.39686       -0.41454       -0.45548       -0.51284       -0.56088       -0.55730       -0.53052       -0.36071       -0.33194       -0.29496       -0.27425       -0.18610       -0.17359        0.05766        0.13804        0.16908        0.26184        0.38112        0.45798        0.52301        0.59790        0.59521        0.58177        0.69909        0.80535        0.70650        0.74311        0.62367        0.56897        0.48410        0.43121        0.51220        0.39626        0.26511        0.11372        0.10591        0.08608       -0.01882        0.03645        0.04697        0.00364        0.02532        0.02498        0.23697        0.26989        0.29629        0.43533        0.45443        0.41445        0.59422        0.62251        0.64358        0.72801        0.67878        0.64861        0.66269        0.56247        0.46461        0.41959        0.30419        0.26327        0.18059        0.13358        0.05253        0.05934        0.06668        0.09632        0.15441        0.24104        0.29321        0.41741        0.46391        0.48280        0.57277        0.60750        0.63892        0.61748        0.56126        0.46044        0.47301        0.37950        0.27259        0.20991        0.15782        0.16836        0.15044        0.15329        0.18115        0.31629        0.32895        0.39987        0.44180        0.42845        0.48598        0.56220        0.55498        0.50083        0.45708        0.41162        0.36622        0.33742        0.30379        0.25675        0.24512        0.24695        0.25205        0.22344        0.30762        0.36432        0.38547        0.44052        0.45553        0.46967        0.42611        0.40819        0.40198        0.36254        0.32848        0.27373        0.27446        0.26615        0.23835        0.28976        0.28669        0.34806        0.38035        0.42817        0.47744        0.41150        0.42522        0.43352        0.41109        0.34869        0.32579        0.29404        0.32114        0.27230        0.31910        0.31134        0.32797        0.33755        0.36164        0.31753        0.39365        0.41588        0.38111        0.34928        0.37117        0.31584        0.29407        0.30312        0.31979        0.30691        0.31883        0.34079        0.35212        0.34051        0.36677        0.36627        0.41517        0.38617        0.33728        0.34457        0.29806        0.28953        0.32559        0.31945        0.32875        0.34050        0.33822        0.38321        0.33040        0.33149        0.33586        0.34352        0.30252        0.31221        0.28034        0.30281        0.32806        0.30557        0.32838        0.35411        0.36302        0.29487        0.33480        0.29621        0.30028        0.27942        0.24655        0.30354        0.30350        0.34259        0.33762        0.33997        0.32586        0.34786        0.31387        0.34592        0.31271        0.31925        0.28588        0.33194        0.32205        0.36441        0.32692        0.33429        0.33998        0.29300        0.27572        0.31001        0.24966        0.22839        0.33902        0.32239        0.36273        0.34560        0.35996        0.32926        0.33602        0.34648        0.26440        0.25875        0.31567        0.29940        0.31171        0.32094        0.34113        0.33388        0.29497        0.29108        0.34278        0.32063        0.31277        0.28993        0.32220        0.34214        0.39618        0.35648        0.31636        0.28197        0.30479        0.28808        0.29836        0.27133        0.26105        0.31100        0.32870        0.34342        0.35289        0.32796        0.28868        0.29968        0.26854        0.27489        0.25472        0.31423        0.27012        0.24105        0.30433        0.29804        0.26456        0.29525        0.21412        0.21630        0.25028        0.19192        0.26667        0.34148        0.25116        0.23487        0.31497        0.30859        0.32064        0.31591        0.26315        0.24603        0.18557        0.20968        0.19371        0.25349        0.23002        0.27207        0.34851        0.33821        0.24446        0.15850        0.07935       -0.01210       -0.11442       -0.64039
2.775670 2.746244 2.716977 2.687872 2.658926 2.630141 2.601516 2.573052 2.544748 2.516604 2.488620 2.460797 2.433134 2.405631 2.378289 2.351107 2.324085 2.297224 2.270523 2.243982 2.217602 2.191382 2.165322 2.139422 2.113683 2.088104 2.062686 2.037427 2.012329 1.987391 1.962614 1.937997 1.913540 1.889244 1.865108 1.841132 1.817317 1.793661 1.770166 1.746832 1.723658 1.700644 1.677790 1.655097 1.632564 1.610191 1.587979 1.565927 1.544035 1.522303 1.500732 1.717492 2.140095 1.699564 1.185620 1.049489 0.451937 0.849258 0.564198 0.849028 0.813675 0.820677 0.759287 0.752804 0.597577 0.559492 0.501979 0.431700 0.248098 0.369261 0.203392 0.331992 0.222645 0.207395 0.181125 0.040389 0.009755 0.017771 -0.068528 0.133334 0.231818 0.190190 0.178088 0.330089 0.185391 0.518764 0.623695 0.627926 0.644037 0.877125 0.834955 0.944474 0.933862 1.031777 0.997316 1.084618 1.168797 1.046820 1.161245 0.912161 0.929929 0.795294 0.654292 0.805361 0.698234 0.490636 0.332560 0.250652 0.265205 0.148438 0.131630 0.163069 0.106287 0.124437 0.078564 0.252139 0.354608 0.341992 0.478256 0.547509 0.420248 0.590553 0.727734 0.660137 0.724484 0.712043 0.719863 0.652563 0.598339 0.499094 0.372882 0.277629 0.221907 0.087638 0.116568 -0.106555 -0.048596 -0.064482 -0.079568 -0.022550 0.132094 0.068169 0.241978 0.306344 0.336877 0.384578 0.501609 0.462771 0.487818 0.494481 0.307501 0.294215 0.287712 0.088178 0.046592 -0.074244 -0.013077 -0.061783 -0.094071 -0.078287 0.037877 0.090917 0.121052 0.218507 0.227025 0.228517 0.279098 0.441677 0.394728 0.258493 0.235173 0.220808 0.144468 0.143553 0.114805 -0.003209 0.016660 0.071226 -0.009845 0.050337 0.136431 0.137200 0.219476 0.239015 0.255024 0.180560 0.204737 0.126572 0.139393 0.108550 0.031815 -0.025293 0.001393 -0.018952 -0.055484 0.052466 0.006043 0.107897 0.139816 0.189163 0.173510 0.129465 0.142979 0.164893 0.115196 0.040962 -0.019076 0.036743 0.022224 -0.035814 0.033284 0.024967 0.048105 0.040898 0.053331 0.042873 0.143001 0.130306 0.048473 0.043627 0.048036 0.008346 -0.029401 0.011654 0.010677 0.000081 0.009814 0.051013 0.054773 0.051884 0.072784 0.059352 0.154991 0.063408 0.037529 0.041894 -0.033886 0.010403 0.047243 0.007251 0.036220 0.057140 0.081447 0.029138 0.048028 0.013046 0.075832 0.022011 0.021097 0.024116 -0.007166 0.036683 0.025130 0.019280 0.070753 0.071713 0.068963 0.038210 0.046478 0.030883 0.021902 -0.018915 -0.022198 0.036120 0.052796 0.083548 0.085008 0.060074 0.069710 0.102445 0.049085 0.098257 0.069940 0.038856 0.022417 0.099632 0.061318 0.113416 0.085610 0.050624 0.114102 0.041873 0.008488 0.086675 -0.033368 -0.018106 0.102475 0.050304 0.157841 0.097079 0.091295 0.051534 0.064937 0.091320 -0.021524 -0.029127 0.055363 0.042516 0.040730 0.034506 0.104427 0.048655 -0.004683 0.055342 0.047554 0.052210 0.055327 -0.014933 0.065818 0.062397 0.124874 0.057484 0.025860 -0.025046 -0.011757 -0.007766 -0.001598 -0.051953 -0.032704 0.002094 0.028050 0.023826 0.044751 0.002813 -0.040150 -0.035207 -0.022018 -0.069386 -0.055052 -0.017528 -0.091098 -0.071524 -0.005515 -0.047374 -0.076155 -0.000537 -0.138473 -0.087955 -0.094931 -0.185464 -0.057154 0.059739 -0.058945 -0.156575 0.032032 0.025805 -0.048006 0.038549 -0.082196 0.270495 0.155129 0.215289 0.263620 0.309694 0.251451 0.308139 0.334092 0.392643 0.226729 0.287624 0.091224 -0.017775 -0.706111
0.072396 0.072899 0.074408 0.076921 0.080440 0.084962 0.090487 0.097013 0.104538 0.113059 0.122572 0.133074 0.144559 0.157020 0.170450 0.184840 0.200178 0.216452 0.233647 0.251745 0.270726 0.290568 0.311244 0.332725 0.354977 0.377964 0.401644 0.425971 0.450894 0.476358 0.502300 0.528654 0.555347 0.582299 0.609426 0.636636 0.663829 0.690901 0.717740 0.744227 0.770235 0.795633 0.820281 0.844033 0.866739 0.888241 0.908377 0.926980 0.943878 0.958897 0.971861 0.982592 0.990911 0.996641 0.999607 0.999638 0.996566 0.990234 0.980490 0.967195 0.950221 0.929456 0.904803 0.876185 0.843546 0.806855 0.766103 0.721312 0.672532 0.619846 0.563371 0.503259 0.439698 0.372917 0.303182 0.230802 0.156123 0.079535 0.001465 0.077619 0.157213 0.236777 0.315738 0.393496 0.469421 0.542868 0.613172 0.679661 0.741657 0.798491 0.849502 0.894049 0.931522 0.961348 0.983000 0.996011 0.999976 0.994569 0.979549 0.954767 0.920179 0.875847 0.821954 0.758799 0.686812 0.606549 0.518694 0.424060 0.323586 0.218328 0.109457 0.001755 0.113948 0.225684 0.335469 0.441769 0.543032 0.637714 0.724300 0.801332 0.867436 0.921352 0.961955 0.988289 0.999590 0.995309 0.975137 0.939021 0.887179 0.820115 0.738619 0.643772 0.536943 0.419769 0.294148 0.162210 0.026283 0.111136 0.247429 0.379906 0.505854 0.622597 0.727555 0.818304 0.892638 0.948632 0.984694 0.999623 0.992653 0.963490 0.912349 0.839963 0.747597 0.637039 0.510577 0.370969 0.221390 0.065373 0.093274 0.250548 0.402359 0.544629 0.673409 0.784990 0.876027 0.943636 0.985508 0.999997 0.986193 0.943986 0.874099 0.778102 0.658401 0.518192 0.361403 0.192589 0.016818 0.160473 0.333646 0.497032 0.645126 0.772781 0.875390 0.949074 0.990839 0.998721 0.971892 0.910737 0.816882 0.693182 0.543662 0.373414 0.188438 0.004553 0.198362 0.385571 0.558833 0.711151 0.836191 0.928546 0.983998 0.999734 0.974514 0.908772 0.804668 0.666042 0.498317 0.308308 0.103975 0.105897 0.312064 0.505222 0.676445 0.817593 0.921731 0.983490 0.999375 0.967996 0.890200 0.769104 0.610021 0.420255 0.208809 0.014019 0.237125 0.449138 0.639003 0.796579 0.913186 0.982130 0.999114 0.962548 0.873719 0.736807 0.558739 0.348890 0.118618 0.119312 0.351432 0.564323 0.745399 0.883679 0.970477 1.000000 0.969771 0.880884 0.738037 0.549341 0.325923 0.081301 0.169392 0.410341 0.626029 0.802266 0.927145 0.991892 0.991532 0.925330 0.796953 0.614343 0.389291 0.136733 0.126206 0.381351 0.610729 0.797845 0.928907 0.993890 0.987360 0.908996 0.763745 0.561596 0.316959 0.047704 0.226112 0.483722 0.705215 0.873116 0.973804 0.998677 0.944963 0.816091 0.621566 0.376355 0.099800 0.185846 0.457199 0.691643 0.869251 0.974531 0.997838 0.936347 0.794460 0.583597 0.321367 0.030182 0.264616 0.536940 0.762272 0.919903 0.994911 0.979647 0.874620 0.688630 0.438148 0.145946 0.160907 0.453506 0.703843 0.887501 0.986123 0.989313 0.895849 0.714006 0.460942 0.161196 0.155624 0.457722 0.714291 0.898700 0.991327 0.981739 0.869991 0.666842 0.392854 0.076419 0.249103 0.548867 0.790282 0.946606 0.999992 0.943647 0.782820 0.534470 0.225607 0.109536 0.433245 0.708539 0.903462 0.994837 0.971171 0.834224 0.599071 0.292609 0.049427 0.386517 0.678168 0.888788 0.992114 0.974623 0.837438 0.596492 0.280825 0.070760 0.414417 0.706679 0.910004 0.997689 0.957521 0.793630 0.526279 0.189524 0.173003
1.000000 1.000000 1.000000 1.000000 1.000000 1.000000 1.000000 1.000000 1.000000 1.000000 1.000000 1.000000 1.000000 1.000000 1.000000 1.000000 1.000000 1.000000 1.000000 1.000000 1.000000 1.000000 1.000000 1.000000 1.000000 1.000000 1.000000 1.000000 1.000000 1.000000 1.000000 1.000000 1.000000 1.000000 1.000000 1.000000 1.000000 1.000000 1.000000 1.000000 1.000000 1.000000 1.000000 1.000000 1.000000 1.000000 1.000000 1.000000 1.000000 1.000000 1.000000 1.000000 0.919097 0.919097 0.919097 0.912567 0.912567 0.912567 0.912567 0.912567 0.912567 0.912567 0.912567 0.912567 0.912567 0.912567 0.912567 0.912567 0.912567 0.912567 0.912567 0.912567 0.912567 0.912567 0.912567 0.912567 0.912567 0.912567 0.912567 0.912567 0.912567 0.912567 0.912567 0.912567 0.912567 0.912567 0.912567 0.912567 0.912567 0.912567 0.912567 0.912567 0.912567 0.912567 0.912567 0.912567 0.941520 0.942930 0.951185 0.950759 0.950172 0.948159 0.946951 0.946609 0.946516 0.946852 0.947562 0.948526 0.954749 0.955983 0.960387 0.962067 0.962247 0.963980 0.964684 0.964305 0.955829 0.955606 0.954206 0.953666 0.956192 0.955287 0.954537 0.955509 0.955410 0.955778 0.955765 0.955105 0.954058 0.952997 0.952084 0.951686 0.951489 0.952211 0.952622 0.954070 0.957327 0.957920 0.958056 0.956445 0.955252 0.956527 0.955717 0.955076 0.943227 0.942783 0.941488 0.941529 0.944619 0.944674 0.945261 0.945878 0.947646 0.948012 0.944946 0.944509 0.937273 0.934975 0.932791 0.927624 0.923013 0.924722 0.926382 0.926849 0.927054 0.921811 0.921836 0.920055 0.915993 0.918493 0.918855 0.920142 0.921475 0.918130 0.917182 0.916084 0.914467 0.906438 0.893926 0.892831 0.890089 0.894923 0.895297 0.894072 0.896797 0.885527 0.869744 0.841039 0.843437 0.846774 0.836749 0.832223 0.832293 0.833026 0.837203 0.830494 0.828679 0.823418 0.812067 0.805809 0.798261 0.788903 0.789322 0.781399 0.771596 0.767626 0.791885 0.785595 0.796155 0.800192 0.799275 0.796518 0.789658 0.781042 0.778876 0.761761 0.760676 0.741294 0.734752 0.734794 0.732221 0.720993 0.725767 0.712466 0.712723 0.699337 0.704516 0.709460 0.713216 0.709700 0.703874 0.694959 0.688549 0.699976 0.714397 0.707686 0.702320 0.697443 0.686140 0.681577 0.675678 0.680168 0.676803 0.651160 0.664075 0.689065 0.658240 0.647406 0.656154 0.661910 0.650477 0.653000 0.633296 0.625718 0.605701 0.623015 0.629050 0.646872 0.642029 0.644459 0.656035 0.661266 0.672340 0.673037 0.674593 0.637177 0.639238 0.660505 0.667279 0.650921 0.639132 0.656048 0.654867 0.688607 0.678864 0.638503 0.634097 0.631045 0.593511 0.575735 0.574413 0.579389 0.607251 0.602570 0.582283 0.556131 0.559876 0.565751 0.570269 0.569658 0.551424 0.558632 0.545785 0.522619 0.533122 0.541077 0.539325 0.524617 0.512579 0.527420 0.502024 0.541022 0.510462 0.485379 0.503023 0.499048 0.488053 0.415580 0.433307 0.421696 0.413212 0.365176 0.375269 0.382956 0.368683 0.294521 0.283916 0.284914 0.283524 0.266607 0.249594 0.238600 0.224301 0.205516 0.148087 0.120471 0.120859 0.121744 0.140868 0.100627 0.147304 0.207722 0.210700 0.210700 0.210700 0.210700 0.210700 0.210700 0.210700 0.210700 0.184874 0.184874 0.184874 0.184874 0.184874 0.184874 0.184874 0.184874 0.184874 0.210700 0.210700 0.210700 0.210700 0.210700 0.210700 0.210700 0.210700 0.210700 0.210700 0.210700 0.210700 0.210700 0.210700
0.000000 0.000000 0.000000 0.000000 0.000000 0.000000 0.000000 0.000000 0.000000 0.000000 0.000000 0.000000 0.000000 0.000000 0.000000 0.000000 0.000000 0.000000 0.000000 0.000000 0.000000 0.000000 0.000000 0.000000 0.000000 0.000000 0.000000 0.000000 0.000000 0.000000 0.000000 0.000000 0.000000 0.000000 0.000000 0.000000 0.000000 0.000000 0.000000 0.000000 0.000000 0.000000 0.000000 0.000000 0.000000 0.000000 0.000000 0.000000 0.000000 0.000000 0.000000 0.000000 0.180334 0.180334 0.180334 0.199007 0.199007 0.199007 0.199007 0.199007 0.199007 0.199007 0.199007 0.199007 0.199007 0.199007 0.199007 0.199007 0.199007 0.199007 0.199007 0.199007 0.199007 0.199007 0.199007 0.199007 0.199007 0.199007 0.199007 0.199007 0.199007 0.199007 0.199007 0.199007 0.199007 0.199007 0.199007 0.199007 0.199007 0.199007 0.199007 0.199007 0.199007 0.199007 0.199007 0.199007 0.225018 0.225018 0.225018 0.225018 0.225018 0.225018 0.225018 0.225018 0.225018 0.225018 0.225018 0.225018 0.225018 0.225018 0.225018 0.225018 0.225018 0.225018 0.225018 0.225018 0.225018 0.225018 0.225018 0.225018 0.225018 0.225018 0.225018 0.225018 0.225018 0.244339 0.244339 0.244339 0.244339 0.244339 0.244339 0.244339 0.244339 0.244339 0.244339 0.244339 0.244339 0.244339 0.244339 0.244339 0.244339 0.244339 0.244339 0.244339 0.244339 0.244339 0.244339 0.244339 0.251976 0.251976 0.251976 0.251976 0.251976 0.251976 0.251976 0.251976 0.251976 0.251976 0.251976 0.251976 0.251976 0.251976 0.251976 0.251976 0.251976 0.251976 0.251976 0.251976 0.264906 0.264906 0.264906 0.264906 0.264906 0.264906 0.264906 0.264906 0.264906 0.264906 0.264906 0.264906 0.264906 0.264906 0.264906 0.264906 0.264906 0.264906 0.264906 0.264906 0.264906 0.264906 0.264906 0.264906 0.264906 0.264906 0.264906 0.264906 0.264906 0.264906 0.264906 0.264906 0.264906 0.264906 0.264906 0.264906 0.264906 0.264906 0.264906 0.264906 0.264906 0.264906 0.264906 0.264906 0.264906 0.264906 0.264906 0.264906 0.264906 0.264906 0.264906 0.264906 0.264906 0.264906 0.264906 0.264906 0.264906 0.264906 0.264906 0.264906 0.264906 0.264906 0.264906 0.264906 0.264906 0.264906 0.264906 0.264906 0.264906 0.264906 0.264906 0.264906 0.264906 0.264906 0.264906 0.260378 0.260378 0.260378 0.260378 0.260378 0.260378 0.260378 0.260378 0.260378 0.260378 0.260378 0.260378 0.260378 0.264906 0.264906 0.264906 0.264906 0.264906 0.264906 0.264906 0.264906 0.264906 0.264906 0.264906 0.264906 0.269680 0.269680 0.269680 0.269680 0.269680 0.269680 0.269680 0.269680 0.269680 0.269680 0.269680 0.264906 0.264906 0.264906 0.264906 0.264906 0.264906 0.264906 0.264906 0.264906 0.264906 0.264906 0.256074 0.256074 0.256074 0.256074 0.256074 0.256074 0.256074 0.256074 0.256074 0.256074 0.256074 0.264906 0.264906 0.264906 0.264906 0.264906 0.264906 0.264906 0.264906 0.264906 0.264906 0.260378 0.260378 0.260378 0.260378 0.260378 0.260378 0.260378 0.260378 0.260378 0.260378 0.264906 0.264906 0.264906 0.264906 0.264906 0.264906 0.264906 0.264906 0.264906 0.251976 0.251976 0.251976 0.251976 0.251976 0.251976 0.251976 0.251976 0.251976 0.251976 0.256074 0.256074 0.256074 0.256074 0.256074 0.256074 0.256074 0.256074 0.256074 0.251976 0.251976 0.251976 0.251976 0.251976 0.251976 0.251976 0.251976 0.251976 0.251976 0.251976 0.251976 0.251976 0.251976
