# Output from CTFFind version 4.1.9, run on 2019-11-03 20:07:41
# Input file: stack1_bm3d_averaged_1_5.5_0_1500_half.mrc ; Number of micrographs: 1
# Pixel size: 3.000 Angstroms ; acceleration voltage: 300.0 keV ; spherical aberration: 0.00 mm ; amplitude contrast: 0.07
# Box size: 512 pixels ; min. res.: 30.0 Angstroms ; max. res.: 5.0 Angstroms ; min. def.: 5000.0 um; max. def. 50000.0 um; num. frames averaged: 1
# 6 lines per micrograph: #1 - spatial frequency (1/Angstroms); #2 - 1D rotational average of spectrum (assuming no astigmatism); #3 - 1D rotational average of spectrum; #4 - CTF fit; #5 - cross-correlation between spectrum and CTF fit; #6 - 2sigma of expected cross correlation of noise
0.000000 0.000651 0.001302 0.001953 0.002604 0.003255 0.003906 0.004557 0.005208 0.005859 0.006510 0.007161 0.007812 0.008464 0.009115 0.009766 0.010417 0.011068 0.011719 0.012370 0.013021 0.013672 0.014323 0.014974 0.015625 0.016276 0.016927 0.017578 0.018229 0.018880 0.019531 0.020182 0.020833 0.021484 0.022135 0.022786 0.023438 0.024089 0.024740 0.025391 0.026042 0.026693 0.027344 0.027995 0.028646 0.029297 0.029948 0.030599 0.031250 0.031901 0.032552 0.033203 0.033854 0.034505 0.035156 0.035807 0.036458 0.037109 0.037760 0.038411 0.039062 0.039714 0.040365 0.041016 0.041667 0.042318 0.042969 0.043620 0.044271 0.044922 0.045573 0.046224 0.046875 0.047526 0.048177 0.048828 0.049479 0.050130 0.050781 0.051432 0.052083 0.052734 0.053385 0.054036 0.054688 0.055339 0.055990 0.056641 0.057292 0.057943 0.058594 0.059245 0.059896 0.060547 0.061198 0.061849 0.062500 0.063151 0.063802 0.064453 0.065104 0.065755 0.066406 0.067057 0.067708 0.068359 0.069010 0.069661 0.070312 0.070964 0.071615 0.072266 0.072917 0.073568 0.074219 0.074870 0.075521 0.076172 0.076823 0.077474 0.078125 0.078776 0.079427 0.080078 0.080729 0.081380 0.082031 0.082682 0.083333 0.083984 0.084635 0.085286 0.085938 0.086589 0.087240 0.087891 0.088542 0.089193 0.089844 0.090495 0.091146 0.091797 0.092448 0.093099 0.093750 0.094401 0.095052 0.095703 0.096354 0.097005 0.097656 0.098307 0.098958 0.099609 0.100260 0.100911 0.101562 0.102214 0.102865 0.103516 0.104167 0.104818 0.105469 0.106120 0.106771 0.107422 0.108073 0.108724 0.109375 0.110026 0.110677 0.111328 0.111979 0.112630 0.113281 0.113932 0.114583 0.115234 0.115885 0.116536 0.117188 0.117839 0.118490 0.119141 0.119792 0.120443 0.121094 0.121745 0.122396 0.123047 0.123698 0.124349 0.125000 0.125651 0.126302 0.126953 0.127604 0.128255 0.128906 0.129557 0.130208 0.130859 0.131510 0.132161 0.132812 0.133464 0.134115 0.134766 0.135417 0.136068 0.136719 0.137370 0.138021 0.138672 0.139323 0.139974 0.140625 0.141276 0.141927 0.142578 0.143229 0.143880 0.144531 0.145182 0.145833 0.146484 0.147135 0.147786 0.148438 0.149089 0.149740 0.150391 0.151042 0.151693 0.152344 0.152995 0.153646 0.154297 0.154948 0.155599 0.156250 0.156901 0.157552 0.158203 0.158854 0.159505 0.160156 0.160807 0.161458 0.162109 0.162760 0.163411 0.164062 0.164714 0.165365 0.166016 0.166667 0.167318 0.167969 0.168620 0.169271 0.169922 0.170573 0.171224 0.171875 0.172526 0.173177 0.173828 0.174479 0.175130 0.175781 0.176432 0.177083 0.177734 0.178385 0.179036 0.179688 0.180339 0.180990 0.181641 0.182292 0.182943 0.183594 0.184245 0.184896 0.185547 0.186198 0.186849 0.187500 0.188151 0.188802 0.189453 0.190104 0.190755 0.191406 0.192057 0.192708 0.193359 0.194010 0.194661 0.195312 0.195964 0.196615 0.197266 0.197917 0.198568 0.199219 0.199870 0.200521 0.201172 0.201823 0.202474 0.203125 0.203776 0.204427 0.205078 0.205729 0.206380 0.207031 0.207682 0.208333 0.208984 0.209635 0.210286 0.210938 0.211589 0.212240 0.212891 0.213542 0.214193 0.214844 0.215495 0.216146 0.216797 0.217448 0.218099 0.218750 0.219401 0.220052 0.220703 0.221354 0.222005 0.222656 0.223307 0.223958 0.224609 0.225260 0.225911 0.226562 0.227214 0.227865 0.228516 0.229167 0.229818 0.230469 0.231120 0.231771 0.232422 0.233073 0.233724 0.234375 0.235026 0.235677
       0.34909        0.34909        0.34909        0.34909        0.34909        0.34909        0.34909        0.34909        0.34909        0.34909        0.34909        0.34909        0.34909        0.34909        0.34909        0.34909        0.34909        0.34909        0.34909        0.34909        0.34909        0.34909        0.34909        0.34909        0.34908        0.34908        0.34909        0.34909        0.34909        0.34909        0.34909        0.34909        0.34909        0.34909        0.34909        0.34909        0.34909        0.34909        0.34909        0.34909        0.34909        0.34909        0.34909        0.34909        0.34908        0.34909        0.34909        0.34909        0.34909        0.34909        0.34909        0.39329        0.57387        0.26676        0.11381       -0.01427       -0.27308       -0.10333       -0.17656       -0.21266        0.01567       -0.13570       -0.10765       -0.05908       -0.03979       -0.13093       -0.15822       -0.29105       -0.38460       -0.49382       -0.43232       -0.33157       -0.26491       -0.37936       -0.29244       -0.38458       -0.32761       -0.37044       -0.19058       -0.18780       -0.24820       -0.07953       -0.03056       -0.04453        0.08224        0.02873        0.20440        0.22642        0.33640        0.36348        0.43813        0.47340        0.53236        0.59681        0.65182        0.55683        0.51670        0.50602        0.47704        0.56235        0.47370        0.41780        0.40602        0.33387        0.28726        0.31004        0.32854        0.22621        0.19570        0.09878        0.13195        0.13866        0.16582        0.13109        0.20035        0.24802        0.30164        0.29877        0.33810        0.46233        0.41193        0.48362        0.63012        0.61612        0.54858        0.54918        0.58061        0.42401        0.48282        0.37071        0.31435        0.29107        0.25357        0.25435        0.18774        0.17311        0.14444        0.21826        0.25268        0.27962        0.34595        0.32050        0.41092        0.46977        0.46741        0.45227        0.48575        0.54588        0.48981        0.46946        0.42016        0.34651        0.33794        0.27406        0.30200        0.23658        0.22166        0.28454        0.23890        0.26230        0.32503        0.42074        0.41766        0.44076        0.41832        0.49886        0.49506        0.46847        0.44347        0.38743        0.38186        0.40095        0.39887        0.33147        0.28149        0.31575        0.29269        0.29490        0.29712        0.33856        0.36743        0.39077        0.45363        0.48889        0.39812        0.43300        0.42865        0.38577        0.31955        0.36591        0.32229        0.31484        0.33516        0.28005        0.25537        0.31867        0.33647        0.42669        0.42168        0.40541        0.39878        0.40121        0.36826        0.36871        0.31889        0.31982        0.33745        0.30823        0.30601        0.33875        0.35129        0.34648        0.35336        0.39340        0.38819        0.45559        0.39996        0.34261        0.36145        0.35064        0.33354        0.32853        0.33682        0.37868        0.33912        0.35741        0.35016        0.41945        0.37797        0.35680        0.36837        0.37629        0.36467        0.33840        0.33173        0.30943        0.34068        0.33068        0.31034        0.32338        0.35452        0.35511        0.34181        0.33602        0.30356        0.30181        0.28227        0.31908        0.32438        0.35299        0.33228        0.33251        0.37165        0.33256        0.33664        0.32466        0.29312        0.34243        0.31431        0.32018        0.33096        0.32211        0.31691        0.30038        0.34076        0.36866        0.33284        0.32280        0.31399        0.32898        0.29876        0.34954        0.32134        0.27646        0.32822        0.30139        0.34663        0.34451        0.38612        0.32352        0.31748        0.26704        0.33257        0.37023        0.34517        0.31196        0.32142        0.32425        0.32282        0.29848        0.31685        0.30976        0.30883        0.28993        0.29514        0.31173        0.29582        0.29924        0.31309        0.26385        0.31708        0.34723        0.36452        0.34609        0.31311        0.32151        0.27864        0.30504        0.29614        0.32221        0.33870        0.28035        0.26992        0.32399        0.34607        0.33479        0.28266        0.27924        0.32251        0.28775        0.30852        0.34853        0.34455        0.28741        0.25596        0.30993        0.33620        0.28523        0.24465        0.26693        0.26435        0.30711        0.35006        0.29925        0.34370        0.28409        0.27038        0.30594        0.29150        0.22194        0.26177        0.30359        0.25334        0.21687        0.24008        0.29147        0.41480        0.30361        0.24873        0.18120        0.24193        0.25951        0.25993        0.36262        0.20796        0.14171        0.27824        0.33023        0.29205        0.18223        0.03921       -0.59482       -1.08534
2.552800 2.527657 2.502641 2.477754 2.452995 2.428363 2.403860 2.379485 2.355237 2.331118 2.307127 2.283264 2.259528 2.235921 2.212442 2.189091 2.165868 2.142773 2.119806 2.096967 2.074256 2.051673 2.029218 2.006891 1.984692 1.962621 1.940678 1.918863 1.897176 1.875617 1.854186 1.832884 1.811709 1.790662 1.769743 1.748953 1.728290 1.707755 1.687348 1.667070 1.646919 1.626896 1.607002 1.587235 1.567597 1.548086 1.528704 1.509449 1.490323 1.471324 1.452454 1.404535 1.892623 1.434173 0.935908 0.777031 -0.018633 0.620366 0.147065 0.329548 0.651578 0.394449 0.281414 0.512495 0.441545 0.357611 0.232200 0.005503 -0.243563 -0.425743 -0.408242 -0.345986 0.139992 -0.401416 -0.171401 -0.322467 -0.231217 -0.398272 -0.032928 -0.066477 -0.181015 0.069807 0.242642 0.094218 0.350928 0.251350 0.632972 0.506862 0.825141 0.774852 0.891540 1.118233 0.995431 1.263150 1.318965 1.106810 1.058031 1.020884 0.984501 1.011905 0.983328 0.818930 0.708173 0.653881 0.562442 0.502757 0.575200 0.401497 0.331577 0.141566 0.093059 0.153357 0.195747 0.111240 0.160671 0.297692 0.383390 0.394717 0.482272 0.513272 0.666512 0.471642 0.899150 1.001039 0.824534 0.730372 0.865457 0.588360 0.556769 0.530542 0.272054 0.296382 0.111304 0.240949 0.011403 0.028977 -0.066160 -0.049087 0.188187 0.085141 0.206443 0.265778 0.310867 0.436763 0.498531 0.460013 0.425063 0.581074 0.516131 0.404887 0.380609 0.242739 0.203625 0.097484 0.024893 0.041723 -0.113951 0.031917 0.040096 -0.074282 -0.017847 0.195641 0.358929 0.247806 0.347246 0.188116 0.550127 0.372326 0.328900 0.323884 0.185198 0.134146 0.364649 0.057769 0.069950 -0.005743 0.082277 -0.021454 0.085998 -0.009243 0.177027 0.030440 0.252708 0.356162 0.276470 0.193946 0.224444 0.184177 0.077279 0.089812 0.086593 -0.016992 0.008241 0.057039 -0.138089 -0.095353 0.003316 0.097318 0.286242 0.156756 0.184322 0.131179 0.180864 0.091001 0.092393 -0.032945 0.043905 0.031067 -0.030253 0.025835 0.057979 0.084024 0.029996 0.099925 0.116308 0.182069 0.306002 0.039952 0.064705 0.076717 0.009873 0.032741 -0.000426 0.071137 0.123038 -0.000986 0.054700 0.082476 0.144088 0.080464 0.065258 0.106890 0.056114 0.085496 -0.006735 0.030602 -0.030802 0.024888 -0.001060 -0.010469 -0.011331 0.055394 0.027300 0.015782 -0.022546 -0.084911 -0.042854 -0.109525 -0.019016 -0.011534 0.044924 -0.034919 -0.001924 0.095298 -0.066641 0.015546 -0.071876 -0.091000 0.007938 -0.079117 -0.020855 -0.014797 -0.036459 -0.050803 -0.086179 0.037522 0.026523 -0.003090 -0.037183 -0.022686 -0.066763 -0.044112 0.025557 -0.035414 -0.092396 -0.005718 -0.086891 0.055188 0.011233 0.109802 -0.004887 -0.057856 -0.131095 0.035601 0.112045 -0.044595 -0.023664 -0.026921 0.034866 -0.033758 -0.098357 -0.000878 -0.024920 -0.043195 -0.075137 -0.085043 -0.004494 -0.062287 -0.012709 -0.131517 -0.124892 0.057972 0.060054 0.109236 0.024264 0.039807 -0.043018 -0.057090 -0.026365 -0.073399 0.026958 0.069718 -0.102032 -0.091567 0.043204 0.054125 0.048101 -0.084420 -0.048605 -0.050020 -0.057855 -0.085892 0.083093 -0.007981 -0.070259 -0.135421 -0.065217 0.024814 -0.076293 -0.150348 -0.132689 -0.028479 -0.031739 0.022897 -0.087896 0.051741 0.016400 -0.088683 0.018796 -0.058376 -0.196224 -0.060701 0.043226 -0.092444 -0.086062 -0.066877 0.101622 0.244743 -0.011997 0.053180 -0.262934 0.016072 0.042099 0.005447 0.274106 -0.037847 0.270996 0.610712 0.619530 0.522274 0.279621 0.083008 -2.028561
0.072396 0.072904 0.074427 0.076964 0.080516 0.085082 0.090659 0.097247 0.104842 0.113444 0.123047 0.133647 0.145240 0.157818 0.171373 0.185897 0.201377 0.217800 0.235152 0.253414 0.272566 0.292584 0.313441 0.335108 0.357550 0.380728 0.404601 0.429121 0.454236 0.479888 0.506015 0.532547 0.559410 0.586523 0.613797 0.641140 0.668449 0.695617 0.722529 0.749063 0.775090 0.800474 0.825074 0.848740 0.871318 0.892646 0.912560 0.930888 0.947458 0.962090 0.974606 0.984825 0.992567 0.997651 0.999901 0.999144 0.995213 0.987950 0.977203 0.962835 0.944720 0.922747 0.896826 0.866884 0.832871 0.794761 0.752556 0.706286 0.656013 0.601830 0.543869 0.482294 0.417311 0.349165 0.278140 0.204562 0.128799 0.051258 0.027610 0.107320 0.187344 0.267123 0.346064 0.423547 0.498927 0.571540 0.640708 0.705747 0.765972 0.820705 0.869286 0.911075 0.945469 0.971905 0.989876 0.998932 0.998700 0.988885 0.969284 0.939795 0.900423 0.851286 0.792626 0.724811 0.648336 0.563831 0.472053 0.373892 0.270360 0.162589 0.051820 0.060608 0.173273 0.284684 0.393301 0.497557 0.595878 0.686711 0.768549 0.839956 0.899600 0.946277 0.978941 0.996731 0.998995 0.985316 0.955532 0.909750 0.848363 0.772058 0.681817 0.578913 0.464906 0.341623 0.211140 0.075747 0.062079 0.199723 0.334477 0.463590 0.584329 0.694037 0.790196 0.870488 0.932861 0.975586 0.997315 0.997126 0.974573 0.929714 0.863134 0.775960 0.669851 0.546990 0.410043 0.262123 0.106719 0.052370 0.211128 0.365417 0.511089 0.644095 0.760606 0.857130 0.930624 0.978606 0.999250 0.991464 0.954961 0.890297 0.798889 0.683011 0.545756 0.390971 0.223168 0.047406 0.130858 0.305927 0.472043 0.623585 0.755259 0.862302 0.940658 0.987156 0.999653 0.977152 0.919884 0.829340 0.708275 0.560641 0.391488 0.206817 0.013374 0.181578 0.370523 0.545993 0.700853 0.828614 0.923721 0.981807 0.999927 0.976729 0.912564 0.809540 0.671480 0.503829 0.313453 0.108397 0.102444 0.309699 0.503933 0.676084 0.817895 0.922329 0.983953 0.999241 0.966813 0.887573 0.764738 0.603754 0.412095 0.198948 0.025200 0.249058 0.461096 0.650141 0.805979 0.919931 0.985364 0.998121 0.956818 0.863012 0.721202 0.538666 0.325131 0.092298 0.146776 0.378398 0.589015 0.766023 0.898544 0.978130 0.999340 0.960170 0.862268 0.710937 0.514917 0.285928 0.038011 0.213300 0.451943 0.662350 0.830485 0.944812 0.997135 0.983235 0.903271 0.761883 0.568006 0.334362 0.076681 0.187317 0.439134 0.660783 0.836083 0.951896 0.999153 0.973634 0.876402 0.713870 0.497453 0.242836 0.031092 0.303628 0.553801 0.761979 0.911460 0.989864 0.990216 0.911653 0.759641 0.545690 0.286569 0.003062 0.281678 0.543971 0.761614 0.915785 0.992729 0.985068 0.892591 0.722445 0.488689 0.211220 0.085853 0.376263 0.633895 0.835154 0.961186 0.999704 0.946290 0.804987 0.588116 0.315308 0.011821 0.293763 0.572177 0.796312 0.943887 0.999746 0.957516 0.820438 0.601253 0.321151 0.007803 0.307302 0.591997 0.816736 0.957713 0.999476 0.936729 0.775114 0.530855 0.229248 0.097857 0.415375 0.688715 0.887591 0.989461 0.982174 0.865560 0.651697 0.363808 0.033864 0.300898 0.602119 0.834756 0.971207 0.994698 0.901481 0.701551 0.417726 0.083200 0.262263 0.576998 0.822475 0.968084 0.995063 0.899068 0.690992 0.395922 0.050242 0.302737 0.618166 0.855371 0.983184 0.984155 0.857108 0.617609 0.296234 0.065181 0.418878 0.717510
1.000000 1.000000 1.000000 1.000000 1.000000 1.000000 1.000000 1.000000 1.000000 1.000000 1.000000 1.000000 1.000000 1.000000 1.000000 1.000000 1.000000 1.000000 1.000000 1.000000 1.000000 1.000000 1.000000 1.000000 1.000000 1.000000 1.000000 1.000000 1.000000 1.000000 1.000000 1.000000 1.000000 1.000000 1.000000 1.000000 1.000000 1.000000 1.000000 1.000000 1.000000 1.000000 1.000000 1.000000 1.000000 1.000000 1.000000 1.000000 1.000000 1.000000 1.000000 1.000000 0.821727 0.821727 0.821727 0.816300 0.816300 0.816300 0.816300 0.816300 0.816300 0.816300 0.816300 0.816300 0.816300 0.816300 0.816300 0.816300 0.816300 0.816300 0.816300 0.816300 0.816300 0.816300 0.816300 0.816300 0.816300 0.816300 0.816300 0.816300 0.816300 0.816300 0.816300 0.816300 0.816300 0.816300 0.816300 0.816300 0.816300 0.816300 0.816300 0.816300 0.816300 0.816300 0.816300 0.816300 0.827712 0.834828 0.835562 0.841208 0.844666 0.842960 0.840921 0.840137 0.839784 0.840788 0.849899 0.875271 0.892704 0.899627 0.913445 0.917796 0.922183 0.924246 0.931123 0.930946 0.963015 0.957890 0.957497 0.958336 0.949766 0.944288 0.943497 0.942036 0.950936 0.944985 0.942710 0.940052 0.938807 0.934235 0.933368 0.933762 0.930785 0.931197 0.931449 0.931423 0.930710 0.929240 0.928398 0.915645 0.914791 0.914349 0.917109 0.891552 0.887126 0.875964 0.876082 0.877152 0.873086 0.871970 0.864197 0.865665 0.866844 0.865447 0.856738 0.852544 0.848063 0.840249 0.837163 0.835383 0.838150 0.836017 0.835029 0.829671 0.817509 0.808711 0.797910 0.789559 0.778243 0.772088 0.775697 0.779610 0.782626 0.778372 0.776955 0.769918 0.763967 0.747265 0.744789 0.743673 0.754693 0.757606 0.758066 0.758103 0.739122 0.724046 0.704509 0.704470 0.704868 0.666098 0.651293 0.653163 0.654870 0.661264 0.675708 0.671191 0.662041 0.636468 0.613778 0.593938 0.606981 0.627946 0.620216 0.624831 0.604534 0.640448 0.641998 0.657620 0.672607 0.678577 0.675638 0.653696 0.617545 0.613748 0.611720 0.607026 0.599619 0.588677 0.591014 0.608093 0.584082 0.578351 0.570085 0.561748 0.563765 0.575487 0.549725 0.552846 0.519872 0.484605 0.457169 0.454464 0.416200 0.387709 0.384186 0.384859 0.362220 0.359166 0.380584 0.395863 0.397327 0.401209 0.398944 0.305963 0.308342 0.301743 0.281459 0.273689 0.299164 0.306357 0.313627 0.296815 0.262257 0.274339 0.234499 0.249293 0.217200 0.191481 0.183518 0.178321 0.197391 0.197176 0.174552 0.162150 0.152060 0.117285 0.140123 0.148243 0.185220 0.171947 0.151725 0.151326 0.117451 0.095408 0.101448 0.069487 0.032087 0.013237 0.002216 0.004750 0.001166 -0.019859 -0.032584 0.001375 -0.017765 0.021014 -0.005137 -0.023910 -0.045155 -0.035045 -0.050532 -0.062255 -0.052267 -0.087604 -0.129693 -0.155840 -0.160905 -0.141215 -0.127333 -0.149982 -0.150215 -0.157299 -0.195582 -0.186907 -0.147288 -0.138778 -0.144707 -0.117108 -0.094208 -0.113961 -0.231150 -0.176571 -0.139579 -0.143626 -0.145244 -0.183352 -0.210353 -0.212427 -0.197470 -0.150963 -0.129945 -0.108565 -0.113677 -0.112672 -0.103400 -0.154704 -0.194063 -0.198442 -0.190563 -0.172006 -0.134970 -0.107260 -0.089830 -0.076277 -0.097501 -0.097501 -0.097501 -0.097501 -0.088468 -0.088468 -0.088468 -0.088468 -0.088468 -0.088468 -0.088468 -0.088468 -0.088468 -0.126655 -0.126655 -0.126655 -0.126655 -0.126655 -0.126655 -0.126655 -0.126655 -0.126655 -0.126655 -0.126655 -0.126655 -0.126655 -0.126655 -0.126655 -0.126655
0.000000 0.000000 0.000000 0.000000 0.000000 0.000000 0.000000 0.000000 0.000000 0.000000 0.000000 0.000000 0.000000 0.000000 0.000000 0.000000 0.000000 0.000000 0.000000 0.000000 0.000000 0.000000 0.000000 0.000000 0.000000 0.000000 0.000000 0.000000 0.000000 0.000000 0.000000 0.000000 0.000000 0.000000 0.000000 0.000000 0.000000 0.000000 0.000000 0.000000 0.000000 0.000000 0.000000 0.000000 0.000000 0.000000 0.000000 0.000000 0.000000 0.000000 0.000000 0.000000 0.180334 0.180334 0.180334 0.199007 0.199007 0.199007 0.199007 0.199007 0.199007 0.199007 0.199007 0.199007 0.199007 0.199007 0.199007 0.199007 0.199007 0.199007 0.199007 0.199007 0.199007 0.199007 0.199007 0.199007 0.199007 0.199007 0.199007 0.199007 0.199007 0.199007 0.199007 0.199007 0.199007 0.199007 0.199007 0.199007 0.199007 0.199007 0.199007 0.199007 0.199007 0.199007 0.199007 0.199007 0.230940 0.230940 0.230940 0.230940 0.230940 0.230940 0.230940 0.230940 0.230940 0.230940 0.230940 0.230940 0.230940 0.230940 0.230940 0.230940 0.230940 0.230940 0.230940 0.230940 0.230940 0.230940 0.230940 0.230940 0.230940 0.230940 0.230940 0.230940 0.244339 0.244339 0.244339 0.244339 0.244339 0.244339 0.244339 0.244339 0.244339 0.244339 0.244339 0.244339 0.244339 0.244339 0.244339 0.244339 0.244339 0.244339 0.244339 0.244339 0.244339 0.244339 0.244339 0.251976 0.251976 0.251976 0.251976 0.251976 0.251976 0.251976 0.251976 0.251976 0.251976 0.251976 0.251976 0.251976 0.251976 0.251976 0.251976 0.251976 0.251976 0.251976 0.251976 0.264906 0.264906 0.264906 0.264906 0.264906 0.264906 0.264906 0.264906 0.264906 0.264906 0.264906 0.264906 0.264906 0.264906 0.264906 0.264906 0.264906 0.264906 0.264906 0.264906 0.264906 0.264906 0.264906 0.264906 0.264906 0.264906 0.264906 0.264906 0.264906 0.264906 0.264906 0.264906 0.264906 0.264906 0.264906 0.264906 0.264906 0.264906 0.264906 0.264906 0.264906 0.264906 0.264906 0.264906 0.264906 0.264906 0.264906 0.264906 0.264906 0.264906 0.264906 0.264906 0.264906 0.264906 0.264906 0.264906 0.264906 0.264906 0.264906 0.264906 0.264906 0.264906 0.264906 0.264906 0.264906 0.264906 0.264906 0.264906 0.264906 0.264906 0.264906 0.264906 0.264906 0.264906 0.264906 0.260378 0.260378 0.260378 0.260378 0.260378 0.260378 0.260378 0.260378 0.260378 0.260378 0.260378 0.260378 0.260378 0.264906 0.264906 0.264906 0.264906 0.264906 0.264906 0.264906 0.264906 0.264906 0.264906 0.264906 0.264906 0.269680 0.269680 0.269680 0.269680 0.269680 0.269680 0.269680 0.269680 0.269680 0.269680 0.269680 0.264906 0.264906 0.264906 0.264906 0.264906 0.264906 0.264906 0.264906 0.264906 0.264906 0.264906 0.269680 0.269680 0.269680 0.269680 0.269680 0.269680 0.269680 0.269680 0.269680 0.269680 0.251976 0.251976 0.251976 0.251976 0.251976 0.251976 0.251976 0.251976 0.251976 0.251976 0.251976 0.269680 0.269680 0.269680 0.269680 0.269680 0.269680 0.269680 0.269680 0.269680 0.256074 0.256074 0.256074 0.256074 0.256074 0.256074 0.256074 0.256074 0.256074 0.256074 0.260378 0.260378 0.260378 0.260378 0.260378 0.260378 0.260378 0.260378 0.260378 0.256074 0.256074 0.256074 0.256074 0.256074 0.256074 0.256074 0.256074 0.256074 0.251976 0.251976 0.251976 0.251976 0.251976 0.251976 0.251976 0.251976 0.251976 0.251976 0.251976 0.251976 0.251976 0.251976 0.251976 0.251976
