# Output from CTFFind version 4.1.9, run on 2019-11-03 19:00:07
# Input file: stack1_bm3d_averaged_1_3.25_0_750_half.mrc ; Number of micrographs: 1
# Pixel size: 3.000 Angstroms ; acceleration voltage: 300.0 keV ; spherical aberration: 0.00 mm ; amplitude contrast: 0.07
# Box size: 512 pixels ; min. res.: 30.0 Angstroms ; max. res.: 5.0 Angstroms ; min. def.: 5000.0 um; max. def. 50000.0 um; num. frames averaged: 1
# 6 lines per micrograph: #1 - spatial frequency (1/Angstroms); #2 - 1D rotational average of spectrum (assuming no astigmatism); #3 - 1D rotational average of spectrum; #4 - CTF fit; #5 - cross-correlation between spectrum and CTF fit; #6 - 2sigma of expected cross correlation of noise
0.000000 0.000651 0.001302 0.001953 0.002604 0.003255 0.003906 0.004557 0.005208 0.005859 0.006510 0.007161 0.007812 0.008464 0.009115 0.009766 0.010417 0.011068 0.011719 0.012370 0.013021 0.013672 0.014323 0.014974 0.015625 0.016276 0.016927 0.017578 0.018229 0.018880 0.019531 0.020182 0.020833 0.021484 0.022135 0.022786 0.023438 0.024089 0.024740 0.025391 0.026042 0.026693 0.027344 0.027995 0.028646 0.029297 0.029948 0.030599 0.031250 0.031901 0.032552 0.033203 0.033854 0.034505 0.035156 0.035807 0.036458 0.037109 0.037760 0.038411 0.039062 0.039714 0.040365 0.041016 0.041667 0.042318 0.042969 0.043620 0.044271 0.044922 0.045573 0.046224 0.046875 0.047526 0.048177 0.048828 0.049479 0.050130 0.050781 0.051432 0.052083 0.052734 0.053385 0.054036 0.054688 0.055339 0.055990 0.056641 0.057292 0.057943 0.058594 0.059245 0.059896 0.060547 0.061198 0.061849 0.062500 0.063151 0.063802 0.064453 0.065104 0.065755 0.066406 0.067057 0.067708 0.068359 0.069010 0.069661 0.070312 0.070964 0.071615 0.072266 0.072917 0.073568 0.074219 0.074870 0.075521 0.076172 0.076823 0.077474 0.078125 0.078776 0.079427 0.080078 0.080729 0.081380 0.082031 0.082682 0.083333 0.083984 0.084635 0.085286 0.085938 0.086589 0.087240 0.087891 0.088542 0.089193 0.089844 0.090495 0.091146 0.091797 0.092448 0.093099 0.093750 0.094401 0.095052 0.095703 0.096354 0.097005 0.097656 0.098307 0.098958 0.099609 0.100260 0.100911 0.101562 0.102214 0.102865 0.103516 0.104167 0.104818 0.105469 0.106120 0.106771 0.107422 0.108073 0.108724 0.109375 0.110026 0.110677 0.111328 0.111979 0.112630 0.113281 0.113932 0.114583 0.115234 0.115885 0.116536 0.117188 0.117839 0.118490 0.119141 0.119792 0.120443 0.121094 0.121745 0.122396 0.123047 0.123698 0.124349 0.125000 0.125651 0.126302 0.126953 0.127604 0.128255 0.128906 0.129557 0.130208 0.130859 0.131510 0.132161 0.132812 0.133464 0.134115 0.134766 0.135417 0.136068 0.136719 0.137370 0.138021 0.138672 0.139323 0.139974 0.140625 0.141276 0.141927 0.142578 0.143229 0.143880 0.144531 0.145182 0.145833 0.146484 0.147135 0.147786 0.148438 0.149089 0.149740 0.150391 0.151042 0.151693 0.152344 0.152995 0.153646 0.154297 0.154948 0.155599 0.156250 0.156901 0.157552 0.158203 0.158854 0.159505 0.160156 0.160807 0.161458 0.162109 0.162760 0.163411 0.164062 0.164714 0.165365 0.166016 0.166667 0.167318 0.167969 0.168620 0.169271 0.169922 0.170573 0.171224 0.171875 0.172526 0.173177 0.173828 0.174479 0.175130 0.175781 0.176432 0.177083 0.177734 0.178385 0.179036 0.179688 0.180339 0.180990 0.181641 0.182292 0.182943 0.183594 0.184245 0.184896 0.185547 0.186198 0.186849 0.187500 0.188151 0.188802 0.189453 0.190104 0.190755 0.191406 0.192057 0.192708 0.193359 0.194010 0.194661 0.195312 0.195964 0.196615 0.197266 0.197917 0.198568 0.199219 0.199870 0.200521 0.201172 0.201823 0.202474 0.203125 0.203776 0.204427 0.205078 0.205729 0.206380 0.207031 0.207682 0.208333 0.208984 0.209635 0.210286 0.210938 0.211589 0.212240 0.212891 0.213542 0.214193 0.214844 0.215495 0.216146 0.216797 0.217448 0.218099 0.218750 0.219401 0.220052 0.220703 0.221354 0.222005 0.222656 0.223307 0.223958 0.224609 0.225260 0.225911 0.226562 0.227214 0.227865 0.228516 0.229167 0.229818 0.230469 0.231120 0.231771 0.232422 0.233073 0.233724 0.234375 0.235026 0.235677
       0.35381        0.35381        0.35381        0.35381        0.35381        0.35381        0.35381        0.35381        0.35381        0.35381        0.35381        0.35381        0.35381        0.35381        0.35381        0.35381        0.35381        0.35381        0.35381        0.35381        0.35381        0.35381        0.35381        0.35381        0.35381        0.35381        0.35381        0.35381        0.35381        0.35381        0.35381        0.35381        0.35381        0.35381        0.35381        0.35381        0.35381        0.35381        0.35381        0.35381        0.35381        0.35381        0.35381        0.35381        0.35381        0.35381        0.35381        0.35381        0.35381        0.35381        0.35381        0.49544        0.70945        0.40401        0.21049       -0.03674       -0.22425       -0.03736       -0.11206       -0.07567        0.02211       -0.10477       -0.09529       -0.03593       -0.01984       -0.12272       -0.15532       -0.29291       -0.45974       -0.55324       -0.50594       -0.43345       -0.33872       -0.53552       -0.39795       -0.52634       -0.43709       -0.45013       -0.34324       -0.32161       -0.28678       -0.19189       -0.10663       -0.10537        0.04152        0.02152        0.17888        0.18241        0.33631        0.42608        0.51848        0.55885        0.57155        0.59149        0.72845        0.65426        0.67082        0.58391        0.55034        0.63181        0.51879        0.48239        0.41928        0.32173        0.28894        0.30503        0.25718        0.12045        0.11000       -0.00258        0.04600        0.05521        0.02194        0.09611        0.14153        0.22996        0.29388        0.29819        0.39969        0.54620        0.56047        0.57067        0.67704        0.64688        0.63183        0.67270        0.64818        0.53843        0.53474        0.42440        0.36550        0.28197        0.20836        0.15109        0.16083        0.13618        0.17204        0.16655        0.24370        0.25114        0.33452        0.37625        0.40528        0.51232        0.56011        0.58067        0.56124        0.60828        0.54459        0.49273        0.51026        0.37885        0.29981        0.28652        0.27529        0.20183        0.20467        0.20307        0.23321        0.26281        0.35149        0.39342        0.42160        0.44495        0.45364        0.48027        0.44427        0.50280        0.44451        0.38808        0.36066        0.38964        0.33575        0.31368        0.24973        0.28102        0.25518        0.27624        0.28865        0.37539        0.39448        0.40296        0.44063        0.46256        0.44617        0.44394        0.47152        0.37183        0.36345        0.32543        0.27862        0.33496        0.29034        0.32317        0.34251        0.34195        0.35118        0.42591        0.39798        0.43773        0.40517        0.42483        0.39150        0.39149        0.31535        0.29994        0.29223        0.28085        0.30183        0.36456        0.38427        0.37076        0.38631        0.39208        0.36896        0.44153        0.41155        0.38618        0.37202        0.32756        0.30628        0.33686        0.31880        0.35993        0.32232        0.34704        0.36437        0.38610        0.39163        0.36248        0.36819        0.37246        0.35103        0.32110        0.34967        0.33994        0.35531        0.33225        0.35569        0.37431        0.33187        0.34071        0.36774        0.32578        0.29962        0.30761        0.31657        0.31916        0.32105        0.36051        0.32326        0.32698        0.33174        0.32424        0.33430        0.31651        0.32350        0.31419        0.31396        0.31797        0.33231        0.32734        0.34490        0.33739        0.39594        0.38833        0.32321        0.36447        0.35476        0.26480        0.28544        0.32931        0.30383        0.30686        0.34446        0.32896        0.33275        0.37575        0.37517        0.31559        0.28864        0.31029        0.35004        0.37172        0.39067        0.33521        0.32122        0.30434        0.29709        0.27345        0.31085        0.30138        0.32745        0.32939        0.31154        0.27928        0.34419        0.35206        0.36033        0.29092        0.30709        0.35019        0.38746        0.38373        0.35649        0.34491        0.31894        0.31211        0.31491        0.33433        0.32540        0.24741        0.24589        0.31917        0.32335        0.31583        0.29888        0.27375        0.25430        0.26686        0.29129        0.34452        0.30550        0.30369        0.35212        0.39872        0.35301        0.26570        0.29121        0.25797        0.29191        0.33123        0.36367        0.30802        0.30587        0.30745        0.27698        0.31868        0.25743        0.23603        0.21163        0.27150        0.25793        0.23215        0.30147        0.26176        0.34327        0.31491        0.27562        0.22799        0.19886        0.32025        0.37485        0.34417        0.13490        0.19330        0.30644        0.20320        0.17494       -0.05484        0.05696       -0.62049       -1.17429
2.816875 2.786992 2.757270 2.727710 2.698311 2.669074 2.639998 2.611084 2.582331 2.553739 2.525309 2.497040 2.468933 2.440987 2.413202 2.385579 2.358117 2.330817 2.303678 2.276701 2.249885 2.223231 2.196738 2.170406 2.144236 2.118227 2.092380 2.066694 2.041169 2.015806 1.990604 1.965564 1.940685 1.915968 1.891412 1.867018 1.842784 1.818713 1.794803 1.771054 1.747466 1.724040 1.700776 1.677673 1.654731 1.631951 1.609332 1.586875 1.564579 1.542444 1.520471 1.557633 1.910711 1.528670 1.252735 0.987726 0.553257 0.959220 0.655568 0.843095 0.924723 0.671307 0.668614 0.807635 0.787353 0.626448 0.606270 0.395005 0.075645 0.035139 0.019071 0.009372 0.329156 -0.065771 0.052019 -0.056317 0.004013 -0.022637 0.086955 0.087302 0.134301 0.197725 0.326750 0.281018 0.462304 0.390336 0.624554 0.550264 0.793850 0.818036 0.945155 1.041078 0.979735 1.018481 1.152653 1.014008 1.169227 0.933723 0.899050 0.995695 0.847352 0.820715 0.684844 0.564765 0.514763 0.493423 0.482564 0.249983 0.228988 0.121542 0.040841 0.176640 0.013873 0.096343 0.200766 0.245326 0.324213 0.338598 0.449829 0.534233 0.683701 0.532713 0.776131 0.748304 0.630826 0.762883 0.715423 0.605703 0.472917 0.473541 0.308896 0.231856 0.096587 0.033185 -0.012160 0.013185 -0.059533 0.005719 0.070867 0.074573 0.106020 0.225654 0.239630 0.335652 0.431554 0.431922 0.474992 0.436189 0.456722 0.326130 0.336003 0.288006 0.063036 0.066868 0.020907 -0.042555 -0.053144 -0.092731 -0.046636 -0.048483 0.049253 0.110083 0.169625 0.215923 0.189313 0.266336 0.250074 0.237297 0.237735 0.205508 0.107553 0.105525 0.102930 0.019986 0.005593 -0.065220 -0.005124 -0.016918 -0.006026 0.026501 0.109257 0.095585 0.160443 0.182448 0.259213 0.123805 0.232741 0.123019 0.118796 0.038833 -0.029890 0.026192 -0.014235 0.000892 0.002555 0.068398 0.009777 0.076506 0.133349 0.147865 0.129541 0.096870 0.118332 0.081795 0.063160 -0.041234 -0.035989 -0.045427 -0.073721 0.002233 0.071238 0.086722 0.009843 0.103000 0.071401 0.069134 0.161329 0.073172 0.089474 0.065313 -0.039087 0.003233 0.016133 -0.005786 0.057903 0.004855 0.025121 0.059678 0.062565 0.059958 0.056151 0.000800 0.067448 -0.005228 0.010335 0.021326 0.006165 0.055387 0.009986 0.029961 0.049848 -0.020003 0.035725 0.044241 -0.025089 -0.055179 -0.004635 -0.012312 -0.035525 0.002476 0.053050 -0.001855 0.014527 0.058390 -0.018702 0.050220 0.033015 0.021038 0.006259 0.051034 0.017445 0.047060 0.018425 0.081313 0.070970 0.175138 0.116101 0.059611 0.113706 0.071291 -0.040619 0.041117 0.062171 0.030748 0.058028 0.061964 0.050009 0.039752 0.114195 0.075527 0.033847 -0.054499 0.045011 0.081256 0.097236 0.111793 0.040820 0.004680 0.021450 -0.007359 -0.036585 0.019641 0.043452 0.021118 0.086376 -0.008140 -0.030582 0.034072 0.067045 0.009708 -0.019300 -0.040470 0.083365 0.091896 0.063459 0.014527 0.020291 -0.028756 -0.030487 0.008660 -0.038606 0.008403 -0.139185 -0.100888 -0.011273 0.013314 -0.036651 -0.054242 -0.036177 -0.037196 -0.036407 -0.058225 0.074428 -0.017147 0.001746 0.069287 0.153347 0.000549 -0.041404 -0.013394 -0.055139 0.026091 0.037013 0.106850 0.015083 0.023721 0.003466 0.007609 0.094208 -0.033008 -0.049830 -0.106991 0.042302 0.008207 -0.028872 0.045207 0.000031 0.177536 0.049589 0.079854 -0.079037 0.001706 0.076124 0.175765 0.433348 0.095574 0.249477 0.463094 0.213431 0.244948 -0.241557 0.259000 -0.521655
0.072396 0.072909 0.074449 0.077014 0.080605 0.085220 0.090858 0.097517 0.105196 0.113890 0.123597 0.134313 0.146030 0.158744 0.172444 0.187123 0.202768 0.219365 0.236899 0.255351 0.274701 0.294923 0.315990 0.337872 0.360532 0.383932 0.408028 0.432771 0.458107 0.483977 0.510315 0.537052 0.564110 0.591406 0.618848 0.646341 0.673780 0.701054 0.728044 0.754627 0.780668 0.806029 0.830564 0.854120 0.876538 0.897654 0.917298 0.935296 0.951469 0.965638 0.977618 0.987227 0.994281 0.998597 0.999998 0.998309 0.993362 0.984999 0.973071 0.957439 0.937983 0.914595 0.887188 0.855697 0.820079 0.780317 0.736423 0.688438 0.636436 0.580527 0.520857 0.457608 0.391005 0.321311 0.248833 0.173919 0.096959 0.018385 0.061331 0.141675 0.222098 0.302017 0.380817 0.457854 0.532464 0.603965 0.671665 0.734867 0.792878 0.845014 0.890615 0.929047 0.959716 0.982077 0.995642 0.999993 0.994789 0.979779 0.954810 0.919833 0.874914 0.820242 0.756132 0.683027 0.601509 0.512289 0.416215 0.314263 0.207533 0.097242 0.015289 0.128647 0.241342 0.351826 0.458515 0.559808 0.654117 0.739888 0.815633 0.879956 0.931584 0.969395 0.992444 0.999995 0.991543 0.966833 0.925886 0.869008 0.796802 0.710175 0.610331 0.498773 0.377279 0.247890 0.112876 0.025293 0.163994 0.300493 0.432000 0.555729 0.668952 0.769070 0.853675 0.920613 0.968047 0.994517 0.998989 0.980907 0.940221 0.877421 0.793543 0.690175 0.569439 0.433963 0.286835 0.131544 0.028095 0.188025 0.344057 0.491964 0.627614 0.747078 0.846754 0.923490 0.974692 0.998423 0.993493 0.959525 0.897001 0.807283 0.692612 0.556064 0.401499 0.233461 0.057056 0.122184 0.298476 0.465970 0.618942 0.751998 0.860276 0.939635 0.986833 0.999679 0.977148 0.919472 0.828172 0.706056 0.557156 0.386628 0.200589 0.005917 0.189993 0.379500 0.555018 0.709328 0.835878 0.929091 0.984621 0.999589 0.972752 0.904620 0.797491 0.655416 0.484081 0.290609 0.083288 0.128765 0.335994 0.528835 0.698158 0.835722 0.934588 0.989504 0.997211 0.956675 0.869204 0.738465 0.570376 0.372875 0.155586 0.070636 0.294221 0.503473 0.687191 0.835282 0.939342 0.993163 0.993150 0.938593 0.831806 0.678079 0.485478 0.264463 0.027350 0.212339 0.440648 0.643989 0.809976 0.928201 0.990931 0.993654 0.935458 0.819190 0.651388 0.441976 0.203721 0.048496 0.298590 0.530291 0.728207 0.878872 0.971696 0.999772 0.960436 0.855574 0.691618 0.479216 0.232622 0.031244 0.293896 0.536579 0.741623 0.893744 0.981239 0.996945 0.938887 0.810573 0.620868 0.383456 0.115934 0.161464 0.427363 0.660887 0.843333 0.959704 0.999999 0.960164 0.842559 0.655930 0.414854 0.138672 0.149999 0.427106 0.669130 0.855135 0.968621 0.999047 0.942914 0.804231 0.594350 0.331135 0.037518 0.260446 0.535858 0.763419 0.921797 0.995680 0.977365 0.867641 0.675930 0.419581 0.122403 0.187475 0.480232 0.727230 0.903842 0.991983 0.982054 0.874103 0.678032 0.412819 0.104794 0.214914 0.513474 0.759715 0.927457 0.998346 0.963983 0.827042 0.601224 0.310012 0.015646 0.340576 0.629136 0.849155 0.975581 0.993446 0.899757 0.704100 0.427811 0.101779 0.236915 0.549164 0.798361 0.954744 0.999064 0.925079 0.740575 0.466717 0.135778 0.212574 0.535957 0.794454 0.955574 0.998470 0.916770 0.719678 0.431113 0.086977 0.269219 0.591789 0.838762 0.977394 0.988659 0.870015 0.636071 0.316959 0.045368 0.402559 0.706307 0.914898 0.999053
1.000000 1.000000 1.000000 1.000000 1.000000 1.000000 1.000000 1.000000 1.000000 1.000000 1.000000 1.000000 1.000000 1.000000 1.000000 1.000000 1.000000 1.000000 1.000000 1.000000 1.000000 1.000000 1.000000 1.000000 1.000000 1.000000 1.000000 1.000000 1.000000 1.000000 1.000000 1.000000 1.000000 1.000000 1.000000 1.000000 1.000000 1.000000 1.000000 1.000000 1.000000 1.000000 1.000000 1.000000 1.000000 1.000000 1.000000 1.000000 1.000000 1.000000 1.000000 1.000000 0.909006 0.909006 0.899706 0.899706 0.899706 0.899706 0.899706 0.899706 0.899706 0.899706 0.899706 0.899706 0.899706 0.899706 0.899706 0.899706 0.899706 0.899706 0.899706 0.899706 0.899706 0.899706 0.899706 0.899706 0.899706 0.899706 0.899706 0.899706 0.899706 0.899706 0.899706 0.899706 0.899706 0.899706 0.899706 0.899706 0.899706 0.899706 0.899706 0.899706 0.899706 0.899706 0.899706 0.886911 0.893687 0.896844 0.898646 0.902444 0.903423 0.902814 0.902254 0.901963 0.902468 0.903906 0.911854 0.930620 0.941503 0.947581 0.952314 0.960180 0.962055 0.961305 0.967433 0.973460 0.971451 0.971065 0.971699 0.973166 0.975379 0.975581 0.977071 0.977275 0.977939 0.978154 0.977849 0.977395 0.976919 0.976721 0.976287 0.976444 0.977056 0.977439 0.977036 0.977238 0.977339 0.968537 0.968510 0.964909 0.965726 0.966827 0.966519 0.960422 0.957820 0.961591 0.961707 0.961233 0.961084 0.960569 0.961009 0.953331 0.947183 0.947197 0.934019 0.932283 0.931235 0.930062 0.928800 0.928754 0.928450 0.930156 0.927592 0.917296 0.910428 0.881080 0.904152 0.896876 0.866105 0.849629 0.852327 0.854806 0.855475 0.853401 0.850328 0.845576 0.838379 0.839344 0.842310 0.846782 0.845328 0.845412 0.847879 0.847545 0.826567 0.816791 0.800125 0.789324 0.789689 0.790135 0.788063 0.782634 0.790630 0.788567 0.785304 0.776709 0.770905 0.746511 0.725452 0.734524 0.742488 0.757838 0.753403 0.724885 0.686505 0.708742 0.710789 0.713251 0.716084 0.710078 0.683918 0.671640 0.677453 0.653332 0.663558 0.661406 0.658932 0.661193 0.646129 0.622295 0.625302 0.611682 0.600005 0.595178 0.598366 0.625496 0.587431 0.581157 0.568863 0.559127 0.560397 0.513408 0.517039 0.518483 0.503246 0.499537 0.484505 0.486102 0.489172 0.486469 0.479315 0.482042 0.483463 0.513195 0.504254 0.502682 0.502005 0.502940 0.475334 0.463450 0.454067 0.454907 0.452063 0.478172 0.478027 0.479865 0.469544 0.462328 0.452711 0.422774 0.425848 0.435154 0.407027 0.386726 0.350116 0.331950 0.313108 0.283164 0.295067 0.314345 0.283577 0.290486 0.286927 0.224303 0.178725 0.158493 0.155201 0.128673 0.124132 0.116057 0.090551 0.149870 0.154433 0.173560 0.170137 0.120396 0.199349 0.180192 0.152968 0.119378 0.143603 0.160419 0.104840 0.119874 0.102227 0.110425 0.108876 0.084663 0.102910 0.042357 0.009763 0.005483 0.026470 0.040656 0.048304 0.038827 0.028678 0.022592 0.033743 0.041000 0.044991 0.021536 0.063443 0.071206 0.069963 0.042352 0.036031 0.041152 0.051553 0.055466 0.052537 0.058182 0.087668 0.100397 0.107115 0.120277 0.110384 0.091652 0.081712 0.114377 0.127613 0.100200 0.130683 0.117643 0.072194 0.072194 0.044955 0.044955 0.044955 0.044955 0.044955 0.044955 0.044955 0.044955 0.044955 0.039135 0.039135 0.039135 0.039135 0.039135 0.039135 0.039135 0.039135 0.039135 0.039135 0.039135 0.039135 0.039135 0.039135 0.039135 0.039135 0.039135 0.039135
0.000000 0.000000 0.000000 0.000000 0.000000 0.000000 0.000000 0.000000 0.000000 0.000000 0.000000 0.000000 0.000000 0.000000 0.000000 0.000000 0.000000 0.000000 0.000000 0.000000 0.000000 0.000000 0.000000 0.000000 0.000000 0.000000 0.000000 0.000000 0.000000 0.000000 0.000000 0.000000 0.000000 0.000000 0.000000 0.000000 0.000000 0.000000 0.000000 0.000000 0.000000 0.000000 0.000000 0.000000 0.000000 0.000000 0.000000 0.000000 0.000000 0.000000 0.000000 0.000000 0.181818 0.181818 0.199007 0.199007 0.199007 0.199007 0.199007 0.199007 0.199007 0.199007 0.199007 0.199007 0.199007 0.199007 0.199007 0.199007 0.199007 0.199007 0.199007 0.199007 0.199007 0.199007 0.199007 0.199007 0.199007 0.199007 0.199007 0.199007 0.199007 0.199007 0.199007 0.199007 0.199007 0.199007 0.199007 0.199007 0.199007 0.199007 0.199007 0.199007 0.199007 0.199007 0.199007 0.230940 0.230940 0.230940 0.230940 0.230940 0.230940 0.230940 0.230940 0.230940 0.230940 0.230940 0.230940 0.230940 0.230940 0.230940 0.230940 0.230940 0.230940 0.230940 0.230940 0.230940 0.230940 0.230940 0.230940 0.230940 0.230940 0.230940 0.230940 0.244339 0.244339 0.244339 0.244339 0.244339 0.244339 0.244339 0.244339 0.244339 0.244339 0.244339 0.244339 0.244339 0.244339 0.244339 0.244339 0.244339 0.244339 0.244339 0.244339 0.244339 0.244339 0.244339 0.251976 0.251976 0.251976 0.251976 0.251976 0.251976 0.251976 0.251976 0.251976 0.251976 0.251976 0.251976 0.251976 0.251976 0.251976 0.251976 0.251976 0.251976 0.251976 0.251976 0.264906 0.264906 0.264906 0.264906 0.264906 0.264906 0.264906 0.264906 0.264906 0.264906 0.264906 0.264906 0.264906 0.264906 0.264906 0.264906 0.264906 0.264906 0.264906 0.264906 0.264906 0.264906 0.264906 0.264906 0.264906 0.264906 0.264906 0.264906 0.264906 0.264906 0.264906 0.264906 0.264906 0.264906 0.264906 0.264906 0.264906 0.264906 0.264906 0.264906 0.264906 0.264906 0.264906 0.264906 0.264906 0.264906 0.264906 0.264906 0.264906 0.264906 0.264906 0.264906 0.264906 0.264906 0.264906 0.264906 0.264906 0.264906 0.264906 0.264906 0.264906 0.264906 0.264906 0.264906 0.264906 0.264906 0.264906 0.264906 0.264906 0.264906 0.264906 0.264906 0.264906 0.264906 0.264906 0.269680 0.269680 0.269680 0.269680 0.269680 0.269680 0.269680 0.269680 0.269680 0.269680 0.269680 0.269680 0.264906 0.264906 0.264906 0.264906 0.264906 0.264906 0.264906 0.264906 0.264906 0.264906 0.264906 0.264906 0.260378 0.260378 0.260378 0.260378 0.260378 0.260378 0.260378 0.260378 0.260378 0.260378 0.260378 0.260378 0.274721 0.274721 0.274721 0.274721 0.274721 0.274721 0.274721 0.274721 0.274721 0.274721 0.256074 0.256074 0.256074 0.256074 0.256074 0.256074 0.256074 0.256074 0.256074 0.256074 0.256074 0.264906 0.264906 0.264906 0.264906 0.264906 0.264906 0.264906 0.264906 0.264906 0.264906 0.260378 0.260378 0.260378 0.260378 0.260378 0.260378 0.260378 0.260378 0.260378 0.260378 0.264906 0.264906 0.264906 0.264906 0.264906 0.264906 0.264906 0.264906 0.264906 0.260378 0.260378 0.260378 0.260378 0.260378 0.260378 0.260378 0.260378 0.260378 0.256074 0.256074 0.256074 0.256074 0.256074 0.256074 0.256074 0.256074 0.256074 0.251976 0.251976 0.251976 0.251976 0.251976 0.251976 0.251976 0.251976 0.251976 0.251976 0.251976 0.251976 0.251976 0.251976 0.251976 0.251976 0.251976 0.251976
