# Output from CTFFind version 4.1.9, run on 2019-11-02 17:49:02
# Input file: stack1_bm3d_averaged_1_0.5_0_2500_half.mrc ; Number of micrographs: 1
# Pixel size: 3.000 Angstroms ; acceleration voltage: 300.0 keV ; spherical aberration: 0.00 mm ; amplitude contrast: 0.07
# Box size: 512 pixels ; min. res.: 30.0 Angstroms ; max. res.: 5.0 Angstroms ; min. def.: 5000.0 um; max. def. 50000.0 um; num. frames averaged: 1
# 6 lines per micrograph: #1 - spatial frequency (1/Angstroms); #2 - 1D rotational average of spectrum (assuming no astigmatism); #3 - 1D rotational average of spectrum; #4 - CTF fit; #5 - cross-correlation between spectrum and CTF fit; #6 - 2sigma of expected cross correlation of noise
0.000000 0.000651 0.001302 0.001953 0.002604 0.003255 0.003906 0.004557 0.005208 0.005859 0.006510 0.007161 0.007812 0.008464 0.009115 0.009766 0.010417 0.011068 0.011719 0.012370 0.013021 0.013672 0.014323 0.014974 0.015625 0.016276 0.016927 0.017578 0.018229 0.018880 0.019531 0.020182 0.020833 0.021484 0.022135 0.022786 0.023438 0.024089 0.024740 0.025391 0.026042 0.026693 0.027344 0.027995 0.028646 0.029297 0.029948 0.030599 0.031250 0.031901 0.032552 0.033203 0.033854 0.034505 0.035156 0.035807 0.036458 0.037109 0.037760 0.038411 0.039062 0.039714 0.040365 0.041016 0.041667 0.042318 0.042969 0.043620 0.044271 0.044922 0.045573 0.046224 0.046875 0.047526 0.048177 0.048828 0.049479 0.050130 0.050781 0.051432 0.052083 0.052734 0.053385 0.054036 0.054688 0.055339 0.055990 0.056641 0.057292 0.057943 0.058594 0.059245 0.059896 0.060547 0.061198 0.061849 0.062500 0.063151 0.063802 0.064453 0.065104 0.065755 0.066406 0.067057 0.067708 0.068359 0.069010 0.069661 0.070312 0.070964 0.071615 0.072266 0.072917 0.073568 0.074219 0.074870 0.075521 0.076172 0.076823 0.077474 0.078125 0.078776 0.079427 0.080078 0.080729 0.081380 0.082031 0.082682 0.083333 0.083984 0.084635 0.085286 0.085938 0.086589 0.087240 0.087891 0.088542 0.089193 0.089844 0.090495 0.091146 0.091797 0.092448 0.093099 0.093750 0.094401 0.095052 0.095703 0.096354 0.097005 0.097656 0.098307 0.098958 0.099609 0.100260 0.100911 0.101562 0.102214 0.102865 0.103516 0.104167 0.104818 0.105469 0.106120 0.106771 0.107422 0.108073 0.108724 0.109375 0.110026 0.110677 0.111328 0.111979 0.112630 0.113281 0.113932 0.114583 0.115234 0.115885 0.116536 0.117188 0.117839 0.118490 0.119141 0.119792 0.120443 0.121094 0.121745 0.122396 0.123047 0.123698 0.124349 0.125000 0.125651 0.126302 0.126953 0.127604 0.128255 0.128906 0.129557 0.130208 0.130859 0.131510 0.132161 0.132812 0.133464 0.134115 0.134766 0.135417 0.136068 0.136719 0.137370 0.138021 0.138672 0.139323 0.139974 0.140625 0.141276 0.141927 0.142578 0.143229 0.143880 0.144531 0.145182 0.145833 0.146484 0.147135 0.147786 0.148438 0.149089 0.149740 0.150391 0.151042 0.151693 0.152344 0.152995 0.153646 0.154297 0.154948 0.155599 0.156250 0.156901 0.157552 0.158203 0.158854 0.159505 0.160156 0.160807 0.161458 0.162109 0.162760 0.163411 0.164062 0.164714 0.165365 0.166016 0.166667 0.167318 0.167969 0.168620 0.169271 0.169922 0.170573 0.171224 0.171875 0.172526 0.173177 0.173828 0.174479 0.175130 0.175781 0.176432 0.177083 0.177734 0.178385 0.179036 0.179688 0.180339 0.180990 0.181641 0.182292 0.182943 0.183594 0.184245 0.184896 0.185547 0.186198 0.186849 0.187500 0.188151 0.188802 0.189453 0.190104 0.190755 0.191406 0.192057 0.192708 0.193359 0.194010 0.194661 0.195312 0.195964 0.196615 0.197266 0.197917 0.198568 0.199219 0.199870 0.200521 0.201172 0.201823 0.202474 0.203125 0.203776 0.204427 0.205078 0.205729 0.206380 0.207031 0.207682 0.208333 0.208984 0.209635 0.210286 0.210938 0.211589 0.212240 0.212891 0.213542 0.214193 0.214844 0.215495 0.216146 0.216797 0.217448 0.218099 0.218750 0.219401 0.220052 0.220703 0.221354 0.222005 0.222656 0.223307 0.223958 0.224609 0.225260 0.225911 0.226562 0.227214 0.227865 0.228516 0.229167 0.229818 0.230469 0.231120 0.231771 0.232422 0.233073 0.233724 0.234375 0.235026 0.235677
       0.33466        0.33466        0.33466        0.33466        0.33466        0.33466        0.33466        0.33466        0.33466        0.33466        0.33466        0.33466        0.33466        0.33466        0.33466        0.33466        0.33466        0.33466        0.33466        0.33466        0.33466        0.33466        0.33466        0.33466        0.33466        0.33466        0.33466        0.33466        0.33466        0.33466        0.33466        0.33466        0.33466        0.33466        0.33466        0.33466        0.33466        0.33466        0.33466        0.33466        0.33466        0.33466        0.33466        0.33466        0.33466        0.33466        0.33466        0.33466        0.33466        0.33466        0.33466        0.50343        0.71949        0.43030        0.19094       -0.08010       -0.26321       -0.06891       -0.13262       -0.05275       -0.00135       -0.14502       -0.09031       -0.04838       -0.00072       -0.14987       -0.21814       -0.34488       -0.46164       -0.55771       -0.51658       -0.44731       -0.37112       -0.54604       -0.44674       -0.61930       -0.49986       -0.47363       -0.38874       -0.38272       -0.34063       -0.24894       -0.15831       -0.13477        0.03429       -0.00992        0.12005        0.17042        0.30481        0.40935        0.46581        0.49660        0.54126        0.55096        0.69560        0.64738        0.67933        0.59207        0.55726        0.65688        0.52989        0.42822        0.38485        0.32348        0.22919        0.26692        0.25408        0.10968        0.08614        0.00139       -0.00557        0.03679       -0.00152        0.07743        0.09917        0.23256        0.28360        0.30696        0.38137        0.56009        0.53837        0.58026        0.67206        0.70014        0.63225        0.63635        0.63256        0.55389        0.57725        0.39621        0.34627        0.26833        0.18732        0.07266        0.14683        0.12115        0.09068        0.10703        0.21101        0.21563        0.31829        0.35978        0.41518        0.49626        0.58783        0.54335        0.55542        0.61032        0.54432        0.46565        0.47889        0.32562        0.25363        0.25783        0.24433        0.14609        0.14772        0.15438        0.22149        0.25012        0.32932        0.36369        0.39031        0.47009        0.44948        0.48082        0.45756        0.46911        0.44583        0.40918        0.38325        0.35353        0.31102        0.28639        0.20459        0.19927        0.22249        0.27026        0.27072        0.35209        0.37732        0.35995        0.41242        0.45940        0.45189        0.42509        0.43880        0.37035        0.33784        0.28647        0.26624        0.29177        0.27241        0.29693        0.30196        0.35126        0.34422        0.40248        0.40875        0.42887        0.41170        0.42884        0.40396        0.36648        0.28522        0.29513        0.31141        0.27673        0.25846        0.33274        0.37253        0.34346        0.35545        0.36044        0.35648        0.40860        0.40207        0.35952        0.34064        0.31250        0.31065        0.31572        0.31679        0.29985        0.28849        0.33742        0.35878        0.38027        0.33459        0.32782        0.33567        0.34576        0.30710        0.28388        0.30875        0.31734        0.33751        0.32471        0.33495        0.35980        0.33217        0.31521        0.33067        0.30577        0.26713        0.25418        0.26678        0.30722        0.32423        0.35037        0.30237        0.31778        0.34106        0.29568        0.31887        0.28875        0.28576        0.29464        0.30242        0.30972        0.34501        0.32402        0.33035        0.33622        0.31315        0.33587        0.31837        0.32037        0.30899        0.28505        0.29670        0.31790        0.29474        0.33044        0.34115        0.33427        0.31725        0.33842        0.31697        0.27514        0.25605        0.27294        0.33366        0.36137        0.34931        0.31754        0.29581        0.29698        0.31618        0.24829        0.29968        0.30434        0.32831        0.30015        0.32320        0.28888        0.33808        0.34473        0.34711        0.33009        0.29564        0.31864        0.39711        0.32888        0.31608        0.31217        0.29063        0.28551        0.29870        0.26490        0.30927        0.24104        0.28281        0.29882        0.31767        0.29644        0.27970        0.30276        0.23877        0.23090        0.26209        0.30806        0.30573        0.28722        0.28767        0.33448        0.25657        0.21267        0.31594        0.27684        0.25579        0.28220        0.39824        0.30175        0.28606        0.24985        0.25262        0.26349        0.23271        0.23284        0.16268        0.25505        0.23608        0.25122        0.31966        0.28421        0.34574        0.28085        0.26035        0.24326        0.21845        0.23585        0.29175        0.23125        0.12047        0.14446        0.24576        0.24708        0.34049        0.30867        0.02885       -0.43247       -0.91411
2.729779 2.700799 2.671975 2.643307 2.614796 2.586442 2.558244 2.530203 2.502318 2.474590 2.447018 2.419603 2.392344 2.365242 2.338297 2.311508 2.284875 2.258400 2.232080 2.205918 2.179911 2.154062 2.128369 2.102832 2.077452 2.052229 2.027162 2.002251 1.977498 1.952900 1.928460 1.904175 1.880048 1.856077 1.832262 1.808604 1.785103 1.761758 1.738570 1.715538 1.692663 1.669944 1.647382 1.624976 1.602727 1.580635 1.558699 1.536919 1.515296 1.493830 1.472520 1.542024 1.842116 1.527722 1.206435 0.951010 0.550491 0.920931 0.641475 0.884230 0.936513 0.599501 0.719414 0.792238 0.828504 0.638602 0.547521 0.352848 0.108784 0.084708 0.048038 0.087031 0.305671 -0.030487 0.088069 -0.131610 -0.006552 -0.016221 0.086105 0.067918 0.100210 0.180094 0.287556 0.255714 0.486664 0.401795 0.551794 0.529848 0.771718 0.790630 0.884399 0.921440 0.944015 0.947159 1.118570 0.943819 1.146618 0.950802 0.853225 1.020574 0.851341 0.762302 0.616629 0.598430 0.455448 0.420765 0.513478 0.266340 0.201218 0.158310 0.009783 0.206620 -0.004736 0.121312 0.180992 0.256601 0.329446 0.350831 0.425444 0.535087 0.664937 0.539995 0.742239 0.858958 0.640797 0.698117 0.664099 0.591500 0.540971 0.460077 0.296366 0.215204 0.117184 -0.045649 -0.019462 0.057202 -0.100848 -0.060462 0.045372 0.053914 0.114814 0.217045 0.239391 0.308977 0.448364 0.442242 0.434589 0.483186 0.453108 0.336644 0.331402 0.241109 0.056967 0.061790 0.015209 -0.040497 -0.096680 -0.097237 -0.012613 -0.050149 0.072266 0.121664 0.115654 0.263976 0.232816 0.231001 0.289069 0.245851 0.231784 0.212022 0.165117 0.106672 0.097591 0.022057 0.000212 -0.120443 -0.054084 -0.001347 -0.001217 0.025183 0.095262 0.085343 0.129241 0.201280 0.265930 0.186116 0.180488 0.111107 0.139786 0.031574 -0.027920 0.029424 -0.020809 0.015641 -0.003159 0.041613 0.091255 0.058174 0.166855 0.107422 0.182496 0.072516 0.156400 0.102387 0.004349 -0.051797 0.001509 -0.022406 -0.056558 -0.055906 0.070092 0.074741 0.001708 0.091292 0.069460 0.085351 0.156743 0.078525 0.072255 0.065927 -0.011480 0.033729 0.011930 0.023856 0.011445 0.008259 0.053570 0.073828 0.086853 0.041496 0.054920 0.036947 0.070356 0.002620 -0.005565 0.035822 0.024408 0.071991 0.049084 0.067101 0.074692 0.050159 0.029225 0.039108 0.009050 -0.038570 -0.024870 -0.018959 0.030927 0.044471 0.102609 -0.000366 0.073412 0.045646 -0.013340 0.060575 0.005445 0.005271 0.031799 0.048225 0.027340 0.086787 0.040134 0.062224 0.070540 0.068557 0.065217 0.062572 0.082764 0.030100 -0.008163 0.049266 0.045791 0.044155 0.072532 0.087917 0.007648 0.053039 0.072446 0.001775 -0.004762 -0.059728 -0.025032 0.108818 0.080974 0.046653 0.035667 -0.024447 0.050536 0.019709 -0.073004 0.052361 0.025723 0.059407 0.033577 0.014280 0.001266 0.081848 0.029230 0.023390 0.033286 -0.045680 0.068043 0.111538 -0.004496 -0.006385 -0.006506 -0.014001 -0.033934 -0.023600 -0.057651 -0.015559 -0.090403 -0.016582 -0.039072 0.019309 -0.034616 -0.039846 0.029854 -0.077589 -0.052780 -0.081030 0.050395 0.011736 0.013002 -0.009190 0.069571 -0.030189 -0.076184 0.063417 -0.005089 0.003974 0.004807 0.201578 -0.017696 0.032074 -0.016510 -0.011872 -0.011779 -0.050411 -0.019178 -0.184497 0.016059 -0.037118 -0.017999 0.040691 0.014799 0.105509 -0.019872 -0.001515 -0.027819 -0.023914 -0.077349 0.035172 0.277122 0.144685 0.188545 0.251759 0.330758 0.370991 0.374532 0.036314 -1.074793
0.072396 0.072910 0.074452 0.077022 0.080619 0.085243 0.090891 0.097562 0.105254 0.113964 0.123688 0.134423 0.146161 0.158897 0.172622 0.187326 0.202998 0.219624 0.237188 0.255672 0.275054 0.295310 0.316412 0.338329 0.361026 0.384462 0.408595 0.433374 0.458747 0.484652 0.511026 0.537797 0.564886 0.592212 0.619682 0.647199 0.674659 0.701950 0.728953 0.755542 0.781585 0.806942 0.831465 0.855002 0.877392 0.898472 0.918070 0.936011 0.952118 0.966208 0.978099 0.987605 0.994543 0.998730 0.999989 0.998143 0.993027 0.984480 0.972354 0.956512 0.936832 0.913208 0.885554 0.853806 0.817921 0.777885 0.733711 0.685442 0.633156 0.576962 0.517011 0.453487 0.386619 0.316674 0.243960 0.168830 0.091679 0.012941 0.066906 0.147345 0.227824 0.307755 0.386518 0.463468 0.537937 0.609239 0.676681 0.739563 0.797191 0.848881 0.893972 0.931833 0.961871 0.983543 0.996366 0.999926 0.993891 0.978014 0.952152 0.916265 0.870431 0.814848 0.749846 0.675880 0.593545 0.503569 0.406812 0.304266 0.197045 0.086379 0.026397 0.139858 0.252503 0.362777 0.469087 0.569829 0.663413 0.748286 0.822964 0.886059 0.936309 0.972607 0.994028 0.999856 0.989612 0.963069 0.920280 0.861585 0.787622 0.699335 0.597966 0.485054 0.362415 0.232122 0.096480 0.042018 0.180722 0.316885 0.447704 0.570389 0.682220 0.780609 0.863171 0.927782 0.972646 0.996350 0.997918 0.976855 0.933182 0.867460 0.780803 0.674875 0.551873 0.414499 0.265907 0.109645 0.050423 0.210205 0.365486 0.512040 0.645740 0.762686 0.859326 0.932573 0.979915 0.999514 0.990293 0.951999 0.885245 0.791531 0.673229 0.533551 0.376475 0.206653 0.029282 0.150042 0.325498 0.491226 0.641528 0.771063 0.875060 0.949501 0.991296 0.998426 0.970069 0.906665 0.809952 0.682956 0.529918 0.356177 0.168011 0.027577 0.223110 0.410916 0.583427 0.733500 0.854717 0.941678 0.990271 0.997886 0.963583 0.888190 0.774331 0.626375 0.450299 0.253478 0.044404 0.167672 0.373136 0.562441 0.726569 0.857467 0.948468 0.994664 0.993193 0.943459 0.847230 0.708629 0.534001 0.331664 0.111545 0.115285 0.337154 0.542387 0.719920 0.859929 0.954389 0.997573 0.986443 0.920898 0.803873 0.641268 0.441697 0.216080 0.022922 0.261598 0.485960 0.682572 0.839370 0.946431 0.996649 0.986246 0.915109 0.786905 0.608958 0.391889 0.149033 0.104343 0.351983 0.577674 0.766320 0.904984 0.983812 0.996791 0.942262 0.823158 0.646929 0.425138 0.172779 0.092711 0.352620 0.588278 0.782404 0.920413 0.991561 0.989840 0.914559 0.770530 0.567855 0.321293 0.049239 0.227598 0.487746 0.710660 0.878348 0.976889 0.997647 0.938111 0.802248 0.600350 0.348333 0.066569 0.221730 0.492383 0.722282 0.891387 0.984540 0.992893 0.914841 0.756333 0.530539 0.256840 0.040755 0.335665 0.601109 0.812542 0.949970 0.999928 0.956885 0.823951 0.612788 0.342703 0.038957 0.269518 0.552847 0.783138 0.937246 0.999193 0.961924 0.828214 0.610617 0.330409 0.015604 0.301783 0.588949 0.815727 0.957799 0.999397 0.935170 0.770986 0.523543 0.218809 0.110623 0.428948 0.701023 0.896307 0.992339 0.977457 0.852332 0.630166 0.335443 0.001354 0.333865 0.631267 0.855751 0.980274 0.989226 0.880523 0.666143 0.370970 0.030050 0.315494 0.623366 0.855303 0.981902 0.986481 0.867420 0.638673 0.328323 0.024750 0.375617 0.679001 0.895153 0.995141 0.964879 0.807274 0.542176 0.204051 0.162338 0.507818 0.785356 0.956547 0.997052
1.000000 1.000000 1.000000 1.000000 1.000000 1.000000 1.000000 1.000000 1.000000 1.000000 1.000000 1.000000 1.000000 1.000000 1.000000 1.000000 1.000000 1.000000 1.000000 1.000000 1.000000 1.000000 1.000000 1.000000 1.000000 1.000000 1.000000 1.000000 1.000000 1.000000 1.000000 1.000000 1.000000 1.000000 1.000000 1.000000 1.000000 1.000000 1.000000 1.000000 1.000000 1.000000 1.000000 1.000000 1.000000 1.000000 1.000000 1.000000 1.000000 1.000000 1.000000 1.000000 0.918061 0.918061 0.905157 0.905157 0.905157 0.905157 0.905157 0.905157 0.905157 0.905157 0.905157 0.905157 0.905157 0.905157 0.905157 0.905157 0.905157 0.905157 0.905157 0.905157 0.905157 0.905157 0.905157 0.905157 0.905157 0.905157 0.905157 0.905157 0.905157 0.905157 0.905157 0.905157 0.905157 0.905157 0.905157 0.905157 0.905157 0.905157 0.905157 0.905157 0.905157 0.905157 0.905157 0.901215 0.906133 0.908021 0.906519 0.910051 0.910110 0.909401 0.909742 0.909405 0.909741 0.911134 0.921622 0.932622 0.943632 0.944165 0.949340 0.953644 0.956088 0.956928 0.958506 0.968555 0.967186 0.966694 0.967371 0.968792 0.970894 0.969653 0.969179 0.972346 0.972988 0.971421 0.969140 0.968534 0.967130 0.966510 0.966142 0.966024 0.965896 0.966415 0.966627 0.966781 0.966929 0.966984 0.967998 0.969159 0.971605 0.972655 0.972527 0.971427 0.969489 0.973473 0.974292 0.974047 0.974011 0.973574 0.973840 0.959074 0.955177 0.955089 0.952150 0.950708 0.947382 0.946077 0.944867 0.945280 0.943964 0.943644 0.940853 0.926590 0.912668 0.901690 0.922010 0.906535 0.895494 0.869978 0.870691 0.864930 0.865431 0.856247 0.850953 0.846668 0.843800 0.845499 0.842398 0.846754 0.843793 0.829048 0.832393 0.829092 0.797969 0.782840 0.765221 0.766535 0.763630 0.764787 0.766627 0.760435 0.768981 0.762537 0.760652 0.751832 0.730604 0.698849 0.685874 0.696114 0.706190 0.703941 0.700280 0.685025 0.654926 0.667821 0.688724 0.685500 0.687923 0.681052 0.674789 0.681286 0.682601 0.678907 0.672737 0.671881 0.671635 0.680497 0.685468 0.680293 0.671909 0.657559 0.645412 0.631295 0.646879 0.650475 0.619858 0.613672 0.604916 0.598570 0.585073 0.550011 0.550633 0.527987 0.515211 0.518491 0.520954 0.521158 0.531773 0.532610 0.509734 0.532519 0.541809 0.568773 0.541796 0.536813 0.538207 0.548474 0.531980 0.506424 0.496848 0.497784 0.511723 0.547502 0.588036 0.578649 0.569287 0.556298 0.572722 0.548796 0.557762 0.573994 0.552620 0.477157 0.436032 0.432678 0.398640 0.389888 0.381338 0.376381 0.391478 0.380320 0.373519 0.360398 0.348526 0.287024 0.251988 0.235467 0.212533 0.212789 0.228124 0.211808 0.213476 0.250030 0.296435 0.294837 0.286171 0.278036 0.280132 0.251775 0.266046 0.291555 0.249589 0.246019 0.240734 0.215799 0.202808 0.165353 0.191992 0.110263 0.095694 0.099024 0.114079 0.123175 0.121579 0.130463 0.107276 0.127215 0.118017 0.082026 0.066749 0.082522 0.074542 0.042547 0.051698 0.064901 0.051408 0.043537 0.068530 0.063130 0.070016 0.061013 0.061004 0.108061 0.139509 0.126072 0.126635 0.107003 0.110115 0.085063 0.074591 0.064883 0.058575 0.004760 -0.023078 -0.023078 -0.021739 -0.021739 -0.021739 -0.021739 -0.021739 -0.021739 -0.021739 -0.021739 -0.021739 -0.023228 -0.023228 -0.023228 -0.023228 -0.023228 -0.023228 -0.023228 -0.023228 -0.023228 0.002507 0.002507 0.002507 0.002507 0.002507 0.002507 0.002507 0.002507 0.002507
0.000000 0.000000 0.000000 0.000000 0.000000 0.000000 0.000000 0.000000 0.000000 0.000000 0.000000 0.000000 0.000000 0.000000 0.000000 0.000000 0.000000 0.000000 0.000000 0.000000 0.000000 0.000000 0.000000 0.000000 0.000000 0.000000 0.000000 0.000000 0.000000 0.000000 0.000000 0.000000 0.000000 0.000000 0.000000 0.000000 0.000000 0.000000 0.000000 0.000000 0.000000 0.000000 0.000000 0.000000 0.000000 0.000000 0.000000 0.000000 0.000000 0.000000 0.000000 0.000000 0.181818 0.181818 0.199007 0.199007 0.199007 0.199007 0.199007 0.199007 0.199007 0.199007 0.199007 0.199007 0.199007 0.199007 0.199007 0.199007 0.199007 0.199007 0.199007 0.199007 0.199007 0.199007 0.199007 0.199007 0.199007 0.199007 0.199007 0.199007 0.199007 0.199007 0.199007 0.199007 0.199007 0.199007 0.199007 0.199007 0.199007 0.199007 0.199007 0.199007 0.199007 0.199007 0.199007 0.230940 0.230940 0.230940 0.230940 0.230940 0.230940 0.230940 0.230940 0.230940 0.230940 0.230940 0.230940 0.230940 0.230940 0.230940 0.230940 0.230940 0.230940 0.230940 0.230940 0.230940 0.230940 0.230940 0.230940 0.230940 0.230940 0.230940 0.230940 0.244339 0.244339 0.244339 0.244339 0.244339 0.244339 0.244339 0.244339 0.244339 0.244339 0.244339 0.244339 0.244339 0.244339 0.244339 0.244339 0.244339 0.244339 0.244339 0.244339 0.244339 0.244339 0.244339 0.251976 0.251976 0.251976 0.251976 0.251976 0.251976 0.251976 0.251976 0.251976 0.251976 0.251976 0.251976 0.251976 0.251976 0.251976 0.251976 0.251976 0.251976 0.251976 0.251976 0.264906 0.264906 0.264906 0.264906 0.264906 0.264906 0.264906 0.264906 0.264906 0.264906 0.264906 0.264906 0.264906 0.264906 0.264906 0.264906 0.264906 0.264906 0.264906 0.264906 0.264906 0.264906 0.264906 0.264906 0.264906 0.264906 0.264906 0.264906 0.264906 0.264906 0.264906 0.264906 0.264906 0.264906 0.264906 0.264906 0.264906 0.264906 0.264906 0.264906 0.264906 0.264906 0.264906 0.264906 0.264906 0.264906 0.264906 0.264906 0.264906 0.264906 0.264906 0.264906 0.264906 0.264906 0.264906 0.264906 0.264906 0.264906 0.264906 0.264906 0.264906 0.264906 0.264906 0.264906 0.264906 0.264906 0.264906 0.264906 0.264906 0.264906 0.264906 0.264906 0.264906 0.264906 0.264906 0.269680 0.269680 0.269680 0.269680 0.269680 0.269680 0.269680 0.269680 0.269680 0.269680 0.269680 0.269680 0.264906 0.264906 0.264906 0.264906 0.264906 0.264906 0.264906 0.264906 0.264906 0.264906 0.264906 0.264906 0.269680 0.269680 0.269680 0.269680 0.269680 0.269680 0.269680 0.269680 0.269680 0.269680 0.269680 0.264906 0.264906 0.264906 0.264906 0.264906 0.264906 0.264906 0.264906 0.264906 0.264906 0.264906 0.256074 0.256074 0.256074 0.256074 0.256074 0.256074 0.256074 0.256074 0.256074 0.256074 0.256074 0.264906 0.264906 0.264906 0.264906 0.264906 0.264906 0.264906 0.264906 0.264906 0.264906 0.269680 0.269680 0.269680 0.269680 0.269680 0.269680 0.269680 0.269680 0.269680 0.256074 0.256074 0.256074 0.256074 0.256074 0.256074 0.256074 0.256074 0.256074 0.256074 0.260378 0.260378 0.260378 0.260378 0.260378 0.260378 0.260378 0.260378 0.260378 0.256074 0.256074 0.256074 0.256074 0.256074 0.256074 0.256074 0.256074 0.256074 0.251976 0.251976 0.251976 0.251976 0.251976 0.251976 0.251976 0.251976 0.251976 0.264906 0.264906 0.264906 0.264906 0.264906 0.264906 0.264906 0.264906 0.264906
