# Output from CTFFind version 4.1.9, run on 2019-11-02 17:48:09
# Input file: stack1_bm3d_averaged_1_0.75_0_2000_half.mrc ; Number of micrographs: 1
# Pixel size: 3.000 Angstroms ; acceleration voltage: 300.0 keV ; spherical aberration: 0.00 mm ; amplitude contrast: 0.07
# Box size: 512 pixels ; min. res.: 30.0 Angstroms ; max. res.: 5.0 Angstroms ; min. def.: 5000.0 um; max. def. 50000.0 um; num. frames averaged: 1
# 6 lines per micrograph: #1 - spatial frequency (1/Angstroms); #2 - 1D rotational average of spectrum (assuming no astigmatism); #3 - 1D rotational average of spectrum; #4 - CTF fit; #5 - cross-correlation between spectrum and CTF fit; #6 - 2sigma of expected cross correlation of noise
0.000000 0.000651 0.001302 0.001953 0.002604 0.003255 0.003906 0.004557 0.005208 0.005859 0.006510 0.007161 0.007812 0.008464 0.009115 0.009766 0.010417 0.011068 0.011719 0.012370 0.013021 0.013672 0.014323 0.014974 0.015625 0.016276 0.016927 0.017578 0.018229 0.018880 0.019531 0.020182 0.020833 0.021484 0.022135 0.022786 0.023438 0.024089 0.024740 0.025391 0.026042 0.026693 0.027344 0.027995 0.028646 0.029297 0.029948 0.030599 0.031250 0.031901 0.032552 0.033203 0.033854 0.034505 0.035156 0.035807 0.036458 0.037109 0.037760 0.038411 0.039062 0.039714 0.040365 0.041016 0.041667 0.042318 0.042969 0.043620 0.044271 0.044922 0.045573 0.046224 0.046875 0.047526 0.048177 0.048828 0.049479 0.050130 0.050781 0.051432 0.052083 0.052734 0.053385 0.054036 0.054688 0.055339 0.055990 0.056641 0.057292 0.057943 0.058594 0.059245 0.059896 0.060547 0.061198 0.061849 0.062500 0.063151 0.063802 0.064453 0.065104 0.065755 0.066406 0.067057 0.067708 0.068359 0.069010 0.069661 0.070312 0.070964 0.071615 0.072266 0.072917 0.073568 0.074219 0.074870 0.075521 0.076172 0.076823 0.077474 0.078125 0.078776 0.079427 0.080078 0.080729 0.081380 0.082031 0.082682 0.083333 0.083984 0.084635 0.085286 0.085938 0.086589 0.087240 0.087891 0.088542 0.089193 0.089844 0.090495 0.091146 0.091797 0.092448 0.093099 0.093750 0.094401 0.095052 0.095703 0.096354 0.097005 0.097656 0.098307 0.098958 0.099609 0.100260 0.100911 0.101562 0.102214 0.102865 0.103516 0.104167 0.104818 0.105469 0.106120 0.106771 0.107422 0.108073 0.108724 0.109375 0.110026 0.110677 0.111328 0.111979 0.112630 0.113281 0.113932 0.114583 0.115234 0.115885 0.116536 0.117188 0.117839 0.118490 0.119141 0.119792 0.120443 0.121094 0.121745 0.122396 0.123047 0.123698 0.124349 0.125000 0.125651 0.126302 0.126953 0.127604 0.128255 0.128906 0.129557 0.130208 0.130859 0.131510 0.132161 0.132812 0.133464 0.134115 0.134766 0.135417 0.136068 0.136719 0.137370 0.138021 0.138672 0.139323 0.139974 0.140625 0.141276 0.141927 0.142578 0.143229 0.143880 0.144531 0.145182 0.145833 0.146484 0.147135 0.147786 0.148438 0.149089 0.149740 0.150391 0.151042 0.151693 0.152344 0.152995 0.153646 0.154297 0.154948 0.155599 0.156250 0.156901 0.157552 0.158203 0.158854 0.159505 0.160156 0.160807 0.161458 0.162109 0.162760 0.163411 0.164062 0.164714 0.165365 0.166016 0.166667 0.167318 0.167969 0.168620 0.169271 0.169922 0.170573 0.171224 0.171875 0.172526 0.173177 0.173828 0.174479 0.175130 0.175781 0.176432 0.177083 0.177734 0.178385 0.179036 0.179688 0.180339 0.180990 0.181641 0.182292 0.182943 0.183594 0.184245 0.184896 0.185547 0.186198 0.186849 0.187500 0.188151 0.188802 0.189453 0.190104 0.190755 0.191406 0.192057 0.192708 0.193359 0.194010 0.194661 0.195312 0.195964 0.196615 0.197266 0.197917 0.198568 0.199219 0.199870 0.200521 0.201172 0.201823 0.202474 0.203125 0.203776 0.204427 0.205078 0.205729 0.206380 0.207031 0.207682 0.208333 0.208984 0.209635 0.210286 0.210938 0.211589 0.212240 0.212891 0.213542 0.214193 0.214844 0.215495 0.216146 0.216797 0.217448 0.218099 0.218750 0.219401 0.220052 0.220703 0.221354 0.222005 0.222656 0.223307 0.223958 0.224609 0.225260 0.225911 0.226562 0.227214 0.227865 0.228516 0.229167 0.229818 0.230469 0.231120 0.231771 0.232422 0.233073 0.233724 0.234375 0.235026 0.235677
       0.33492        0.33492        0.33492        0.33492        0.33492        0.33492        0.33492        0.33492        0.33492        0.33492        0.33492        0.33492        0.33492        0.33492        0.33492        0.33492        0.33492        0.33492        0.33492        0.33492        0.33492        0.33492        0.33492        0.33492        0.33492        0.33492        0.33492        0.33492        0.33492        0.33492        0.33492        0.33492        0.33492        0.33492        0.33492        0.33492        0.33492        0.33492        0.33492        0.33492        0.33492        0.33492        0.33492        0.33492        0.33492        0.33492        0.33492        0.33492        0.33492        0.33492        0.33492        0.50382        0.72026        0.43051        0.19191       -0.07938       -0.26246       -0.06843       -0.13172       -0.05240       -0.00048       -0.14483       -0.09089       -0.04795       -0.00054       -0.14980       -0.21828       -0.34455       -0.46165       -0.55800       -0.51701       -0.44790       -0.37084       -0.54585       -0.44695       -0.61937       -0.50028       -0.47380       -0.38864       -0.38198       -0.33972       -0.24913       -0.15855       -0.13406        0.03465       -0.01011        0.12119        0.17106        0.30550        0.41020        0.46566        0.49701        0.54181        0.55193        0.69647        0.64768        0.68011        0.59279        0.55818        0.65692        0.53041        0.43011        0.38618        0.32314        0.23016        0.26664        0.25335        0.10845        0.08630        0.00171       -0.00489        0.03732       -0.00197        0.07719        0.09916        0.23335        0.28395        0.30643        0.38306        0.56127        0.53901        0.58041        0.67287        0.70078        0.63198        0.63630        0.63434        0.55423        0.57575        0.39695        0.34726        0.26851        0.18656        0.07375        0.14682        0.12101        0.09253        0.10789        0.21063        0.21419        0.31821        0.36048        0.41467        0.49581        0.58627        0.54453        0.55698        0.61021        0.54396        0.46549        0.47917        0.32527        0.25399        0.25927        0.24498        0.14606        0.14796        0.15436        0.22190        0.25139        0.33087        0.36473        0.39187        0.46925        0.44986        0.47956        0.45542        0.46924        0.44632        0.40864        0.38293        0.35456        0.31145        0.28696        0.20591        0.20047        0.22304        0.27184        0.27042        0.35227        0.37764        0.36063        0.41398        0.46018        0.45175        0.42537        0.43905        0.37055        0.33821        0.28524        0.26578        0.29102        0.27202        0.29709        0.30222        0.35142        0.34343        0.40198        0.40715        0.42810        0.41286        0.43099        0.40527        0.36747        0.28553        0.29407        0.31106        0.27677        0.25819        0.33376        0.37350        0.34324        0.35535        0.36139        0.35647        0.40860        0.40176        0.35959        0.34115        0.31299        0.31150        0.31746        0.31711        0.30172        0.28912        0.33768        0.36028        0.37977        0.33455        0.32973        0.33654        0.34669        0.30775        0.28382        0.30874        0.31777        0.33742        0.32418        0.33508        0.35939        0.33246        0.31601        0.33107        0.30608        0.26673        0.25364        0.26682        0.30753        0.32412        0.35123        0.30233        0.31712        0.34031        0.29605        0.31844        0.28996        0.28489        0.29518        0.30128        0.31088        0.34616        0.32416        0.32982        0.33692        0.31411        0.33575        0.31972        0.32137        0.31171        0.28452        0.29494        0.31708        0.29408        0.32980        0.34058        0.33616        0.31932        0.34060        0.31889        0.27655        0.25595        0.27360        0.33344        0.36167        0.34895        0.31818        0.29638        0.29804        0.31612        0.24933        0.29876        0.30325        0.32852        0.30006        0.32051        0.28819        0.33806        0.34507        0.34718        0.32875        0.29514        0.31689        0.39766        0.33190        0.31806        0.31265        0.29433        0.28828        0.29975        0.26551        0.31194        0.24096        0.27892        0.29801        0.31594        0.29693        0.27959        0.30217        0.23995        0.23161        0.26258        0.30701        0.30538        0.28620        0.28903        0.33663        0.25705        0.21429        0.31454        0.27560        0.25773        0.28240        0.39593        0.29911        0.28786        0.25091        0.25353        0.26668        0.23834        0.23479        0.16611        0.25422        0.23250        0.25068        0.31978        0.27801        0.34663        0.28306        0.25923        0.24024        0.21812        0.23897        0.29668        0.22906        0.12374        0.15551        0.24601        0.24361        0.33048        0.30415        0.03806       -0.42343       -0.91344
2.697914 2.669434 2.641107 2.612932 2.584910 2.557041 2.529325 2.501761 2.474350 2.447092 2.419986 2.393034 2.366234 2.339586 2.313091 2.286749 2.260560 2.234524 2.208640 2.182909 2.157330 2.131905 2.106632 2.081511 2.056544 2.031729 2.007067 1.982558 1.958201 1.933997 1.909946 1.886047 1.862301 1.838708 1.815268 1.791980 1.768845 1.745863 1.723033 1.700356 1.677832 1.655461 1.633242 1.611176 1.589263 1.567502 1.545894 1.524439 1.503137 1.481987 1.460990 1.530486 1.830843 1.516628 1.197825 0.942621 0.543949 0.912954 0.635432 0.876251 0.929401 0.593728 0.711477 0.785925 0.822369 0.632222 0.541373 0.348933 0.105443 0.080426 0.045238 0.082472 0.302466 -0.032768 0.084867 -0.133147 -0.009576 -0.017724 0.084419 0.066103 0.100103 0.177884 0.285048 0.254350 0.485065 0.399489 0.550545 0.529225 0.769329 0.788602 0.881644 0.919346 0.941450 0.945305 1.116278 0.942271 1.143889 0.949462 0.852319 1.018072 0.850105 0.762449 0.618014 0.597055 0.456345 0.420821 0.511549 0.265802 0.201567 0.159325 0.012159 0.208228 -0.004117 0.123201 0.180726 0.258341 0.331420 0.350259 0.427817 0.536482 0.665537 0.540514 0.741602 0.859757 0.640105 0.696881 0.666580 0.592287 0.538865 0.460746 0.299199 0.215530 0.117482 -0.042787 -0.017812 0.058472 -0.098019 -0.057732 0.047213 0.053907 0.114086 0.219163 0.238597 0.309828 0.446063 0.435534 0.441691 0.480072 0.450808 0.334139 0.329928 0.239576 0.055117 0.062240 0.016539 -0.042068 -0.096585 -0.096898 -0.013987 -0.049065 0.073536 0.120914 0.117347 0.262291 0.231173 0.237013 0.290164 0.248149 0.236519 0.215008 0.168287 0.110529 0.101707 0.024134 0.004627 -0.116686 -0.051972 0.001724 0.000572 0.024576 0.096057 0.084343 0.131219 0.195139 0.261848 0.179219 0.176951 0.106011 0.135481 0.024987 -0.035288 0.022666 -0.026276 0.008603 -0.009304 0.035268 0.083422 0.051052 0.157696 0.093709 0.171839 0.062109 0.146348 0.091344 -0.007590 -0.063004 -0.012615 -0.034273 -0.068898 -0.067839 0.058980 0.063443 -0.012867 0.049112 0.060907 0.070902 0.141122 0.063218 0.057878 0.051312 -0.026059 0.021116 -0.001621 0.010277 -0.000179 -0.006342 0.040515 0.058874 0.069501 0.027506 0.042191 0.022130 0.056330 -0.011757 -0.019564 0.021559 0.011172 0.058098 0.039501 0.049352 0.057129 0.043821 0.020558 0.031643 0.000499 -0.046709 -0.033187 -0.026313 0.023194 0.037837 0.096426 -0.006842 0.065563 0.049470 -0.008880 0.063718 0.011825 0.009006 0.037994 0.052533 0.036273 0.093400 0.046973 0.068869 0.078076 0.070886 0.066089 0.065058 0.084891 0.034304 -0.008450 0.048416 0.046526 0.044393 0.072925 0.085817 0.015362 0.056664 0.075817 0.005671 -0.000735 -0.059072 -0.021840 0.110200 0.082371 0.048450 0.038673 -0.020139 0.051618 0.022326 -0.069013 0.051928 0.026468 0.061519 0.036435 0.012144 0.002699 0.076187 0.034997 0.016018 0.045185 -0.042479 0.066699 0.114192 0.003218 -0.002808 -0.003162 0.000979 -0.033784 -0.020706 -0.055289 -0.009368 -0.090407 -0.019474 -0.034696 0.023443 -0.034216 -0.046033 0.028153 -0.074277 -0.050332 -0.081497 0.049859 0.011458 0.011684 -0.008362 0.073287 -0.034576 -0.074319 0.059516 -0.006615 0.005742 0.003522 0.200366 -0.023764 0.033146 -0.013796 -0.012059 -0.007108 -0.043256 -0.018704 -0.176452 0.014354 -0.042770 -0.018071 0.040740 0.005267 0.109890 -0.013230 -0.002507 -0.033918 -0.026279 -0.069891 0.040867 0.274577 0.149579 0.200586 0.247716 0.328496 0.358366 0.367242 0.046911 -1.070723
0.072396 0.072910 0.074452 0.077022 0.080618 0.085241 0.090889 0.097559 0.105250 0.113960 0.123683 0.134416 0.146153 0.158887 0.172611 0.187313 0.202984 0.219608 0.237170 0.255652 0.275032 0.295286 0.316386 0.338301 0.360995 0.384430 0.408560 0.433337 0.458707 0.484611 0.510982 0.537751 0.564839 0.592162 0.619630 0.647146 0.674605 0.701895 0.728897 0.755486 0.781529 0.806886 0.831410 0.854948 0.877340 0.898422 0.918022 0.935968 0.952078 0.966173 0.978069 0.987582 0.994527 0.998722 0.999989 0.998154 0.993048 0.984512 0.972398 0.956569 0.936903 0.913293 0.885655 0.853922 0.818054 0.778035 0.733878 0.685627 0.633357 0.577182 0.517247 0.453741 0.386889 0.316959 0.244260 0.169143 0.092003 0.013276 0.066563 0.146997 0.227472 0.307403 0.386168 0.463124 0.537601 0.608916 0.676374 0.739276 0.796927 0.848645 0.893768 0.931664 0.961740 0.983454 0.996323 0.999932 0.993948 0.978125 0.952317 0.916486 0.870708 0.815182 0.750234 0.676321 0.594036 0.504106 0.407391 0.304881 0.197690 0.087047 0.025715 0.139169 0.251818 0.362105 0.468439 0.569216 0.662844 0.747773 0.822517 0.885688 0.936024 0.972415 0.993936 0.999870 0.989736 0.963307 0.920631 0.862047 0.788192 0.700005 0.598730 0.485900 0.363331 0.233093 0.097488 0.040990 0.179696 0.315880 0.446743 0.569493 0.681411 0.779907 0.862596 0.927351 0.972374 0.996248 0.997995 0.977115 0.933625 0.868082 0.781595 0.675823 0.552960 0.415701 0.267197 0.110993 0.049051 0.208845 0.364175 0.510814 0.644636 0.761739 0.858568 0.932031 0.979611 0.999465 0.990508 0.952480 0.885985 0.792514 0.674434 0.534945 0.378022 0.208305 0.030991 0.148332 0.323845 0.489685 0.640154 0.769911 0.874174 0.948920 0.991048 0.998531 0.970531 0.907477 0.811096 0.684397 0.531607 0.358059 0.170019 0.025520 0.221082 0.408998 0.581702 0.732040 0.853589 0.940939 0.989961 0.998029 0.964184 0.889235 0.775786 0.628185 0.452395 0.255772 0.046796 0.165289 0.370870 0.560402 0.724857 0.856172 0.947662 0.994396 0.993491 0.944320 0.848625 0.710501 0.536266 0.334217 0.114259 0.112547 0.334534 0.540026 0.717952 0.858468 0.953524 0.997366 0.986920 0.922047 0.805645 0.643576 0.444421 0.219070 0.019833 0.258588 0.483211 0.680252 0.837628 0.945386 0.996378 0.986782 0.916436 0.788957 0.611620 0.395003 0.152410 0.100919 0.348732 0.574812 0.764049 0.903465 0.983164 0.997074 0.943476 0.825236 0.649743 0.428509 0.176478 0.088943 0.349048 0.585164 0.779984 0.918880 0.991043 0.990396 0.916167 0.773087 0.571188 0.325156 0.053346 0.223559 0.484099 0.707694 0.876314 0.975967 0.997933 0.939602 0.804844 0.603856 0.352477 0.071014 0.217353 0.488447 0.719127 0.889300 0.983721 0.993436 0.916721 0.759407 0.534555 0.261453 0.035945 0.331097 0.597206 0.809669 0.948414 0.999856 0.958329 0.826799 0.616796 0.347500 0.044099 0.264525 0.548495 0.779863 0.935391 0.998966 0.963374 0.831222 0.614904 0.335557 0.021096 0.296508 0.584445 0.812477 0.956164 0.999578 0.937176 0.774629 0.528458 0.224478 0.104809 0.423620 0.696786 0.893648 0.991580 0.978712 0.855490 0.634896 0.341226 0.007538 0.327994 0.626400 0.852475 0.979003 0.990139 0.883542 0.670937 0.376984 0.036570 0.309262 0.618192 0.851843 0.980616 0.987560 0.870761 0.643889 0.334768 0.017877 0.369202 0.673883 0.892015 0.994424 0.966712 0.811450 0.548169 0.211088 0.155204 0.501541 0.780806 0.954377 0.997592
1.000000 1.000000 1.000000 1.000000 1.000000 1.000000 1.000000 1.000000 1.000000 1.000000 1.000000 1.000000 1.000000 1.000000 1.000000 1.000000 1.000000 1.000000 1.000000 1.000000 1.000000 1.000000 1.000000 1.000000 1.000000 1.000000 1.000000 1.000000 1.000000 1.000000 1.000000 1.000000 1.000000 1.000000 1.000000 1.000000 1.000000 1.000000 1.000000 1.000000 1.000000 1.000000 1.000000 1.000000 1.000000 1.000000 1.000000 1.000000 1.000000 1.000000 1.000000 1.000000 0.918846 0.918846 0.905082 0.905082 0.905082 0.905082 0.905082 0.905082 0.905082 0.905082 0.905082 0.905082 0.905082 0.905082 0.905082 0.905082 0.905082 0.905082 0.905082 0.905082 0.905082 0.905082 0.905082 0.905082 0.905082 0.905082 0.905082 0.905082 0.905082 0.905082 0.905082 0.905082 0.905082 0.905082 0.905082 0.905082 0.905082 0.905082 0.905082 0.905082 0.905082 0.905082 0.905082 0.901129 0.906015 0.907905 0.906379 0.909922 0.909986 0.909275 0.909610 0.909267 0.909597 0.910990 0.921490 0.932504 0.943530 0.944067 0.949234 0.953555 0.955978 0.956832 0.958392 0.968385 0.967035 0.966536 0.967219 0.968663 0.970785 0.969519 0.969082 0.972240 0.972895 0.971302 0.969052 0.968444 0.967844 0.967946 0.967578 0.967463 0.967334 0.967843 0.968044 0.968196 0.968340 0.968394 0.969410 0.970564 0.972954 0.973946 0.973804 0.972728 0.970845 0.974869 0.975764 0.975507 0.975457 0.974992 0.975253 0.961395 0.957270 0.957184 0.954043 0.952700 0.949427 0.948115 0.946846 0.947119 0.945641 0.945478 0.942767 0.928929 0.915351 0.904518 0.924790 0.909687 0.898614 0.873354 0.873769 0.867401 0.867912 0.858892 0.853564 0.849345 0.846435 0.848032 0.845550 0.849838 0.846861 0.832252 0.835609 0.832392 0.800279 0.783787 0.768751 0.770236 0.767322 0.768480 0.768233 0.762373 0.770923 0.763669 0.761838 0.753226 0.733052 0.700880 0.688273 0.698929 0.708861 0.707307 0.703686 0.688487 0.656655 0.669395 0.690260 0.686602 0.688894 0.681407 0.676127 0.681335 0.682050 0.678743 0.672509 0.671646 0.671327 0.679896 0.685115 0.680021 0.671987 0.657795 0.645736 0.631084 0.646335 0.650124 0.619034 0.613256 0.605301 0.599051 0.585992 0.553449 0.552970 0.530360 0.517624 0.519455 0.521557 0.521792 0.532138 0.533029 0.510805 0.536514 0.541480 0.568542 0.543763 0.539125 0.540365 0.550335 0.533042 0.511350 0.502338 0.503300 0.516508 0.551438 0.592223 0.582311 0.571163 0.558266 0.573721 0.549316 0.558205 0.576095 0.554040 0.480452 0.440803 0.437865 0.400649 0.393085 0.385414 0.378558 0.390600 0.380370 0.370224 0.357231 0.344687 0.285994 0.250047 0.233526 0.210779 0.217542 0.231772 0.216387 0.217553 0.253293 0.300009 0.301670 0.293240 0.280322 0.282081 0.254485 0.266391 0.292624 0.249863 0.246142 0.241034 0.216922 0.203957 0.164513 0.194827 0.110700 0.093538 0.096717 0.112386 0.122078 0.122271 0.127832 0.102517 0.122078 0.113903 0.078205 0.063371 0.079793 0.071155 0.040606 0.049987 0.062236 0.046902 0.033620 0.057290 0.055728 0.065256 0.056245 0.055787 0.104877 0.137072 0.124040 0.124554 0.108222 0.110870 0.086424 0.076007 0.066688 0.059005 0.006166 -0.022228 -0.022228 -0.019479 -0.019479 -0.019479 -0.019479 -0.019479 -0.019479 -0.019479 -0.019479 -0.019479 -0.022755 -0.022755 -0.022755 -0.022755 -0.022755 -0.022755 -0.022755 -0.022755 -0.022755 0.004306 0.004306 0.004306 0.004306 0.004306 0.004306 0.004306 0.004306 0.004306
0.000000 0.000000 0.000000 0.000000 0.000000 0.000000 0.000000 0.000000 0.000000 0.000000 0.000000 0.000000 0.000000 0.000000 0.000000 0.000000 0.000000 0.000000 0.000000 0.000000 0.000000 0.000000 0.000000 0.000000 0.000000 0.000000 0.000000 0.000000 0.000000 0.000000 0.000000 0.000000 0.000000 0.000000 0.000000 0.000000 0.000000 0.000000 0.000000 0.000000 0.000000 0.000000 0.000000 0.000000 0.000000 0.000000 0.000000 0.000000 0.000000 0.000000 0.000000 0.000000 0.181818 0.181818 0.199007 0.199007 0.199007 0.199007 0.199007 0.199007 0.199007 0.199007 0.199007 0.199007 0.199007 0.199007 0.199007 0.199007 0.199007 0.199007 0.199007 0.199007 0.199007 0.199007 0.199007 0.199007 0.199007 0.199007 0.199007 0.199007 0.199007 0.199007 0.199007 0.199007 0.199007 0.199007 0.199007 0.199007 0.199007 0.199007 0.199007 0.199007 0.199007 0.199007 0.199007 0.230940 0.230940 0.230940 0.230940 0.230940 0.230940 0.230940 0.230940 0.230940 0.230940 0.230940 0.230940 0.230940 0.230940 0.230940 0.230940 0.230940 0.230940 0.230940 0.230940 0.230940 0.230940 0.230940 0.230940 0.230940 0.230940 0.230940 0.230940 0.244339 0.244339 0.244339 0.244339 0.244339 0.244339 0.244339 0.244339 0.244339 0.244339 0.244339 0.244339 0.244339 0.244339 0.244339 0.244339 0.244339 0.244339 0.244339 0.244339 0.244339 0.244339 0.244339 0.251976 0.251976 0.251976 0.251976 0.251976 0.251976 0.251976 0.251976 0.251976 0.251976 0.251976 0.251976 0.251976 0.251976 0.251976 0.251976 0.251976 0.251976 0.251976 0.251976 0.264906 0.264906 0.264906 0.264906 0.264906 0.264906 0.264906 0.264906 0.264906 0.264906 0.264906 0.264906 0.264906 0.264906 0.264906 0.264906 0.264906 0.264906 0.264906 0.264906 0.264906 0.264906 0.264906 0.264906 0.264906 0.264906 0.264906 0.264906 0.264906 0.264906 0.264906 0.264906 0.264906 0.264906 0.264906 0.264906 0.264906 0.264906 0.264906 0.264906 0.264906 0.264906 0.264906 0.264906 0.264906 0.264906 0.264906 0.264906 0.264906 0.264906 0.264906 0.264906 0.264906 0.264906 0.264906 0.264906 0.264906 0.264906 0.264906 0.264906 0.264906 0.264906 0.264906 0.264906 0.264906 0.264906 0.264906 0.264906 0.264906 0.264906 0.264906 0.264906 0.264906 0.264906 0.264906 0.269680 0.269680 0.269680 0.269680 0.269680 0.269680 0.269680 0.269680 0.269680 0.269680 0.269680 0.269680 0.264906 0.264906 0.264906 0.264906 0.264906 0.264906 0.264906 0.264906 0.264906 0.264906 0.264906 0.264906 0.269680 0.269680 0.269680 0.269680 0.269680 0.269680 0.269680 0.269680 0.269680 0.269680 0.269680 0.264906 0.264906 0.264906 0.264906 0.264906 0.264906 0.264906 0.264906 0.264906 0.264906 0.264906 0.256074 0.256074 0.256074 0.256074 0.256074 0.256074 0.256074 0.256074 0.256074 0.256074 0.256074 0.264906 0.264906 0.264906 0.264906 0.264906 0.264906 0.264906 0.264906 0.264906 0.264906 0.269680 0.269680 0.269680 0.269680 0.269680 0.269680 0.269680 0.269680 0.269680 0.256074 0.256074 0.256074 0.256074 0.256074 0.256074 0.256074 0.256074 0.256074 0.256074 0.260378 0.260378 0.260378 0.260378 0.260378 0.260378 0.260378 0.260378 0.260378 0.256074 0.256074 0.256074 0.256074 0.256074 0.256074 0.256074 0.256074 0.256074 0.251976 0.251976 0.251976 0.251976 0.251976 0.251976 0.251976 0.251976 0.251976 0.264906 0.264906 0.264906 0.264906 0.264906 0.264906 0.264906 0.264906 0.264906
