# Output from CTFFind version 4.1.9, run on 2019-11-02 17:48:23
# Input file: stack6_bm3d_averaged_1_1.0_0_2000_half.mrc ; Number of micrographs: 1
# Pixel size: 3.000 Angstroms ; acceleration voltage: 300.0 keV ; spherical aberration: 0.00 mm ; amplitude contrast: 0.07
# Box size: 512 pixels ; min. res.: 30.0 Angstroms ; max. res.: 5.0 Angstroms ; min. def.: 5000.0 um; max. def. 50000.0 um; num. frames averaged: 1
# 6 lines per micrograph: #1 - spatial frequency (1/Angstroms); #2 - 1D rotational average of spectrum (assuming no astigmatism); #3 - 1D rotational average of spectrum; #4 - CTF fit; #5 - cross-correlation between spectrum and CTF fit; #6 - 2sigma of expected cross correlation of noise
0.000000 0.000651 0.001302 0.001953 0.002604 0.003255 0.003906 0.004557 0.005208 0.005859 0.006510 0.007161 0.007812 0.008464 0.009115 0.009766 0.010417 0.011068 0.011719 0.012370 0.013021 0.013672 0.014323 0.014974 0.015625 0.016276 0.016927 0.017578 0.018229 0.018880 0.019531 0.020182 0.020833 0.021484 0.022135 0.022786 0.023438 0.024089 0.024740 0.025391 0.026042 0.026693 0.027344 0.027995 0.028646 0.029297 0.029948 0.030599 0.031250 0.031901 0.032552 0.033203 0.033854 0.034505 0.035156 0.035807 0.036458 0.037109 0.037760 0.038411 0.039062 0.039714 0.040365 0.041016 0.041667 0.042318 0.042969 0.043620 0.044271 0.044922 0.045573 0.046224 0.046875 0.047526 0.048177 0.048828 0.049479 0.050130 0.050781 0.051432 0.052083 0.052734 0.053385 0.054036 0.054688 0.055339 0.055990 0.056641 0.057292 0.057943 0.058594 0.059245 0.059896 0.060547 0.061198 0.061849 0.062500 0.063151 0.063802 0.064453 0.065104 0.065755 0.066406 0.067057 0.067708 0.068359 0.069010 0.069661 0.070312 0.070964 0.071615 0.072266 0.072917 0.073568 0.074219 0.074870 0.075521 0.076172 0.076823 0.077474 0.078125 0.078776 0.079427 0.080078 0.080729 0.081380 0.082031 0.082682 0.083333 0.083984 0.084635 0.085286 0.085938 0.086589 0.087240 0.087891 0.088542 0.089193 0.089844 0.090495 0.091146 0.091797 0.092448 0.093099 0.093750 0.094401 0.095052 0.095703 0.096354 0.097005 0.097656 0.098307 0.098958 0.099609 0.100260 0.100911 0.101562 0.102214 0.102865 0.103516 0.104167 0.104818 0.105469 0.106120 0.106771 0.107422 0.108073 0.108724 0.109375 0.110026 0.110677 0.111328 0.111979 0.112630 0.113281 0.113932 0.114583 0.115234 0.115885 0.116536 0.117188 0.117839 0.118490 0.119141 0.119792 0.120443 0.121094 0.121745 0.122396 0.123047 0.123698 0.124349 0.125000 0.125651 0.126302 0.126953 0.127604 0.128255 0.128906 0.129557 0.130208 0.130859 0.131510 0.132161 0.132812 0.133464 0.134115 0.134766 0.135417 0.136068 0.136719 0.137370 0.138021 0.138672 0.139323 0.139974 0.140625 0.141276 0.141927 0.142578 0.143229 0.143880 0.144531 0.145182 0.145833 0.146484 0.147135 0.147786 0.148438 0.149089 0.149740 0.150391 0.151042 0.151693 0.152344 0.152995 0.153646 0.154297 0.154948 0.155599 0.156250 0.156901 0.157552 0.158203 0.158854 0.159505 0.160156 0.160807 0.161458 0.162109 0.162760 0.163411 0.164062 0.164714 0.165365 0.166016 0.166667 0.167318 0.167969 0.168620 0.169271 0.169922 0.170573 0.171224 0.171875 0.172526 0.173177 0.173828 0.174479 0.175130 0.175781 0.176432 0.177083 0.177734 0.178385 0.179036 0.179688 0.180339 0.180990 0.181641 0.182292 0.182943 0.183594 0.184245 0.184896 0.185547 0.186198 0.186849 0.187500 0.188151 0.188802 0.189453 0.190104 0.190755 0.191406 0.192057 0.192708 0.193359 0.194010 0.194661 0.195312 0.195964 0.196615 0.197266 0.197917 0.198568 0.199219 0.199870 0.200521 0.201172 0.201823 0.202474 0.203125 0.203776 0.204427 0.205078 0.205729 0.206380 0.207031 0.207682 0.208333 0.208984 0.209635 0.210286 0.210938 0.211589 0.212240 0.212891 0.213542 0.214193 0.214844 0.215495 0.216146 0.216797 0.217448 0.218099 0.218750 0.219401 0.220052 0.220703 0.221354 0.222005 0.222656 0.223307 0.223958 0.224609 0.225260 0.225911 0.226562 0.227214 0.227865 0.228516 0.229167 0.229818 0.230469 0.231120 0.231771 0.232422 0.233073 0.233724 0.234375 0.235026 0.235677
       0.31263        0.31263        0.31263        0.31263        0.31263        0.31263        0.31263        0.31263        0.31263        0.31263        0.31263        0.31263        0.31263        0.31263        0.31263        0.31263        0.31263        0.31263        0.31263        0.31263        0.31263        0.31263        0.31263        0.31263        0.31263        0.31263        0.31263        0.31263        0.31263        0.31263        0.31263        0.31263        0.31263        0.31263        0.31263        0.31263        0.31263        0.31263        0.31263        0.31263        0.31263        0.31263        0.31263        0.31263        0.31263        0.31263        0.31263        0.31263        0.31263        0.31263        0.31263        0.63699        0.81905        0.41711        0.31298        0.19154       -0.10471        0.11359       -0.00067        0.03535        0.11864        0.33776        0.42707        0.40780        0.22641       -0.00929        0.04912        0.07395       -0.16606       -0.17735       -0.08708       -0.10742       -0.29195       -0.18523       -0.30164       -0.25609       -0.28288       -0.40012       -0.47430       -0.47584       -0.41894       -0.33772       -0.43704       -0.36661       -0.40871       -0.34880       -0.27187       -0.19777       -0.19254       -0.13314       -0.09162        0.03870        0.08595        0.25109        0.28396        0.37336        0.40343        0.51752        0.58946        0.60786        0.74241        0.70043        0.74102        0.65091        0.66633        0.69902        0.63458        0.61597        0.60966        0.43720        0.39821        0.35984        0.32733        0.22436        0.13557        0.06224        0.05865       -0.00023       -0.07795       -0.03033       -0.02994       -0.06839        0.06414        0.16575        0.25658        0.32166        0.33776        0.43172        0.54658        0.59197        0.54279        0.67081        0.56556        0.54190        0.59947        0.63893        0.53221        0.46123        0.40670        0.37849        0.25338        0.21556        0.13358        0.11655        0.05644        0.06212        0.11060        0.16817        0.14999        0.18143        0.21969        0.23917        0.33372        0.45575        0.49406        0.49815        0.52351        0.57967        0.57257        0.52270        0.42317        0.38612        0.36786        0.27066        0.24850        0.21820        0.20797        0.20587        0.18362        0.15896        0.12485        0.18978        0.24832        0.34936        0.38393        0.40712        0.46405        0.53608        0.47799        0.48503        0.42440        0.40298        0.38360        0.36423        0.29019        0.26140        0.20361        0.23574        0.21899        0.19531        0.21833        0.22551        0.24411        0.30056        0.40209        0.40111        0.37299        0.39093        0.45548        0.48336        0.43003        0.35601        0.32664        0.28202        0.26250        0.24726        0.21413        0.28468        0.29409        0.29468        0.31584        0.31075        0.34902        0.37475        0.37415        0.37459        0.35721        0.32048        0.33575        0.32012        0.30004        0.28438        0.27139        0.21685        0.27269        0.27531        0.30401        0.32252        0.34440        0.37490        0.33913        0.32064        0.36075        0.37100        0.26949        0.29760        0.30871        0.24524        0.21279        0.26224        0.27386        0.27793        0.30073        0.30615        0.33425        0.33562        0.36167        0.32834        0.32510        0.31065        0.29269        0.27181        0.24615        0.25552        0.26093        0.27703        0.30069        0.29398        0.29767        0.31612        0.33152        0.26649        0.30555        0.26821        0.26158        0.27654        0.26470        0.26082        0.26599        0.31447        0.28691        0.31756        0.29021        0.27786        0.31074        0.31066        0.33209        0.31524        0.29556        0.25458        0.26492        0.27335        0.26475        0.31260        0.31903        0.33958        0.32498        0.30930        0.26152        0.28556        0.21358        0.20257        0.24767        0.26558        0.25588        0.28926        0.31369        0.29638        0.35156        0.30807        0.26645        0.23320        0.23574        0.29012        0.30846        0.30568        0.26916        0.27931        0.25396        0.31841        0.28332        0.25207        0.26782        0.25299        0.29086        0.25328        0.29207        0.33191        0.28990        0.21272        0.23043        0.27916        0.32403        0.27041        0.26419        0.24084        0.28199        0.28990        0.37907        0.29739        0.28098        0.26011        0.26053        0.22053        0.18204        0.25457        0.22265        0.20347        0.18937        0.19405        0.23896        0.22664        0.24390        0.19499        0.25228        0.22875        0.20833        0.18196        0.15849        0.19499        0.23562        0.15153        0.07614        0.21122        0.20046        0.15141        0.24476        0.15160        0.23638        0.20578       -0.09295       -0.50819       -0.98883
2.857152 2.828996 2.800985 2.773120 2.745399 2.717823 2.690393 2.663107 2.635966 2.608970 2.582120 2.555414 2.528853 2.502437 2.476167 2.450041 2.424060 2.398224 2.372533 2.346987 2.321586 2.296330 2.271219 2.246254 2.221432 2.196756 2.172226 2.147839 2.123598 2.099502 2.075551 2.051745 2.028084 2.004568 1.981197 1.957971 1.934890 1.911954 1.889162 1.866516 1.844015 1.821659 1.799447 1.777381 1.755460 1.733684 1.712052 1.690566 1.669225 1.648028 1.626977 1.924148 2.276328 1.699990 1.742997 1.385221 0.945304 1.202219 1.025172 1.076998 1.032640 1.493885 1.521461 1.548288 1.279929 0.947495 0.826676 1.013518 0.719941 0.493660 0.587360 0.679887 0.422038 0.492869 0.327442 0.368852 0.250574 0.165033 -0.035691 0.003678 0.031015 0.080772 0.041580 0.076311 -0.039850 0.027703 0.113486 0.227861 0.287513 0.210345 0.323348 0.550801 0.452343 0.727816 0.793571 0.882599 0.907575 1.117341 1.138558 1.173446 1.327871 1.234086 1.367322 1.195601 1.111441 1.297407 1.142585 1.052381 1.124631 0.888367 0.739111 0.678176 0.673965 0.460273 0.397198 0.260557 0.227764 0.090310 -0.009759 0.087477 0.025532 -0.063639 0.112572 0.254057 0.304679 0.465745 0.483726 0.555581 0.718961 0.816904 0.659615 0.953649 0.801823 0.656602 0.765060 0.794181 0.708230 0.637930 0.445321 0.498788 0.284200 0.192619 0.139636 0.005280 -0.021738 -0.104309 -0.014485 0.020160 0.095831 -0.051408 0.250591 0.089425 0.208347 0.373422 0.435416 0.526088 0.435614 0.553740 0.666798 0.504028 0.383533 0.332284 0.320611 0.144538 0.134703 0.016029 0.091290 0.029227 0.000074 -0.027726 -0.126268 -0.014299 0.015719 0.106465 0.294773 0.200059 0.351133 0.371034 0.425395 0.414240 0.390026 0.327378 0.226195 0.303085 0.162054 0.157796 0.011703 0.048309 0.063593 -0.022055 -0.010086 0.015532 0.059414 0.073052 0.213092 0.304740 0.239226 0.204649 0.375830 0.401126 0.350949 0.242959 0.173744 0.149780 0.081774 0.072296 0.022691 0.019314 0.134681 0.049081 0.186338 0.085515 0.141331 0.228051 0.213852 0.232762 0.200535 0.194903 0.121594 0.163473 0.122294 0.098764 0.109535 -0.003432 0.028042 0.086825 0.049672 0.151005 0.117418 0.209825 0.199006 0.136152 0.128757 0.228982 0.123566 0.074209 0.089664 0.062397 -0.001775 -0.023407 0.048483 0.072441 0.032684 0.116354 0.108374 0.120126 0.135088 0.173730 0.122729 0.083761 0.101226 0.079900 0.016171 0.010939 0.032753 0.003732 0.068897 0.103252 0.059777 0.061835 0.124408 0.106939 0.014584 0.113104 0.018791 0.027551 0.055869 0.018404 0.010690 0.062354 0.086433 0.026413 0.104078 0.068751 0.025119 0.115207 0.072796 0.091681 0.090584 0.028442 -0.008644 0.001935 0.044589 0.008642 0.069022 0.099139 0.097130 0.062174 0.135423 -0.007647 0.038736 -0.091942 -0.024340 -0.031647 0.013092 0.016896 0.034221 0.086911 0.057395 0.121360 0.007810 -0.015095 -0.070196 -0.083855 0.071732 0.035966 0.051464 -0.022315 -0.004985 -0.042092 0.058931 0.012677 -0.064922 -0.017835 -0.079455 0.026340 -0.040494 0.029413 0.068857 -0.016956 -0.081965 -0.050449 0.077110 0.051103 -0.000630 0.001818 -0.055993 0.087398 0.069301 0.178433 0.050447 0.023459 0.019754 0.078172 -0.054184 -0.038950 0.061430 0.007979 -0.034824 -0.036376 -0.043111 0.091759 -0.056425 0.081047 -0.003560 0.111855 -0.009496 0.052484 -0.080209 -0.042193 -0.049016 0.090538 -0.027072 -0.230107 0.295236 0.283765 0.213609 0.409482 0.190853 0.304888 0.338394 -0.128484 -1.381457
0.072396 0.072834 0.074149 0.076339 0.079405 0.083345 0.088159 0.093847 0.100405 0.107832 0.116126 0.125284 0.135301 0.146174 0.157897 0.170464 0.183866 0.198096 0.213142 0.228994 0.245637 0.263055 0.281231 0.300145 0.319775 0.340094 0.361076 0.382688 0.404896 0.427662 0.450944 0.474697 0.498870 0.523411 0.548259 0.573353 0.598624 0.624000 0.649402 0.674748 0.699950 0.724914 0.749543 0.773732 0.797373 0.820352 0.842551 0.863847 0.884111 0.903214 0.921020 0.937390 0.952184 0.965259 0.976470 0.985673 0.992723 0.997475 0.999789 0.999524 0.996548 0.990730 0.981947 0.970085 0.955039 0.936714 0.915027 0.889911 0.861312 0.829193 0.793538 0.754348 0.711648 0.665486 0.615932 0.563085 0.507069 0.448038 0.386173 0.321686 0.254821 0.185849 0.115076 0.042835 0.030509 0.104562 0.178904 0.253087 0.326640 0.399069 0.469862 0.538492 0.604419 0.667098 0.725977 0.780509 0.830154 0.874386 0.912695 0.944599 0.969649 0.987432 0.997584 0.999789 0.993795 0.979412 0.956523 0.925088 0.885152 0.836845 0.780390 0.716105 0.644404 0.565800 0.480902 0.390418 0.295146 0.195977 0.093881 0.010092 0.114830 0.219159 0.321867 0.421707 0.517419 0.607744 0.691439 0.767300 0.834177 0.890997 0.936781 0.970662 0.991909 0.999941 0.994344 0.974888 0.941538 0.894469 0.834065 0.760934 0.675903 0.580016 0.474529 0.360898 0.240765 0.115936 0.011636 0.139888 0.266674 0.389796 0.507050 0.616260 0.715326 0.802262 0.875243 0.932646 0.973094 0.995491 0.999059 0.983369 0.948361 0.894368 0.822119 0.732750 0.627786 0.509134 0.379053 0.240119 0.095181 0.052691 0.200273 0.344246 0.481278 0.608102 0.721594 0.818856 0.897297 0.954708 0.989336 0.999943 0.985860 0.947027 0.884017 0.798045 0.690966 0.565241 0.423900 0.270480 0.108940 0.056426 0.221105 0.380483 0.529972 0.665150 0.781896 0.876520 0.945897 0.987575 0.999877 0.981983 0.933984 0.856912 0.752739 0.624352 0.475479 0.310613 0.134876 0.046122 0.226463 0.400104 0.561083 0.703731 0.822877 0.914049 0.973652 0.999135 0.989108 0.943439 0.863295 0.751143 0.610699 0.446825 0.265388 0.073057 0.122929 0.315026 0.495668 0.657581 0.794074 0.899331 0.968684 0.998829 0.988014 0.936160 0.844908 0.717610 0.559231 0.376183 0.176086 0.032527 0.240572 0.438793 0.618185 0.770413 0.888206 0.965729 0.998902 0.985635 0.925987 0.822227 0.678784 0.502095 0.300348 0.083118 0.139055 0.355181 0.554353 0.726313 0.861987 0.953996 0.997074 0.988416 0.927880 0.818076 0.664296 0.474298 0.257951 0.026756 0.206761 0.429701 0.629524 0.794752 0.915654 0.984857 0.997820 0.953180 0.852908 0.702283 0.509665 0.286057 0.044531 0.200530 0.434264 0.642243 0.811373 0.930749 0.992383 0.991792 0.928366 0.805500 0.630479 0.414088 0.170004 0.086045 0.337272 0.566919 0.759394 0.901353 0.982653 0.997134 0.943135 0.823711 0.646534 0.423457 0.169781 0.096770 0.357255 0.592867 0.786289 0.923006 0.992439 0.988809 0.911687 0.766139 0.562474 0.315574 0.043852 0.232071 0.490929 0.712452 0.878969 0.976866 0.997760 0.939273 0.805360 0.606125 0.357140 0.078266 0.207866 0.477674 0.708590 0.880953 0.979733 0.995912 0.927374 0.779236 0.563553 0.298421 0.006514 0.286802 0.555668 0.776015 0.927758 0.996679 0.975838 0.866351 0.677456 0.425822 0.134155 0.170785 0.460617 0.707981 0.889138 0.986313 0.989514 0.897646 0.718789 0.469607 0.173863 0.139762 0.440427 0.698146 0.886818
1.000000 1.000000 1.000000 1.000000 1.000000 1.000000 1.000000 1.000000 1.000000 1.000000 1.000000 1.000000 1.000000 1.000000 1.000000 1.000000 1.000000 1.000000 1.000000 1.000000 1.000000 1.000000 1.000000 1.000000 1.000000 1.000000 1.000000 1.000000 1.000000 1.000000 1.000000 1.000000 1.000000 1.000000 1.000000 1.000000 1.000000 1.000000 1.000000 1.000000 1.000000 1.000000 1.000000 1.000000 1.000000 1.000000 1.000000 1.000000 1.000000 1.000000 1.000000 1.000000 0.836313 0.836313 0.836313 0.836313 0.836313 0.836313 0.836313 0.813990 0.813990 0.813990 0.813990 0.813990 0.813990 0.813990 0.813990 0.813990 0.813990 0.813990 0.813990 0.813990 0.813990 0.813990 0.813990 0.813990 0.813990 0.813990 0.813990 0.813990 0.813990 0.813990 0.813990 0.813990 0.813990 0.813990 0.813990 0.813990 0.813990 0.813990 0.813990 0.813990 0.813990 0.813990 0.813990 0.813990 0.813990 0.813990 0.813990 0.813990 0.813990 0.813990 0.813990 0.954569 0.955202 0.947605 0.946509 0.944794 0.941517 0.937138 0.936676 0.938024 0.938236 0.938873 0.940287 0.941336 0.943029 0.944102 0.944974 0.945811 0.953870 0.957500 0.957134 0.956737 0.952343 0.959041 0.957063 0.956902 0.957650 0.957934 0.958638 0.958530 0.958371 0.957852 0.956676 0.957373 0.957221 0.956508 0.955496 0.953230 0.953207 0.952767 0.952893 0.953842 0.954535 0.955167 0.955675 0.955643 0.955816 0.955804 0.955711 0.950791 0.950815 0.944191 0.944800 0.945942 0.945625 0.944606 0.943200 0.943257 0.943135 0.943060 0.942876 0.943093 0.923889 0.923461 0.923487 0.923842 0.916873 0.906278 0.899514 0.893323 0.894203 0.898254 0.903047 0.903351 0.899848 0.898924 0.881955 0.885637 0.872672 0.869388 0.858709 0.868978 0.870271 0.871399 0.866153 0.865546 0.864285 0.862135 0.853088 0.857227 0.857994 0.854231 0.850770 0.848769 0.846697 0.848649 0.853328 0.850061 0.845852 0.843068 0.832132 0.822781 0.821653 0.824008 0.832209 0.844272 0.844266 0.843555 0.836110 0.832319 0.825106 0.818094 0.817256 0.818980 0.816869 0.820491 0.820265 0.828384 0.818544 0.814141 0.819455 0.830212 0.835953 0.838403 0.840913 0.838989 0.836819 0.817171 0.817929 0.819516 0.771327 0.771129 0.758367 0.758282 0.746969 0.744339 0.741088 0.737870 0.729313 0.715161 0.727476 0.731353 0.705405 0.712981 0.707382 0.696365 0.674234 0.677437 0.691154 0.699373 0.698758 0.701271 0.690641 0.689619 0.699989 0.700007 0.706381 0.701054 0.697462 0.691131 0.694891 0.686684 0.682965 0.679194 0.678641 0.679106 0.675220 0.657363 0.665176 0.657589 0.651882 0.642565 0.606044 0.581168 0.567260 0.559161 0.540977 0.513325 0.527800 0.534238 0.516843 0.506146 0.485302 0.446954 0.434916 0.433200 0.412457 0.402608 0.382001 0.335386 0.341865 0.337876 0.344109 0.329222 0.328971 0.315599 0.264616 0.261342 0.223882 0.239374 0.263405 0.251929 0.230406 0.221427 0.238974 0.239960 0.248040 0.246126 0.262625 0.219274 0.164270 0.183851 0.180282 0.190032 0.172865 0.143909 0.170087 0.166200 0.176812 0.180379 0.136292 0.106531 0.085188 0.066920 0.074083 0.097696 0.110881 0.100872 0.085360 -0.009323 0.023696 0.047284 0.047284 0.047284 0.047284 0.047284 0.047284 0.047284 0.047284 0.047284 0.047284 0.047284 -0.011897 -0.011897 -0.011897 -0.011897 -0.011897 -0.011897 -0.011897 -0.011897 -0.011897 -0.011897 -0.011897 -0.011897 -0.011897 -0.011897 -0.011897 -0.011897 -0.011897 -0.011897 -0.011897
0.000000 0.000000 0.000000 0.000000 0.000000 0.000000 0.000000 0.000000 0.000000 0.000000 0.000000 0.000000 0.000000 0.000000 0.000000 0.000000 0.000000 0.000000 0.000000 0.000000 0.000000 0.000000 0.000000 0.000000 0.000000 0.000000 0.000000 0.000000 0.000000 0.000000 0.000000 0.000000 0.000000 0.000000 0.000000 0.000000 0.000000 0.000000 0.000000 0.000000 0.000000 0.000000 0.000000 0.000000 0.000000 0.000000 0.000000 0.000000 0.000000 0.000000 0.000000 0.000000 0.173422 0.173422 0.173422 0.173422 0.173422 0.173422 0.173422 0.191565 0.191565 0.191565 0.191565 0.191565 0.191565 0.191565 0.191565 0.191565 0.191565 0.191565 0.191565 0.191565 0.191565 0.191565 0.191565 0.191565 0.191565 0.191565 0.191565 0.191565 0.191565 0.191565 0.191565 0.191565 0.191565 0.191565 0.191565 0.191565 0.191565 0.191565 0.191565 0.191565 0.191565 0.191565 0.191565 0.191565 0.191565 0.191565 0.191565 0.191565 0.191565 0.191565 0.191565 0.219529 0.219529 0.219529 0.219529 0.219529 0.219529 0.219529 0.219529 0.219529 0.219529 0.219529 0.219529 0.219529 0.219529 0.219529 0.219529 0.219529 0.219529 0.219529 0.219529 0.219529 0.219529 0.219529 0.219529 0.219529 0.219529 0.219529 0.219529 0.219529 0.219529 0.219529 0.237356 0.237356 0.237356 0.237356 0.237356 0.237356 0.237356 0.237356 0.237356 0.237356 0.237356 0.237356 0.237356 0.237356 0.237356 0.237356 0.237356 0.237356 0.237356 0.237356 0.237356 0.237356 0.237356 0.237356 0.244339 0.244339 0.244339 0.244339 0.244339 0.244339 0.244339 0.244339 0.244339 0.244339 0.244339 0.244339 0.244339 0.244339 0.244339 0.244339 0.244339 0.244339 0.244339 0.244339 0.244339 0.248069 0.248069 0.248069 0.248069 0.248069 0.248069 0.248069 0.248069 0.248069 0.248069 0.248069 0.248069 0.248069 0.248069 0.248069 0.248069 0.248069 0.248069 0.248069 0.248069 0.248069 0.248069 0.248069 0.248069 0.248069 0.248069 0.248069 0.248069 0.248069 0.248069 0.248069 0.248069 0.248069 0.248069 0.248069 0.248069 0.248069 0.256074 0.256074 0.256074 0.256074 0.256074 0.256074 0.256074 0.256074 0.256074 0.256074 0.256074 0.256074 0.256074 0.256074 0.256074 0.256074 0.256074 0.256074 0.256074 0.256074 0.256074 0.256074 0.256074 0.256074 0.256074 0.256074 0.256074 0.256074 0.256074 0.256074 0.256074 0.256074 0.256074 0.256074 0.256074 0.256074 0.256074 0.256074 0.256074 0.256074 0.256074 0.256074 0.256074 0.256074 0.256074 0.260378 0.260378 0.260378 0.260378 0.260378 0.260378 0.260378 0.260378 0.260378 0.260378 0.260378 0.260378 0.260378 0.256074 0.256074 0.256074 0.256074 0.256074 0.256074 0.256074 0.256074 0.256074 0.256074 0.256074 0.256074 0.256074 0.260378 0.260378 0.260378 0.260378 0.260378 0.260378 0.260378 0.260378 0.260378 0.260378 0.260378 0.260378 0.251976 0.251976 0.251976 0.251976 0.251976 0.251976 0.251976 0.251976 0.251976 0.251976 0.251976 0.251976 0.256074 0.256074 0.256074 0.256074 0.256074 0.256074 0.256074 0.256074 0.256074 0.256074 0.256074 0.251976 0.251976 0.251976 0.251976 0.251976 0.251976 0.251976 0.251976 0.251976 0.251976 0.251976 0.248069 0.248069 0.248069 0.248069 0.248069 0.248069 0.248069 0.248069 0.248069 0.248069 0.248069 0.256074 0.256074 0.256074 0.256074 0.256074 0.256074 0.256074 0.256074 0.256074 0.256074 0.256074 0.256074 0.256074 0.256074 0.256074 0.256074 0.256074 0.256074 0.256074
