# Output from CTFFind version 4.1.9, run on 2019-11-03 20:08:33
# Input file: stack1_bm3d_averaged_1_6.5_0_2000_half.mrc ; Number of micrographs: 1
# Pixel size: 3.000 Angstroms ; acceleration voltage: 300.0 keV ; spherical aberration: 0.00 mm ; amplitude contrast: 0.07
# Box size: 512 pixels ; min. res.: 30.0 Angstroms ; max. res.: 5.0 Angstroms ; min. def.: 5000.0 um; max. def. 50000.0 um; num. frames averaged: 1
# 6 lines per micrograph: #1 - spatial frequency (1/Angstroms); #2 - 1D rotational average of spectrum (assuming no astigmatism); #3 - 1D rotational average of spectrum; #4 - CTF fit; #5 - cross-correlation between spectrum and CTF fit; #6 - 2sigma of expected cross correlation of noise
0.000000 0.000651 0.001302 0.001953 0.002604 0.003255 0.003906 0.004557 0.005208 0.005859 0.006510 0.007161 0.007812 0.008464 0.009115 0.009766 0.010417 0.011068 0.011719 0.012370 0.013021 0.013672 0.014323 0.014974 0.015625 0.016276 0.016927 0.017578 0.018229 0.018880 0.019531 0.020182 0.020833 0.021484 0.022135 0.022786 0.023438 0.024089 0.024740 0.025391 0.026042 0.026693 0.027344 0.027995 0.028646 0.029297 0.029948 0.030599 0.031250 0.031901 0.032552 0.033203 0.033854 0.034505 0.035156 0.035807 0.036458 0.037109 0.037760 0.038411 0.039062 0.039714 0.040365 0.041016 0.041667 0.042318 0.042969 0.043620 0.044271 0.044922 0.045573 0.046224 0.046875 0.047526 0.048177 0.048828 0.049479 0.050130 0.050781 0.051432 0.052083 0.052734 0.053385 0.054036 0.054688 0.055339 0.055990 0.056641 0.057292 0.057943 0.058594 0.059245 0.059896 0.060547 0.061198 0.061849 0.062500 0.063151 0.063802 0.064453 0.065104 0.065755 0.066406 0.067057 0.067708 0.068359 0.069010 0.069661 0.070312 0.070964 0.071615 0.072266 0.072917 0.073568 0.074219 0.074870 0.075521 0.076172 0.076823 0.077474 0.078125 0.078776 0.079427 0.080078 0.080729 0.081380 0.082031 0.082682 0.083333 0.083984 0.084635 0.085286 0.085938 0.086589 0.087240 0.087891 0.088542 0.089193 0.089844 0.090495 0.091146 0.091797 0.092448 0.093099 0.093750 0.094401 0.095052 0.095703 0.096354 0.097005 0.097656 0.098307 0.098958 0.099609 0.100260 0.100911 0.101562 0.102214 0.102865 0.103516 0.104167 0.104818 0.105469 0.106120 0.106771 0.107422 0.108073 0.108724 0.109375 0.110026 0.110677 0.111328 0.111979 0.112630 0.113281 0.113932 0.114583 0.115234 0.115885 0.116536 0.117188 0.117839 0.118490 0.119141 0.119792 0.120443 0.121094 0.121745 0.122396 0.123047 0.123698 0.124349 0.125000 0.125651 0.126302 0.126953 0.127604 0.128255 0.128906 0.129557 0.130208 0.130859 0.131510 0.132161 0.132812 0.133464 0.134115 0.134766 0.135417 0.136068 0.136719 0.137370 0.138021 0.138672 0.139323 0.139974 0.140625 0.141276 0.141927 0.142578 0.143229 0.143880 0.144531 0.145182 0.145833 0.146484 0.147135 0.147786 0.148438 0.149089 0.149740 0.150391 0.151042 0.151693 0.152344 0.152995 0.153646 0.154297 0.154948 0.155599 0.156250 0.156901 0.157552 0.158203 0.158854 0.159505 0.160156 0.160807 0.161458 0.162109 0.162760 0.163411 0.164062 0.164714 0.165365 0.166016 0.166667 0.167318 0.167969 0.168620 0.169271 0.169922 0.170573 0.171224 0.171875 0.172526 0.173177 0.173828 0.174479 0.175130 0.175781 0.176432 0.177083 0.177734 0.178385 0.179036 0.179688 0.180339 0.180990 0.181641 0.182292 0.182943 0.183594 0.184245 0.184896 0.185547 0.186198 0.186849 0.187500 0.188151 0.188802 0.189453 0.190104 0.190755 0.191406 0.192057 0.192708 0.193359 0.194010 0.194661 0.195312 0.195964 0.196615 0.197266 0.197917 0.198568 0.199219 0.199870 0.200521 0.201172 0.201823 0.202474 0.203125 0.203776 0.204427 0.205078 0.205729 0.206380 0.207031 0.207682 0.208333 0.208984 0.209635 0.210286 0.210938 0.211589 0.212240 0.212891 0.213542 0.214193 0.214844 0.215495 0.216146 0.216797 0.217448 0.218099 0.218750 0.219401 0.220052 0.220703 0.221354 0.222005 0.222656 0.223307 0.223958 0.224609 0.225260 0.225911 0.226562 0.227214 0.227865 0.228516 0.229167 0.229818 0.230469 0.231120 0.231771 0.232422 0.233073 0.233724 0.234375 0.235026 0.235677
       0.34817        0.34817        0.34817        0.34817        0.34817        0.34817        0.34817        0.34817        0.34817        0.34817        0.34817        0.34817        0.34817        0.34817        0.34817        0.34817        0.34817        0.34817        0.34817        0.34817        0.34817        0.34817        0.34817        0.34817        0.34817        0.34817        0.34817        0.34817        0.34817        0.34817        0.34817        0.34817        0.34817        0.34817        0.34817        0.34817        0.34817        0.34817        0.34817        0.34817        0.34817        0.34817        0.34817        0.34817        0.34817        0.34817        0.34817        0.34817        0.34817        0.34817        0.34817        0.35922        0.51437        0.23741        0.08879       -0.00087       -0.27123       -0.11127       -0.16495       -0.22161        0.01304       -0.14151       -0.08265       -0.06099       -0.04352       -0.12716       -0.15853       -0.26345       -0.32714       -0.44170       -0.37661       -0.27547       -0.23534       -0.33402       -0.25130       -0.32111       -0.28645       -0.31269       -0.14569       -0.15375       -0.21761       -0.04682        0.01457       -0.03153        0.07885        0.03231        0.22370        0.24350        0.33930        0.35471        0.39949        0.43812        0.51133        0.57148        0.59189        0.52119        0.49268        0.51172        0.46568        0.53656        0.45736        0.41545        0.41555        0.34903        0.29787        0.30927        0.33756        0.23187        0.19710        0.12333        0.14759        0.15980        0.18515        0.15712        0.22586        0.27625        0.31367        0.29897        0.37757        0.46789        0.40130        0.48977        0.60928        0.57321        0.53013        0.55938        0.59891        0.42002        0.48685        0.38985        0.32030        0.29946        0.28056        0.25636        0.18769        0.18371        0.14730        0.20980        0.26155        0.29102        0.34865        0.30946        0.41452        0.44087        0.46347        0.47749        0.48926        0.52595        0.46983        0.44165        0.41330        0.34266        0.33027        0.30694        0.31856        0.25064        0.23997        0.26281        0.24739        0.27197        0.32755        0.43285        0.44885        0.42582        0.41770        0.48101        0.47309        0.46886        0.46169        0.38065        0.37038        0.40709        0.36979        0.30676        0.29569        0.32587        0.29110        0.30315        0.29845        0.31951        0.35750        0.38398        0.44510        0.46239        0.37162        0.45415        0.42939        0.36437        0.30472        0.35797        0.33117        0.31108        0.32978        0.27669        0.27344        0.32246        0.33899        0.44534        0.41492        0.37303        0.38512        0.42721        0.36207        0.35914        0.33751        0.34006        0.29296        0.29048        0.29730        0.37073        0.37740        0.34185        0.35026        0.40052        0.39752        0.45647        0.40546        0.36005        0.33892        0.34322        0.33034        0.31988        0.34353        0.39251        0.36382        0.36865        0.33197        0.44134        0.36876        0.34969        0.33526        0.37853        0.37710        0.32087        0.32100        0.28946        0.31272        0.33374        0.31344        0.33295        0.34280        0.36116        0.34918        0.33949        0.30341        0.29943        0.28737        0.33777        0.33228        0.35215        0.30980        0.34912        0.35282        0.33950        0.33701        0.30842        0.28513        0.32579        0.32663        0.32834        0.31917        0.31155        0.32437        0.32953        0.33592        0.34324        0.37607        0.34384        0.28331        0.32561        0.32066        0.33152        0.33559        0.28047        0.32482        0.29513        0.32202        0.31275        0.38237        0.33203        0.30714        0.27943        0.29461        0.37645        0.35671        0.32758        0.33384        0.31111        0.31674        0.33393        0.33119        0.28932        0.32166        0.26597        0.27170        0.29565        0.30387        0.30405        0.32004        0.23338        0.29411        0.34386        0.35880        0.35292        0.32556        0.31591        0.30024        0.31971        0.31534        0.25677        0.29695        0.28596        0.32605        0.33197        0.36417        0.35863        0.31672        0.31672        0.34298        0.32886        0.31905        0.33487        0.33952        0.27491        0.29486        0.33245        0.32649        0.24450        0.19935        0.22569        0.28692        0.30512        0.30355        0.26178        0.29523        0.28719        0.24324        0.26397        0.27434        0.22490        0.27236        0.28573        0.25468        0.20458        0.24380        0.32336        0.39999        0.28738        0.24868        0.18613        0.20316        0.29998        0.29902        0.38901        0.23219        0.21056        0.27176        0.34901        0.24907        0.09904       -0.08473       -0.53990       -0.76206
3.259467 3.223342 3.187421 3.151703 3.116188 3.080877 3.045770 3.010866 2.976165 2.941668 2.907375 2.873285 2.839398 2.805715 2.772235 2.738960 2.705887 2.673018 2.640352 2.607890 2.575632 2.543577 2.511725 2.480077 2.448633 2.417392 2.386354 2.355520 2.324889 2.294462 2.264238 2.234218 2.204402 2.174789 2.145379 2.116173 2.087170 2.058371 2.029775 2.001383 1.973195 1.945210 1.917428 1.889850 1.862475 1.835304 1.808336 1.781572 1.755011 1.728654 1.702500 1.618725 1.940114 1.670375 1.212145 1.055072 0.372931 0.894719 0.519191 0.634102 0.911523 0.672155 0.628390 0.752633 0.687466 0.630708 0.477135 0.338549 0.168658 -0.015007 -0.011573 0.081899 0.400728 -0.029947 0.158637 0.039101 0.124441 -0.060754 0.250959 0.184974 0.094105 0.291514 0.473571 0.279926 0.464463 0.376188 0.736239 0.622214 0.845187 0.834675 0.820144 1.030671 0.929311 1.212054 1.122280 1.078975 0.934438 0.979086 0.924055 0.889374 0.920453 0.749964 0.702099 0.635493 0.592859 0.461726 0.548110 0.436841 0.291175 0.190507 0.135924 0.177623 0.223885 0.158165 0.173872 0.332945 0.341437 0.355726 0.448182 0.500414 0.525471 0.397317 0.805609 0.743049 0.669808 0.631927 0.736611 0.505513 0.427658 0.466615 0.191576 0.230100 0.096224 0.172038 -0.021940 -0.026807 -0.098782 -0.098670 0.117029 0.021848 0.131994 0.178460 0.176704 0.314307 0.326940 0.338990 0.378587 0.409421 0.360754 0.274586 0.250485 0.151069 0.117069 0.060265 0.028990 0.007382 -0.079487 -0.064517 -0.049093 -0.073630 -0.046321 0.137178 0.299794 0.183314 0.215558 0.216045 0.448758 0.252263 0.319916 0.283616 0.154449 0.132979 0.291647 0.011158 0.048847 0.036488 0.071277 0.005819 0.090731 -0.011865 0.139997 -0.010961 0.239327 0.286623 0.217687 0.223398 0.219852 0.161806 0.047289 0.079062 0.098725 0.015112 0.010568 0.053015 -0.088550 -0.028803 0.019203 0.118112 0.281433 0.112577 0.119385 0.182565 0.136234 0.093049 0.060737 0.025975 0.046340 -0.068144 -0.024111 0.024507 0.104663 0.095606 0.021800 0.080736 0.153637 0.140981 0.273634 0.089595 0.065646 0.047231 0.014779 0.046363 0.010731 0.076934 0.144993 0.063956 0.075649 0.031338 0.235686 0.039423 0.034442 0.032371 0.095842 0.062354 -0.023507 0.002881 -0.063646 -0.019335 0.024571 -0.006456 -0.009917 0.052768 0.008131 0.011524 -0.013668 -0.079670 -0.054276 -0.062351 -0.024773 0.012944 -0.004814 -0.018414 0.009652 0.034642 -0.000053 0.036072 -0.050298 -0.046259 0.014165 -0.000231 0.025163 0.010466 -0.015061 0.001732 0.012851 0.052938 0.049348 0.135782 -0.024201 -0.041363 0.027915 0.014719 0.032577 0.032014 -0.056961 0.036630 -0.022977 0.015907 0.001502 0.129369 0.003559 -0.045329 -0.059483 -0.019803 0.116414 0.050972 -0.010363 0.008404 0.027467 -0.003512 0.016522 0.009457 -0.045273 0.023195 -0.103567 -0.073005 -0.033861 -0.015509 -0.029694 -0.070556 -0.205512 0.003893 0.054815 0.027111 0.006873 0.021066 -0.049607 -0.041011 -0.038657 -0.073741 -0.111090 -0.087303 -0.114265 -0.027542 0.008131 0.017980 0.005212 -0.037395 -0.035095 -0.048720 0.017584 -0.090685 -0.000470 0.000223 -0.102977 -0.042846 0.007284 -0.041894 -0.100146 -0.206171 -0.125129 0.061801 0.024543 -0.036516 -0.051639 0.065194 0.018112 -0.178374 0.034723 0.019515 -0.084047 0.057593 0.042085 0.024506 -0.092290 0.041075 0.123472 0.254846 0.079049 0.086128 -0.128575 -0.000122 0.169641 0.124143 0.333742 0.308665 0.347646 0.458217 0.612402 0.308271 0.107514 -0.129332 -1.237998
0.072396 0.072906 0.074435 0.076983 0.080549 0.085132 0.090732 0.097346 0.104972 0.113607 0.123248 0.133891 0.145529 0.158157 0.171765 0.186345 0.201886 0.218373 0.235792 0.254123 0.273347 0.293440 0.314375 0.336120 0.358642 0.381902 0.405856 0.430458 0.455654 0.481386 0.507591 0.534198 0.561133 0.588313 0.615649 0.643047 0.670404 0.697612 0.724553 0.751106 0.777139 0.802516 0.827093 0.850720 0.873240 0.894492 0.914309 0.932518 0.948944 0.963409 0.975731 0.985728 0.993220 0.998025 0.999967 0.998871 0.994571 0.986907 0.975730 0.960901 0.942297 0.919809 0.893346 0.862838 0.828238 0.789525 0.746702 0.699803 0.648897 0.594081 0.535491 0.473301 0.407721 0.339004 0.267441 0.193367 0.117158 0.039230 0.039959 0.119912 0.200095 0.279939 0.358843 0.436179 0.511294 0.583518 0.652168 0.716553 0.775987 0.829790 0.877299 0.917878 0.950927 0.975890 0.992263 0.999611 0.997571 0.985863 0.964303 0.932808 0.891403 0.840234 0.779568 0.709800 0.631458 0.545200 0.451816 0.352228 0.247480 0.138737 0.027267 0.085563 0.198303 0.309444 0.417427 0.520672 0.617598 0.706652 0.786331 0.855213 0.911985 0.955472 0.984664 0.998742 0.997108 0.979403 0.945529 0.895665 0.830282 0.750143 0.656314 0.550150 0.433293 0.307647 0.175364 0.038798 0.099516 0.236918 0.370666 0.497991 0.616160 0.722531 0.814622 0.890171 0.947200 0.984072 0.999550 0.992842 0.963645 0.912170 0.839167 0.745930 0.634289 0.506590 0.365657 0.214745 0.057469 0.102273 0.260390 0.412706 0.555065 0.683453 0.794111 0.883662 0.949216 0.988480 0.999852 0.982494 0.936394 0.862401 0.762232 0.638458 0.494457 0.334341 0.162850 0.014771 0.192925 0.365840 0.527751 0.673097 0.796720 0.894061 0.961341 0.995731 0.995480 0.960032 0.890082 0.787603 0.655825 0.499148 0.323036 0.133831 0.061452 0.255375 0.440365 0.608996 0.754314 0.870119 0.951261 0.993888 0.995652 0.955865 0.875586 0.757633 0.606531 0.428362 0.230553 0.021590 0.189336 0.392718 0.579166 0.739851 0.866932 0.953969 0.996271 0.991189 0.938305 0.839531 0.699088 0.523370 0.320691 0.100924 0.124963 0.345431 0.548967 0.724687 0.862938 0.955854 0.997841 0.985952 0.920133 0.803312 0.641330 0.442694 0.218180 0.019721 0.257484 0.481298 0.677879 0.835276 0.943626 0.995810 0.987972 0.919848 0.794887 0.620146 0.405946 0.165313 0.086774 0.334303 0.561228 0.752530 0.895227 0.979308 0.998471 0.950666 0.838343 0.668418 0.451905 0.203271 0.060490 0.320989 0.559716 0.759361 0.905112 0.985784 0.994748 0.930539 0.797100 0.603638 0.364049 0.095997 0.180351 0.443817 0.673836 0.852078 0.963964 0.999911 0.956235 0.835591 0.646924 0.404885 0.128787 0.158909 0.434373 0.674375 0.858283 0.969879 0.998859 0.941870 0.802973 0.593466 0.331063 0.038467 0.258526 0.533298 0.760779 0.919793 0.995085 0.978877 0.871762 0.682852 0.429111 0.133931 0.174956 0.468044 0.716880 0.896841 0.989659 0.985352 0.883416 0.693077 0.432604 0.127636 0.191245 0.491549 0.742187 0.916726 0.996263 0.971565 0.844274 0.626953 0.342001 0.019432 0.306207 0.599489 0.828006 0.965990 0.997324 0.917551 0.734621 0.468259 0.147961 0.190165 0.507417 0.766942 0.938052 0.999951 0.944399 0.776943 0.516538 0.193563 0.153626 0.483189 0.754814 0.934720 0.999948 0.941434 0.765420 0.492973 0.157636 0.198605 0.530501 0.795278 0.958235 0.997388 0.906604 0.696710 0.394400 0.039003 0.322547 0.641823 0.875442
1.000000 1.000000 1.000000 1.000000 1.000000 1.000000 1.000000 1.000000 1.000000 1.000000 1.000000 1.000000 1.000000 1.000000 1.000000 1.000000 1.000000 1.000000 1.000000 1.000000 1.000000 1.000000 1.000000 1.000000 1.000000 1.000000 1.000000 1.000000 1.000000 1.000000 1.000000 1.000000 1.000000 1.000000 1.000000 1.000000 1.000000 1.000000 1.000000 1.000000 1.000000 1.000000 1.000000 1.000000 1.000000 1.000000 1.000000 1.000000 1.000000 1.000000 1.000000 1.000000 0.821061 0.821061 0.821061 0.813424 0.813424 0.813424 0.813424 0.813424 0.813424 0.813424 0.813424 0.813424 0.813424 0.813424 0.813424 0.813424 0.813424 0.813424 0.813424 0.813424 0.813424 0.813424 0.813424 0.813424 0.813424 0.813424 0.813424 0.813424 0.813424 0.813424 0.813424 0.813424 0.813424 0.813424 0.813424 0.813424 0.813424 0.813424 0.813424 0.813424 0.813424 0.813424 0.813424 0.813424 0.851140 0.858505 0.861380 0.864376 0.865280 0.862637 0.861416 0.860902 0.860745 0.861706 0.867862 0.893039 0.910367 0.913601 0.924883 0.928463 0.933659 0.936594 0.952317 0.953644 0.955185 0.954093 0.954468 0.956490 0.956543 0.952665 0.950720 0.950577 0.958406 0.954208 0.950242 0.948701 0.947181 0.943848 0.944979 0.944679 0.941752 0.942273 0.936645 0.937202 0.937653 0.935540 0.933306 0.921325 0.915920 0.915569 0.915741 0.894695 0.886819 0.875216 0.860735 0.881630 0.874676 0.856469 0.855337 0.832430 0.835103 0.834567 0.828462 0.824363 0.821864 0.817042 0.807662 0.808435 0.807170 0.816748 0.820564 0.822725 0.813712 0.794559 0.770703 0.754974 0.754420 0.753631 0.750555 0.755306 0.757004 0.755753 0.753469 0.751910 0.743903 0.754148 0.755113 0.751080 0.744004 0.742143 0.726914 0.724127 0.715015 0.693433 0.678578 0.667756 0.668858 0.652613 0.642653 0.643663 0.649738 0.656468 0.667481 0.661508 0.657834 0.636627 0.612552 0.570216 0.585087 0.592228 0.569347 0.559274 0.545256 0.582189 0.604918 0.627000 0.645089 0.649058 0.653710 0.629331 0.592666 0.595574 0.596567 0.598140 0.598033 0.588729 0.593242 0.610126 0.586094 0.549024 0.546161 0.542620 0.552094 0.569669 0.562276 0.560383 0.523904 0.504266 0.481801 0.463237 0.418228 0.409359 0.409832 0.419520 0.393212 0.388394 0.392702 0.415942 0.404494 0.406134 0.395364 0.390556 0.364002 0.358831 0.361599 0.347761 0.334488 0.292845 0.253637 0.236293 0.250576 0.254842 0.301301 0.321809 0.319097 0.292201 0.293120 0.322732 0.354370 0.366342 0.372466 0.346853 0.330346 0.229579 0.223805 0.265068 0.291037 0.266700 0.260391 0.255068 0.251413 0.226059 0.217392 0.164755 0.122302 0.080383 0.099673 0.106493 0.108556 0.083542 0.032656 0.033092 0.035514 0.038494 0.008642 -0.000982 0.016951 0.019125 0.027496 0.041351 0.025023 -0.005064 0.027005 0.028594 0.030243 0.042052 0.013070 0.024860 0.000360 -0.032347 -0.038577 -0.052708 -0.072815 -0.051821 -0.039337 -0.015519 -0.024485 -0.036427 -0.028380 -0.044340 -0.129212 -0.186813 -0.180802 -0.186433 -0.166622 -0.174831 -0.179327 -0.200775 -0.200880 -0.209712 -0.114736 -0.133717 -0.143704 -0.144178 -0.161136 -0.189855 -0.132767 -0.111645 -0.117683 -0.150865 -0.148817 -0.148817 -0.148817 -0.148817 -0.148817 -0.148817 -0.134308 -0.134308 -0.134308 -0.134308 -0.134308 -0.134308 -0.134308 -0.134308 -0.134308 -0.072961 -0.072961 -0.072961 -0.072961 -0.072961 -0.072961 -0.072961 -0.072961 -0.072961 -0.072961 -0.072961 -0.072961 -0.072961 -0.072961 -0.072961 -0.072961
0.000000 0.000000 0.000000 0.000000 0.000000 0.000000 0.000000 0.000000 0.000000 0.000000 0.000000 0.000000 0.000000 0.000000 0.000000 0.000000 0.000000 0.000000 0.000000 0.000000 0.000000 0.000000 0.000000 0.000000 0.000000 0.000000 0.000000 0.000000 0.000000 0.000000 0.000000 0.000000 0.000000 0.000000 0.000000 0.000000 0.000000 0.000000 0.000000 0.000000 0.000000 0.000000 0.000000 0.000000 0.000000 0.000000 0.000000 0.000000 0.000000 0.000000 0.000000 0.000000 0.180334 0.180334 0.180334 0.199007 0.199007 0.199007 0.199007 0.199007 0.199007 0.199007 0.199007 0.199007 0.199007 0.199007 0.199007 0.199007 0.199007 0.199007 0.199007 0.199007 0.199007 0.199007 0.199007 0.199007 0.199007 0.199007 0.199007 0.199007 0.199007 0.199007 0.199007 0.199007 0.199007 0.199007 0.199007 0.199007 0.199007 0.199007 0.199007 0.199007 0.199007 0.199007 0.199007 0.199007 0.230940 0.230940 0.230940 0.230940 0.230940 0.230940 0.230940 0.230940 0.230940 0.230940 0.230940 0.230940 0.230940 0.230940 0.230940 0.230940 0.230940 0.230940 0.230940 0.230940 0.230940 0.230940 0.230940 0.230940 0.230940 0.230940 0.230940 0.230940 0.244339 0.244339 0.244339 0.244339 0.244339 0.244339 0.244339 0.244339 0.244339 0.244339 0.244339 0.244339 0.244339 0.244339 0.244339 0.244339 0.244339 0.244339 0.244339 0.244339 0.244339 0.244339 0.244339 0.256074 0.256074 0.256074 0.256074 0.256074 0.256074 0.256074 0.256074 0.256074 0.256074 0.256074 0.256074 0.256074 0.256074 0.256074 0.256074 0.256074 0.256074 0.256074 0.256074 0.256074 0.256074 0.256074 0.256074 0.256074 0.256074 0.256074 0.256074 0.256074 0.256074 0.256074 0.256074 0.256074 0.256074 0.256074 0.256074 0.256074 0.264906 0.264906 0.264906 0.264906 0.264906 0.264906 0.264906 0.264906 0.264906 0.264906 0.264906 0.264906 0.264906 0.264906 0.264906 0.264906 0.264906 0.264906 0.264906 0.264906 0.264906 0.264906 0.264906 0.264906 0.264906 0.264906 0.264906 0.264906 0.264906 0.264906 0.264906 0.264906 0.264906 0.264906 0.264906 0.264906 0.264906 0.264906 0.264906 0.264906 0.264906 0.264906 0.264906 0.264906 0.264906 0.264906 0.264906 0.264906 0.264906 0.264906 0.264906 0.264906 0.264906 0.264906 0.264906 0.264906 0.264906 0.264906 0.269680 0.269680 0.269680 0.269680 0.269680 0.269680 0.269680 0.269680 0.269680 0.269680 0.269680 0.269680 0.264906 0.264906 0.264906 0.264906 0.264906 0.264906 0.264906 0.264906 0.264906 0.264906 0.264906 0.264906 0.269680 0.269680 0.269680 0.269680 0.269680 0.269680 0.269680 0.269680 0.269680 0.269680 0.269680 0.264906 0.264906 0.264906 0.264906 0.264906 0.264906 0.264906 0.264906 0.264906 0.264906 0.264906 0.256074 0.256074 0.256074 0.256074 0.256074 0.256074 0.256074 0.256074 0.256074 0.256074 0.256074 0.264906 0.264906 0.264906 0.264906 0.264906 0.264906 0.264906 0.264906 0.264906 0.264906 0.260378 0.260378 0.260378 0.260378 0.260378 0.260378 0.260378 0.260378 0.260378 0.260378 0.264906 0.264906 0.264906 0.264906 0.264906 0.264906 0.264906 0.264906 0.264906 0.251976 0.251976 0.251976 0.251976 0.251976 0.251976 0.251976 0.251976 0.251976 0.251976 0.256074 0.256074 0.256074 0.256074 0.256074 0.256074 0.256074 0.256074 0.256074 0.269680 0.269680 0.269680 0.269680 0.269680 0.269680 0.269680 0.269680 0.269680 0.269680 0.269680 0.269680 0.269680 0.269680 0.269680 0.269680
