# Output from CTFFind version 4.1.9, run on 2019-11-02 17:46:26
# Input file: stack1_bm3d_averaged_1_0.75_0_1250_half.mrc ; Number of micrographs: 1
# Pixel size: 3.000 Angstroms ; acceleration voltage: 300.0 keV ; spherical aberration: 0.00 mm ; amplitude contrast: 0.07
# Box size: 512 pixels ; min. res.: 30.0 Angstroms ; max. res.: 5.0 Angstroms ; min. def.: 5000.0 um; max. def. 50000.0 um; num. frames averaged: 1
# 6 lines per micrograph: #1 - spatial frequency (1/Angstroms); #2 - 1D rotational average of spectrum (assuming no astigmatism); #3 - 1D rotational average of spectrum; #4 - CTF fit; #5 - cross-correlation between spectrum and CTF fit; #6 - 2sigma of expected cross correlation of noise
0.000000 0.000651 0.001302 0.001953 0.002604 0.003255 0.003906 0.004557 0.005208 0.005859 0.006510 0.007161 0.007812 0.008464 0.009115 0.009766 0.010417 0.011068 0.011719 0.012370 0.013021 0.013672 0.014323 0.014974 0.015625 0.016276 0.016927 0.017578 0.018229 0.018880 0.019531 0.020182 0.020833 0.021484 0.022135 0.022786 0.023438 0.024089 0.024740 0.025391 0.026042 0.026693 0.027344 0.027995 0.028646 0.029297 0.029948 0.030599 0.031250 0.031901 0.032552 0.033203 0.033854 0.034505 0.035156 0.035807 0.036458 0.037109 0.037760 0.038411 0.039062 0.039714 0.040365 0.041016 0.041667 0.042318 0.042969 0.043620 0.044271 0.044922 0.045573 0.046224 0.046875 0.047526 0.048177 0.048828 0.049479 0.050130 0.050781 0.051432 0.052083 0.052734 0.053385 0.054036 0.054688 0.055339 0.055990 0.056641 0.057292 0.057943 0.058594 0.059245 0.059896 0.060547 0.061198 0.061849 0.062500 0.063151 0.063802 0.064453 0.065104 0.065755 0.066406 0.067057 0.067708 0.068359 0.069010 0.069661 0.070312 0.070964 0.071615 0.072266 0.072917 0.073568 0.074219 0.074870 0.075521 0.076172 0.076823 0.077474 0.078125 0.078776 0.079427 0.080078 0.080729 0.081380 0.082031 0.082682 0.083333 0.083984 0.084635 0.085286 0.085938 0.086589 0.087240 0.087891 0.088542 0.089193 0.089844 0.090495 0.091146 0.091797 0.092448 0.093099 0.093750 0.094401 0.095052 0.095703 0.096354 0.097005 0.097656 0.098307 0.098958 0.099609 0.100260 0.100911 0.101562 0.102214 0.102865 0.103516 0.104167 0.104818 0.105469 0.106120 0.106771 0.107422 0.108073 0.108724 0.109375 0.110026 0.110677 0.111328 0.111979 0.112630 0.113281 0.113932 0.114583 0.115234 0.115885 0.116536 0.117188 0.117839 0.118490 0.119141 0.119792 0.120443 0.121094 0.121745 0.122396 0.123047 0.123698 0.124349 0.125000 0.125651 0.126302 0.126953 0.127604 0.128255 0.128906 0.129557 0.130208 0.130859 0.131510 0.132161 0.132812 0.133464 0.134115 0.134766 0.135417 0.136068 0.136719 0.137370 0.138021 0.138672 0.139323 0.139974 0.140625 0.141276 0.141927 0.142578 0.143229 0.143880 0.144531 0.145182 0.145833 0.146484 0.147135 0.147786 0.148438 0.149089 0.149740 0.150391 0.151042 0.151693 0.152344 0.152995 0.153646 0.154297 0.154948 0.155599 0.156250 0.156901 0.157552 0.158203 0.158854 0.159505 0.160156 0.160807 0.161458 0.162109 0.162760 0.163411 0.164062 0.164714 0.165365 0.166016 0.166667 0.167318 0.167969 0.168620 0.169271 0.169922 0.170573 0.171224 0.171875 0.172526 0.173177 0.173828 0.174479 0.175130 0.175781 0.176432 0.177083 0.177734 0.178385 0.179036 0.179688 0.180339 0.180990 0.181641 0.182292 0.182943 0.183594 0.184245 0.184896 0.185547 0.186198 0.186849 0.187500 0.188151 0.188802 0.189453 0.190104 0.190755 0.191406 0.192057 0.192708 0.193359 0.194010 0.194661 0.195312 0.195964 0.196615 0.197266 0.197917 0.198568 0.199219 0.199870 0.200521 0.201172 0.201823 0.202474 0.203125 0.203776 0.204427 0.205078 0.205729 0.206380 0.207031 0.207682 0.208333 0.208984 0.209635 0.210286 0.210938 0.211589 0.212240 0.212891 0.213542 0.214193 0.214844 0.215495 0.216146 0.216797 0.217448 0.218099 0.218750 0.219401 0.220052 0.220703 0.221354 0.222005 0.222656 0.223307 0.223958 0.224609 0.225260 0.225911 0.226562 0.227214 0.227865 0.228516 0.229167 0.229818 0.230469 0.231120 0.231771 0.232422 0.233073 0.233724 0.234375 0.235026 0.235677
       0.33345        0.33345        0.33345        0.33345        0.33345        0.33345        0.33345        0.33345        0.33345        0.33345        0.33345        0.33345        0.33345        0.33345        0.33345        0.33345        0.33345        0.33345        0.33345        0.33345        0.33345        0.33345        0.33345        0.33345        0.33345        0.33345        0.33345        0.33345        0.33345        0.33345        0.33345        0.33345        0.33345        0.33345        0.33345        0.33345        0.33345        0.33345        0.33345        0.33345        0.33345        0.33345        0.33345        0.33345        0.33345        0.33345        0.33345        0.33345        0.33345        0.33345        0.33345        0.50304        0.71994        0.42929        0.19107       -0.08004       -0.26215       -0.06875       -0.13284       -0.05326       -0.00182       -0.14675       -0.09244       -0.05091       -0.00299       -0.15149       -0.22067       -0.34598       -0.46244       -0.55844       -0.51744       -0.44827       -0.37123       -0.54691       -0.44946       -0.62084       -0.50264       -0.47466       -0.38953       -0.38395       -0.34006       -0.25089       -0.16035       -0.13543        0.03335       -0.01167        0.12026        0.16890        0.30482        0.41009        0.46417        0.49809        0.54152        0.55129        0.69375        0.64581        0.67808        0.59219        0.55718        0.65513        0.52905        0.42869        0.38440        0.32111        0.22944        0.26375        0.25153        0.10704        0.08375        0.00047       -0.00583        0.03711       -0.00413        0.07496        0.09950        0.23247        0.28406        0.30289        0.38169        0.56177        0.53711        0.57876        0.67113        0.70115        0.63050        0.63538        0.63370        0.55462        0.57423        0.39793        0.34598        0.26668        0.18435        0.07287        0.14503        0.11926        0.09259        0.10684        0.20905        0.21299        0.31708        0.35959        0.41305        0.49315        0.58337        0.54313        0.55577        0.60811        0.53958        0.46247        0.47946        0.32426        0.25138        0.25886        0.24324        0.14324        0.14541        0.15218        0.21972        0.24778        0.33063        0.36540        0.39207        0.46772        0.44790        0.47840        0.45322        0.46816        0.44575        0.40685        0.38284        0.35347        0.31110        0.28676        0.20547        0.19822        0.22121        0.27139        0.26865        0.35098        0.37621        0.35887        0.41263        0.45645        0.44831        0.42458        0.43965        0.37224        0.33539        0.28264        0.26360        0.29013        0.26994        0.29522        0.30091        0.34894        0.34251        0.39829        0.40397        0.42600        0.41133        0.43133        0.40425        0.36583        0.28362        0.29173        0.30829        0.27384        0.25554        0.32991        0.37087        0.34206        0.35396        0.36026        0.35514        0.40850        0.40127        0.36029        0.33941        0.31018        0.31043        0.31762        0.31731        0.30124        0.28690        0.33617        0.36015        0.37833        0.33362        0.33039        0.33537        0.34610        0.30704        0.28289        0.30719        0.31569        0.33704        0.32139        0.33223        0.35817        0.33008        0.31377        0.32891        0.30407        0.26528        0.25232        0.26593        0.30717        0.32247        0.35148        0.30144        0.31428        0.33657        0.29434        0.31595        0.28765        0.28275        0.29335        0.29836        0.30989        0.34489        0.32549        0.32983        0.33687        0.31335        0.33409        0.31936        0.31991        0.31064        0.28249        0.29156        0.31297        0.29209        0.32656        0.33770        0.33617        0.32149        0.34203        0.31882        0.27753        0.25373        0.27160        0.33187        0.35893        0.34546        0.31666        0.29430        0.29817        0.31397        0.24917        0.29845        0.30404        0.32989        0.29935        0.31594        0.28639        0.33680        0.34238        0.34493        0.32268        0.29246        0.31560        0.39805        0.33136        0.31552        0.31079        0.29175        0.28678        0.29914        0.26619        0.31354        0.23842        0.27401        0.29660        0.31399        0.29602        0.27422        0.29907        0.23804        0.22705        0.26201        0.30285        0.30493        0.27940        0.28722        0.33474        0.25683        0.21582        0.30989        0.27341        0.25757        0.28325        0.39420        0.29492        0.28745        0.24887        0.25299        0.27000        0.24494        0.23543        0.17143        0.25591        0.23011        0.24814        0.31775        0.27009        0.35036        0.28722        0.24678        0.22915        0.21331        0.23966        0.30221        0.22807        0.12899        0.16652        0.24486        0.24526        0.32039        0.28750        0.03408       -0.42556       -0.91311
2.691182 2.662771 2.634513 2.606407 2.578453 2.550652 2.523003 2.495507 2.468163 2.440971 2.413931 2.387044 2.360310 2.333727 2.307297 2.281020 2.254895 2.228922 2.203101 2.177433 2.151917 2.126554 2.101343 2.076284 2.051378 2.026624 2.002022 1.977573 1.953276 1.929131 1.905139 1.881299 1.857612 1.834077 1.810694 1.787464 1.764386 1.741460 1.718687 1.696066 1.673598 1.651281 1.629118 1.607106 1.585247 1.563541 1.541986 1.520584 1.499335 1.478237 1.457293 1.527142 1.828834 1.513116 1.195178 0.940364 0.543959 0.911254 0.633526 0.874152 0.926727 0.590971 0.709142 0.781115 0.818523 0.629820 0.537258 0.347937 0.104171 0.079554 0.044914 0.082620 0.302253 -0.034432 0.082359 -0.133922 -0.012151 -0.017904 0.084189 0.062568 0.101083 0.176275 0.282858 0.252197 0.483748 0.397624 0.549741 0.527393 0.767293 0.787898 0.879741 0.920528 0.940319 0.944268 1.113203 0.941245 1.140378 0.947466 0.851833 1.015469 0.848588 0.760223 0.617000 0.594449 0.456939 0.417874 0.509114 0.265448 0.198736 0.158018 0.012796 0.208643 -0.004761 0.121120 0.180557 0.259196 0.332383 0.347607 0.426044 0.538538 0.663470 0.540113 0.739696 0.862444 0.638815 0.695623 0.667067 0.593729 0.536422 0.463556 0.299217 0.214399 0.116462 -0.042094 -0.018957 0.057753 -0.097007 -0.057167 0.048217 0.053526 0.112206 0.220951 0.237686 0.309257 0.432614 0.443736 0.439862 0.478828 0.446798 0.328952 0.331640 0.240591 0.052099 0.062615 0.018221 -0.045470 -0.097230 -0.098547 -0.015403 -0.051347 0.072830 0.122761 0.120676 0.261432 0.230142 0.244468 0.287616 0.245962 0.239437 0.213036 0.171163 0.110488 0.102881 0.025624 0.007372 -0.116748 -0.052433 0.002291 0.003324 0.021744 0.098333 0.085029 0.129615 0.195141 0.257578 0.176602 0.181706 0.108414 0.137888 0.021001 -0.034186 0.021412 -0.023548 0.004562 -0.007198 0.034997 0.081137 0.053274 0.152643 0.100418 0.165041 0.063912 0.144588 0.094547 -0.008659 -0.061856 -0.014913 -0.035038 -0.071907 -0.067751 0.055698 0.058945 -0.009332 0.048507 0.062432 0.071394 0.142574 0.065364 0.060382 0.048305 -0.026882 0.023346 0.001419 0.011308 0.002165 -0.007869 0.040508 0.061245 0.068882 0.029208 0.044022 0.021006 0.057649 -0.011896 -0.018994 0.021326 0.009468 0.060031 0.036783 0.042979 0.056347 0.044519 0.018021 0.030729 -0.001124 -0.046909 -0.033022 -0.027216 0.023054 0.038712 0.096125 -0.005820 0.055029 0.060813 -0.007460 0.063600 0.012906 0.010152 0.039143 0.052330 0.039348 0.094995 0.052590 0.071724 0.091955 0.061164 0.066604 0.066713 0.085183 0.035447 -0.006926 0.046217 0.044363 0.047044 0.070463 0.087940 0.014619 0.062438 0.077060 0.007797 0.006837 -0.063836 -0.021489 0.110350 0.079300 0.047844 0.045986 -0.028041 0.050573 0.022735 -0.064938 0.050681 0.032501 0.065029 0.036713 0.009220 0.004429 0.057280 0.044230 0.018426 0.039625 -0.038598 0.065571 0.117659 0.008504 -0.004653 -0.000262 -0.001236 -0.033893 -0.017821 -0.053958 -0.002347 -0.093359 -0.021652 -0.032546 0.021523 -0.034893 -0.050988 0.028238 -0.075463 -0.053464 -0.079828 0.048282 0.010512 0.007520 -0.007250 0.072756 -0.028211 -0.070575 0.055652 -0.006367 0.011795 0.008214 0.200178 -0.023676 0.025023 0.001278 -0.006706 0.000278 -0.028627 -0.016387 -0.159037 0.018631 -0.041480 0.002866 0.021913 -0.000547 0.120817 0.002067 -0.012837 -0.043113 -0.029994 -0.062363 0.055092 0.273091 0.154892 0.212951 0.241992 0.329126 0.349964 0.345554 0.042179 -1.069144
0.072396 0.072910 0.074452 0.077021 0.080618 0.085240 0.090887 0.097556 0.105247 0.113955 0.123677 0.134409 0.146145 0.158878 0.172600 0.187301 0.202969 0.219592 0.237152 0.255632 0.275010 0.295262 0.316360 0.338272 0.360964 0.384397 0.408525 0.433300 0.458667 0.484569 0.510938 0.537704 0.564790 0.592112 0.619578 0.647093 0.674550 0.701839 0.728840 0.755429 0.781472 0.806829 0.831354 0.854893 0.877287 0.898371 0.917974 0.935923 0.952038 0.966138 0.978040 0.987558 0.994511 0.998714 0.999990 0.998164 0.993069 0.984545 0.972443 0.956627 0.936975 0.913380 0.885757 0.854041 0.818189 0.778187 0.734047 0.685814 0.633562 0.577404 0.517487 0.453998 0.387163 0.317248 0.244564 0.169461 0.092333 0.013615 0.066215 0.146643 0.227116 0.307045 0.385813 0.462774 0.537260 0.608588 0.676062 0.738984 0.796659 0.848405 0.893559 0.931491 0.961607 0.983365 0.996280 0.999938 0.994006 0.978237 0.952485 0.916711 0.870990 0.815520 0.750627 0.676769 0.594535 0.504651 0.407979 0.305506 0.198345 0.087725 0.025022 0.138470 0.251123 0.361423 0.467781 0.568593 0.662267 0.747252 0.822063 0.885311 0.935733 0.972219 0.993842 0.999884 0.989861 0.963546 0.920985 0.862515 0.788769 0.700686 0.599505 0.486759 0.364260 0.234078 0.098512 0.039947 0.178654 0.314860 0.445767 0.568584 0.680589 0.779194 0.862011 0.926912 0.972096 0.996143 0.998072 0.977378 0.934074 0.868713 0.782399 0.676786 0.554062 0.416920 0.268505 0.112359 0.047658 0.207464 0.362843 0.509569 0.643514 0.760776 0.857796 0.931479 0.979300 0.999413 0.990724 0.952965 0.886733 0.793511 0.675655 0.536360 0.379590 0.209982 0.032724 0.146598 0.322166 0.488121 0.638760 0.768738 0.873272 0.948326 0.990793 0.998633 0.970997 0.908299 0.812254 0.685856 0.533322 0.359969 0.172056 0.023430 0.219022 0.407050 0.579946 0.730555 0.852442 0.940184 0.989641 0.998168 0.964789 0.890291 0.777259 0.630021 0.454518 0.258099 0.049225 0.162868 0.368567 0.558328 0.723115 0.854851 0.946837 0.994118 0.993786 0.945188 0.850036 0.712396 0.538561 0.336804 0.117013 0.109766 0.331873 0.537627 0.715949 0.856976 0.952639 0.997148 0.987395 0.923206 0.807437 0.645912 0.447180 0.222103 0.016698 0.255532 0.480415 0.677891 0.835851 0.944314 0.996092 0.987315 0.917774 0.791030 0.614313 0.398158 0.155834 0.097442 0.345428 0.571906 0.761735 0.901913 0.982492 0.997347 0.944693 0.827333 0.652592 0.431925 0.180228 0.085112 0.345417 0.581995 0.777519 0.917309 0.990502 0.990944 0.917783 0.775672 0.574558 0.329074 0.057517 0.219456 0.480386 0.704671 0.874235 0.975015 0.998204 0.941097 0.807464 0.607404 0.356675 0.075523 0.212905 0.484437 0.715909 0.887163 0.982868 0.993964 0.918608 0.762513 0.538621 0.266134 0.031065 0.326457 0.593227 0.806735 0.946811 0.999758 0.959769 0.829670 0.620844 0.352360 0.049315 0.259449 0.544060 0.776516 0.933481 0.998706 0.964816 0.834251 0.619236 0.340769 0.026668 0.291145 0.579852 0.809150 0.954473 0.999728 0.939180 0.778302 0.533430 0.230225 0.098901 0.418201 0.692461 0.890917 0.990774 0.979951 0.858666 0.639676 0.347082 0.013812 0.322023 0.621436 0.849118 0.977673 0.991024 0.886570 0.675774 0.383074 0.043183 0.302921 0.612913 0.848295 0.979266 0.988609 0.874111 0.649151 0.341299 0.010901 0.362673 0.668652 0.888785 0.993646 0.968524 0.815647 0.554223 0.218219 0.147942 0.495138 0.776146 0.952123 0.998084
1.000000 1.000000 1.000000 1.000000 1.000000 1.000000 1.000000 1.000000 1.000000 1.000000 1.000000 1.000000 1.000000 1.000000 1.000000 1.000000 1.000000 1.000000 1.000000 1.000000 1.000000 1.000000 1.000000 1.000000 1.000000 1.000000 1.000000 1.000000 1.000000 1.000000 1.000000 1.000000 1.000000 1.000000 1.000000 1.000000 1.000000 1.000000 1.000000 1.000000 1.000000 1.000000 1.000000 1.000000 1.000000 1.000000 1.000000 1.000000 1.000000 1.000000 1.000000 1.000000 0.918924 0.918924 0.905180 0.905180 0.905180 0.905180 0.905180 0.905180 0.905180 0.905180 0.905180 0.905180 0.905180 0.905180 0.905180 0.905180 0.905180 0.905180 0.905180 0.905180 0.905180 0.905180 0.905180 0.905180 0.905180 0.905180 0.905180 0.905180 0.905180 0.905180 0.905180 0.905180 0.905180 0.905180 0.905180 0.905180 0.905180 0.905180 0.905180 0.905180 0.905180 0.905180 0.905180 0.901039 0.905894 0.907786 0.906235 0.909790 0.909857 0.909146 0.909474 0.909125 0.909449 0.910841 0.921352 0.932381 0.943636 0.944163 0.949304 0.953713 0.956117 0.956996 0.958545 0.968487 0.967167 0.966667 0.967351 0.968807 0.970940 0.969649 0.969247 0.972413 0.973075 0.971458 0.969242 0.968637 0.968039 0.968140 0.967767 0.967654 0.967528 0.968034 0.968236 0.968395 0.968539 0.968589 0.969607 0.970761 0.973123 0.974102 0.973948 0.972862 0.970968 0.975002 0.975900 0.975632 0.975572 0.975094 0.975360 0.961591 0.957861 0.957780 0.954634 0.953602 0.950721 0.949241 0.947582 0.947779 0.946383 0.946393 0.943280 0.929926 0.916457 0.905543 0.926030 0.911053 0.899812 0.875535 0.876024 0.872044 0.872558 0.864873 0.859142 0.854370 0.851592 0.852913 0.850204 0.854100 0.851009 0.837187 0.840402 0.837066 0.807505 0.790479 0.775501 0.776490 0.773687 0.774797 0.774404 0.769863 0.778276 0.770354 0.768642 0.760342 0.741079 0.707842 0.694625 0.704994 0.714597 0.713274 0.709532 0.694398 0.661665 0.674343 0.694967 0.691584 0.694026 0.685623 0.679737 0.683073 0.683370 0.680046 0.672903 0.672019 0.671492 0.680196 0.685072 0.680446 0.671940 0.657636 0.645557 0.631061 0.644831 0.653032 0.620702 0.614950 0.604551 0.598190 0.584945 0.554838 0.554479 0.531454 0.520071 0.522568 0.525345 0.517607 0.525396 0.526656 0.510826 0.533441 0.539833 0.566517 0.549356 0.547146 0.548404 0.556793 0.541380 0.523506 0.517680 0.518589 0.530861 0.561861 0.601986 0.588656 0.576052 0.563667 0.578674 0.545394 0.554333 0.575185 0.552569 0.479936 0.434871 0.432691 0.392221 0.386924 0.377082 0.368324 0.372171 0.365148 0.355079 0.341739 0.329157 0.270898 0.231757 0.215213 0.193671 0.201881 0.217223 0.207762 0.200775 0.228859 0.276558 0.276778 0.268006 0.254787 0.258316 0.230477 0.241729 0.269581 0.224869 0.218929 0.211973 0.186224 0.184272 0.149646 0.174260 0.091631 0.066968 0.066886 0.083518 0.096653 0.095441 0.099678 0.071741 0.091561 0.086365 0.056880 0.045805 0.062548 0.050530 0.018833 0.027154 0.044752 0.030905 0.003997 0.030346 0.041298 0.055139 0.046080 0.044026 0.097141 0.128362 0.115606 0.116549 0.109549 0.112661 0.088249 0.078485 0.067589 0.057296 0.006362 -0.021949 -0.021949 -0.017288 -0.017288 -0.017288 -0.017288 -0.017288 -0.017288 -0.017288 -0.017288 -0.017288 -0.020626 -0.020626 -0.020626 -0.020626 -0.020626 -0.020626 -0.020626 -0.020626 -0.020626 0.004610 0.004610 0.004610 0.004610 0.004610 0.004610 0.004610 0.004610 0.004610
0.000000 0.000000 0.000000 0.000000 0.000000 0.000000 0.000000 0.000000 0.000000 0.000000 0.000000 0.000000 0.000000 0.000000 0.000000 0.000000 0.000000 0.000000 0.000000 0.000000 0.000000 0.000000 0.000000 0.000000 0.000000 0.000000 0.000000 0.000000 0.000000 0.000000 0.000000 0.000000 0.000000 0.000000 0.000000 0.000000 0.000000 0.000000 0.000000 0.000000 0.000000 0.000000 0.000000 0.000000 0.000000 0.000000 0.000000 0.000000 0.000000 0.000000 0.000000 0.000000 0.181818 0.181818 0.199007 0.199007 0.199007 0.199007 0.199007 0.199007 0.199007 0.199007 0.199007 0.199007 0.199007 0.199007 0.199007 0.199007 0.199007 0.199007 0.199007 0.199007 0.199007 0.199007 0.199007 0.199007 0.199007 0.199007 0.199007 0.199007 0.199007 0.199007 0.199007 0.199007 0.199007 0.199007 0.199007 0.199007 0.199007 0.199007 0.199007 0.199007 0.199007 0.199007 0.199007 0.230940 0.230940 0.230940 0.230940 0.230940 0.230940 0.230940 0.230940 0.230940 0.230940 0.230940 0.230940 0.230940 0.230940 0.230940 0.230940 0.230940 0.230940 0.230940 0.230940 0.230940 0.230940 0.230940 0.230940 0.230940 0.230940 0.230940 0.230940 0.244339 0.244339 0.244339 0.244339 0.244339 0.244339 0.244339 0.244339 0.244339 0.244339 0.244339 0.244339 0.244339 0.244339 0.244339 0.244339 0.244339 0.244339 0.244339 0.244339 0.244339 0.244339 0.244339 0.251976 0.251976 0.251976 0.251976 0.251976 0.251976 0.251976 0.251976 0.251976 0.251976 0.251976 0.251976 0.251976 0.251976 0.251976 0.251976 0.251976 0.251976 0.251976 0.251976 0.264906 0.264906 0.264906 0.264906 0.264906 0.264906 0.264906 0.264906 0.264906 0.264906 0.264906 0.264906 0.264906 0.264906 0.264906 0.264906 0.264906 0.264906 0.264906 0.264906 0.264906 0.264906 0.264906 0.264906 0.264906 0.264906 0.264906 0.264906 0.264906 0.264906 0.264906 0.264906 0.264906 0.264906 0.264906 0.264906 0.264906 0.264906 0.264906 0.264906 0.264906 0.264906 0.264906 0.264906 0.264906 0.264906 0.264906 0.264906 0.264906 0.264906 0.264906 0.264906 0.264906 0.264906 0.264906 0.264906 0.264906 0.264906 0.264906 0.264906 0.264906 0.264906 0.264906 0.264906 0.264906 0.264906 0.264906 0.264906 0.264906 0.264906 0.264906 0.264906 0.264906 0.264906 0.264906 0.269680 0.269680 0.269680 0.269680 0.269680 0.269680 0.269680 0.269680 0.269680 0.269680 0.269680 0.269680 0.264906 0.264906 0.264906 0.264906 0.264906 0.264906 0.264906 0.264906 0.264906 0.264906 0.264906 0.264906 0.269680 0.269680 0.269680 0.269680 0.269680 0.269680 0.269680 0.269680 0.269680 0.269680 0.269680 0.264906 0.264906 0.264906 0.264906 0.264906 0.264906 0.264906 0.264906 0.264906 0.264906 0.264906 0.256074 0.256074 0.256074 0.256074 0.256074 0.256074 0.256074 0.256074 0.256074 0.256074 0.256074 0.264906 0.264906 0.264906 0.264906 0.264906 0.264906 0.264906 0.264906 0.264906 0.264906 0.269680 0.269680 0.269680 0.269680 0.269680 0.269680 0.269680 0.269680 0.269680 0.256074 0.256074 0.256074 0.256074 0.256074 0.256074 0.256074 0.256074 0.256074 0.256074 0.260378 0.260378 0.260378 0.260378 0.260378 0.260378 0.260378 0.260378 0.260378 0.256074 0.256074 0.256074 0.256074 0.256074 0.256074 0.256074 0.256074 0.256074 0.251976 0.251976 0.251976 0.251976 0.251976 0.251976 0.251976 0.251976 0.251976 0.264906 0.264906 0.264906 0.264906 0.264906 0.264906 0.264906 0.264906 0.264906
