# Output from CTFFind version 4.1.9, run on 2019-11-02 17:49:54
# Input file: stack1_bm3d_averaged_1_1.25_0_3000_half.mrc ; Number of micrographs: 1
# Pixel size: 3.000 Angstroms ; acceleration voltage: 300.0 keV ; spherical aberration: 0.00 mm ; amplitude contrast: 0.07
# Box size: 512 pixels ; min. res.: 30.0 Angstroms ; max. res.: 5.0 Angstroms ; min. def.: 5000.0 um; max. def. 50000.0 um; num. frames averaged: 1
# 6 lines per micrograph: #1 - spatial frequency (1/Angstroms); #2 - 1D rotational average of spectrum (assuming no astigmatism); #3 - 1D rotational average of spectrum; #4 - CTF fit; #5 - cross-correlation between spectrum and CTF fit; #6 - 2sigma of expected cross correlation of noise
0.000000 0.000651 0.001302 0.001953 0.002604 0.003255 0.003906 0.004557 0.005208 0.005859 0.006510 0.007161 0.007812 0.008464 0.009115 0.009766 0.010417 0.011068 0.011719 0.012370 0.013021 0.013672 0.014323 0.014974 0.015625 0.016276 0.016927 0.017578 0.018229 0.018880 0.019531 0.020182 0.020833 0.021484 0.022135 0.022786 0.023438 0.024089 0.024740 0.025391 0.026042 0.026693 0.027344 0.027995 0.028646 0.029297 0.029948 0.030599 0.031250 0.031901 0.032552 0.033203 0.033854 0.034505 0.035156 0.035807 0.036458 0.037109 0.037760 0.038411 0.039062 0.039714 0.040365 0.041016 0.041667 0.042318 0.042969 0.043620 0.044271 0.044922 0.045573 0.046224 0.046875 0.047526 0.048177 0.048828 0.049479 0.050130 0.050781 0.051432 0.052083 0.052734 0.053385 0.054036 0.054688 0.055339 0.055990 0.056641 0.057292 0.057943 0.058594 0.059245 0.059896 0.060547 0.061198 0.061849 0.062500 0.063151 0.063802 0.064453 0.065104 0.065755 0.066406 0.067057 0.067708 0.068359 0.069010 0.069661 0.070312 0.070964 0.071615 0.072266 0.072917 0.073568 0.074219 0.074870 0.075521 0.076172 0.076823 0.077474 0.078125 0.078776 0.079427 0.080078 0.080729 0.081380 0.082031 0.082682 0.083333 0.083984 0.084635 0.085286 0.085938 0.086589 0.087240 0.087891 0.088542 0.089193 0.089844 0.090495 0.091146 0.091797 0.092448 0.093099 0.093750 0.094401 0.095052 0.095703 0.096354 0.097005 0.097656 0.098307 0.098958 0.099609 0.100260 0.100911 0.101562 0.102214 0.102865 0.103516 0.104167 0.104818 0.105469 0.106120 0.106771 0.107422 0.108073 0.108724 0.109375 0.110026 0.110677 0.111328 0.111979 0.112630 0.113281 0.113932 0.114583 0.115234 0.115885 0.116536 0.117188 0.117839 0.118490 0.119141 0.119792 0.120443 0.121094 0.121745 0.122396 0.123047 0.123698 0.124349 0.125000 0.125651 0.126302 0.126953 0.127604 0.128255 0.128906 0.129557 0.130208 0.130859 0.131510 0.132161 0.132812 0.133464 0.134115 0.134766 0.135417 0.136068 0.136719 0.137370 0.138021 0.138672 0.139323 0.139974 0.140625 0.141276 0.141927 0.142578 0.143229 0.143880 0.144531 0.145182 0.145833 0.146484 0.147135 0.147786 0.148438 0.149089 0.149740 0.150391 0.151042 0.151693 0.152344 0.152995 0.153646 0.154297 0.154948 0.155599 0.156250 0.156901 0.157552 0.158203 0.158854 0.159505 0.160156 0.160807 0.161458 0.162109 0.162760 0.163411 0.164062 0.164714 0.165365 0.166016 0.166667 0.167318 0.167969 0.168620 0.169271 0.169922 0.170573 0.171224 0.171875 0.172526 0.173177 0.173828 0.174479 0.175130 0.175781 0.176432 0.177083 0.177734 0.178385 0.179036 0.179688 0.180339 0.180990 0.181641 0.182292 0.182943 0.183594 0.184245 0.184896 0.185547 0.186198 0.186849 0.187500 0.188151 0.188802 0.189453 0.190104 0.190755 0.191406 0.192057 0.192708 0.193359 0.194010 0.194661 0.195312 0.195964 0.196615 0.197266 0.197917 0.198568 0.199219 0.199870 0.200521 0.201172 0.201823 0.202474 0.203125 0.203776 0.204427 0.205078 0.205729 0.206380 0.207031 0.207682 0.208333 0.208984 0.209635 0.210286 0.210938 0.211589 0.212240 0.212891 0.213542 0.214193 0.214844 0.215495 0.216146 0.216797 0.217448 0.218099 0.218750 0.219401 0.220052 0.220703 0.221354 0.222005 0.222656 0.223307 0.223958 0.224609 0.225260 0.225911 0.226562 0.227214 0.227865 0.228516 0.229167 0.229818 0.230469 0.231120 0.231771 0.232422 0.233073 0.233724 0.234375 0.235026 0.235677
       0.33555        0.33555        0.33555        0.33555        0.33555        0.33555        0.33555        0.33555        0.33555        0.33555        0.33555        0.33555        0.33555        0.33555        0.33555        0.33555        0.33555        0.33555        0.33555        0.33555        0.33555        0.33555        0.33555        0.33555        0.33555        0.33555        0.33555        0.33555        0.33555        0.33555        0.33555        0.33555        0.33555        0.33555        0.33555        0.33555        0.33555        0.33555        0.33555        0.33555        0.33555        0.33555        0.33555        0.33555        0.33555        0.33555        0.33555        0.33555        0.33555        0.33555        0.33555        0.50292        0.71803        0.43006        0.19182       -0.07890       -0.26117       -0.06749       -0.12966       -0.05413        0.00030       -0.14345       -0.09152       -0.04441        0.00294       -0.14877       -0.21678       -0.34098       -0.46125       -0.55975       -0.51683       -0.44930       -0.36946       -0.54573       -0.44515       -0.61883       -0.49902       -0.47149       -0.38942       -0.37935       -0.33808       -0.24408       -0.15795       -0.13693        0.03425       -0.01001        0.12135        0.17226        0.30682        0.41106        0.46574        0.49480        0.54103        0.55024        0.69731        0.64888        0.68148        0.58962        0.55615        0.65580        0.52929        0.43050        0.38930        0.32246        0.23236        0.26883        0.25580        0.10717        0.08780        0.00232       -0.00435        0.03778       -0.00215        0.07793        0.09645        0.23383        0.28441        0.31053        0.38759        0.56028        0.54001        0.58142        0.67237        0.69657        0.63192        0.63787        0.63587        0.54954        0.57532        0.39418        0.35071        0.26962        0.18842        0.07506        0.14731        0.12203        0.09576        0.10920        0.20984        0.20945        0.31802        0.35925        0.41577        0.49792        0.58447        0.54717        0.55989        0.60967        0.54661        0.46868        0.48182        0.32702        0.25385        0.25693        0.24479        0.14574        0.14962        0.15589        0.22651        0.25321        0.33235        0.36780        0.39330        0.46919        0.45028        0.47906        0.45055        0.47347        0.44701        0.40687        0.38037        0.35754        0.31593        0.28927        0.20778        0.20596        0.22728        0.27229        0.26800        0.34826        0.37750        0.36025        0.41307        0.46020        0.45296        0.42537        0.44001        0.36605        0.33985        0.28554        0.26439        0.29083        0.26890        0.29804        0.30318        0.35099        0.33985        0.40627        0.40745        0.42765        0.41305        0.43299        0.40722        0.36972        0.28840        0.29584        0.31056        0.28313        0.26021        0.33663        0.37589        0.34029        0.35617        0.36410        0.35475        0.40621        0.40249        0.36227        0.34401        0.31373        0.31418        0.31903        0.31380        0.29974        0.28879        0.34098        0.35948        0.37825        0.33762        0.32936        0.33831        0.34649        0.30817        0.28115        0.30867        0.32137        0.33535        0.32517        0.33650        0.35719        0.33510        0.31944        0.33327        0.30444        0.26407        0.25469        0.26661        0.30635        0.32513        0.35298        0.30186        0.31612        0.33893        0.29763        0.32393        0.29650        0.28711        0.29417        0.30151        0.31152        0.34757        0.32261        0.32958        0.33391        0.32433        0.33859        0.31916        0.32300        0.31545        0.28218        0.29744        0.31634        0.29469        0.33088        0.33618        0.33518        0.31691        0.34432        0.32428        0.27562        0.25266        0.27572        0.33220        0.36476        0.35380        0.31936        0.29618        0.29788        0.31788        0.25357        0.29570        0.30057        0.32481        0.29902        0.31696        0.28016        0.33732        0.34663        0.34521        0.33081        0.29867        0.31741        0.39714        0.33322        0.31767        0.31143        0.29995        0.28475        0.29911        0.27501        0.31037        0.23674        0.27925        0.29818        0.31136        0.29971        0.28407        0.29842        0.24473        0.23510        0.26776        0.31489        0.30835        0.30681        0.28565        0.33870        0.25458        0.22075        0.31245        0.27111        0.26536        0.27530        0.38659        0.29349        0.28813        0.25985        0.24435        0.26091        0.24164        0.23144        0.15959        0.24036        0.23695        0.25174        0.31753        0.28741        0.34066        0.29455        0.27746        0.26235        0.23536        0.24326        0.27917        0.21742        0.11832        0.15887        0.24814        0.23320        0.33526        0.29700        0.05311       -0.41950       -0.94723
2.728212 2.699297 2.670539 2.641936 2.613489 2.585198 2.557063 2.529084 2.501261 2.473594 2.446083 2.418729 2.391530 2.364487 2.337600 2.310869 2.284294 2.257875 2.231612 2.205505 2.179554 2.153759 2.128120 2.102637 2.077310 2.052139 2.027124 2.002265 1.977562 1.953015 1.928624 1.904389 1.880310 1.856387 1.832620 1.809008 1.785553 1.762254 1.739111 1.716124 1.693293 1.670618 1.648099 1.625735 1.603528 1.581477 1.559582 1.537843 1.516260 1.494832 1.473561 1.542544 1.842816 1.536883 1.201005 0.949577 0.547963 0.920974 0.642746 0.879477 0.935316 0.599735 0.714608 0.793912 0.833408 0.634348 0.547238 0.353523 0.105004 0.077003 0.044732 0.075845 0.303993 -0.033957 0.084708 -0.135946 -0.013344 -0.015897 0.078759 0.069289 0.098362 0.181532 0.286807 0.251649 0.484252 0.400795 0.552292 0.531884 0.774996 0.794694 0.884281 0.924787 0.943219 0.951849 1.129578 0.944435 1.153687 0.951673 0.853312 1.023878 0.852729 0.765432 0.624787 0.598622 0.457804 0.425301 0.513766 0.265331 0.203612 0.157441 0.010026 0.207028 -0.006243 0.122392 0.178031 0.255515 0.334409 0.353551 0.436090 0.539558 0.669145 0.539875 0.747064 0.857803 0.641929 0.704040 0.671338 0.588833 0.543211 0.458653 0.302701 0.218215 0.118853 -0.044370 -0.015832 0.054901 -0.094774 -0.059704 0.047858 0.048233 0.113320 0.216274 0.240813 0.314296 0.448004 0.453942 0.439276 0.474949 0.460827 0.340831 0.334330 0.244972 0.055203 0.059910 0.015434 -0.043744 -0.095923 -0.095295 -0.012077 -0.045124 0.077357 0.125181 0.120202 0.264621 0.233222 0.244965 0.278181 0.243346 0.235320 0.212083 0.160235 0.110318 0.104131 0.022347 0.005022 -0.116717 -0.049753 0.004517 -0.004638 0.022540 0.092590 0.081339 0.124398 0.211004 0.269955 0.180456 0.184667 0.110353 0.142861 0.027805 -0.035705 0.026890 -0.024320 0.013886 -0.003534 0.040711 0.086380 0.055435 0.170852 0.105777 0.185654 0.077720 0.162381 0.104395 0.010131 -0.046629 -0.002300 -0.016947 -0.051923 -0.055749 0.080338 0.073108 -0.000441 0.094009 0.079550 0.074553 0.154786 0.083125 0.077649 0.070192 -0.007303 0.039257 0.010576 0.022484 0.010772 0.010456 0.057785 0.077262 0.083641 0.043636 0.055021 0.037035 0.072041 -0.001612 -0.007283 0.033848 0.031065 0.065747 0.049453 0.069334 0.071075 0.057820 0.027524 0.039883 0.004918 -0.043840 -0.026510 -0.017829 0.028140 0.043613 0.103096 0.003511 0.062989 0.056362 -0.005804 0.070573 0.019237 0.005799 0.034766 0.049254 0.034667 0.091159 0.040142 0.066876 0.073817 0.084209 0.070501 0.070749 0.090317 0.042122 -0.009254 0.059000 0.047265 0.045291 0.081871 0.084767 0.021092 0.058492 0.087237 0.013618 -0.001213 -0.062311 -0.011955 0.112823 0.089018 0.072142 0.026291 -0.004024 0.059751 0.026514 -0.060864 0.049543 0.027337 0.060226 0.043567 0.009902 0.041260 0.009987 0.059867 0.030552 0.045626 -0.048276 0.072409 0.113413 0.006327 -0.002461 0.007470 -0.007459 -0.041592 -0.023115 -0.045323 -0.020575 -0.100505 -0.025354 -0.037094 0.006024 -0.025590 -0.063609 0.020775 -0.060555 -0.044556 -0.080410 0.057986 0.014122 0.032153 -0.016788 0.085571 -0.056364 -0.075759 0.049940 -0.026606 0.002298 -0.017884 0.181891 -0.037766 0.017629 0.003615 -0.038403 -0.012783 -0.039923 -0.024247 -0.185700 0.002461 -0.030857 -0.018900 0.048836 0.027866 0.123405 0.030106 0.038301 0.016553 0.029436 -0.031616 0.322380 0.264995 0.148141 0.206372 0.257802 0.315042 0.364926 0.347886 0.064937 -1.120321
0.072396 0.072910 0.074453 0.077024 0.080623 0.085248 0.090899 0.097573 0.105268 0.113982 0.123711 0.134450 0.146193 0.158935 0.172665 0.187376 0.203055 0.219688 0.237259 0.255751 0.275141 0.295405 0.316516 0.338442 0.361147 0.384593 0.408734 0.433523 0.458904 0.484819 0.511201 0.537980 0.565078 0.592410 0.619887 0.647410 0.674875 0.702170 0.729177 0.755768 0.781811 0.807167 0.831687 0.855219 0.877603 0.898673 0.918260 0.936187 0.952277 0.966348 0.978216 0.987697 0.994606 0.998762 0.999985 0.998101 0.992943 0.984351 0.972176 0.956282 0.936546 0.912864 0.885150 0.853338 0.817387 0.777284 0.733041 0.684702 0.632345 0.576081 0.516061 0.452470 0.385536 0.315529 0.242757 0.167575 0.090376 0.011598 0.068280 0.148743 0.229235 0.309168 0.387922 0.464850 0.539283 0.610536 0.677913 0.740716 0.798248 0.849828 0.894793 0.932512 0.962393 0.983895 0.996534 0.999899 0.993658 0.977568 0.951485 0.915373 0.869314 0.813507 0.748285 0.674108 0.591572 0.501410 0.404487 0.301795 0.194455 0.083698 0.029136 0.142620 0.255251 0.365470 0.471684 0.572288 0.665690 0.750338 0.824751 0.887541 0.937450 0.973373 0.994390 0.999792 0.989105 0.962111 0.918868 0.859725 0.785331 0.696636 0.594894 0.481652 0.358735 0.228224 0.092431 0.046141 0.184840 0.320913 0.451556 0.573977 0.685458 0.783416 0.865467 0.929500 0.973726 0.996745 0.997595 0.975797 0.931388 0.864948 0.777609 0.671056 0.547503 0.409669 0.260725 0.104235 0.055926 0.215659 0.370743 0.516949 0.650155 0.766469 0.862351 0.934728 0.981111 0.999687 0.989407 0.950047 0.882254 0.787561 0.668375 0.527939 0.370260 0.200018 0.022429 0.156895 0.332123 0.497394 0.647014 0.775663 0.878588 0.951803 0.992255 0.997972 0.968179 0.903367 0.805333 0.677150 0.523112 0.348607 0.159947 0.035833 0.231239 0.418590 0.590329 0.739326 0.859200 0.944599 0.991467 0.997263 0.961121 0.883949 0.768452 0.619074 0.441865 0.244262 0.034803 0.177231 0.382208 0.570592 0.733395 0.862611 0.951644 0.995671 0.991931 0.939938 0.841571 0.701064 0.524871 0.321399 0.100647 0.126265 0.347641 0.551813 0.727760 0.865724 0.957778 0.998318 0.984443 0.916204 0.796690 0.631948 0.430730 0.204060 0.035317 0.273648 0.496944 0.691813 0.846273 0.950529 0.997631 0.983986 0.909681 0.778583 0.598209 0.379347 0.135468 0.118074 0.364985 0.589076 0.775336 0.910961 0.986287 0.995526 0.937269 0.814708 0.635539 0.411553 0.157914 0.107825 0.366903 0.600683 0.791990 0.926423 0.993483 0.987454 0.907961 0.760140 0.554394 0.305732 0.032743 0.243758 0.502303 0.722431 0.886346 0.980405 0.996316 0.931952 0.791678 0.586160 0.331637 0.048716 0.239254 0.508089 0.734793 0.899571 0.987615 0.990501 0.907095 0.743826 0.514298 0.238261 0.060037 0.353915 0.616639 0.823871 0.955979 0.999968 0.950850 0.812312 0.596558 0.323355 0.018309 0.289479 0.570163 0.796063 0.944428 0.999823 0.955831 0.815904 0.593243 0.309658 0.006441 0.322859 0.606845 0.828519 0.964054 0.998348 0.926814 0.756106 0.503649 0.195982 0.133926 0.450167 0.717777 0.906655 0.995025 0.972058 0.839337 0.610948 0.312110 0.023455 0.357286 0.650539 0.868546 0.984980 0.985160 0.868042 0.646627 0.346680 0.003874 0.340370 0.643857 0.868802 0.986625 0.981706 0.853613 0.617460 0.302299 0.052313 0.401178 0.699217 0.907306 0.997523 0.957035 0.790103 0.517839 0.175715 0.190910 0.532744 0.803184 0.964734 0.994336
1.000000 1.000000 1.000000 1.000000 1.000000 1.000000 1.000000 1.000000 1.000000 1.000000 1.000000 1.000000 1.000000 1.000000 1.000000 1.000000 1.000000 1.000000 1.000000 1.000000 1.000000 1.000000 1.000000 1.000000 1.000000 1.000000 1.000000 1.000000 1.000000 1.000000 1.000000 1.000000 1.000000 1.000000 1.000000 1.000000 1.000000 1.000000 1.000000 1.000000 1.000000 1.000000 1.000000 1.000000 1.000000 1.000000 1.000000 1.000000 1.000000 1.000000 1.000000 1.000000 0.919515 0.919515 0.906952 0.906952 0.906952 0.906952 0.906952 0.906952 0.906952 0.906952 0.906952 0.906952 0.906952 0.906952 0.906952 0.906952 0.906952 0.906952 0.906952 0.906952 0.906952 0.906952 0.906952 0.906952 0.906952 0.906952 0.906952 0.906952 0.906952 0.906952 0.906952 0.906952 0.906952 0.906952 0.906952 0.906952 0.906952 0.906952 0.906952 0.906952 0.906952 0.906952 0.906952 0.902430 0.907449 0.909418 0.907992 0.911474 0.911522 0.910895 0.911276 0.910967 0.911324 0.912706 0.923139 0.934072 0.945224 0.945717 0.950890 0.955226 0.958685 0.959638 0.961357 0.971699 0.969179 0.968778 0.969399 0.970660 0.972650 0.971503 0.970872 0.974166 0.974727 0.973269 0.970875 0.970303 0.968993 0.968356 0.968018 0.967896 0.967746 0.968264 0.968448 0.968549 0.968694 0.968757 0.969760 0.970905 0.973393 0.974400 0.974306 0.973314 0.968359 0.971901 0.973025 0.972457 0.972457 0.972083 0.972340 0.956490 0.953590 0.953486 0.949949 0.948674 0.945659 0.944054 0.943147 0.943833 0.942489 0.942224 0.939541 0.925972 0.912288 0.900403 0.920823 0.905519 0.893492 0.867756 0.868670 0.861945 0.862360 0.853804 0.847791 0.843338 0.840806 0.842786 0.840572 0.843943 0.840885 0.824856 0.828642 0.824407 0.790901 0.775969 0.761625 0.758979 0.755896 0.757037 0.757916 0.750598 0.759616 0.752704 0.750511 0.740175 0.716138 0.682776 0.670603 0.682047 0.692586 0.692234 0.688171 0.671946 0.636763 0.650861 0.679184 0.673196 0.673731 0.668159 0.661817 0.670471 0.670741 0.668606 0.662993 0.662205 0.662064 0.672115 0.676349 0.668961 0.661643 0.648028 0.638027 0.626671 0.640541 0.647389 0.617210 0.610443 0.605110 0.599913 0.589522 0.563186 0.564148 0.543375 0.528686 0.529413 0.532170 0.535162 0.546329 0.546227 0.523499 0.548597 0.548764 0.580676 0.551705 0.548476 0.549891 0.561094 0.542546 0.523850 0.514787 0.516267 0.533875 0.569209 0.609287 0.602764 0.592367 0.584586 0.594629 0.577280 0.585448 0.604927 0.582620 0.511150 0.473997 0.471259 0.438810 0.428118 0.419096 0.395107 0.375585 0.375826 0.370866 0.356283 0.346344 0.284321 0.250741 0.234316 0.217299 0.226365 0.241190 0.235043 0.234258 0.268758 0.315478 0.311626 0.301497 0.292086 0.293172 0.296038 0.259002 0.259961 0.225918 0.214284 0.243887 0.191138 0.195704 0.136514 0.128197 0.141604 0.170077 0.182051 0.135672 0.127480 0.150919 0.168608 0.160823 0.151834 0.109182 0.079072 0.066430 0.078953 0.065452 0.028379 0.041518 0.049829 0.035801 0.021746 0.035058 0.023532 0.028004 0.017093 0.014260 0.050172 0.075499 0.064531 0.066965 0.086510 0.078826 0.059870 0.052287 0.039017 0.034410 -0.020013 -0.044803 -0.044803 -0.041750 -0.041750 -0.041750 -0.041750 -0.041750 -0.041750 -0.041750 -0.041750 -0.041750 -0.042629 -0.042629 -0.042629 -0.042629 -0.042629 -0.042629 -0.042629 -0.042629 -0.042629 -0.020915 -0.020915 -0.020915 -0.020915 -0.020915 -0.020915 -0.020915 -0.020915 -0.020915
0.000000 0.000000 0.000000 0.000000 0.000000 0.000000 0.000000 0.000000 0.000000 0.000000 0.000000 0.000000 0.000000 0.000000 0.000000 0.000000 0.000000 0.000000 0.000000 0.000000 0.000000 0.000000 0.000000 0.000000 0.000000 0.000000 0.000000 0.000000 0.000000 0.000000 0.000000 0.000000 0.000000 0.000000 0.000000 0.000000 0.000000 0.000000 0.000000 0.000000 0.000000 0.000000 0.000000 0.000000 0.000000 0.000000 0.000000 0.000000 0.000000 0.000000 0.000000 0.000000 0.181818 0.181818 0.199007 0.199007 0.199007 0.199007 0.199007 0.199007 0.199007 0.199007 0.199007 0.199007 0.199007 0.199007 0.199007 0.199007 0.199007 0.199007 0.199007 0.199007 0.199007 0.199007 0.199007 0.199007 0.199007 0.199007 0.199007 0.199007 0.199007 0.199007 0.199007 0.199007 0.199007 0.199007 0.199007 0.199007 0.199007 0.199007 0.199007 0.199007 0.199007 0.199007 0.199007 0.230940 0.230940 0.230940 0.230940 0.230940 0.230940 0.230940 0.230940 0.230940 0.230940 0.230940 0.230940 0.230940 0.230940 0.230940 0.230940 0.230940 0.230940 0.230940 0.230940 0.230940 0.230940 0.230940 0.230940 0.230940 0.230940 0.230940 0.230940 0.244339 0.244339 0.244339 0.244339 0.244339 0.244339 0.244339 0.244339 0.244339 0.244339 0.244339 0.244339 0.244339 0.244339 0.244339 0.244339 0.244339 0.244339 0.244339 0.244339 0.244339 0.244339 0.244339 0.251976 0.251976 0.251976 0.251976 0.251976 0.251976 0.251976 0.251976 0.251976 0.251976 0.251976 0.251976 0.251976 0.251976 0.251976 0.251976 0.251976 0.251976 0.251976 0.251976 0.264906 0.264906 0.264906 0.264906 0.264906 0.264906 0.264906 0.264906 0.264906 0.264906 0.264906 0.264906 0.264906 0.264906 0.264906 0.264906 0.264906 0.264906 0.264906 0.264906 0.264906 0.264906 0.264906 0.264906 0.264906 0.264906 0.264906 0.264906 0.264906 0.264906 0.264906 0.264906 0.264906 0.264906 0.264906 0.264906 0.264906 0.264906 0.264906 0.264906 0.264906 0.264906 0.264906 0.264906 0.264906 0.264906 0.264906 0.264906 0.264906 0.264906 0.264906 0.264906 0.264906 0.264906 0.264906 0.264906 0.264906 0.264906 0.264906 0.264906 0.264906 0.264906 0.264906 0.264906 0.264906 0.264906 0.264906 0.264906 0.264906 0.264906 0.264906 0.264906 0.264906 0.264906 0.264906 0.269680 0.269680 0.269680 0.269680 0.269680 0.269680 0.269680 0.269680 0.269680 0.269680 0.269680 0.269680 0.264906 0.264906 0.264906 0.264906 0.264906 0.264906 0.264906 0.264906 0.264906 0.264906 0.264906 0.264906 0.269680 0.269680 0.269680 0.269680 0.269680 0.269680 0.269680 0.269680 0.269680 0.269680 0.269680 0.264906 0.264906 0.264906 0.264906 0.264906 0.264906 0.264906 0.264906 0.264906 0.264906 0.264906 0.269680 0.269680 0.269680 0.269680 0.269680 0.269680 0.269680 0.269680 0.269680 0.269680 0.251976 0.251976 0.251976 0.251976 0.251976 0.251976 0.251976 0.251976 0.251976 0.251976 0.251976 0.269680 0.269680 0.269680 0.269680 0.269680 0.269680 0.269680 0.269680 0.269680 0.256074 0.256074 0.256074 0.256074 0.256074 0.256074 0.256074 0.256074 0.256074 0.256074 0.260378 0.260378 0.260378 0.260378 0.260378 0.260378 0.260378 0.260378 0.260378 0.256074 0.256074 0.256074 0.256074 0.256074 0.256074 0.256074 0.256074 0.256074 0.251976 0.251976 0.251976 0.251976 0.251976 0.251976 0.251976 0.251976 0.251976 0.264906 0.264906 0.264906 0.264906 0.264906 0.264906 0.264906 0.264906 0.264906
