# Output from CTFFind version 4.1.9, run on 2019-11-02 17:49:41
# Input file: stack16_bm3d_averaged_1_1.25_0_2500_half.mrc ; Number of micrographs: 1
# Pixel size: 3.000 Angstroms ; acceleration voltage: 300.0 keV ; spherical aberration: 0.00 mm ; amplitude contrast: 0.07
# Box size: 512 pixels ; min. res.: 30.0 Angstroms ; max. res.: 5.0 Angstroms ; min. def.: 5000.0 um; max. def. 50000.0 um; num. frames averaged: 1
# 6 lines per micrograph: #1 - spatial frequency (1/Angstroms); #2 - 1D rotational average of spectrum (assuming no astigmatism); #3 - 1D rotational average of spectrum; #4 - CTF fit; #5 - cross-correlation between spectrum and CTF fit; #6 - 2sigma of expected cross correlation of noise
0.000000 0.000651 0.001302 0.001953 0.002604 0.003255 0.003906 0.004557 0.005208 0.005859 0.006510 0.007161 0.007812 0.008464 0.009115 0.009766 0.010417 0.011068 0.011719 0.012370 0.013021 0.013672 0.014323 0.014974 0.015625 0.016276 0.016927 0.017578 0.018229 0.018880 0.019531 0.020182 0.020833 0.021484 0.022135 0.022786 0.023438 0.024089 0.024740 0.025391 0.026042 0.026693 0.027344 0.027995 0.028646 0.029297 0.029948 0.030599 0.031250 0.031901 0.032552 0.033203 0.033854 0.034505 0.035156 0.035807 0.036458 0.037109 0.037760 0.038411 0.039062 0.039714 0.040365 0.041016 0.041667 0.042318 0.042969 0.043620 0.044271 0.044922 0.045573 0.046224 0.046875 0.047526 0.048177 0.048828 0.049479 0.050130 0.050781 0.051432 0.052083 0.052734 0.053385 0.054036 0.054688 0.055339 0.055990 0.056641 0.057292 0.057943 0.058594 0.059245 0.059896 0.060547 0.061198 0.061849 0.062500 0.063151 0.063802 0.064453 0.065104 0.065755 0.066406 0.067057 0.067708 0.068359 0.069010 0.069661 0.070312 0.070964 0.071615 0.072266 0.072917 0.073568 0.074219 0.074870 0.075521 0.076172 0.076823 0.077474 0.078125 0.078776 0.079427 0.080078 0.080729 0.081380 0.082031 0.082682 0.083333 0.083984 0.084635 0.085286 0.085938 0.086589 0.087240 0.087891 0.088542 0.089193 0.089844 0.090495 0.091146 0.091797 0.092448 0.093099 0.093750 0.094401 0.095052 0.095703 0.096354 0.097005 0.097656 0.098307 0.098958 0.099609 0.100260 0.100911 0.101562 0.102214 0.102865 0.103516 0.104167 0.104818 0.105469 0.106120 0.106771 0.107422 0.108073 0.108724 0.109375 0.110026 0.110677 0.111328 0.111979 0.112630 0.113281 0.113932 0.114583 0.115234 0.115885 0.116536 0.117188 0.117839 0.118490 0.119141 0.119792 0.120443 0.121094 0.121745 0.122396 0.123047 0.123698 0.124349 0.125000 0.125651 0.126302 0.126953 0.127604 0.128255 0.128906 0.129557 0.130208 0.130859 0.131510 0.132161 0.132812 0.133464 0.134115 0.134766 0.135417 0.136068 0.136719 0.137370 0.138021 0.138672 0.139323 0.139974 0.140625 0.141276 0.141927 0.142578 0.143229 0.143880 0.144531 0.145182 0.145833 0.146484 0.147135 0.147786 0.148438 0.149089 0.149740 0.150391 0.151042 0.151693 0.152344 0.152995 0.153646 0.154297 0.154948 0.155599 0.156250 0.156901 0.157552 0.158203 0.158854 0.159505 0.160156 0.160807 0.161458 0.162109 0.162760 0.163411 0.164062 0.164714 0.165365 0.166016 0.166667 0.167318 0.167969 0.168620 0.169271 0.169922 0.170573 0.171224 0.171875 0.172526 0.173177 0.173828 0.174479 0.175130 0.175781 0.176432 0.177083 0.177734 0.178385 0.179036 0.179688 0.180339 0.180990 0.181641 0.182292 0.182943 0.183594 0.184245 0.184896 0.185547 0.186198 0.186849 0.187500 0.188151 0.188802 0.189453 0.190104 0.190755 0.191406 0.192057 0.192708 0.193359 0.194010 0.194661 0.195312 0.195964 0.196615 0.197266 0.197917 0.198568 0.199219 0.199870 0.200521 0.201172 0.201823 0.202474 0.203125 0.203776 0.204427 0.205078 0.205729 0.206380 0.207031 0.207682 0.208333 0.208984 0.209635 0.210286 0.210938 0.211589 0.212240 0.212891 0.213542 0.214193 0.214844 0.215495 0.216146 0.216797 0.217448 0.218099 0.218750 0.219401 0.220052 0.220703 0.221354 0.222005 0.222656 0.223307 0.223958 0.224609 0.225260 0.225911 0.226562 0.227214 0.227865 0.228516 0.229167 0.229818 0.230469 0.231120 0.231771 0.232422 0.233073 0.233724 0.234375 0.235026 0.235677
       0.34431        0.34431        0.34431        0.34431        0.34431        0.34431        0.34431        0.34431        0.34431        0.34431        0.34431        0.34431        0.34431        0.34431        0.34431        0.34431        0.34431        0.34431        0.34431        0.34431        0.34431        0.34431        0.34431        0.34431        0.34431        0.34431        0.34431        0.34431        0.34431        0.34431        0.34431        0.34431        0.34431        0.34431        0.34431        0.34431        0.34431        0.34431        0.34431        0.34431        0.34431        0.34431        0.34431        0.34431        0.34431        0.34431        0.34431        0.34431        0.34431        0.34431        0.34431        0.48991        0.70339        0.45749       -0.10842       -0.41324       -0.56987       -0.65868       -0.74348       -0.75906       -0.86984       -0.91352       -0.76025       -0.92515       -0.87180       -1.02499       -1.09550       -0.98874       -0.95985       -0.88381       -0.85924       -0.74938       -0.64058       -0.49855       -0.42081       -0.21825       -0.11833       -0.02455        0.20243        0.24399        0.31045        0.38597        0.43856        0.51611        0.58236        0.60093        0.59373        0.50248        0.54808        0.48564        0.39244        0.32824        0.20819        0.17436        0.10043       -0.06029       -0.11459       -0.09021        0.01153       -0.01780        0.01137        0.02907        0.20853        0.21854        0.39073        0.45914        0.56472        0.70562        0.76544        0.73108        0.70951        0.70636        0.58742        0.54340        0.40054        0.27776        0.19687        0.14713        0.06850        0.02551        0.02455        0.06362        0.08256        0.27716        0.41796        0.50432        0.58840        0.64007        0.70688        0.66083        0.65325        0.67476        0.61125        0.48239        0.28602        0.23463        0.20481        0.13086        0.04657        0.09377        0.11735        0.25160        0.34491        0.41698        0.50454        0.54382        0.66237        0.60806        0.55450        0.50824        0.36498        0.20767        0.21083        0.15486        0.11877        0.12036        0.21362        0.25721        0.36408        0.44479        0.43974        0.56504        0.51425        0.45006        0.45517        0.38532        0.32438        0.27642        0.21721        0.23520        0.21418        0.21238        0.32359        0.45150        0.49055        0.48196        0.55288        0.49884        0.45683        0.39855        0.29426        0.22663        0.23438        0.24507        0.26715        0.27136        0.32974        0.44321        0.50105        0.49130        0.45927        0.41839        0.38872        0.36250        0.25115        0.23052        0.25064        0.29631        0.35598        0.36586        0.39631        0.40968        0.44556        0.37494        0.34833        0.31535        0.30830        0.26802        0.26060        0.31350        0.34911        0.41772        0.41928        0.39808        0.39366        0.40636        0.34978        0.28711        0.29498        0.27982        0.31044        0.36019        0.36847        0.41593        0.36176        0.36448        0.38958        0.34375        0.31133        0.28436        0.29311        0.33961        0.33229        0.32571        0.37648        0.39735        0.33827        0.35431        0.29909        0.30851        0.28967        0.28202        0.30315        0.32997        0.38404        0.36901        0.35029        0.33069        0.28811        0.27749        0.29971        0.28492        0.31498        0.37075        0.39574        0.33651        0.31871        0.31360        0.29955        0.29101        0.27929        0.30219        0.34209        0.33491        0.34775        0.32360        0.34808        0.32535        0.29119        0.31201        0.32134        0.33566        0.33654        0.31864        0.31491        0.30558        0.33275        0.31848        0.33861        0.39351        0.33958        0.36248        0.31974        0.30995        0.28853        0.31056        0.29093        0.31192        0.32398        0.35450        0.36670        0.31340        0.31966        0.31510        0.30040        0.29528        0.29031        0.33282        0.33871        0.35879        0.34157        0.32355        0.26039        0.26558        0.31267        0.35400        0.31510        0.29551        0.28673        0.29247        0.32753        0.31060        0.30366        0.33609        0.34176        0.31647        0.24788        0.28431        0.28763        0.28945        0.32343        0.32730        0.34983        0.34037        0.28417        0.26922        0.29800        0.26655        0.29528        0.27294        0.24735        0.26520        0.25295        0.27893        0.28220        0.27838        0.26897        0.31447        0.32878        0.31903        0.29146        0.30501        0.24715        0.27560        0.25212        0.32435        0.34838        0.23507        0.26036        0.28993        0.25084        0.24198        0.30350        0.23634        0.13618        0.17146        0.23213        0.27107        0.24150        0.15606        0.04578       -0.38724       -0.75799
3.062880 3.024801 2.986967 2.949377 2.912032 2.874932 2.838076 2.801465 2.765099 2.728978 2.693101 2.657469 2.622082 2.586939 2.552041 2.517388 2.482979 2.448815 2.414896 2.381222 2.347792 2.314607 2.281667 2.248971 2.216521 2.184315 2.152353 2.120636 2.089164 2.057937 2.026954 1.996216 1.965723 1.935475 1.905471 1.875712 1.846198 1.816928 1.787903 1.759123 1.730587 1.702296 1.674250 1.646449 1.618892 1.591580 1.564513 1.537690 1.511112 1.484779 1.458691 1.515297 1.703557 1.616933 0.971278 0.683428 0.479127 0.434962 0.323677 0.268715 0.200877 0.022474 0.197057 0.082081 -0.006705 -0.059670 -0.196552 -0.151243 -0.088389 -0.092086 -0.095088 0.010795 0.033660 0.233369 0.153126 0.365765 0.445827 0.476148 0.715174 0.700804 0.711703 0.839393 0.822331 0.852396 0.924319 0.897973 0.941629 0.752850 0.838067 0.840803 0.622157 0.611183 0.458870 0.439597 0.382702 0.210202 0.117785 0.099899 0.207845 0.144182 0.194471 0.111661 0.311091 0.286453 0.457367 0.415870 0.582160 0.648170 0.768886 0.696141 0.663999 0.671786 0.534409 0.505624 0.367567 0.296434 0.119726 0.148824 0.001694 -0.010712 -0.038316 -0.028753 0.000541 0.037311 0.275235 0.329836 0.387095 0.394944 0.469779 0.521049 0.469458 0.507583 0.400286 0.391152 0.155225 0.066583 0.071486 -0.002358 -0.124437 -0.042335 -0.113834 0.014996 0.138794 0.157621 0.254245 0.260499 0.386577 0.455644 0.354240 0.388079 0.283960 0.125536 0.047293 0.052303 0.017327 0.003832 0.005696 0.108219 0.132177 0.268172 0.237547 0.304005 0.371000 0.241607 0.244815 0.219889 0.131429 0.082560 0.052134 0.023638 0.040519 -0.013042 0.029452 0.184828 0.220355 0.256367 0.281503 0.232712 0.238278 0.150276 0.107086 -0.024113 -0.013629 -0.008089 0.017767 0.006217 0.029120 0.106580 0.186356 0.205415 0.219604 0.137300 0.145852 0.079348 0.057002 -0.057009 -0.012130 -0.003690 0.054287 0.065881 0.079946 0.155465 0.084874 0.164799 0.067581 0.051267 0.045671 0.027862 0.001135 0.009523 0.053784 0.085986 0.131161 0.139359 0.070687 0.127507 0.097254 0.013509 0.007323 0.005476 -0.004882 0.053471 0.058558 0.098041 0.097264 0.064221 0.069145 0.079794 0.029025 0.009635 -0.008245 0.005630 0.060678 0.023481 0.037004 0.073861 0.089703 0.055779 0.032211 0.007804 0.011737 -0.006424 -0.015202 0.013128 0.049593 0.095579 0.066176 0.059771 0.038024 -0.014046 -0.001914 0.015682 0.010049 0.024869 0.103108 0.063312 0.016384 0.044403 0.002415 0.025133 -0.007962 -0.007670 0.024646 0.061381 0.027894 0.045157 0.030284 0.051899 0.023894 -0.006631 0.020045 0.040160 0.034781 0.027966 0.034878 0.006890 0.000856 0.034573 0.017356 0.049033 0.080780 0.046189 0.017059 0.007389 -0.012667 -0.013640 -0.001959 -0.008498 0.002712 -0.008272 0.063206 0.037728 0.008336 0.020876 -0.017127 -0.006357 -0.009785 -0.025762 0.032930 0.041012 0.063848 0.031626 0.024770 -0.048301 -0.009740 0.010308 0.049461 0.015960 0.012794 -0.014658 -0.013747 0.033872 0.029005 0.011773 0.052508 0.057927 0.046046 -0.031583 0.002613 0.038143 0.011131 0.038488 0.073578 0.081974 0.071202 0.021715 0.012009 0.022813 0.002545 0.034431 -0.023645 -0.029256 -0.017879 -0.043087 -0.005750 -0.009567 0.003786 -0.076080 -0.004340 0.011006 -0.000109 -0.039731 0.019471 -0.096059 -0.019260 -0.048492 0.019728 0.066914 -0.103295 -0.018468 0.046049 0.008494 -0.047239 0.044736 0.029755 -0.025867 -0.039788 0.050593 0.236937 0.219882 0.116531 0.042801 -0.665848
0.072396 0.073046 0.074995 0.078243 0.082789 0.088632 0.095768 0.104196 0.113911 0.124908 0.137180 0.150720 0.165517 0.181558 0.198828 0.217309 0.236979 0.257811 0.279775 0.302836 0.326953 0.352078 0.378159 0.405135 0.432938 0.461491 0.490709 0.520499 0.550756 0.581367 0.612207 0.643141 0.674023 0.704694 0.734985 0.764717 0.793696 0.821721 0.848577 0.874041 0.897880 0.919853 0.939711 0.957199 0.972059 0.984029 0.992848 0.998256 0.999996 0.997821 0.991494 0.980789 0.965500 0.945441 0.920450 0.890395 0.855176 0.814731 0.769040 0.718127 0.662067 0.600988 0.535075 0.464574 0.389794 0.311108 0.228957 0.143850 0.056363 0.032863 0.123120 0.213642 0.303603 0.392130 0.478305 0.561174 0.639760 0.713074 0.780123 0.839930 0.891547 0.934071 0.966660 0.988555 0.999091 0.997724 0.984042 0.957783 0.918854 0.867345 0.803539 0.727923 0.641196 0.544271 0.438277 0.324553 0.204638 0.080260 0.046688 0.174167 0.300023 0.422024 0.537897 0.645370 0.742220 0.826324 0.895710 0.948607 0.983500 0.999179 0.994786 0.969857 0.924357 0.858712 0.773820 0.671066 0.552315 0.419895 0.276563 0.125469 0.029914 0.185854 0.338447 0.483715 0.617709 0.736621 0.836902 0.915375 0.969353 0.996740 0.996132 0.966893 0.909219 0.824176 0.713711 0.580642 0.428606 0.261984 0.085797 0.094434 0.272852 0.443446 0.600261 0.737605 0.850276 0.933770 0.984483 0.999895 0.978710 0.920973 0.828127 0.703026 0.549884 0.374172 0.182453 0.017846 0.218695 0.411784 0.588859 0.742092 0.864436 0.949981 0.994263 0.994537 0.949977 0.861799 0.733286 0.569731 0.378255 0.167547 0.052508 0.271268 0.477835 0.661615 0.812866 0.923247 0.986310 0.997931 0.956617 0.863697 0.723359 0.542532 0.330598 0.098961 0.139536 0.371303 0.582773 0.761200 0.895472 0.976833 0.999511 0.961193 0.863291 0.710993 0.513074 0.281457 0.030554 0.223593 0.464314 0.675411 0.842274 0.952930 0.998967 0.976244 0.885333 0.731642 0.525193 0.280059 0.013463 0.255370 0.506592 0.721196 0.882489 0.977452 0.997859 0.941088 0.810508 0.615405 0.370437 0.094612 0.190110 0.460541 0.694151 0.870971 0.975375 0.997539 0.934476 0.790508 0.577107 0.312126 0.018368 0.278270 0.551081 0.774944 0.928702 0.997239 0.973082 0.857332 0.659821 0.398420 0.097550 0.214022 0.505865 0.748888 0.918268 0.996086 0.973345 0.851156 0.640900 0.363341 0.046712 0.276062 0.570750 0.805461 0.954143 0.999618 0.935698 0.768180 0.514521 0.202195 0.134149 0.456457 0.727564 0.915531 0.997508 0.962680 0.813862 0.567522 0.252165 0.094821 0.431490 0.716401 0.913750 0.997998 0.957350 0.795595 0.532023 0.199342 0.160227 0.500202 0.775839 0.950101 0.998771 0.914021 0.705878 0.401299 0.040891 0.326342 0.649608 0.883373 0.993896 0.964301 0.797379 0.515667 0.158655 0.222551 0.572452 0.839226 0.982516 0.979727 0.829839 0.554066 0.193140 0.198496 0.560767 0.837177 0.983736 0.976159 0.814170 0.522089 0.145475 0.255743 0.616690 0.878037 0.995905 0.949459 0.744898 0.415015 0.014224 0.390161 0.729194 0.944077 0.996563 0.876056 0.602051 0.221367 0.199591 0.586227 0.868991 0.995991 0.942824 0.717587 0.360082 0.064872 0.478983 0.804823 0.980416 0.971276 0.777542 0.434647 0.007248 0.422729 0.771665 0.970613 0.979147 0.793965 0.450286 0.015562 0.423456 0.777941 0.975020 0.973036 0.770745 0.408376 0.039955 0.481101 0.822140 0.990064 0.947725 0.702473 0.305445 0.158678 0.589485
1.000000 1.000000 1.000000 1.000000 1.000000 1.000000 1.000000 1.000000 1.000000 1.000000 1.000000 1.000000 1.000000 1.000000 1.000000 1.000000 1.000000 1.000000 1.000000 1.000000 1.000000 1.000000 1.000000 1.000000 1.000000 1.000000 1.000000 1.000000 1.000000 1.000000 1.000000 1.000000 1.000000 1.000000 1.000000 1.000000 1.000000 1.000000 1.000000 1.000000 1.000000 1.000000 1.000000 1.000000 1.000000 1.000000 1.000000 1.000000 1.000000 1.000000 1.000000 1.000000 0.934587 0.934587 0.934587 0.934587 0.934587 0.934587 0.934587 0.934587 0.934587 0.934587 0.934587 0.934587 0.934587 0.934587 0.934587 0.934587 0.934587 0.934587 0.934587 0.934587 0.934587 0.934587 0.934587 0.934587 0.934587 0.934587 0.934587 0.934587 0.934587 0.934587 0.934587 0.934587 0.934587 0.924286 0.925740 0.928633 0.929675 0.929637 0.929198 0.928899 0.929123 0.930024 0.932312 0.948849 0.950316 0.950887 0.952165 0.952401 0.954909 0.953168 0.953089 0.963615 0.962470 0.963205 0.956354 0.957888 0.957015 0.956116 0.956592 0.956799 0.954909 0.952805 0.951154 0.950539 0.950176 0.951936 0.952406 0.952393 0.953844 0.953829 0.953567 0.950284 0.948806 0.950263 0.952249 0.951379 0.957079 0.956924 0.964977 0.965800 0.964433 0.964322 0.964521 0.964714 0.955203 0.948925 0.943587 0.931763 0.922692 0.920611 0.923511 0.925318 0.924109 0.919504 0.918440 0.915833 0.911026 0.910203 0.910044 0.911555 0.908144 0.904802 0.888656 0.888475 0.890971 0.890270 0.887978 0.879853 0.875298 0.875921 0.879043 0.876600 0.873258 0.889098 0.884072 0.888965 0.891925 0.895026 0.898910 0.894616 0.893518 0.889955 0.886336 0.881386 0.882910 0.870671 0.873424 0.868339 0.859045 0.852097 0.854963 0.864048 0.871788 0.879673 0.878697 0.878895 0.878134 0.871076 0.872199 0.863104 0.864194 0.869379 0.875237 0.872121 0.869123 0.873408 0.871684 0.872110 0.874427 0.870993 0.869162 0.860036 0.859969 0.863223 0.879437 0.880582 0.869242 0.859938 0.848144 0.854747 0.857464 0.856592 0.858449 0.850218 0.851446 0.840691 0.829203 0.829693 0.834565 0.832898 0.836646 0.835173 0.839272 0.839461 0.837888 0.833035 0.831501 0.838870 0.809793 0.816611 0.819124 0.814652 0.818881 0.809807 0.803837 0.798878 0.798088 0.790810 0.800015 0.798564 0.764666 0.753847 0.761134 0.749911 0.740854 0.736934 0.737187 0.703228 0.686703 0.655021 0.651378 0.638462 0.635769 0.639202 0.631696 0.609593 0.597453 0.589415 0.605735 0.609409 0.588897 0.590894 0.586115 0.581542 0.575741 0.572766 0.571767 0.575430 0.580475 0.547722 0.541535 0.544025 0.515918 0.516393 0.516349 0.504536 0.476094 0.480489 0.474267 0.496589 0.528423 0.487753 0.480404 0.491157 0.507623 0.519183 0.517376 0.504979 0.490379 0.500514 0.478721 0.456883 0.473224 0.487119 0.477498 0.487406 0.478565 0.503501 0.497215 0.486364 0.511947 0.517682 0.512624 0.514670 0.529084 0.523891 0.526091 0.514032 0.472475 0.481905 0.464691 0.398578 0.390268 0.400042 0.384481 0.381745 0.356868 0.360907 0.334882 0.306605 0.308347 0.301663 0.266838 0.235801 0.240638 0.242241 0.212108 0.184322 0.204606 0.157950 0.152410 0.171650 0.176668 0.166005 0.166136 0.189321 0.189321 0.189321 0.189321 0.189321 0.189321 0.189321 0.189321 0.189321 0.189321 0.189321 0.189321 0.189321 0.189321 0.213805 0.213805 0.213805 0.213805 0.213805 0.213805 0.213805 0.213805 0.213805 0.213805 0.213805 0.213805
0.000000 0.000000 0.000000 0.000000 0.000000 0.000000 0.000000 0.000000 0.000000 0.000000 0.000000 0.000000 0.000000 0.000000 0.000000 0.000000 0.000000 0.000000 0.000000 0.000000 0.000000 0.000000 0.000000 0.000000 0.000000 7.000000 4.000000 0.000000 0.000000 0.000000 0.000000 0.000000 0.000000 0.000000 0.000000 0.000000 0.000000 0.000000 0.000000 0.000000 0.000000 0.000000 0.000000 0.000000 0.000000 0.000000 0.000000 0.000000 0.000000 0.000000 0.000000 0.000000 0.209657 0.209657 0.209657 0.209657 0.209657 0.209657 0.209657 0.209657 0.209657 0.209657 0.209657 0.209657 0.209657 0.209657 0.209657 0.209657 0.209657 0.209657 0.209657 0.209657 0.209657 0.209657 0.209657 0.209657 0.209657 0.209657 0.209657 0.209657 0.209657 0.209657 0.209657 0.209657 0.209657 0.244339 0.244339 0.244339 0.244339 0.244339 0.244339 0.244339 0.244339 0.244339 0.244339 0.244339 0.244339 0.244339 0.244339 0.244339 0.244339 0.244339 0.244339 0.244339 0.244339 0.244339 0.244339 0.244339 0.244339 0.244339 0.260378 0.260378 0.260378 0.260378 0.260378 0.260378 0.260378 0.260378 0.260378 0.260378 0.260378 0.260378 0.260378 0.260378 0.260378 0.260378 0.260378 0.260378 0.260378 0.260378 0.269680 0.269680 0.269680 0.269680 0.269680 0.269680 0.269680 0.269680 0.269680 0.269680 0.269680 0.269680 0.269680 0.269680 0.269680 0.269680 0.269680 0.269680 0.269680 0.269680 0.269680 0.269680 0.269680 0.269680 0.269680 0.269680 0.269680 0.269680 0.269680 0.269680 0.269680 0.269680 0.269680 0.280056 0.280056 0.280056 0.280056 0.280056 0.280056 0.280056 0.280056 0.280056 0.280056 0.280056 0.280056 0.280056 0.280056 0.280056 0.280056 0.280056 0.280056 0.280056 0.280056 0.280056 0.280056 0.280056 0.280056 0.280056 0.280056 0.280056 0.274721 0.274721 0.274721 0.274721 0.274721 0.274721 0.274721 0.274721 0.274721 0.274721 0.274721 0.274721 0.274721 0.285714 0.285714 0.285714 0.285714 0.285714 0.285714 0.285714 0.285714 0.285714 0.285714 0.285714 0.280056 0.280056 0.280056 0.280056 0.280056 0.280056 0.280056 0.280056 0.280056 0.280056 0.280056 0.274721 0.274721 0.274721 0.274721 0.274721 0.274721 0.274721 0.274721 0.274721 0.274721 0.274721 0.280056 0.280056 0.280056 0.280056 0.280056 0.280056 0.280056 0.280056 0.280056 0.280056 0.285714 0.285714 0.285714 0.285714 0.285714 0.285714 0.285714 0.285714 0.285714 0.269680 0.269680 0.269680 0.269680 0.269680 0.269680 0.269680 0.269680 0.269680 0.269680 0.274721 0.274721 0.274721 0.274721 0.274721 0.274721 0.274721 0.274721 0.274721 0.285714 0.285714 0.285714 0.285714 0.285714 0.285714 0.285714 0.285714 0.264906 0.264906 0.264906 0.264906 0.264906 0.264906 0.264906 0.264906 0.264906 0.274721 0.274721 0.274721 0.274721 0.274721 0.274721 0.274721 0.274721 0.269680 0.269680 0.269680 0.269680 0.269680 0.269680 0.269680 0.269680 0.269680 0.269680 0.269680 0.269680 0.269680 0.269680 0.269680 0.269680 0.280056 0.280056 0.280056 0.280056 0.280056 0.280056 0.280056 0.260378 0.260378 0.260378 0.260378 0.260378 0.260378 0.260378 0.260378 0.269680 0.269680 0.269680 0.269680 0.269680 0.269680 0.269680 0.264906 0.264906 0.264906 0.264906 0.264906 0.264906 0.264906 0.264906 0.264906 0.264906 0.264906 0.264906 0.264906 0.264906 0.260378 0.260378 0.260378 0.260378 0.260378 0.260378 0.260378 0.260378 0.260378 0.260378 0.260378 0.260378
