# Output from CTFFind version 4.1.9, run on 2019-11-02 17:44:06
# Input file: stack6_bm3d_averaged_1_1.0_0_250_half.mrc ; Number of micrographs: 1
# Pixel size: 3.000 Angstroms ; acceleration voltage: 300.0 keV ; spherical aberration: 0.00 mm ; amplitude contrast: 0.07
# Box size: 512 pixels ; min. res.: 30.0 Angstroms ; max. res.: 5.0 Angstroms ; min. def.: 5000.0 um; max. def. 50000.0 um; num. frames averaged: 1
# 6 lines per micrograph: #1 - spatial frequency (1/Angstroms); #2 - 1D rotational average of spectrum (assuming no astigmatism); #3 - 1D rotational average of spectrum; #4 - CTF fit; #5 - cross-correlation between spectrum and CTF fit; #6 - 2sigma of expected cross correlation of noise
0.000000 0.000651 0.001302 0.001953 0.002604 0.003255 0.003906 0.004557 0.005208 0.005859 0.006510 0.007161 0.007812 0.008464 0.009115 0.009766 0.010417 0.011068 0.011719 0.012370 0.013021 0.013672 0.014323 0.014974 0.015625 0.016276 0.016927 0.017578 0.018229 0.018880 0.019531 0.020182 0.020833 0.021484 0.022135 0.022786 0.023438 0.024089 0.024740 0.025391 0.026042 0.026693 0.027344 0.027995 0.028646 0.029297 0.029948 0.030599 0.031250 0.031901 0.032552 0.033203 0.033854 0.034505 0.035156 0.035807 0.036458 0.037109 0.037760 0.038411 0.039062 0.039714 0.040365 0.041016 0.041667 0.042318 0.042969 0.043620 0.044271 0.044922 0.045573 0.046224 0.046875 0.047526 0.048177 0.048828 0.049479 0.050130 0.050781 0.051432 0.052083 0.052734 0.053385 0.054036 0.054688 0.055339 0.055990 0.056641 0.057292 0.057943 0.058594 0.059245 0.059896 0.060547 0.061198 0.061849 0.062500 0.063151 0.063802 0.064453 0.065104 0.065755 0.066406 0.067057 0.067708 0.068359 0.069010 0.069661 0.070312 0.070964 0.071615 0.072266 0.072917 0.073568 0.074219 0.074870 0.075521 0.076172 0.076823 0.077474 0.078125 0.078776 0.079427 0.080078 0.080729 0.081380 0.082031 0.082682 0.083333 0.083984 0.084635 0.085286 0.085938 0.086589 0.087240 0.087891 0.088542 0.089193 0.089844 0.090495 0.091146 0.091797 0.092448 0.093099 0.093750 0.094401 0.095052 0.095703 0.096354 0.097005 0.097656 0.098307 0.098958 0.099609 0.100260 0.100911 0.101562 0.102214 0.102865 0.103516 0.104167 0.104818 0.105469 0.106120 0.106771 0.107422 0.108073 0.108724 0.109375 0.110026 0.110677 0.111328 0.111979 0.112630 0.113281 0.113932 0.114583 0.115234 0.115885 0.116536 0.117188 0.117839 0.118490 0.119141 0.119792 0.120443 0.121094 0.121745 0.122396 0.123047 0.123698 0.124349 0.125000 0.125651 0.126302 0.126953 0.127604 0.128255 0.128906 0.129557 0.130208 0.130859 0.131510 0.132161 0.132812 0.133464 0.134115 0.134766 0.135417 0.136068 0.136719 0.137370 0.138021 0.138672 0.139323 0.139974 0.140625 0.141276 0.141927 0.142578 0.143229 0.143880 0.144531 0.145182 0.145833 0.146484 0.147135 0.147786 0.148438 0.149089 0.149740 0.150391 0.151042 0.151693 0.152344 0.152995 0.153646 0.154297 0.154948 0.155599 0.156250 0.156901 0.157552 0.158203 0.158854 0.159505 0.160156 0.160807 0.161458 0.162109 0.162760 0.163411 0.164062 0.164714 0.165365 0.166016 0.166667 0.167318 0.167969 0.168620 0.169271 0.169922 0.170573 0.171224 0.171875 0.172526 0.173177 0.173828 0.174479 0.175130 0.175781 0.176432 0.177083 0.177734 0.178385 0.179036 0.179688 0.180339 0.180990 0.181641 0.182292 0.182943 0.183594 0.184245 0.184896 0.185547 0.186198 0.186849 0.187500 0.188151 0.188802 0.189453 0.190104 0.190755 0.191406 0.192057 0.192708 0.193359 0.194010 0.194661 0.195312 0.195964 0.196615 0.197266 0.197917 0.198568 0.199219 0.199870 0.200521 0.201172 0.201823 0.202474 0.203125 0.203776 0.204427 0.205078 0.205729 0.206380 0.207031 0.207682 0.208333 0.208984 0.209635 0.210286 0.210938 0.211589 0.212240 0.212891 0.213542 0.214193 0.214844 0.215495 0.216146 0.216797 0.217448 0.218099 0.218750 0.219401 0.220052 0.220703 0.221354 0.222005 0.222656 0.223307 0.223958 0.224609 0.225260 0.225911 0.226562 0.227214 0.227865 0.228516 0.229167 0.229818 0.230469 0.231120 0.231771 0.232422 0.233073 0.233724 0.234375 0.235026 0.235677
       0.31169        0.31169        0.31169        0.31169        0.31169        0.31169        0.31169        0.31169        0.31169        0.31169        0.31169        0.31169        0.31169        0.31169        0.31169        0.31169        0.31169        0.31169        0.31169        0.31169        0.31169        0.31169        0.31169        0.31169        0.31169        0.31169        0.31169        0.31169        0.31169        0.31169        0.31169        0.31169        0.31169        0.31169        0.31169        0.31169        0.31169        0.31169        0.31169        0.31169        0.31169        0.31169        0.31169        0.31169        0.31169        0.31169        0.31169        0.31169        0.31169        0.31169        0.31169        0.63222        0.81769        0.41767        0.31252        0.18511       -0.10533        0.11070       -0.00335        0.03240        0.11935        0.33710        0.42223        0.40603        0.22769       -0.01404        0.04803        0.06947       -0.17328       -0.18197       -0.08800       -0.10632       -0.29527       -0.19465       -0.29956       -0.25326       -0.28789       -0.40706       -0.47444       -0.48349       -0.43126       -0.34164       -0.44064       -0.36770       -0.41095       -0.35398       -0.27918       -0.20489       -0.19418       -0.14123       -0.09541        0.03908        0.07745        0.25281        0.27620        0.36260        0.40525        0.52718        0.59799        0.61566        0.74380        0.70379        0.74608        0.65644        0.66381        0.69256        0.63352        0.61548        0.60732        0.43101        0.40179        0.35444        0.31457        0.22354        0.12899        0.05929        0.05811        0.00216       -0.08086       -0.02873       -0.03162       -0.07175        0.06664        0.16330        0.25251        0.32172        0.33659        0.42844        0.54848        0.60121        0.54964        0.67208        0.57334        0.54777        0.59824        0.65028        0.53594        0.45299        0.40829        0.37688        0.24435        0.21255        0.12978        0.11653        0.05252        0.04696        0.10438        0.17107        0.14436        0.18143        0.22197        0.24080        0.32722        0.46060        0.49414        0.49992        0.51185        0.58032        0.57134        0.52424        0.43290        0.38923        0.36623        0.27229        0.24829        0.20625        0.20326        0.19497        0.17539        0.16356        0.13319        0.19505        0.24857        0.33837        0.38460        0.41165        0.46236        0.53967        0.47842        0.49436        0.42423        0.39811        0.38110        0.36279        0.29095        0.24944        0.19075        0.23499        0.21355        0.18565        0.22153        0.22629        0.23396        0.30024        0.39849        0.39914        0.37897        0.39615        0.46035        0.48971        0.42635        0.35038        0.32481        0.27319        0.26665        0.25434        0.21574        0.28176        0.29380        0.29822        0.31652        0.31392        0.35001        0.37417        0.37425        0.37518        0.35295        0.31502        0.32940        0.32254        0.29749        0.28269        0.27469        0.21827        0.27187        0.27589        0.29813        0.31721        0.34215        0.38064        0.34179        0.31235        0.36403        0.35933        0.25936        0.29225        0.30681        0.24389        0.20527        0.25663        0.27690        0.27898        0.29769        0.31029        0.34288        0.33497        0.36316        0.32342        0.32179        0.30861        0.30217        0.27119        0.25045        0.25725        0.25676        0.28148        0.30583        0.30634        0.30050        0.30816        0.32599        0.26673        0.30055        0.26837        0.25612        0.27712        0.26490        0.26363        0.26231        0.30918        0.29006        0.32108        0.28910        0.26730        0.30946        0.31741        0.33540        0.31821        0.28776        0.24940        0.25641        0.26260        0.25978        0.31606        0.31501        0.33119        0.31814        0.31474        0.24210        0.27640        0.20647        0.21176        0.25222        0.25535        0.25995        0.28349        0.30622        0.30049        0.36319        0.30651        0.25371        0.23713        0.23478        0.28730        0.31945        0.30836        0.27412        0.27854        0.26841        0.32575        0.28584        0.25615        0.26305        0.26152        0.28173        0.24866        0.27355        0.31961        0.29400        0.23043        0.24271        0.28522        0.31741        0.26321        0.26265        0.24489        0.27811        0.29242        0.37433        0.27605        0.26901        0.26471        0.24221        0.22386        0.18807        0.24264        0.22677        0.22084        0.17476        0.19510        0.23104        0.20937        0.22891        0.20754        0.25041        0.23605        0.22007        0.17201        0.17078        0.19921        0.25942        0.11833        0.05606        0.21455        0.16359        0.13089        0.24860        0.16832        0.23348        0.20222        0.00265       -0.50173       -1.02728
2.803564 2.776098 2.748774 2.721591 2.694549 2.667648 2.640888 2.614269 2.587792 2.561455 2.535259 2.509205 2.483291 2.457519 2.431888 2.406397 2.381048 2.355840 2.330773 2.305847 2.281062 2.256418 2.231916 2.207554 2.183333 2.159254 2.135315 2.111518 2.087862 2.064346 2.040972 2.017739 1.994647 1.971696 1.948886 1.926218 1.903690 1.881303 1.859058 1.836953 1.814990 1.793167 1.771486 1.749946 1.728547 1.707289 1.686172 1.665196 1.644361 1.623667 1.603115 1.890645 2.242966 1.677034 1.721434 1.363034 0.926929 1.182905 1.010460 1.060409 1.019217 1.475338 1.499649 1.518112 1.273313 0.929546 0.813472 1.001262 0.696875 0.485035 0.581539 0.672566 0.418260 0.477724 0.328354 0.376934 0.244347 0.150536 -0.029697 0.003738 0.012184 0.083483 0.038723 0.079534 -0.041841 0.032810 0.111595 0.219451 0.278312 0.207501 0.316524 0.553617 0.439686 0.724852 0.786257 0.856657 0.907157 1.113987 1.151754 1.172497 1.316508 1.233265 1.369547 1.189179 1.102396 1.296942 1.119987 1.043651 1.121999 0.872460 0.738098 0.674305 0.659166 0.458202 0.390671 0.262630 0.230301 0.101281 0.001972 0.094252 0.033705 -0.057490 0.120492 0.255940 0.315500 0.458305 0.489906 0.552829 0.716952 0.830457 0.666828 0.963899 0.799101 0.674151 0.763522 0.809395 0.723464 0.630032 0.445434 0.505333 0.288863 0.181845 0.149036 0.014171 -0.014587 -0.109830 -0.020563 0.051505 0.079303 -0.033485 0.255680 0.098143 0.223095 0.379235 0.437025 0.543853 0.422277 0.556440 0.656325 0.505254 0.403696 0.350488 0.328536 0.153262 0.151107 0.007781 0.098475 0.022154 0.001056 -0.022071 -0.101615 0.004836 0.032941 0.105086 0.291278 0.218241 0.360202 0.369040 0.438673 0.418222 0.400424 0.330629 0.229204 0.307182 0.177211 0.156660 0.000519 0.044752 0.077870 -0.029571 0.001051 0.027578 0.063471 0.070710 0.221268 0.309124 0.247977 0.218186 0.388374 0.412794 0.352828 0.243603 0.176842 0.147788 0.089975 0.076763 0.041884 0.023334 0.135755 0.065980 0.184863 0.101849 0.146454 0.236377 0.211792 0.235273 0.204685 0.201321 0.107719 0.166193 0.137086 0.098129 0.113342 0.002479 0.042368 0.093341 0.052294 0.144121 0.121597 0.208537 0.214263 0.133128 0.135416 0.224498 0.100411 0.068028 0.083268 0.067203 -0.003953 -0.033422 0.049351 0.075527 0.042383 0.114941 0.116952 0.135969 0.143566 0.175171 0.107377 0.092790 0.105732 0.093306 0.025082 0.017232 0.047227 -0.000300 0.081038 0.115157 0.083655 0.074208 0.114985 0.107288 0.028278 0.109798 0.034119 0.021411 0.081135 0.020237 0.026396 0.053777 0.095055 0.040057 0.111362 0.065437 0.009516 0.120773 0.088626 0.095201 0.088295 0.014314 -0.013959 -0.014064 0.039670 -0.006995 0.085356 0.082075 0.081409 0.060478 0.132126 -0.042358 0.026578 -0.097091 -0.009753 -0.040492 0.008020 0.010808 0.025435 0.077040 0.066826 0.121802 0.005023 -0.035424 -0.066785 -0.076386 0.055868 0.061745 0.041701 -0.007838 -0.012756 -0.018661 0.069128 0.004467 -0.084433 -0.025875 -0.065704 0.001582 -0.055139 -0.013524 0.038757 -0.008364 -0.084870 -0.041816 0.076308 0.023434 -0.004256 -0.008207 -0.052214 0.071538 0.065231 0.158618 0.011343 0.007980 0.027983 0.013282 -0.044188 -0.042863 0.035378 0.002881 -0.008295 -0.066283 -0.051544 0.059400 -0.078325 0.073920 -0.015452 0.108526 -0.007183 0.063384 -0.107473 -0.024445 -0.064815 0.145930 -0.088855 -0.263457 0.296098 0.211610 0.181574 0.440300 0.193782 0.308160 0.295548 0.006326 -1.415922
0.072396 0.072834 0.074149 0.076340 0.079406 0.083347 0.088162 0.093850 0.100410 0.107838 0.116134 0.125293 0.135313 0.146187 0.157912 0.170481 0.183886 0.198118 0.213167 0.229022 0.245667 0.263089 0.281268 0.300185 0.319818 0.340141 0.361125 0.382741 0.404952 0.427722 0.451007 0.474763 0.498940 0.523484 0.548335 0.573432 0.598706 0.624084 0.649488 0.674836 0.700040 0.725005 0.749635 0.773824 0.797465 0.820443 0.842641 0.863934 0.884196 0.903295 0.921096 0.937461 0.952249 0.965316 0.976520 0.985713 0.992752 0.997493 0.999794 0.999516 0.996524 0.990690 0.981890 0.970009 0.954944 0.936597 0.914889 0.889750 0.861127 0.828983 0.793303 0.754088 0.711362 0.665173 0.615592 0.562719 0.506677 0.447620 0.385731 0.321221 0.254333 0.185342 0.114550 0.042293 0.031064 0.105128 0.179477 0.253664 0.327216 0.399641 0.470425 0.539041 0.604950 0.667605 0.726455 0.780953 0.830559 0.874745 0.913003 0.944852 0.969841 0.987559 0.997640 0.999772 0.993700 0.979237 0.956265 0.924746 0.884724 0.836332 0.779794 0.715427 0.643648 0.564970 0.480004 0.389459 0.294134 0.194920 0.092790 0.011207 0.115955 0.220284 0.322976 0.422787 0.518455 0.608720 0.692341 0.768113 0.834888 0.891591 0.937246 0.970986 0.992082 0.999955 0.994193 0.974567 0.941047 0.893807 0.833237 0.759946 0.674765 0.578740 0.473130 0.359396 0.239180 0.114293 0.013314 0.141573 0.268335 0.391405 0.508575 0.617673 0.716596 0.803361 0.876145 0.933327 0.973534 0.995673 0.998972 0.983005 0.947720 0.893453 0.820942 0.731325 0.626136 0.507288 0.377044 0.237986 0.092969 0.054937 0.202501 0.346406 0.483319 0.609971 0.723243 0.820238 0.898371 0.955439 0.989696 0.999913 0.985430 0.946196 0.882794 0.796453 0.689036 0.563016 0.421432 0.267828 0.106174 0.059234 0.223877 0.383138 0.532432 0.667337 0.783740 0.877958 0.946875 0.988050 0.999823 0.981389 0.932854 0.855268 0.750621 0.621812 0.472593 0.307466 0.131564 0.049493 0.229780 0.403254 0.563953 0.706218 0.824883 0.915491 0.974468 0.999279 0.988561 0.942204 0.861400 0.748644 0.607677 0.443382 0.261646 0.069152 0.126848 0.318806 0.499158 0.660632 0.796555 0.901129 0.969710 0.999023 0.987351 0.934648 0.842594 0.714575 0.555590 0.372081 0.171695 0.037022 0.244970 0.442897 0.621804 0.773369 0.890349 0.966945 0.999114 0.984812 0.924148 0.819439 0.675162 0.497800 0.295574 0.078095 0.144083 0.359962 0.558640 0.729877 0.864632 0.955566 0.997467 0.987587 0.925851 0.814932 0.660184 0.469422 0.252564 0.021144 0.212290 0.434839 0.633974 0.798247 0.917980 0.985858 0.997412 0.951362 0.849760 0.697972 0.504420 0.280177 0.038360 0.206618 0.439895 0.647063 0.815069 0.933069 0.993156 0.990942 0.925919 0.801586 0.625325 0.408009 0.163384 0.092777 0.343670 0.572549 0.763863 0.904338 0.983925 0.996577 0.940756 0.819645 0.641037 0.416898 0.162607 0.104057 0.364132 0.598826 0.790882 0.925873 0.993339 0.987644 0.908509 0.761159 0.556039 0.308151 0.035996 0.239759 0.497849 0.718051 0.882784 0.978568 0.997181 0.936423 0.800433 0.599490 0.349310 0.069870 0.216142 0.485147 0.714615 0.885002 0.981434 0.995085 0.924052 0.773667 0.556189 0.289875 0.002481 0.295459 0.563212 0.781759 0.931155 0.997391 0.973760 0.861634 0.670492 0.417226 0.124702 0.180226 0.469155 0.714799 0.893559 0.987884 0.988041 0.893227 0.711816 0.460723 0.163918 0.149802 0.449565 0.705453 0.891537
1.000000 1.000000 1.000000 1.000000 1.000000 1.000000 1.000000 1.000000 1.000000 1.000000 1.000000 1.000000 1.000000 1.000000 1.000000 1.000000 1.000000 1.000000 1.000000 1.000000 1.000000 1.000000 1.000000 1.000000 1.000000 1.000000 1.000000 1.000000 1.000000 1.000000 1.000000 1.000000 1.000000 1.000000 1.000000 1.000000 1.000000 1.000000 1.000000 1.000000 1.000000 1.000000 1.000000 1.000000 1.000000 1.000000 1.000000 1.000000 1.000000 1.000000 1.000000 1.000000 0.832615 0.832615 0.832615 0.832615 0.832615 0.832615 0.832615 0.815514 0.815514 0.815514 0.815514 0.815514 0.815514 0.815514 0.815514 0.815514 0.815514 0.815514 0.815514 0.815514 0.815514 0.815514 0.815514 0.815514 0.815514 0.815514 0.815514 0.815514 0.815514 0.815514 0.815514 0.815514 0.815514 0.815514 0.815514 0.815514 0.815514 0.815514 0.815514 0.815514 0.815514 0.815514 0.815514 0.815514 0.815514 0.815514 0.815514 0.815514 0.815514 0.815514 0.815514 0.953499 0.954146 0.951243 0.950158 0.948489 0.945143 0.940860 0.940411 0.941758 0.941965 0.942361 0.944467 0.945048 0.946670 0.947841 0.948657 0.949463 0.957562 0.961254 0.960775 0.960161 0.950835 0.957566 0.956668 0.954367 0.955147 0.955438 0.956138 0.956019 0.955857 0.955370 0.953948 0.954672 0.954501 0.953749 0.952689 0.950417 0.950351 0.949901 0.950039 0.951015 0.951734 0.952400 0.952938 0.952134 0.952380 0.952370 0.952269 0.947484 0.947505 0.940711 0.941269 0.942316 0.941901 0.940784 0.939270 0.939337 0.939227 0.939171 0.939023 0.939464 0.920954 0.920576 0.920846 0.920052 0.912203 0.901116 0.893519 0.887804 0.888856 0.893218 0.898233 0.898939 0.896313 0.895233 0.879887 0.876578 0.862951 0.859537 0.847304 0.857785 0.859356 0.860778 0.851993 0.851801 0.850024 0.848179 0.838871 0.843447 0.843279 0.839139 0.835190 0.833632 0.831906 0.835757 0.844493 0.841866 0.839950 0.841916 0.828681 0.819533 0.818339 0.819501 0.827379 0.839763 0.838744 0.837337 0.831839 0.828177 0.822878 0.819135 0.819294 0.821031 0.818848 0.822549 0.819422 0.829068 0.818669 0.811698 0.816621 0.825706 0.827505 0.829008 0.830722 0.827988 0.833185 0.818012 0.820000 0.821144 0.773935 0.776385 0.766152 0.761595 0.736162 0.738674 0.733348 0.733239 0.722494 0.710799 0.722175 0.722092 0.683466 0.693575 0.688170 0.677234 0.658050 0.669420 0.684413 0.695031 0.694802 0.691506 0.680263 0.679309 0.688377 0.688560 0.693910 0.682252 0.678330 0.671002 0.673185 0.659178 0.660486 0.657769 0.657478 0.658877 0.655207 0.637922 0.647467 0.638477 0.624771 0.615260 0.589181 0.550807 0.536811 0.526822 0.505435 0.488209 0.504144 0.511676 0.490293 0.481279 0.465444 0.440976 0.433618 0.432708 0.422747 0.412813 0.398233 0.353804 0.361510 0.361445 0.360351 0.345640 0.360545 0.343413 0.298943 0.282883 0.249090 0.268030 0.282401 0.281578 0.263094 0.256636 0.272864 0.239601 0.245698 0.244039 0.260018 0.210563 0.148602 0.164908 0.162159 0.167932 0.155793 0.126301 0.154178 0.138812 0.154571 0.159892 0.102265 0.071125 0.053022 0.031843 0.037963 0.063062 0.077170 0.068407 0.051693 -0.042894 -0.008880 0.016571 0.016571 0.016571 0.016571 0.016571 0.016571 0.016571 0.016571 0.016571 0.016571 0.016571 -0.043622 -0.043622 -0.043622 -0.043622 -0.043622 -0.043622 -0.043622 -0.043622 -0.043622 -0.043622 -0.043622 -0.043622 -0.043622 -0.043622 -0.043622 -0.043622 -0.043622 -0.043622 -0.043622
0.000000 0.000000 0.000000 0.000000 0.000000 0.000000 0.000000 0.000000 0.000000 0.000000 0.000000 0.000000 0.000000 0.000000 0.000000 0.000000 0.000000 0.000000 0.000000 0.000000 0.000000 0.000000 0.000000 0.000000 0.000000 0.000000 0.000000 0.000000 0.000000 0.000000 0.000000 0.000000 0.000000 0.000000 0.000000 0.000000 0.000000 0.000000 0.000000 0.000000 0.000000 0.000000 0.000000 0.000000 0.000000 0.000000 0.000000 0.000000 0.000000 0.000000 0.000000 0.000000 0.173422 0.173422 0.173422 0.173422 0.173422 0.173422 0.173422 0.191565 0.191565 0.191565 0.191565 0.191565 0.191565 0.191565 0.191565 0.191565 0.191565 0.191565 0.191565 0.191565 0.191565 0.191565 0.191565 0.191565 0.191565 0.191565 0.191565 0.191565 0.191565 0.191565 0.191565 0.191565 0.191565 0.191565 0.191565 0.191565 0.191565 0.191565 0.191565 0.191565 0.191565 0.191565 0.191565 0.191565 0.191565 0.191565 0.191565 0.191565 0.191565 0.191565 0.191565 0.219529 0.219529 0.219529 0.219529 0.219529 0.219529 0.219529 0.219529 0.219529 0.219529 0.219529 0.219529 0.219529 0.219529 0.219529 0.219529 0.219529 0.219529 0.219529 0.219529 0.219529 0.219529 0.219529 0.219529 0.219529 0.219529 0.219529 0.219529 0.219529 0.219529 0.219529 0.237356 0.237356 0.237356 0.237356 0.237356 0.237356 0.237356 0.237356 0.237356 0.237356 0.237356 0.237356 0.237356 0.237356 0.237356 0.237356 0.237356 0.237356 0.237356 0.237356 0.237356 0.237356 0.237356 0.237356 0.244339 0.244339 0.244339 0.244339 0.244339 0.244339 0.244339 0.244339 0.244339 0.244339 0.244339 0.244339 0.244339 0.244339 0.244339 0.244339 0.244339 0.244339 0.244339 0.244339 0.244339 0.248069 0.248069 0.248069 0.248069 0.248069 0.248069 0.248069 0.248069 0.248069 0.248069 0.248069 0.248069 0.248069 0.248069 0.248069 0.248069 0.248069 0.248069 0.248069 0.248069 0.248069 0.248069 0.248069 0.248069 0.248069 0.248069 0.248069 0.248069 0.248069 0.248069 0.248069 0.248069 0.248069 0.248069 0.248069 0.248069 0.248069 0.256074 0.256074 0.256074 0.256074 0.256074 0.256074 0.256074 0.256074 0.256074 0.256074 0.256074 0.256074 0.256074 0.256074 0.256074 0.256074 0.256074 0.256074 0.256074 0.256074 0.256074 0.256074 0.256074 0.256074 0.256074 0.256074 0.256074 0.256074 0.256074 0.256074 0.256074 0.256074 0.256074 0.256074 0.256074 0.256074 0.256074 0.256074 0.256074 0.256074 0.256074 0.256074 0.256074 0.256074 0.256074 0.260378 0.260378 0.260378 0.260378 0.260378 0.260378 0.260378 0.260378 0.260378 0.260378 0.260378 0.260378 0.260378 0.256074 0.256074 0.256074 0.256074 0.256074 0.256074 0.256074 0.256074 0.256074 0.256074 0.256074 0.256074 0.256074 0.260378 0.260378 0.260378 0.260378 0.260378 0.260378 0.260378 0.260378 0.260378 0.260378 0.260378 0.260378 0.251976 0.251976 0.251976 0.251976 0.251976 0.251976 0.251976 0.251976 0.251976 0.251976 0.251976 0.251976 0.256074 0.256074 0.256074 0.256074 0.256074 0.256074 0.256074 0.256074 0.256074 0.256074 0.256074 0.251976 0.251976 0.251976 0.251976 0.251976 0.251976 0.251976 0.251976 0.251976 0.251976 0.251976 0.248069 0.248069 0.248069 0.248069 0.248069 0.248069 0.248069 0.248069 0.248069 0.248069 0.248069 0.256074 0.256074 0.256074 0.256074 0.256074 0.256074 0.256074 0.256074 0.256074 0.256074 0.256074 0.256074 0.256074 0.256074 0.256074 0.256074 0.256074 0.256074 0.256074
