# Output from CTFFind version 4.1.9, run on 2019-11-02 17:46:12
# Input file: stack16_bm3d_averaged_1_0.5_0_1000_half.mrc ; Number of micrographs: 1
# Pixel size: 3.000 Angstroms ; acceleration voltage: 300.0 keV ; spherical aberration: 0.00 mm ; amplitude contrast: 0.07
# Box size: 512 pixels ; min. res.: 30.0 Angstroms ; max. res.: 5.0 Angstroms ; min. def.: 5000.0 um; max. def. 50000.0 um; num. frames averaged: 1
# 6 lines per micrograph: #1 - spatial frequency (1/Angstroms); #2 - 1D rotational average of spectrum (assuming no astigmatism); #3 - 1D rotational average of spectrum; #4 - CTF fit; #5 - cross-correlation between spectrum and CTF fit; #6 - 2sigma of expected cross correlation of noise
0.000000 0.000651 0.001302 0.001953 0.002604 0.003255 0.003906 0.004557 0.005208 0.005859 0.006510 0.007161 0.007812 0.008464 0.009115 0.009766 0.010417 0.011068 0.011719 0.012370 0.013021 0.013672 0.014323 0.014974 0.015625 0.016276 0.016927 0.017578 0.018229 0.018880 0.019531 0.020182 0.020833 0.021484 0.022135 0.022786 0.023438 0.024089 0.024740 0.025391 0.026042 0.026693 0.027344 0.027995 0.028646 0.029297 0.029948 0.030599 0.031250 0.031901 0.032552 0.033203 0.033854 0.034505 0.035156 0.035807 0.036458 0.037109 0.037760 0.038411 0.039062 0.039714 0.040365 0.041016 0.041667 0.042318 0.042969 0.043620 0.044271 0.044922 0.045573 0.046224 0.046875 0.047526 0.048177 0.048828 0.049479 0.050130 0.050781 0.051432 0.052083 0.052734 0.053385 0.054036 0.054688 0.055339 0.055990 0.056641 0.057292 0.057943 0.058594 0.059245 0.059896 0.060547 0.061198 0.061849 0.062500 0.063151 0.063802 0.064453 0.065104 0.065755 0.066406 0.067057 0.067708 0.068359 0.069010 0.069661 0.070312 0.070964 0.071615 0.072266 0.072917 0.073568 0.074219 0.074870 0.075521 0.076172 0.076823 0.077474 0.078125 0.078776 0.079427 0.080078 0.080729 0.081380 0.082031 0.082682 0.083333 0.083984 0.084635 0.085286 0.085938 0.086589 0.087240 0.087891 0.088542 0.089193 0.089844 0.090495 0.091146 0.091797 0.092448 0.093099 0.093750 0.094401 0.095052 0.095703 0.096354 0.097005 0.097656 0.098307 0.098958 0.099609 0.100260 0.100911 0.101562 0.102214 0.102865 0.103516 0.104167 0.104818 0.105469 0.106120 0.106771 0.107422 0.108073 0.108724 0.109375 0.110026 0.110677 0.111328 0.111979 0.112630 0.113281 0.113932 0.114583 0.115234 0.115885 0.116536 0.117188 0.117839 0.118490 0.119141 0.119792 0.120443 0.121094 0.121745 0.122396 0.123047 0.123698 0.124349 0.125000 0.125651 0.126302 0.126953 0.127604 0.128255 0.128906 0.129557 0.130208 0.130859 0.131510 0.132161 0.132812 0.133464 0.134115 0.134766 0.135417 0.136068 0.136719 0.137370 0.138021 0.138672 0.139323 0.139974 0.140625 0.141276 0.141927 0.142578 0.143229 0.143880 0.144531 0.145182 0.145833 0.146484 0.147135 0.147786 0.148438 0.149089 0.149740 0.150391 0.151042 0.151693 0.152344 0.152995 0.153646 0.154297 0.154948 0.155599 0.156250 0.156901 0.157552 0.158203 0.158854 0.159505 0.160156 0.160807 0.161458 0.162109 0.162760 0.163411 0.164062 0.164714 0.165365 0.166016 0.166667 0.167318 0.167969 0.168620 0.169271 0.169922 0.170573 0.171224 0.171875 0.172526 0.173177 0.173828 0.174479 0.175130 0.175781 0.176432 0.177083 0.177734 0.178385 0.179036 0.179688 0.180339 0.180990 0.181641 0.182292 0.182943 0.183594 0.184245 0.184896 0.185547 0.186198 0.186849 0.187500 0.188151 0.188802 0.189453 0.190104 0.190755 0.191406 0.192057 0.192708 0.193359 0.194010 0.194661 0.195312 0.195964 0.196615 0.197266 0.197917 0.198568 0.199219 0.199870 0.200521 0.201172 0.201823 0.202474 0.203125 0.203776 0.204427 0.205078 0.205729 0.206380 0.207031 0.207682 0.208333 0.208984 0.209635 0.210286 0.210938 0.211589 0.212240 0.212891 0.213542 0.214193 0.214844 0.215495 0.216146 0.216797 0.217448 0.218099 0.218750 0.219401 0.220052 0.220703 0.221354 0.222005 0.222656 0.223307 0.223958 0.224609 0.225260 0.225911 0.226562 0.227214 0.227865 0.228516 0.229167 0.229818 0.230469 0.231120 0.231771 0.232422 0.233073 0.233724 0.234375 0.235026 0.235677
       0.34281        0.34281        0.34281        0.34281        0.34281        0.34281        0.34281        0.34281        0.34281        0.34281        0.34281        0.34281        0.34281        0.34281        0.34281        0.34281        0.34281        0.34281        0.34281        0.34281        0.34281        0.34281        0.34281        0.34281        0.34281        0.34281        0.34281        0.34281        0.34281        0.34281        0.34281        0.34281        0.34281        0.34281        0.34281        0.34281        0.34281        0.34281        0.34281        0.34281        0.34281        0.34281        0.34281        0.34281        0.34281        0.34281        0.34281        0.34281        0.34281        0.34281        0.34281        0.48913        0.70316        0.45526       -0.11136       -0.41301       -0.57194       -0.66203       -0.74614       -0.76326       -0.86902       -0.91426       -0.75983       -0.92503       -0.87165       -1.02437       -1.09686       -0.98937       -0.96239       -0.88368       -0.86244       -0.75152       -0.64164       -0.50098       -0.42423       -0.21857       -0.11791       -0.02261        0.20388        0.24387        0.30815        0.38534        0.43952        0.51645        0.58058        0.59520        0.59184        0.50210        0.54575        0.48631        0.39105        0.32344        0.20647        0.17271        0.10311       -0.06173       -0.11097       -0.09239        0.00976       -0.01686        0.01132        0.02903        0.21030        0.21974        0.39140        0.45717        0.56176        0.69948        0.76018        0.72931        0.70616        0.70262        0.58408        0.54316        0.40005        0.27218        0.19293        0.14416        0.06628        0.02268        0.02304        0.06150        0.07730        0.27048        0.41768        0.50554        0.58769        0.63870        0.70465        0.66109        0.65123        0.67085        0.60938        0.48012        0.28411        0.23414        0.20580        0.13045        0.04643        0.09228        0.12295        0.24997        0.33888        0.41482        0.50030        0.53855        0.66277        0.61023        0.55560        0.50915        0.36615        0.21051        0.21214        0.15249        0.11246        0.12045        0.21560        0.25320        0.35947        0.44287        0.44010        0.56651        0.51072        0.44731        0.45309        0.38343        0.32375        0.27698        0.21904        0.23782        0.20968        0.21142        0.32427        0.44876        0.48617        0.47990        0.55038        0.49568        0.45567        0.39483        0.29352        0.22415        0.23213        0.24628        0.26729        0.27307        0.32396        0.44269        0.49886        0.48592        0.45958        0.41749        0.38686        0.36250        0.24833        0.22654        0.24640        0.29377        0.35368        0.36218        0.39186        0.40913        0.44350        0.37059        0.34856        0.31321        0.30373        0.26624        0.25866        0.30971        0.34544        0.41579        0.41666        0.39796        0.39449        0.40753        0.34958        0.28803        0.29060        0.27627        0.31033        0.35999        0.36634        0.41558        0.35983        0.36728        0.39024        0.34650        0.31634        0.27943        0.29682        0.34007        0.33128        0.32617        0.37582        0.39558        0.33444        0.35262        0.29547        0.30814        0.28795        0.28241        0.30027        0.33125        0.38346        0.36582        0.34713        0.32753        0.28506        0.27737        0.29633        0.28209        0.31371        0.36832        0.39413        0.33815        0.31784        0.31111        0.29756        0.28105        0.27832        0.29940        0.34116        0.33670        0.34326        0.31686        0.34751        0.32401        0.28693        0.31619        0.32235        0.33179        0.33646        0.31948        0.31567        0.30665        0.32723        0.31240        0.33535        0.38898        0.33564        0.36135        0.32177        0.31465        0.29002        0.31020        0.28999        0.31019        0.31588        0.35144        0.36179        0.31752        0.32255        0.31511        0.29277        0.29254        0.28985        0.33331        0.34332        0.35688        0.33435        0.32486        0.25910        0.26671        0.31358        0.34902        0.31761        0.29979        0.28498        0.28660        0.32464        0.30735        0.30805        0.33373        0.34437        0.31228        0.24247        0.28901        0.28247        0.28709        0.32110        0.32078        0.34467        0.34288        0.27883        0.26577        0.29259        0.26860        0.28837        0.27607        0.24810        0.26587        0.24899        0.27953        0.27980        0.27675        0.26542        0.31709        0.32615        0.31573        0.28841        0.30739        0.24491        0.26917        0.25518        0.33755        0.34418        0.23076        0.25599        0.27019        0.24594        0.25095        0.29798        0.22838        0.14564        0.17390        0.25079        0.27702        0.22783        0.14195        0.03021       -0.41242       -0.74172
3.059702 3.021688 2.983918 2.946392 2.909111 2.872073 2.835280 2.798731 2.762426 2.726365 2.690549 2.654976 2.619648 2.584564 2.549724 2.515128 2.480776 2.446669 2.412805 2.379186 2.345811 2.312680 2.279793 2.247150 2.214752 2.182598 2.150688 2.119022 2.087600 2.056422 2.025489 1.994799 1.964354 1.934153 1.904196 1.874484 1.845015 1.815791 1.786811 1.758075 1.729583 1.701335 1.673331 1.645572 1.618056 1.590785 1.563758 1.536976 1.510437 1.484142 1.458092 1.515282 1.705196 1.615918 0.967726 0.684574 0.477252 0.431848 0.321499 0.264437 0.200650 0.021140 0.197995 0.081333 -0.006250 -0.058394 -0.198821 -0.151963 -0.091785 -0.091492 -0.098609 0.010322 0.030952 0.234734 0.149421 0.365886 0.447164 0.479134 0.718104 0.702107 0.709872 0.840799 0.824809 0.856918 0.924757 0.894229 0.942441 0.754415 0.838485 0.842969 0.623035 0.608971 0.458720 0.437441 0.389166 0.210222 0.121408 0.101409 0.206382 0.147565 0.194920 0.112124 0.314469 0.289979 0.458722 0.417959 0.582808 0.644952 0.766714 0.695027 0.664175 0.669975 0.533544 0.507652 0.370782 0.293487 0.118333 0.146385 0.002682 -0.013394 -0.037672 -0.027765 -0.001728 0.032930 0.275326 0.333817 0.388202 0.397725 0.469329 0.523347 0.470634 0.506905 0.402222 0.390556 0.155743 0.068279 0.073639 -0.000179 -0.123127 -0.042460 -0.108669 0.018446 0.135323 0.157194 0.254532 0.257061 0.384335 0.464456 0.356334 0.390831 0.284719 0.128303 0.051041 0.052418 0.012319 0.002612 0.007517 0.108901 0.129310 0.263843 0.238221 0.307757 0.372454 0.236339 0.243902 0.219491 0.132890 0.082206 0.053631 0.028298 0.039167 -0.013197 0.029010 0.186429 0.223328 0.247900 0.280588 0.232615 0.240497 0.147563 0.106736 -0.022192 -0.017262 -0.004330 0.017431 0.009629 0.028180 0.104849 0.189659 0.200022 0.224055 0.138455 0.145912 0.080089 0.056935 -0.059529 -0.014905 -0.006972 0.055020 0.066222 0.077387 0.151400 0.091275 0.165567 0.070119 0.054549 0.045459 0.028592 0.002081 0.009721 0.055245 0.084473 0.134303 0.142743 0.069371 0.133141 0.102090 0.019779 0.008917 0.006558 -0.003804 0.059769 0.062772 0.100393 0.099973 0.071526 0.071132 0.083072 0.036023 0.014978 -0.012925 0.014501 0.060521 0.026909 0.041882 0.083196 0.085509 0.055702 0.034372 0.008533 0.015763 -0.006385 -0.010824 0.014788 0.054544 0.105431 0.060857 0.057916 0.040547 -0.014056 0.000031 0.014893 0.011434 0.028869 0.104415 0.063588 0.026005 0.044401 0.003378 0.027288 -0.012268 -0.002243 0.023778 0.066227 0.033966 0.046912 0.032041 0.056598 0.028358 -0.004214 0.032097 0.044112 0.041600 0.035457 0.028345 0.005145 -0.006741 0.028538 0.008895 0.046123 0.078082 0.045282 0.030820 0.013268 0.003488 -0.005577 0.008885 0.002808 0.012840 -0.004673 0.082991 0.054431 0.035644 0.040115 0.004617 0.008962 0.009915 -0.005452 0.055375 0.062061 0.086200 0.046619 0.049986 -0.025391 0.014013 0.037253 0.073543 0.033462 0.034371 0.007456 0.004557 0.050387 0.046573 0.037806 0.060220 0.075144 0.057126 -0.022669 0.020284 0.041073 0.024886 0.044533 0.074000 0.075116 0.071346 0.015728 0.003988 0.016229 0.000306 0.019147 -0.016010 -0.028640 -0.008900 -0.048034 0.001467 -0.006709 0.008755 -0.074227 0.005481 0.013187 0.001061 -0.035895 0.029286 -0.092238 -0.021983 -0.041516 0.038130 0.068242 -0.106224 -0.018745 0.034167 0.016794 -0.039414 0.044800 0.030186 0.003523 -0.046559 0.080634 0.240635 0.198895 0.102759 0.029714 -0.652434
0.072396 0.073046 0.074995 0.078242 0.082787 0.088628 0.095763 0.104189 0.113901 0.124896 0.137166 0.150702 0.165496 0.181534 0.198800 0.217277 0.236942 0.257770 0.279730 0.302786 0.326898 0.352018 0.378094 0.405064 0.432862 0.461410 0.490623 0.520408 0.550661 0.581268 0.612104 0.643034 0.673912 0.704581 0.734871 0.764601 0.793581 0.821607 0.848465 0.873933 0.897777 0.919757 0.939623 0.957121 0.971993 0.983977 0.992811 0.998236 0.999997 0.997844 0.991541 0.980863 0.965603 0.945574 0.920616 0.890596 0.855413 0.815006 0.769354 0.718481 0.662461 0.601422 0.535549 0.465087 0.390344 0.311694 0.229576 0.144498 0.057036 0.032169 0.122411 0.212923 0.302883 0.391415 0.477603 0.560494 0.639113 0.712467 0.779567 0.839436 0.891124 0.933729 0.966409 0.988403 0.999047 0.997795 0.984233 0.958099 0.919299 0.867920 0.804242 0.728751 0.642142 0.545329 0.439435 0.325798 0.205954 0.081628 0.045288 0.172758 0.298631 0.420675 0.536617 0.644187 0.741162 0.825417 0.894980 0.948077 0.983191 0.999107 0.994964 0.970293 0.925054 0.859665 0.775019 0.672496 0.553951 0.421707 0.278515 0.127518 0.027814 0.183755 0.336403 0.481782 0.615943 0.735077 0.835632 0.914425 0.968763 0.996541 0.996346 0.967529 0.910274 0.825634 0.715544 0.582805 0.431042 0.264625 0.088565 0.091628 0.270100 0.440845 0.597906 0.735588 0.848680 0.932668 0.983933 0.999935 0.979361 0.922230 0.829962 0.705388 0.552696 0.377337 0.185854 0.014342 0.215230 0.408505 0.585913 0.739616 0.862554 0.948793 0.993846 0.994934 0.951195 0.863806 0.736014 0.573070 0.382064 0.171654 0.048298 0.267158 0.474040 0.658335 0.810287 0.921521 0.985555 0.998214 0.957954 0.866044 0.726615 0.546540 0.335154 0.103821 0.134645 0.366664 0.578664 0.757882 0.893165 0.975704 0.999662 0.962648 0.865993 0.714804 0.517780 0.286775 0.036155 0.218071 0.459240 0.671140 0.839115 0.951126 0.998678 0.977528 0.888139 0.735808 0.530452 0.286054 0.019774 0.249204 0.501034 0.716682 0.879387 0.976033 0.998274 0.943347 0.814476 0.620806 0.376866 0.101574 0.183173 0.454206 0.688957 0.867384 0.973735 0.998030 0.937104 0.795088 0.583284 0.319383 0.026083 0.270784 0.544510 0.769914 0.925710 0.996608 0.974922 0.861521 0.666007 0.406048 0.105907 0.205735 0.498479 0.743152 0.914796 0.995274 0.975333 0.855794 0.647758 0.371753 0.055817 0.267218 0.563121 0.799891 0.951283 0.999836 0.939028 0.774311 0.522821 0.211768 0.124371 0.447593 0.720658 0.911425 0.996740 0.965402 0.819814 0.576053 0.262288 0.084308 0.421872 0.708887 0.909311 0.997252 0.960457 0.802230 0.541399 0.210297 0.149090 0.490336 0.768573 0.946446 0.999279 0.918699 0.714165 0.412123 0.052810 0.314963 0.640364 0.877597 0.992468 0.967498 0.804824 0.526356 0.171094 0.210156 0.561924 0.832159 0.980022 0.982256 0.837094 0.565021 0.206174 0.185355 0.549554 0.829679 0.981191 0.979052 0.822128 0.533917 0.159330 0.242080 0.605448 0.871107 0.994501 0.953902 0.754540 0.428304 0.028976 0.376449 0.718890 0.939015 0.997702 0.883294 0.614212 0.236369 0.184369 0.573522 0.861118 0.994454 0.947999 0.728627 0.375039 0.048724 0.464635 0.795003 0.977041 0.975086 0.787911 0.449687 0.024114 0.407292 0.760703 0.966340 0.982508 0.804402 0.465809 0.033127 0.407384 0.766654 0.970896 0.977025 0.782134 0.424897 0.021684 0.464908 0.811476 0.987279 0.953523 0.715732 0.323391 0.139886 0.573934
1.000000 1.000000 1.000000 1.000000 1.000000 1.000000 1.000000 1.000000 1.000000 1.000000 1.000000 1.000000 1.000000 1.000000 1.000000 1.000000 1.000000 1.000000 1.000000 1.000000 1.000000 1.000000 1.000000 1.000000 1.000000 1.000000 1.000000 1.000000 1.000000 1.000000 1.000000 1.000000 1.000000 1.000000 1.000000 1.000000 1.000000 1.000000 1.000000 1.000000 1.000000 1.000000 1.000000 1.000000 1.000000 1.000000 1.000000 1.000000 1.000000 1.000000 1.000000 1.000000 0.932933 0.932933 0.932933 0.932933 0.932933 0.932933 0.932933 0.932933 0.932933 0.932933 0.932933 0.932933 0.932933 0.932933 0.932933 0.932933 0.932933 0.932933 0.932933 0.932933 0.932933 0.932933 0.932933 0.932933 0.932933 0.932933 0.932933 0.932933 0.932933 0.932933 0.932933 0.932933 0.932933 0.922323 0.923810 0.926793 0.927869 0.927829 0.927369 0.927050 0.927266 0.928982 0.931305 0.947928 0.950107 0.950679 0.951974 0.952217 0.954739 0.952986 0.952768 0.963334 0.962138 0.962841 0.955860 0.957454 0.956527 0.955590 0.956105 0.956362 0.954417 0.952256 0.950557 0.949912 0.949534 0.951304 0.951782 0.951740 0.953218 0.953177 0.952895 0.949515 0.948104 0.949578 0.951633 0.950786 0.956499 0.956324 0.964359 0.965140 0.963719 0.963626 0.963824 0.964022 0.953386 0.946774 0.941170 0.929334 0.919968 0.917886 0.920815 0.922815 0.921883 0.917368 0.916278 0.913675 0.908201 0.907333 0.907255 0.908903 0.905042 0.901499 0.885090 0.884387 0.886831 0.886276 0.884183 0.875869 0.871103 0.871844 0.874919 0.872412 0.868844 0.884925 0.879727 0.884695 0.887765 0.891034 0.894994 0.891400 0.890460 0.886715 0.883024 0.877603 0.878810 0.869394 0.872189 0.867733 0.858974 0.851828 0.854845 0.864240 0.872335 0.880618 0.879692 0.879688 0.878861 0.870598 0.871442 0.863844 0.864825 0.870139 0.876167 0.872086 0.869554 0.873754 0.871823 0.874236 0.876852 0.872719 0.870874 0.862056 0.862220 0.863839 0.880989 0.880278 0.868346 0.861080 0.852634 0.859596 0.862900 0.862119 0.863831 0.855000 0.856724 0.846612 0.834613 0.836488 0.841124 0.835705 0.836771 0.834517 0.837861 0.839975 0.838299 0.833984 0.832992 0.838543 0.817334 0.824296 0.827317 0.821796 0.825981 0.818630 0.812384 0.807658 0.807655 0.802921 0.814994 0.813225 0.781149 0.770765 0.778756 0.760132 0.751259 0.747520 0.748377 0.719744 0.701246 0.673275 0.667789 0.657238 0.660134 0.664196 0.654963 0.643196 0.629569 0.621665 0.636686 0.639269 0.605149 0.605079 0.599004 0.594406 0.589744 0.588140 0.584476 0.592752 0.598504 0.562583 0.558312 0.564809 0.540673 0.539001 0.536165 0.528662 0.500915 0.507865 0.503217 0.519789 0.550103 0.514053 0.507933 0.517984 0.531061 0.542675 0.543250 0.528657 0.508516 0.520265 0.494616 0.480193 0.496744 0.508313 0.499131 0.515672 0.503273 0.535299 0.528326 0.512816 0.536911 0.552883 0.552124 0.538839 0.551196 0.532212 0.535316 0.522804 0.472796 0.484442 0.468776 0.416130 0.413510 0.432655 0.419824 0.418925 0.391996 0.393339 0.369878 0.334109 0.344892 0.340031 0.305546 0.265118 0.266461 0.268507 0.236634 0.208966 0.229408 0.178716 0.170909 0.190397 0.200976 0.194461 0.191133 0.212286 0.212286 0.212286 0.212286 0.212286 0.212286 0.212286 0.212286 0.212286 0.212286 0.212286 0.212286 0.212286 0.212286 0.238156 0.238156 0.238156 0.238156 0.238156 0.238156 0.238156 0.238156 0.238156 0.238156 0.238156 0.238156
0.000000 0.000000 0.000000 0.000000 0.000000 0.000000 0.000000 0.000000 0.000000 0.000000 0.000000 0.000000 0.000000 0.000000 0.000000 0.000000 0.000000 0.000000 0.000000 0.000000 0.000000 0.000000 0.000000 0.000000 0.000000 0.000000 0.000000 0.000000 0.000000 0.000000 0.000000 0.000000 0.000000 0.000000 0.000000 0.000000 0.000000 0.000000 0.000000 0.000000 0.000000 0.000000 0.000000 0.000000 0.000000 0.000000 0.000000 0.000000 0.000000 0.000000 0.000000 0.000000 0.209657 0.209657 0.209657 0.209657 0.209657 0.209657 0.209657 0.209657 0.209657 0.209657 0.209657 0.209657 0.209657 0.209657 0.209657 0.209657 0.209657 0.209657 0.209657 0.209657 0.209657 0.209657 0.209657 0.209657 0.209657 0.209657 0.209657 0.209657 0.209657 0.209657 0.209657 0.209657 0.209657 0.244339 0.244339 0.244339 0.244339 0.244339 0.244339 0.244339 0.244339 0.244339 0.244339 0.244339 0.244339 0.244339 0.244339 0.244339 0.244339 0.244339 0.244339 0.244339 0.244339 0.244339 0.244339 0.244339 0.244339 0.244339 0.260378 0.260378 0.260378 0.260378 0.260378 0.260378 0.260378 0.260378 0.260378 0.260378 0.260378 0.260378 0.260378 0.260378 0.260378 0.260378 0.260378 0.260378 0.260378 0.260378 0.269680 0.269680 0.269680 0.269680 0.269680 0.269680 0.269680 0.269680 0.269680 0.269680 0.269680 0.269680 0.269680 0.269680 0.269680 0.269680 0.269680 0.269680 0.269680 0.269680 0.269680 0.269680 0.269680 0.269680 0.269680 0.269680 0.269680 0.269680 0.269680 0.269680 0.269680 0.269680 0.269680 0.280056 0.280056 0.280056 0.280056 0.280056 0.280056 0.280056 0.280056 0.280056 0.280056 0.280056 0.280056 0.280056 0.280056 0.280056 0.280056 0.280056 0.280056 0.280056 0.280056 0.280056 0.280056 0.280056 0.280056 0.280056 0.280056 0.280056 0.274721 0.274721 0.274721 0.274721 0.274721 0.274721 0.274721 0.274721 0.274721 0.274721 0.274721 0.274721 0.274721 0.285714 0.285714 0.285714 0.285714 0.285714 0.285714 0.285714 0.285714 0.285714 0.285714 0.285714 0.280056 0.280056 0.280056 0.280056 0.280056 0.280056 0.280056 0.280056 0.280056 0.280056 0.280056 0.274721 0.274721 0.274721 0.274721 0.274721 0.274721 0.274721 0.274721 0.274721 0.274721 0.274721 0.280056 0.280056 0.280056 0.280056 0.280056 0.280056 0.280056 0.280056 0.280056 0.280056 0.285714 0.285714 0.285714 0.285714 0.285714 0.285714 0.285714 0.285714 0.285714 0.269680 0.269680 0.269680 0.269680 0.269680 0.269680 0.269680 0.269680 0.269680 0.269680 0.274721 0.274721 0.274721 0.274721 0.274721 0.274721 0.274721 0.274721 0.274721 0.285714 0.285714 0.285714 0.285714 0.285714 0.285714 0.285714 0.285714 0.264906 0.264906 0.264906 0.264906 0.264906 0.264906 0.264906 0.264906 0.264906 0.274721 0.274721 0.274721 0.274721 0.274721 0.274721 0.274721 0.274721 0.269680 0.269680 0.269680 0.269680 0.269680 0.269680 0.269680 0.269680 0.269680 0.269680 0.269680 0.269680 0.269680 0.269680 0.269680 0.269680 0.280056 0.280056 0.280056 0.280056 0.280056 0.280056 0.280056 0.260378 0.260378 0.260378 0.260378 0.260378 0.260378 0.260378 0.260378 0.269680 0.269680 0.269680 0.269680 0.269680 0.269680 0.269680 0.264906 0.264906 0.264906 0.264906 0.264906 0.264906 0.264906 0.264906 0.264906 0.264906 0.264906 0.264906 0.264906 0.264906 0.260378 0.260378 0.260378 0.260378 0.260378 0.260378 0.260378 0.260378 0.260378 0.260378 0.260378 0.260378
