# Output from CTFFind version 4.1.9, run on 2019-11-03 19:02:26
# Input file: stack16_bm3d_averaged_1_2.25_0_1250_half.mrc ; Number of micrographs: 1
# Pixel size: 3.000 Angstroms ; acceleration voltage: 300.0 keV ; spherical aberration: 0.00 mm ; amplitude contrast: 0.07
# Box size: 512 pixels ; min. res.: 30.0 Angstroms ; max. res.: 5.0 Angstroms ; min. def.: 5000.0 um; max. def. 50000.0 um; num. frames averaged: 1
# 6 lines per micrograph: #1 - spatial frequency (1/Angstroms); #2 - 1D rotational average of spectrum (assuming no astigmatism); #3 - 1D rotational average of spectrum; #4 - CTF fit; #5 - cross-correlation between spectrum and CTF fit; #6 - 2sigma of expected cross correlation of noise
0.000000 0.000651 0.001302 0.001953 0.002604 0.003255 0.003906 0.004557 0.005208 0.005859 0.006510 0.007161 0.007812 0.008464 0.009115 0.009766 0.010417 0.011068 0.011719 0.012370 0.013021 0.013672 0.014323 0.014974 0.015625 0.016276 0.016927 0.017578 0.018229 0.018880 0.019531 0.020182 0.020833 0.021484 0.022135 0.022786 0.023438 0.024089 0.024740 0.025391 0.026042 0.026693 0.027344 0.027995 0.028646 0.029297 0.029948 0.030599 0.031250 0.031901 0.032552 0.033203 0.033854 0.034505 0.035156 0.035807 0.036458 0.037109 0.037760 0.038411 0.039062 0.039714 0.040365 0.041016 0.041667 0.042318 0.042969 0.043620 0.044271 0.044922 0.045573 0.046224 0.046875 0.047526 0.048177 0.048828 0.049479 0.050130 0.050781 0.051432 0.052083 0.052734 0.053385 0.054036 0.054688 0.055339 0.055990 0.056641 0.057292 0.057943 0.058594 0.059245 0.059896 0.060547 0.061198 0.061849 0.062500 0.063151 0.063802 0.064453 0.065104 0.065755 0.066406 0.067057 0.067708 0.068359 0.069010 0.069661 0.070312 0.070964 0.071615 0.072266 0.072917 0.073568 0.074219 0.074870 0.075521 0.076172 0.076823 0.077474 0.078125 0.078776 0.079427 0.080078 0.080729 0.081380 0.082031 0.082682 0.083333 0.083984 0.084635 0.085286 0.085938 0.086589 0.087240 0.087891 0.088542 0.089193 0.089844 0.090495 0.091146 0.091797 0.092448 0.093099 0.093750 0.094401 0.095052 0.095703 0.096354 0.097005 0.097656 0.098307 0.098958 0.099609 0.100260 0.100911 0.101562 0.102214 0.102865 0.103516 0.104167 0.104818 0.105469 0.106120 0.106771 0.107422 0.108073 0.108724 0.109375 0.110026 0.110677 0.111328 0.111979 0.112630 0.113281 0.113932 0.114583 0.115234 0.115885 0.116536 0.117188 0.117839 0.118490 0.119141 0.119792 0.120443 0.121094 0.121745 0.122396 0.123047 0.123698 0.124349 0.125000 0.125651 0.126302 0.126953 0.127604 0.128255 0.128906 0.129557 0.130208 0.130859 0.131510 0.132161 0.132812 0.133464 0.134115 0.134766 0.135417 0.136068 0.136719 0.137370 0.138021 0.138672 0.139323 0.139974 0.140625 0.141276 0.141927 0.142578 0.143229 0.143880 0.144531 0.145182 0.145833 0.146484 0.147135 0.147786 0.148438 0.149089 0.149740 0.150391 0.151042 0.151693 0.152344 0.152995 0.153646 0.154297 0.154948 0.155599 0.156250 0.156901 0.157552 0.158203 0.158854 0.159505 0.160156 0.160807 0.161458 0.162109 0.162760 0.163411 0.164062 0.164714 0.165365 0.166016 0.166667 0.167318 0.167969 0.168620 0.169271 0.169922 0.170573 0.171224 0.171875 0.172526 0.173177 0.173828 0.174479 0.175130 0.175781 0.176432 0.177083 0.177734 0.178385 0.179036 0.179688 0.180339 0.180990 0.181641 0.182292 0.182943 0.183594 0.184245 0.184896 0.185547 0.186198 0.186849 0.187500 0.188151 0.188802 0.189453 0.190104 0.190755 0.191406 0.192057 0.192708 0.193359 0.194010 0.194661 0.195312 0.195964 0.196615 0.197266 0.197917 0.198568 0.199219 0.199870 0.200521 0.201172 0.201823 0.202474 0.203125 0.203776 0.204427 0.205078 0.205729 0.206380 0.207031 0.207682 0.208333 0.208984 0.209635 0.210286 0.210938 0.211589 0.212240 0.212891 0.213542 0.214193 0.214844 0.215495 0.216146 0.216797 0.217448 0.218099 0.218750 0.219401 0.220052 0.220703 0.221354 0.222005 0.222656 0.223307 0.223958 0.224609 0.225260 0.225911 0.226562 0.227214 0.227865 0.228516 0.229167 0.229818 0.230469 0.231120 0.231771 0.232422 0.233073 0.233724 0.234375 0.235026 0.235677
       0.34803        0.34803        0.34803        0.34803        0.34803        0.34803        0.34803        0.34803        0.34803        0.34803        0.34803        0.34803        0.34803        0.34803        0.34803        0.34803        0.34803        0.34803        0.34803        0.34804        0.34803        0.34803        0.34803        0.34804        0.34803        0.34804        0.34803        0.34803        0.34803        0.34804        0.34803        0.34804        0.34803        0.34803        0.34803        0.34803        0.34803        0.34803        0.34804        0.34803        0.34803        0.34804        0.34804        0.34803        0.34803        0.34803        0.34803        0.34803        0.34803        0.34803        0.34803        0.48565        0.68636        0.45618       -0.11060       -0.40881       -0.56364       -0.65439       -0.73144       -0.74803       -0.86991       -0.91459       -0.74855       -0.92282       -0.86989       -1.02096       -1.08988       -0.97746       -0.94558       -0.86960       -0.82614       -0.73043       -0.62672       -0.49143       -0.41517       -0.21892       -0.10642       -0.01797        0.19635        0.24146        0.31246        0.38494        0.43077        0.50919        0.58195        0.60820        0.58481        0.50319        0.55681        0.49038        0.40460        0.33749        0.20443        0.17849        0.10059       -0.03868       -0.10620       -0.07248        0.02829       -0.01053        0.03521        0.03347        0.19816        0.21905        0.39542        0.46171        0.57259        0.70809        0.77557        0.74320        0.69633        0.67941        0.58736        0.52395        0.38817        0.29207        0.20128        0.17091        0.08290        0.04265        0.02362        0.06211        0.09337        0.28841        0.40732        0.50682        0.58450        0.63428        0.70446        0.65819        0.66196        0.66762        0.60106        0.49623        0.30169        0.25947        0.21827        0.12750        0.04833        0.10360        0.11360        0.26167        0.36378        0.42481        0.51217        0.56025        0.64793        0.59698        0.55085        0.51758        0.37075        0.20549        0.22783        0.17240        0.14742        0.13947        0.21989        0.26319        0.35985        0.44385        0.43266        0.53832        0.51980        0.47531        0.46962        0.38396        0.33053        0.25903        0.20830        0.22839        0.21287        0.21990        0.31189        0.45043        0.47455        0.48575        0.55310        0.50877        0.44736        0.40451        0.30914        0.24805        0.24434        0.24083        0.26472        0.29198        0.33704        0.43820        0.50479        0.50636        0.46377        0.39513        0.37132        0.35655        0.23732        0.23295        0.26301        0.30062        0.36379        0.36640        0.40696        0.44032        0.45957        0.38527        0.35760        0.32137        0.33174        0.28372        0.26961        0.30220        0.35157        0.40934        0.42661        0.40180        0.38720        0.40965        0.36197        0.30399        0.30582        0.30764        0.31259        0.37100        0.38487        0.41499        0.34916        0.36825        0.39141        0.35754        0.31563        0.28377        0.29162        0.33625        0.34646        0.34108        0.35385        0.39461        0.35161        0.36449        0.30361        0.30650        0.27659        0.28273        0.30542        0.33675        0.39263        0.36693        0.35844        0.31685        0.28436        0.27267        0.30720        0.29291        0.33175        0.36862        0.39796        0.34536        0.32992        0.30591        0.30765        0.30429        0.28164        0.32754        0.34629        0.33454        0.33138        0.30737        0.34849        0.33298        0.30545        0.32569        0.33068        0.35158        0.35783        0.32401        0.33653        0.30738        0.30827        0.30404        0.32762        0.40486        0.33904        0.36414        0.31270        0.32508        0.30658        0.30790        0.29224        0.31401        0.30757        0.34113        0.35720        0.30186        0.33236        0.32040        0.29537        0.31267        0.31641        0.32396        0.36514        0.36602        0.32684        0.30849        0.29291        0.25375        0.32227        0.34450        0.30769        0.31591        0.28317        0.29420        0.33113        0.33024        0.30937        0.34848        0.33836        0.31773        0.24791        0.29751        0.29903        0.31090        0.33594        0.31500        0.36979        0.37257        0.27632        0.29340        0.28898        0.28365        0.31174        0.27837        0.25599        0.25708        0.28758        0.29292        0.28123        0.28516        0.27562        0.33229        0.32042        0.29944        0.24533        0.25183        0.24897        0.23505        0.23775        0.31779        0.36059        0.25336        0.25275        0.30845        0.23149        0.24284        0.32784        0.28789        0.16243        0.18531        0.24815        0.31130        0.28875        0.12824       -0.02151       -0.49948       -0.71159
3.040609 3.002658 2.964951 2.927489 2.890272 2.853300 2.816573 2.780091 2.743854 2.707861 2.672114 2.636611 2.601354 2.566341 2.531573 2.497050 2.462772 2.428739 2.394951 2.361408 2.328110 2.295056 2.262248 2.229684 2.197365 2.165292 2.133463 2.101879 2.070540 2.039446 2.008597 1.977992 1.947633 1.917519 1.887649 1.858025 1.828645 1.799510 1.770620 1.741975 1.713575 1.685420 1.657510 1.629845 1.602424 1.575249 1.548318 1.521633 1.495192 1.468996 1.443045 1.501967 1.662867 1.597812 0.949688 0.667181 0.467930 0.415120 0.319305 0.258550 0.186641 0.000875 0.192764 0.067254 -0.028543 -0.071729 -0.212002 -0.160958 -0.089596 -0.095193 -0.086139 0.008713 0.034235 0.219000 0.145093 0.352107 0.436406 0.471008 0.690512 0.686921 0.696971 0.824606 0.804267 0.823920 0.920311 0.885038 0.920517 0.735777 0.833788 0.828744 0.625440 0.600148 0.448727 0.432228 0.359048 0.213427 0.119188 0.097233 0.215966 0.133232 0.208567 0.111490 0.286342 0.275399 0.445880 0.405161 0.584060 0.639315 0.749358 0.717783 0.649933 0.638038 0.514153 0.491476 0.329259 0.297409 0.122335 0.155956 0.008598 -0.004532 -0.042636 -0.043589 -0.006077 0.043563 0.267886 0.312300 0.385721 0.375699 0.464150 0.501874 0.473457 0.501089 0.376100 0.396805 0.155094 0.085183 0.082374 -0.014771 -0.131847 -0.041753 -0.115611 0.012802 0.137637 0.170114 0.251667 0.276247 0.369567 0.452284 0.347138 0.393954 0.289505 0.122856 0.055658 0.065394 0.038153 0.023481 0.019275 0.115341 0.124906 0.273965 0.231229 0.293001 0.352941 0.267014 0.256317 0.227487 0.132438 0.080928 0.024703 0.034891 0.025027 -0.003437 0.031141 0.174572 0.214009 0.247721 0.286554 0.232833 0.237480 0.143435 0.117138 -0.002488 -0.001814 -0.010114 0.011152 0.015583 0.036131 0.104199 0.188171 0.212029 0.210594 0.140952 0.107766 0.072917 0.050918 -0.075968 -0.008984 0.019625 0.048733 0.062668 0.081579 0.155276 0.112429 0.164048 0.059360 0.044481 0.045324 0.036220 0.003545 -0.001625 0.020630 0.077152 0.119248 0.131781 0.059687 0.109448 0.106037 0.006926 0.017309 0.012004 0.007046 0.039817 0.072166 0.095597 0.080515 0.053831 0.080279 0.073691 0.044622 0.006492 -0.014155 0.002557 0.060153 0.033422 0.044952 0.054458 0.088117 0.080694 0.039329 0.018250 0.007370 -0.015787 -0.002981 0.014764 0.057045 0.114066 0.061453 0.064886 0.014075 -0.015542 -0.001335 0.022222 0.018958 0.040406 0.096247 0.077947 0.014805 0.049142 -0.006829 0.036872 -0.007769 -0.011094 0.054474 0.050223 0.024168 0.029121 0.001631 0.053972 0.014863 0.004628 0.025846 0.031342 0.053682 0.034659 0.034596 0.018742 -0.012172 0.009058 0.001911 0.034883 0.089031 0.040475 0.014506 -0.002168 0.020257 -0.018360 0.008095 -0.013001 0.015079 -0.024891 0.058194 0.033156 0.012278 0.049787 -0.014539 0.002029 0.017211 -0.002353 0.037571 0.062416 0.060718 0.017574 0.013034 -0.018199 -0.014777 0.011115 0.046227 0.007456 0.043306 -0.020165 -0.014389 0.038533 0.043597 0.016565 0.042592 0.045170 0.040735 -0.059296 0.015210 0.029566 0.012089 0.035073 0.049692 0.086023 0.075979 0.000860 0.021879 -0.000715 0.006427 0.025339 -0.028660 -0.019679 -0.030849 -0.017660 0.006022 -0.025634 0.008518 -0.085277 0.004080 -0.012326 -0.039299 -0.102430 -0.049822 -0.099051 -0.064805 -0.082891 0.015126 0.062051 -0.089778 -0.047310 0.071097 -0.006328 -0.062789 0.071516 0.078452 -0.005873 -0.004420 0.072367 0.277670 0.256586 0.062449 -0.014077 -0.625600
0.072396 0.073046 0.074996 0.078244 0.082791 0.088635 0.095772 0.104201 0.113918 0.124917 0.137191 0.150734 0.165533 0.181577 0.198850 0.217334 0.237007 0.257843 0.279811 0.302875 0.326996 0.352125 0.378210 0.405190 0.432997 0.461554 0.490777 0.520570 0.550831 0.581446 0.612289 0.643225 0.674109 0.704782 0.735075 0.764807 0.793786 0.821810 0.848664 0.874125 0.897961 0.919928 0.939780 0.957260 0.972111 0.984071 0.992877 0.998270 0.999995 0.997803 0.991457 0.980731 0.965420 0.945336 0.920320 0.890237 0.854990 0.814516 0.768794 0.717850 0.661759 0.600648 0.534704 0.464173 0.389363 0.310649 0.228473 0.143342 0.055835 0.033407 0.123676 0.214205 0.304168 0.392691 0.478854 0.561706 0.640268 0.713549 0.780558 0.840317 0.891878 0.934339 0.966857 0.988673 0.999125 0.997668 0.983891 0.957533 0.918505 0.866894 0.802988 0.727274 0.640453 0.543441 0.437369 0.323577 0.203607 0.079187 0.047785 0.175270 0.301113 0.423081 0.538899 0.646296 0.743048 0.827033 0.896280 0.949020 0.983740 0.999233 0.994644 0.969513 0.923809 0.857962 0.772878 0.669944 0.551032 0.418474 0.275033 0.123863 0.031559 0.187499 0.340048 0.485228 0.619090 0.737828 0.837894 0.916116 0.969811 0.996892 0.995960 0.966390 0.908388 0.823029 0.712272 0.578945 0.426694 0.259912 0.083628 0.096633 0.275007 0.445483 0.602103 0.739182 0.851522 0.934627 0.984908 0.999856 0.978193 0.919981 0.826682 0.701170 0.547676 0.371689 0.179786 0.020592 0.221409 0.414349 0.591163 0.744026 0.865905 0.950902 0.994579 0.994215 0.949012 0.860216 0.731142 0.567109 0.375268 0.164327 0.055807 0.274482 0.480803 0.664177 0.814878 0.924586 0.986888 0.997694 0.955555 0.861845 0.720797 0.539382 0.327023 0.095151 0.143367 0.374933 0.585981 0.763786 0.897263 0.977698 0.999374 0.960035 0.861156 0.707992 0.509376 0.277283 0.026163 0.227915 0.468277 0.678742 0.844730 0.954320 0.999168 0.975212 0.883110 0.728359 0.521060 0.275353 0.008518 0.260195 0.510932 0.724711 0.884895 0.978534 0.997503 0.939288 0.807372 0.611153 0.365384 0.089152 0.195539 0.465491 0.698196 0.873750 0.976625 0.997117 0.932382 0.786884 0.572247 0.306423 0.012322 0.284124 0.556205 0.778851 0.931005 0.997688 0.971595 0.854009 0.654940 0.392422 0.090992 0.220501 0.511628 0.753345 0.920942 0.996669 0.971736 0.847473 0.635484 0.356729 0.039573 0.282978 0.576696 0.809775 0.956325 0.999386 0.933029 0.763322 0.507980 0.194677 0.141800 0.463371 0.732925 0.918683 0.998039 0.960476 0.809134 0.560794 0.244209 0.103050 0.438995 0.722233 0.917153 0.998501 0.954836 0.790329 0.524629 0.190736 0.168945 0.507888 0.781464 0.952879 0.998279 0.910269 0.699317 0.392777 0.031547 0.335230 0.656788 0.887807 0.994911 0.961692 0.791459 0.507233 0.148893 0.232239 0.580634 0.844667 0.984356 0.977628 0.824054 0.545415 0.182896 0.208774 0.569484 0.842946 0.985602 0.973764 0.807826 0.512747 0.134597 0.266418 0.625411 0.883342 0.996860 0.945837 0.737234 0.404534 0.002666 0.400847 0.737157 0.947895 0.995512 0.870240 0.592425 0.209580 0.211478 0.596085 0.875011 0.997022 0.938601 0.708806 0.348303 0.077520 0.490141 0.812373 0.982877 0.968104 0.769262 0.422777 0.005966 0.434736 0.780102 0.973762 0.976309 0.785617 0.438023 0.001799 0.435960 0.786614 0.978036 0.969691 0.761646 0.395333 0.054267 0.493685 0.830301 0.992008 0.942947 0.691911 0.291304 0.173371 0.601522
1.000000 1.000000 1.000000 1.000000 1.000000 1.000000 1.000000 1.000000 1.000000 1.000000 1.000000 1.000000 1.000000 1.000000 1.000000 1.000000 1.000000 1.000000 1.000000 1.000000 1.000000 1.000000 1.000000 1.000000 1.000000 1.000000 1.000000 1.000000 1.000000 1.000000 1.000000 1.000000 1.000000 1.000000 1.000000 1.000000 1.000000 1.000000 1.000000 1.000000 1.000000 1.000000 1.000000 1.000000 1.000000 1.000000 1.000000 1.000000 1.000000 1.000000 1.000000 1.000000 0.938414 0.938414 0.938414 0.938414 0.938414 0.938414 0.938414 0.938414 0.938414 0.938414 0.938414 0.938414 0.938414 0.938414 0.938414 0.938414 0.938414 0.938414 0.938414 0.938414 0.938414 0.938414 0.938414 0.938414 0.938414 0.938414 0.938414 0.938414 0.938414 0.938414 0.938414 0.938414 0.938414 0.931927 0.933241 0.935852 0.936791 0.936769 0.936391 0.936144 0.936370 0.937518 0.939272 0.955773 0.957727 0.958180 0.959377 0.958158 0.961150 0.959698 0.959900 0.970595 0.969605 0.970160 0.963329 0.964677 0.963866 0.962999 0.963818 0.964002 0.962309 0.960408 0.958825 0.958285 0.957961 0.959627 0.960024 0.959730 0.960215 0.960069 0.959821 0.956578 0.955041 0.956411 0.958197 0.957478 0.963335 0.961781 0.963708 0.963616 0.962299 0.962180 0.962395 0.962599 0.958403 0.954832 0.951242 0.939798 0.929973 0.924115 0.926895 0.930041 0.928791 0.923724 0.922723 0.920554 0.916349 0.915724 0.914840 0.915973 0.909746 0.906249 0.892848 0.892419 0.895992 0.897007 0.894573 0.885880 0.881092 0.881905 0.884849 0.882998 0.880326 0.897043 0.894005 0.897184 0.900692 0.903252 0.907120 0.896605 0.889737 0.885479 0.882215 0.878625 0.880354 0.878406 0.881083 0.873328 0.863285 0.857481 0.858528 0.865320 0.872761 0.877621 0.876174 0.876594 0.875913 0.859161 0.860695 0.844771 0.845633 0.850843 0.856641 0.855953 0.853796 0.854790 0.853197 0.854147 0.855425 0.850275 0.844262 0.836910 0.834552 0.837246 0.851734 0.852024 0.833336 0.826475 0.822387 0.825480 0.831053 0.828382 0.829499 0.824487 0.825627 0.819566 0.810002 0.812274 0.818373 0.810242 0.816584 0.817094 0.822441 0.823099 0.822161 0.818961 0.818297 0.822867 0.794728 0.805830 0.808279 0.793367 0.798763 0.790214 0.784267 0.784798 0.781738 0.755913 0.763442 0.726610 0.698500 0.711067 0.715816 0.702279 0.688265 0.688504 0.690104 0.667659 0.654594 0.638071 0.635990 0.644735 0.648018 0.654575 0.650124 0.643883 0.632085 0.591626 0.609176 0.607686 0.569055 0.577588 0.569690 0.564701 0.560326 0.533979 0.536532 0.540546 0.545759 0.520991 0.512108 0.524801 0.495678 0.496057 0.495921 0.494555 0.493045 0.498005 0.478989 0.492464 0.530267 0.479549 0.458129 0.475747 0.490904 0.502428 0.508881 0.498236 0.449375 0.507227 0.467167 0.475703 0.490843 0.479882 0.453645 0.461733 0.452949 0.483507 0.466698 0.453774 0.477759 0.448122 0.440262 0.442413 0.434812 0.427075 0.408740 0.400204 0.378229 0.389725 0.372692 0.343610 0.367194 0.379688 0.369233 0.361246 0.332698 0.333801 0.296596 0.270060 0.250211 0.247642 0.208639 0.170878 0.176757 0.171768 0.147344 0.116095 0.108153 0.070962 0.064870 0.090346 0.094882 0.092983 0.092027 0.114079 0.114079 0.114079 0.114079 0.114079 0.114079 0.114079 0.114079 0.114079 0.114079 0.114079 0.114079 0.114079 0.114079 0.138201 0.138201 0.138201 0.138201 0.138201 0.138201 0.138201 0.138201 0.138201 0.138201 0.138201 0.138201
0.000000 0.000000 0.000000 0.000000 0.000000 0.000000 0.000000 0.000000 0.000000 0.000000 0.000000 0.000000 0.000000 0.000000 0.000000 0.000000 0.000000 0.000000 0.000000 0.000000 0.000000 0.000000 0.000000 0.000000 0.000000 7.000000 4.000000 0.000000 0.000000 0.000000 0.000000 0.000000 0.000000 0.000000 0.000000 0.000000 0.000000 0.000000 0.000000 0.000000 0.000000 0.000000 0.000000 0.000000 0.000000 0.000000 0.000000 0.000000 0.000000 0.000000 0.000000 0.000000 0.209657 0.209657 0.209657 0.209657 0.209657 0.209657 0.209657 0.209657 0.209657 0.209657 0.209657 0.209657 0.209657 0.209657 0.209657 0.209657 0.209657 0.209657 0.209657 0.209657 0.209657 0.209657 0.209657 0.209657 0.209657 0.209657 0.209657 0.209657 0.209657 0.209657 0.209657 0.209657 0.209657 0.244339 0.244339 0.244339 0.244339 0.244339 0.244339 0.244339 0.244339 0.244339 0.244339 0.244339 0.244339 0.244339 0.244339 0.244339 0.244339 0.244339 0.244339 0.244339 0.244339 0.244339 0.244339 0.244339 0.244339 0.244339 0.260378 0.260378 0.260378 0.260378 0.260378 0.260378 0.260378 0.260378 0.260378 0.260378 0.260378 0.260378 0.260378 0.260378 0.260378 0.260378 0.260378 0.260378 0.260378 0.260378 0.269680 0.269680 0.269680 0.269680 0.269680 0.269680 0.269680 0.269680 0.269680 0.269680 0.269680 0.269680 0.269680 0.269680 0.269680 0.269680 0.269680 0.269680 0.269680 0.269680 0.269680 0.269680 0.269680 0.269680 0.269680 0.269680 0.269680 0.269680 0.269680 0.269680 0.269680 0.269680 0.269680 0.280056 0.280056 0.280056 0.280056 0.280056 0.280056 0.280056 0.280056 0.280056 0.280056 0.280056 0.280056 0.280056 0.280056 0.280056 0.280056 0.280056 0.280056 0.280056 0.280056 0.280056 0.280056 0.280056 0.280056 0.280056 0.280056 0.280056 0.274721 0.274721 0.274721 0.274721 0.274721 0.274721 0.274721 0.274721 0.274721 0.274721 0.274721 0.274721 0.274721 0.285714 0.285714 0.285714 0.285714 0.285714 0.285714 0.285714 0.285714 0.285714 0.285714 0.285714 0.280056 0.280056 0.280056 0.280056 0.280056 0.280056 0.280056 0.280056 0.280056 0.280056 0.280056 0.274721 0.274721 0.274721 0.274721 0.274721 0.274721 0.274721 0.274721 0.274721 0.274721 0.274721 0.280056 0.280056 0.280056 0.280056 0.280056 0.280056 0.280056 0.280056 0.280056 0.280056 0.285714 0.285714 0.285714 0.285714 0.285714 0.285714 0.285714 0.285714 0.285714 0.269680 0.269680 0.269680 0.269680 0.269680 0.269680 0.269680 0.269680 0.269680 0.269680 0.274721 0.274721 0.274721 0.274721 0.274721 0.274721 0.274721 0.274721 0.274721 0.285714 0.285714 0.285714 0.285714 0.285714 0.285714 0.285714 0.285714 0.264906 0.264906 0.264906 0.264906 0.264906 0.264906 0.264906 0.264906 0.264906 0.274721 0.274721 0.274721 0.274721 0.274721 0.274721 0.274721 0.274721 0.269680 0.269680 0.269680 0.269680 0.269680 0.269680 0.269680 0.269680 0.269680 0.269680 0.269680 0.269680 0.269680 0.269680 0.269680 0.269680 0.280056 0.280056 0.280056 0.280056 0.280056 0.280056 0.280056 0.260378 0.260378 0.260378 0.260378 0.260378 0.260378 0.260378 0.260378 0.269680 0.269680 0.269680 0.269680 0.269680 0.269680 0.269680 0.264906 0.264906 0.264906 0.264906 0.264906 0.264906 0.264906 0.264906 0.264906 0.264906 0.264906 0.264906 0.264906 0.264906 0.260378 0.260378 0.260378 0.260378 0.260378 0.260378 0.260378 0.260378 0.260378 0.260378 0.260378 0.260378
