# Output from CTFFind version 4.1.9, run on 2019-11-03 19:35:19
# Input file: stack11_bm3d_averaged_1_4.25_0_1500_half.mrc ; Number of micrographs: 1
# Pixel size: 3.000 Angstroms ; acceleration voltage: 300.0 keV ; spherical aberration: 0.00 mm ; amplitude contrast: 0.07
# Box size: 512 pixels ; min. res.: 30.0 Angstroms ; max. res.: 5.0 Angstroms ; min. def.: 5000.0 um; max. def. 50000.0 um; num. frames averaged: 1
# 6 lines per micrograph: #1 - spatial frequency (1/Angstroms); #2 - 1D rotational average of spectrum (assuming no astigmatism); #3 - 1D rotational average of spectrum; #4 - CTF fit; #5 - cross-correlation between spectrum and CTF fit; #6 - 2sigma of expected cross correlation of noise
0.000000 0.000651 0.001302 0.001953 0.002604 0.003255 0.003906 0.004557 0.005208 0.005859 0.006510 0.007161 0.007812 0.008464 0.009115 0.009766 0.010417 0.011068 0.011719 0.012370 0.013021 0.013672 0.014323 0.014974 0.015625 0.016276 0.016927 0.017578 0.018229 0.018880 0.019531 0.020182 0.020833 0.021484 0.022135 0.022786 0.023438 0.024089 0.024740 0.025391 0.026042 0.026693 0.027344 0.027995 0.028646 0.029297 0.029948 0.030599 0.031250 0.031901 0.032552 0.033203 0.033854 0.034505 0.035156 0.035807 0.036458 0.037109 0.037760 0.038411 0.039062 0.039714 0.040365 0.041016 0.041667 0.042318 0.042969 0.043620 0.044271 0.044922 0.045573 0.046224 0.046875 0.047526 0.048177 0.048828 0.049479 0.050130 0.050781 0.051432 0.052083 0.052734 0.053385 0.054036 0.054688 0.055339 0.055990 0.056641 0.057292 0.057943 0.058594 0.059245 0.059896 0.060547 0.061198 0.061849 0.062500 0.063151 0.063802 0.064453 0.065104 0.065755 0.066406 0.067057 0.067708 0.068359 0.069010 0.069661 0.070312 0.070964 0.071615 0.072266 0.072917 0.073568 0.074219 0.074870 0.075521 0.076172 0.076823 0.077474 0.078125 0.078776 0.079427 0.080078 0.080729 0.081380 0.082031 0.082682 0.083333 0.083984 0.084635 0.085286 0.085938 0.086589 0.087240 0.087891 0.088542 0.089193 0.089844 0.090495 0.091146 0.091797 0.092448 0.093099 0.093750 0.094401 0.095052 0.095703 0.096354 0.097005 0.097656 0.098307 0.098958 0.099609 0.100260 0.100911 0.101562 0.102214 0.102865 0.103516 0.104167 0.104818 0.105469 0.106120 0.106771 0.107422 0.108073 0.108724 0.109375 0.110026 0.110677 0.111328 0.111979 0.112630 0.113281 0.113932 0.114583 0.115234 0.115885 0.116536 0.117188 0.117839 0.118490 0.119141 0.119792 0.120443 0.121094 0.121745 0.122396 0.123047 0.123698 0.124349 0.125000 0.125651 0.126302 0.126953 0.127604 0.128255 0.128906 0.129557 0.130208 0.130859 0.131510 0.132161 0.132812 0.133464 0.134115 0.134766 0.135417 0.136068 0.136719 0.137370 0.138021 0.138672 0.139323 0.139974 0.140625 0.141276 0.141927 0.142578 0.143229 0.143880 0.144531 0.145182 0.145833 0.146484 0.147135 0.147786 0.148438 0.149089 0.149740 0.150391 0.151042 0.151693 0.152344 0.152995 0.153646 0.154297 0.154948 0.155599 0.156250 0.156901 0.157552 0.158203 0.158854 0.159505 0.160156 0.160807 0.161458 0.162109 0.162760 0.163411 0.164062 0.164714 0.165365 0.166016 0.166667 0.167318 0.167969 0.168620 0.169271 0.169922 0.170573 0.171224 0.171875 0.172526 0.173177 0.173828 0.174479 0.175130 0.175781 0.176432 0.177083 0.177734 0.178385 0.179036 0.179688 0.180339 0.180990 0.181641 0.182292 0.182943 0.183594 0.184245 0.184896 0.185547 0.186198 0.186849 0.187500 0.188151 0.188802 0.189453 0.190104 0.190755 0.191406 0.192057 0.192708 0.193359 0.194010 0.194661 0.195312 0.195964 0.196615 0.197266 0.197917 0.198568 0.199219 0.199870 0.200521 0.201172 0.201823 0.202474 0.203125 0.203776 0.204427 0.205078 0.205729 0.206380 0.207031 0.207682 0.208333 0.208984 0.209635 0.210286 0.210938 0.211589 0.212240 0.212891 0.213542 0.214193 0.214844 0.215495 0.216146 0.216797 0.217448 0.218099 0.218750 0.219401 0.220052 0.220703 0.221354 0.222005 0.222656 0.223307 0.223958 0.224609 0.225260 0.225911 0.226562 0.227214 0.227865 0.228516 0.229167 0.229818 0.230469 0.231120 0.231771 0.232422 0.233073 0.233724 0.234375 0.235026 0.235677
       0.33396        0.33396        0.33396        0.33396        0.33396        0.33396        0.33397        0.33396        0.33396        0.33396        0.33396        0.33397        0.33397        0.33397        0.33396        0.33396        0.33396        0.33396        0.33396        0.33397        0.33396        0.33397        0.33396        0.33397        0.33396        0.33397        0.33396        0.33396        0.33396        0.33397        0.33396        0.33397        0.33396        0.33397        0.33396        0.33396        0.33397        0.33396        0.33397        0.33396        0.33396        0.33396        0.33396        0.33396        0.33397        0.33396        0.33396        0.33397        0.33396        0.33396        0.33396        0.69175        0.86039        0.53218        0.10257       -0.03664       -0.40142       -0.18562       -0.28925       -0.11307       -0.05891       -0.11075       -0.05517       -0.17965       -0.21356       -0.22796       -0.31477       -0.32662       -0.45664       -0.36770       -0.43724       -0.43091       -0.40449       -0.43039       -0.47623       -0.52457       -0.56562       -0.57424       -0.54627       -0.37506       -0.34832       -0.30827       -0.28674       -0.19321       -0.18437        0.04739        0.12323        0.15420        0.25095        0.37717        0.45313        0.51732        0.58365        0.58158        0.57302        0.69386        0.80566        0.71275        0.73792        0.63245        0.56719        0.48321        0.42417        0.50826        0.39099        0.24693        0.10292        0.08933        0.06675       -0.03234        0.01429        0.02996       -0.01645        0.01491        0.00764        0.23515        0.26427        0.29178        0.42675        0.44947        0.40860        0.57707        0.62602        0.65606        0.73488        0.68082        0.65017        0.67097        0.56531        0.47028        0.41760        0.29775        0.24238        0.16984        0.12734        0.05267        0.04389        0.04586        0.08666        0.14348        0.23008        0.28060        0.40431        0.45499        0.48564        0.58350        0.61342        0.63732        0.62117        0.56096        0.45448        0.46618        0.37253        0.25546        0.19886        0.15577        0.15628        0.14269        0.13253        0.15899        0.29341        0.30431        0.38462        0.42068        0.42996        0.49624        0.55307        0.55259        0.48999        0.45164        0.40244        0.35298        0.32337        0.28831        0.23532        0.23108        0.21899        0.23638        0.21380        0.29987        0.35800        0.38712        0.43863        0.45443        0.47258        0.42171        0.39921        0.40473        0.36045        0.30573        0.26856        0.25285        0.25213        0.22068        0.26855        0.27006        0.34014        0.37338        0.40755        0.47512        0.41674        0.42904        0.43138        0.40411        0.34328        0.31970        0.28920        0.30395        0.26554        0.30335        0.29850        0.31821        0.32659        0.34777        0.31879        0.39986        0.41640        0.37927        0.34451        0.37118        0.30580        0.28769        0.28783        0.31514        0.29483        0.30623        0.32290        0.33631        0.34024        0.36712        0.37002        0.39190        0.37373        0.32485        0.33210        0.29102        0.27411        0.31890        0.31161        0.32185        0.32863        0.32599        0.36559        0.32710        0.32614        0.32009        0.32856        0.29541        0.30481        0.26990        0.29711        0.31454        0.29681        0.31789        0.33944        0.34444        0.28038        0.31610        0.28540        0.30082        0.27767        0.23654        0.29071        0.29350        0.34055        0.33029        0.32920        0.32122        0.33992        0.29982        0.33804        0.32090        0.29739        0.27417        0.32069        0.30675        0.35191        0.32494        0.33162        0.33859        0.29241        0.27379        0.30708        0.24450        0.22187        0.32519        0.31690        0.33525        0.32749        0.34112        0.31419        0.34231        0.33926        0.26303        0.24316        0.30470        0.30023        0.30512        0.32065        0.33757        0.33616        0.30253        0.28863        0.33572        0.31553        0.29109        0.27325        0.31963        0.35016        0.39291        0.32403        0.29203        0.27466        0.30771        0.26908        0.29093        0.26781        0.24452        0.30911        0.33190        0.34171        0.34107        0.30454        0.27688        0.28731        0.25691        0.25591        0.24529        0.31717        0.28470        0.22436        0.32272        0.31767        0.26121        0.27921        0.20503        0.21332        0.25313        0.18116        0.24755        0.29957        0.22923        0.21112        0.30752        0.33127        0.32687        0.32779        0.25282        0.21557        0.18049        0.21828        0.19040        0.18722        0.20479        0.24956        0.27620        0.25070        0.19891        0.11105        0.08772        0.00106       -0.10031       -0.61652
2.705716 2.677110 2.648660 2.620366 2.592229 2.564247 2.536422 2.508752 2.481239 2.453882 2.426681 2.399637 2.372748 2.346015 2.319439 2.293018 2.266754 2.240646 2.214694 2.188898 2.163258 2.137775 2.112447 2.087276 2.062260 2.037401 2.012698 1.988151 1.963760 1.939526 1.915447 1.891524 1.867758 1.844148 1.820694 1.797396 1.774254 1.751268 1.728438 1.705764 1.683247 1.660886 1.638680 1.616631 1.594738 1.573001 1.551420 1.529996 1.508727 1.487615 1.466658 1.682076 2.099005 1.662939 1.165694 1.031017 0.438728 0.838538 0.561775 0.842646 0.799496 0.810752 0.756566 0.736117 0.587409 0.545674 0.495764 0.430076 0.239320 0.372681 0.203978 0.324866 0.226526 0.198995 0.169729 0.035791 0.022670 0.013895 -0.065893 0.126052 0.223863 0.187079 0.168865 0.332611 0.185600 0.507765 0.612339 0.607667 0.625757 0.870587 0.825332 0.935126 0.909990 1.008302 0.972043 1.069421 1.155307 1.043756 1.141347 0.914367 0.923754 0.787475 0.649516 0.791508 0.700457 0.476759 0.325232 0.249892 0.253908 0.147948 0.117886 0.154049 0.100576 0.132232 0.068232 0.257186 0.363006 0.344575 0.470655 0.547517 0.423584 0.578487 0.717346 0.683943 0.742096 0.705208 0.720976 0.664057 0.600971 0.516710 0.384420 0.277836 0.221077 0.080936 0.120629 -0.079177 -0.043415 -0.061827 -0.070234 -0.020990 0.141927 0.067648 0.245295 0.303707 0.341563 0.404720 0.505960 0.486906 0.485417 0.495856 0.310669 0.294567 0.282858 0.087066 0.043725 -0.058779 -0.010607 -0.056017 -0.087366 -0.089469 0.034261 0.075145 0.120232 0.203096 0.228375 0.253573 0.298735 0.430505 0.391092 0.269606 0.240829 0.216714 0.155360 0.137599 0.108352 0.002470 0.016994 0.056244 -0.001963 0.065181 0.146293 0.147414 0.238454 0.246785 0.287755 0.186252 0.215089 0.145513 0.179660 0.112618 0.049470 -0.005415 0.007937 -0.004261 -0.045765 0.054490 0.021890 0.128628 0.148965 0.184251 0.203638 0.167992 0.155841 0.178007 0.130934 0.062129 0.006929 0.054488 0.018237 -0.013313 0.031144 0.042491 0.058804 0.052240 0.061957 0.084518 0.129592 0.156899 0.058889 0.060595 0.057607 0.013501 -0.022846 0.014637 0.019432 0.005867 0.011810 0.038107 0.056705 0.055257 0.101549 0.058115 0.135508 0.060427 0.024287 0.039029 -0.032537 0.000103 0.044136 0.001225 0.040744 0.050075 0.020543 0.106294 0.038378 0.010437 0.050226 0.006794 0.016335 0.006769 -0.020338 0.035417 0.006194 0.007100 0.058008 0.058574 0.047904 0.031008 0.034485 0.037523 0.027412 -0.011562 -0.022935 0.033294 0.055043 0.087358 0.085074 0.067362 0.080188 0.109466 0.057518 0.115529 0.094062 0.033161 0.041279 0.097591 0.078399 0.112786 0.106735 0.061318 0.139492 0.065314 0.024276 0.099245 -0.023032 0.003990 0.111643 0.067913 0.135279 0.091374 0.098417 0.048780 0.110949 0.090580 -0.005311 -0.028273 0.062201 0.072194 0.042888 0.051954 0.100093 0.088092 0.010848 0.046587 0.072683 0.059109 0.041357 -0.017995 0.078538 0.094199 0.134574 0.016087 0.007922 -0.018629 0.032479 -0.030222 0.010229 -0.034289 -0.040913 0.012936 0.060306 0.008885 0.030618 -0.019308 -0.035088 -0.047350 -0.030618 -0.073212 -0.068623 0.014184 0.023723 -0.093127 0.033098 -0.013728 -0.064434 0.010235 -0.124880 -0.070070 -0.068100 -0.164608 -0.025882 0.032568 -0.032147 -0.136944 0.052491 0.115544 -0.018801 0.105875 -0.021787 0.233876 0.149808 0.231290 0.235916 0.207386 0.215477 0.283261 0.266404 0.284210 0.181644 0.194038 0.127084 -0.002911 -0.662758
0.072396 0.072899 0.074406 0.076919 0.080435 0.084954 0.090476 0.096997 0.104517 0.113033 0.122540 0.133035 0.144512 0.156965 0.170387 0.184767 0.200096 0.216359 0.233543 0.251630 0.270600 0.290429 0.311093 0.332561 0.354801 0.377774 0.401441 0.425755 0.450665 0.476115 0.502045 0.528386 0.555067 0.582009 0.609126 0.636326 0.663511 0.690577 0.717411 0.743894 0.769901 0.795299 0.819950 0.843708 0.866423 0.887936 0.908087 0.926708 0.943628 0.958673 0.971668 0.982433 0.990791 0.996565 0.999580 0.999664 0.996651 0.990382 0.980707 0.967484 0.950588 0.929905 0.905338 0.876811 0.844267 0.807672 0.767020 0.722330 0.673653 0.621070 0.564698 0.504686 0.441224 0.374537 0.304893 0.232596 0.157994 0.081473 0.003460 0.075579 0.155141 0.234687 0.313646 0.391418 0.467378 0.540877 0.611255 0.677838 0.739952 0.796925 0.848098 0.892830 0.930509 0.960563 0.982464 0.995742 0.999992 0.994886 0.980178 0.955718 0.921457 0.877456 0.823891 0.761060 0.689385 0.609418 0.521839 0.427456 0.327201 0.222128 0.113399 0.002284 0.109862 0.221604 0.331452 0.437875 0.539322 0.634251 0.721145 0.798546 0.865078 0.919475 0.960610 0.987520 0.999432 0.995792 0.976277 0.940826 0.889645 0.823225 0.742342 0.648067 0.541752 0.425025 0.299769 0.168102 0.032344 0.105019 0.241376 0.374040 0.500301 0.617484 0.723004 0.814432 0.889554 0.946429 0.983452 0.999404 0.993496 0.965414 0.915344 0.843996 0.752607 0.642936 0.517247 0.378272 0.229163 0.073434 0.085122 0.242517 0.394662 0.537483 0.667023 0.779565 0.871740 0.940644 0.983936 0.999932 0.987683 0.947034 0.878662 0.784088 0.665670 0.526560 0.370640 0.202432 0.026971 0.150328 0.323836 0.487888 0.636973 0.765920 0.870090 0.945558 0.989279 0.999225 0.974500 0.915412 0.823510 0.701573 0.553557 0.384483 0.200292 0.007658 0.186253 0.374040 0.548345 0.702150 0.829074 0.923649 0.981577 0.999952 0.977427 0.914326 0.812693 0.676255 0.510330 0.321641 0.118070 0.091647 0.298296 0.492574 0.665520 0.808938 0.915804 0.980635 0.999799 0.971755 0.897189 0.779059 0.622517 0.434730 0.224582 0.002282 0.221114 0.434247 0.626034 0.786253 0.906108 0.978749 0.999694 0.967143 0.882166 0.748722 0.573535 0.365799 0.136728 0.101010 0.333987 0.548766 0.732679 0.874606 0.965667 0.999831 0.974349 0.890028 0.751277 0.565944 0.344917 0.101542 0.149166 0.391419 0.609658 0.789563 0.919012 0.988957 0.994094 0.933324 0.809943 0.631546 0.409609 0.158822 0.103849 0.360293 0.592478 0.783756 0.920069 0.991040 0.990818 0.918627 0.778953 0.581351 0.339867 0.072092 0.202071 0.461877 0.687290 0.860578 0.967731 0.999664 0.953060 0.830777 0.641778 0.400549 0.126070 0.159621 0.433187 0.671889 0.855489 0.968026 0.999271 0.945732 0.811123 0.606218 0.348070 0.058683 0.236810 0.512325 0.743108 0.908017 0.991505 0.985176 0.888722 0.710139 0.465176 0.176041 0.130539 0.425755 0.681413 0.872645 0.980404 0.993438 0.909572 0.736119 0.489383 0.193211 0.123207 0.428188 0.690700 0.883572 0.986356 0.987604 0.886244 0.691934 0.424265 0.110895 0.215213 0.519231 0.768183 0.934573 0.999498 0.954923 0.804790 0.564833 0.261076 0.072899 0.399596 0.681781 0.886775 0.990308 0.979506 0.854633 0.629326 0.329260 0.010652 0.350244 0.648812 0.870008 0.986357 0.982782 0.858706 0.628414 0.319571 0.029963 0.376688 0.676851 0.891997 0.993980 0.968788 0.818620 0.561921 0.231289 0.130543
1.000000 1.000000 1.000000 1.000000 1.000000 1.000000 1.000000 1.000000 1.000000 1.000000 1.000000 1.000000 1.000000 1.000000 1.000000 1.000000 1.000000 1.000000 1.000000 1.000000 1.000000 1.000000 1.000000 1.000000 1.000000 1.000000 1.000000 1.000000 1.000000 1.000000 1.000000 1.000000 1.000000 1.000000 1.000000 1.000000 1.000000 1.000000 1.000000 1.000000 1.000000 1.000000 1.000000 1.000000 1.000000 1.000000 1.000000 1.000000 1.000000 1.000000 1.000000 1.000000 0.918096 0.918096 0.918096 0.909949 0.909949 0.909949 0.909949 0.909949 0.909949 0.909949 0.909949 0.909949 0.909949 0.909949 0.909949 0.909949 0.909949 0.909949 0.909949 0.909949 0.909949 0.909949 0.909949 0.909949 0.909949 0.909949 0.909949 0.909949 0.909949 0.909949 0.909949 0.909949 0.909949 0.909949 0.909949 0.909949 0.909949 0.909949 0.909949 0.909949 0.909949 0.909949 0.909949 0.909949 0.938672 0.940210 0.948380 0.948077 0.947442 0.945270 0.944092 0.943592 0.943474 0.943812 0.944550 0.945559 0.954403 0.955624 0.958486 0.960150 0.960892 0.961514 0.962130 0.962660 0.953469 0.953262 0.951895 0.951285 0.953809 0.953033 0.952927 0.953893 0.953759 0.954613 0.954498 0.953765 0.952638 0.951639 0.950670 0.950091 0.949868 0.950606 0.951027 0.952528 0.955869 0.956440 0.956564 0.956719 0.956817 0.958116 0.956951 0.956531 0.952492 0.952725 0.952281 0.952525 0.956053 0.955974 0.956527 0.957088 0.958664 0.958956 0.951755 0.949425 0.940155 0.938345 0.933981 0.928202 0.923957 0.925833 0.927303 0.928184 0.928733 0.924068 0.924019 0.921367 0.919358 0.922161 0.921324 0.921706 0.923091 0.921791 0.919194 0.918605 0.916178 0.907123 0.894869 0.894369 0.896594 0.901313 0.902897 0.901732 0.903137 0.890358 0.871966 0.858457 0.860292 0.864090 0.855564 0.853569 0.854247 0.855005 0.858616 0.851875 0.849668 0.845786 0.835290 0.825490 0.818019 0.813210 0.819062 0.814952 0.805368 0.804454 0.814973 0.807625 0.822097 0.827298 0.824584 0.824062 0.822384 0.817833 0.794936 0.793458 0.787002 0.769655 0.770121 0.768857 0.766530 0.762253 0.769003 0.756037 0.752565 0.737614 0.739353 0.742770 0.744501 0.742708 0.735896 0.739514 0.744117 0.726542 0.713456 0.699824 0.705103 0.711969 0.713509 0.709634 0.688653 0.653074 0.622836 0.642770 0.659274 0.620464 0.645039 0.656721 0.638972 0.636810 0.628186 0.631838 0.619810 0.623319 0.626440 0.630736 0.630295 0.646808 0.630876 0.623803 0.633344 0.632516 0.642480 0.638249 0.638438 0.611168 0.607928 0.631985 0.635486 0.621157 0.638274 0.625796 0.636389 0.670639 0.678061 0.651645 0.645394 0.623671 0.580956 0.576380 0.571627 0.583904 0.616188 0.590860 0.554381 0.531072 0.538022 0.558353 0.564560 0.567055 0.545658 0.547797 0.538315 0.512622 0.518484 0.532761 0.534875 0.524079 0.502331 0.508545 0.512002 0.535800 0.524937 0.484894 0.499210 0.495016 0.490862 0.436496 0.451756 0.433220 0.420109 0.373080 0.380014 0.393338 0.380973 0.321741 0.305333 0.304951 0.304685 0.306056 0.293137 0.267779 0.258349 0.247849 0.249935 0.238789 0.213995 0.209469 0.194778 0.183892 0.183645 0.142211 0.182823 0.244036 0.245270 0.245270 0.245270 0.245270 0.245270 0.245270 0.249372 0.249372 0.249372 0.249372 0.249372 0.249372 0.249372 0.249372 0.249372 0.272326 0.272326 0.272326 0.272326 0.272326 0.272326 0.272326 0.272326 0.272326 0.272326 0.272326 0.272326 0.272326 0.272326
0.000000 0.000000 0.000000 0.000000 0.000000 0.000000 0.000000 0.000000 0.000000 0.000000 0.000000 0.000000 0.000000 0.000000 0.000000 0.000000 0.000000 0.000000 0.000000 0.000000 0.000000 0.000000 0.000000 0.000000 0.000000 7.000000 4.000000 0.000000 0.000000 0.000000 0.000000 0.000000 0.000000 0.000000 0.000000 0.000000 0.000000 0.000000 0.000000 0.000000 0.000000 0.000000 0.000000 0.000000 0.000000 0.000000 0.000000 0.000000 0.000000 0.000000 0.000000 0.000000 0.180334 0.180334 0.180334 0.199007 0.199007 0.199007 0.199007 0.199007 0.199007 0.199007 0.199007 0.199007 0.199007 0.199007 0.199007 0.199007 0.199007 0.199007 0.199007 0.199007 0.199007 0.199007 0.199007 0.199007 0.199007 0.199007 0.199007 0.199007 0.199007 0.199007 0.199007 0.199007 0.199007 0.199007 0.199007 0.199007 0.199007 0.199007 0.199007 0.199007 0.199007 0.199007 0.199007 0.199007 0.225018 0.225018 0.225018 0.225018 0.225018 0.225018 0.225018 0.225018 0.225018 0.225018 0.225018 0.225018 0.225018 0.225018 0.225018 0.225018 0.225018 0.225018 0.225018 0.225018 0.225018 0.225018 0.225018 0.225018 0.225018 0.225018 0.225018 0.225018 0.225018 0.244339 0.244339 0.244339 0.244339 0.244339 0.244339 0.244339 0.244339 0.244339 0.244339 0.244339 0.244339 0.244339 0.244339 0.244339 0.244339 0.244339 0.244339 0.244339 0.244339 0.244339 0.244339 0.244339 0.251976 0.251976 0.251976 0.251976 0.251976 0.251976 0.251976 0.251976 0.251976 0.251976 0.251976 0.251976 0.251976 0.251976 0.251976 0.251976 0.251976 0.251976 0.251976 0.251976 0.264906 0.264906 0.264906 0.264906 0.264906 0.264906 0.264906 0.264906 0.264906 0.264906 0.264906 0.264906 0.264906 0.264906 0.264906 0.264906 0.264906 0.264906 0.264906 0.264906 0.264906 0.264906 0.264906 0.264906 0.264906 0.264906 0.264906 0.264906 0.264906 0.264906 0.264906 0.264906 0.264906 0.264906 0.264906 0.264906 0.264906 0.264906 0.264906 0.264906 0.264906 0.264906 0.264906 0.264906 0.264906 0.264906 0.264906 0.264906 0.264906 0.264906 0.264906 0.264906 0.264906 0.264906 0.264906 0.264906 0.264906 0.264906 0.264906 0.264906 0.264906 0.264906 0.256074 0.256074 0.256074 0.256074 0.256074 0.256074 0.256074 0.256074 0.256074 0.256074 0.256074 0.256074 0.256074 0.256074 0.269680 0.269680 0.269680 0.269680 0.269680 0.269680 0.269680 0.269680 0.269680 0.269680 0.269680 0.269680 0.264906 0.264906 0.264906 0.264906 0.264906 0.264906 0.264906 0.264906 0.264906 0.264906 0.264906 0.264906 0.269680 0.269680 0.269680 0.269680 0.269680 0.269680 0.269680 0.269680 0.269680 0.269680 0.269680 0.264906 0.264906 0.264906 0.264906 0.264906 0.264906 0.264906 0.264906 0.264906 0.264906 0.264906 0.256074 0.256074 0.256074 0.256074 0.256074 0.256074 0.256074 0.256074 0.256074 0.256074 0.256074 0.264906 0.264906 0.264906 0.264906 0.264906 0.264906 0.264906 0.264906 0.264906 0.264906 0.260378 0.260378 0.260378 0.260378 0.260378 0.260378 0.260378 0.260378 0.260378 0.260378 0.256074 0.256074 0.256074 0.256074 0.256074 0.256074 0.256074 0.256074 0.256074 0.256074 0.260378 0.260378 0.260378 0.260378 0.260378 0.260378 0.260378 0.260378 0.260378 0.256074 0.256074 0.256074 0.256074 0.256074 0.256074 0.256074 0.256074 0.256074 0.251976 0.251976 0.251976 0.251976 0.251976 0.251976 0.251976 0.251976 0.251976 0.251976 0.251976 0.251976 0.251976 0.251976
