# Output from CTFFind version 4.1.9, run on 2019-11-02 17:50:32
# Input file: stack16_bm3d_averaged_1_1.25_0_3000_half.mrc ; Number of micrographs: 1
# Pixel size: 3.000 Angstroms ; acceleration voltage: 300.0 keV ; spherical aberration: 0.00 mm ; amplitude contrast: 0.07
# Box size: 512 pixels ; min. res.: 30.0 Angstroms ; max. res.: 5.0 Angstroms ; min. def.: 5000.0 um; max. def. 50000.0 um; num. frames averaged: 1
# 6 lines per micrograph: #1 - spatial frequency (1/Angstroms); #2 - 1D rotational average of spectrum (assuming no astigmatism); #3 - 1D rotational average of spectrum; #4 - CTF fit; #5 - cross-correlation between spectrum and CTF fit; #6 - 2sigma of expected cross correlation of noise
0.000000 0.000651 0.001302 0.001953 0.002604 0.003255 0.003906 0.004557 0.005208 0.005859 0.006510 0.007161 0.007812 0.008464 0.009115 0.009766 0.010417 0.011068 0.011719 0.012370 0.013021 0.013672 0.014323 0.014974 0.015625 0.016276 0.016927 0.017578 0.018229 0.018880 0.019531 0.020182 0.020833 0.021484 0.022135 0.022786 0.023438 0.024089 0.024740 0.025391 0.026042 0.026693 0.027344 0.027995 0.028646 0.029297 0.029948 0.030599 0.031250 0.031901 0.032552 0.033203 0.033854 0.034505 0.035156 0.035807 0.036458 0.037109 0.037760 0.038411 0.039062 0.039714 0.040365 0.041016 0.041667 0.042318 0.042969 0.043620 0.044271 0.044922 0.045573 0.046224 0.046875 0.047526 0.048177 0.048828 0.049479 0.050130 0.050781 0.051432 0.052083 0.052734 0.053385 0.054036 0.054688 0.055339 0.055990 0.056641 0.057292 0.057943 0.058594 0.059245 0.059896 0.060547 0.061198 0.061849 0.062500 0.063151 0.063802 0.064453 0.065104 0.065755 0.066406 0.067057 0.067708 0.068359 0.069010 0.069661 0.070312 0.070964 0.071615 0.072266 0.072917 0.073568 0.074219 0.074870 0.075521 0.076172 0.076823 0.077474 0.078125 0.078776 0.079427 0.080078 0.080729 0.081380 0.082031 0.082682 0.083333 0.083984 0.084635 0.085286 0.085938 0.086589 0.087240 0.087891 0.088542 0.089193 0.089844 0.090495 0.091146 0.091797 0.092448 0.093099 0.093750 0.094401 0.095052 0.095703 0.096354 0.097005 0.097656 0.098307 0.098958 0.099609 0.100260 0.100911 0.101562 0.102214 0.102865 0.103516 0.104167 0.104818 0.105469 0.106120 0.106771 0.107422 0.108073 0.108724 0.109375 0.110026 0.110677 0.111328 0.111979 0.112630 0.113281 0.113932 0.114583 0.115234 0.115885 0.116536 0.117188 0.117839 0.118490 0.119141 0.119792 0.120443 0.121094 0.121745 0.122396 0.123047 0.123698 0.124349 0.125000 0.125651 0.126302 0.126953 0.127604 0.128255 0.128906 0.129557 0.130208 0.130859 0.131510 0.132161 0.132812 0.133464 0.134115 0.134766 0.135417 0.136068 0.136719 0.137370 0.138021 0.138672 0.139323 0.139974 0.140625 0.141276 0.141927 0.142578 0.143229 0.143880 0.144531 0.145182 0.145833 0.146484 0.147135 0.147786 0.148438 0.149089 0.149740 0.150391 0.151042 0.151693 0.152344 0.152995 0.153646 0.154297 0.154948 0.155599 0.156250 0.156901 0.157552 0.158203 0.158854 0.159505 0.160156 0.160807 0.161458 0.162109 0.162760 0.163411 0.164062 0.164714 0.165365 0.166016 0.166667 0.167318 0.167969 0.168620 0.169271 0.169922 0.170573 0.171224 0.171875 0.172526 0.173177 0.173828 0.174479 0.175130 0.175781 0.176432 0.177083 0.177734 0.178385 0.179036 0.179688 0.180339 0.180990 0.181641 0.182292 0.182943 0.183594 0.184245 0.184896 0.185547 0.186198 0.186849 0.187500 0.188151 0.188802 0.189453 0.190104 0.190755 0.191406 0.192057 0.192708 0.193359 0.194010 0.194661 0.195312 0.195964 0.196615 0.197266 0.197917 0.198568 0.199219 0.199870 0.200521 0.201172 0.201823 0.202474 0.203125 0.203776 0.204427 0.205078 0.205729 0.206380 0.207031 0.207682 0.208333 0.208984 0.209635 0.210286 0.210938 0.211589 0.212240 0.212891 0.213542 0.214193 0.214844 0.215495 0.216146 0.216797 0.217448 0.218099 0.218750 0.219401 0.220052 0.220703 0.221354 0.222005 0.222656 0.223307 0.223958 0.224609 0.225260 0.225911 0.226562 0.227214 0.227865 0.228516 0.229167 0.229818 0.230469 0.231120 0.231771 0.232422 0.233073 0.233724 0.234375 0.235026 0.235677
       0.34434        0.34434        0.34434        0.34434        0.34434        0.34434        0.34434        0.34434        0.34434        0.34434        0.34434        0.34434        0.34434        0.34434        0.34434        0.34434        0.34434        0.34434        0.34434        0.34434        0.34434        0.34434        0.34434        0.34434        0.34434        0.34434        0.34434        0.34434        0.34434        0.34434        0.34434        0.34434        0.34434        0.34434        0.34434        0.34434        0.34434        0.34434        0.34434        0.34434        0.34434        0.34434        0.34434        0.34434        0.34434        0.34434        0.34434        0.34434        0.34434        0.34434        0.34434        0.48991        0.70366        0.45763       -0.10811       -0.41365       -0.56976       -0.65853       -0.74362       -0.75900       -0.87002       -0.91352       -0.76064       -0.92532       -0.87195       -1.02515       -1.09532       -0.98886       -0.95972       -0.88407       -0.85990       -0.74954       -0.64072       -0.49855       -0.42078       -0.21856       -0.11876       -0.02490        0.20228        0.24390        0.31060        0.38599        0.43875        0.51617        0.58237        0.60134        0.59421        0.50251        0.54805        0.48553        0.39211        0.32804        0.20835        0.17468        0.10035       -0.06078       -0.11499       -0.09045        0.01134       -0.01792        0.01061        0.02907        0.20868        0.21853        0.39051        0.45928        0.56498        0.70615        0.76580        0.73052        0.70992        0.70717        0.58791        0.54353        0.40062        0.27791        0.19673        0.14678        0.06840        0.02496        0.02469        0.06374        0.08291        0.27763        0.41786        0.50387        0.58809        0.64018        0.70739        0.66102        0.65301        0.67510        0.61165        0.48218        0.28594        0.23415        0.20470        0.13099        0.04670        0.09367        0.11746        0.25154        0.34473        0.41710        0.50489        0.54440        0.66284        0.60792        0.55448        0.50770        0.36513        0.20767        0.21081        0.15483        0.11862        0.12001        0.21318        0.25751        0.36458        0.44504        0.43979        0.56527        0.51474        0.44934        0.45488        0.38592        0.32434        0.27647        0.21751        0.23519        0.21405        0.21272        0.32384        0.45167        0.49100        0.48185        0.55298        0.49896        0.45701        0.39851        0.29377        0.22650        0.23442        0.24516        0.26715        0.27080        0.32993        0.44296        0.50047        0.49138        0.45868        0.41825        0.38850        0.36221        0.25123        0.23125        0.25080        0.29655        0.35580        0.36622        0.39700        0.40942        0.44603        0.37516        0.34808        0.31495        0.30791        0.26792        0.26099        0.31418        0.34947        0.41784        0.41926        0.39833        0.39395        0.40619        0.35005        0.28729        0.29500        0.27925        0.31009        0.36009        0.36831        0.41611        0.36213        0.36410        0.38943        0.34324        0.31079        0.28416        0.29320        0.33968        0.33265        0.32576        0.37670        0.39727        0.33871        0.35446        0.29894        0.30844        0.29025        0.28200        0.30321        0.32978        0.38392        0.36915        0.35064        0.33105        0.28846        0.27761        0.29979        0.28484        0.31472        0.37102        0.39565        0.33641        0.31867        0.31389        0.29935        0.29127        0.27962        0.30235        0.34222        0.33514        0.34831        0.32389        0.34715        0.32564        0.29194        0.31159        0.32068        0.33467        0.33578        0.31779        0.31486        0.30617        0.33307        0.31892        0.33809        0.39358        0.34042        0.36241        0.32022        0.30994        0.28831        0.31085        0.29071        0.31208        0.32449        0.35450        0.36738        0.31388        0.31910        0.31432        0.30064        0.29533        0.29008        0.33327        0.33775        0.35911        0.34232        0.32417        0.25957        0.26582        0.31276        0.35462        0.31482        0.29592        0.28776        0.29297        0.32724        0.30981        0.30297        0.33568        0.34186        0.31672        0.24862        0.28426        0.28780        0.28945        0.32291        0.32730        0.35004        0.33936        0.28418        0.26855        0.29784        0.26541        0.29514        0.27257        0.24729        0.26576        0.25125        0.27853        0.28047        0.27767        0.26956        0.31303        0.32882        0.32025        0.29336        0.30728        0.24862        0.27684        0.25223        0.32431        0.34741        0.23648        0.26199        0.29134        0.25147        0.24078        0.30280        0.23580        0.13546        0.16949        0.23233        0.27065        0.24353        0.15990        0.04555       -0.38317       -0.75886
3.063300 3.025220 2.987384 2.949794 2.912447 2.875346 2.838489 2.801877 2.765509 2.729386 2.693508 2.657875 2.622486 2.587342 2.552443 2.517788 2.483378 2.449213 2.415292 2.381616 2.348185 2.314998 2.282057 2.249359 2.216907 2.184699 2.152736 2.121018 2.089544 2.058315 2.027331 1.996591 1.966096 1.935846 1.905840 1.876079 1.846563 1.817292 1.788265 1.759483 1.730945 1.702652 1.674604 1.646801 1.619242 1.591928 1.564859 1.538034 1.511454 1.485119 1.459029 1.515330 1.704280 1.617344 0.972077 0.683243 0.479407 0.435466 0.323730 0.269028 0.200966 0.022762 0.196928 0.082114 -0.006507 -0.059790 -0.196047 -0.151099 -0.088085 -0.092107 -0.095340 0.010791 0.033802 0.233497 0.153468 0.365613 0.445824 0.475945 0.715225 0.700963 0.712235 0.839559 0.822623 0.852902 0.924359 0.898606 0.942229 0.753076 0.838272 0.841138 0.621910 0.611359 0.459016 0.440210 0.382881 0.209909 0.117769 0.099672 0.207908 0.144409 0.193753 0.111703 0.311650 0.286612 0.457200 0.416220 0.582347 0.648879 0.769724 0.695818 0.664069 0.672672 0.535344 0.505675 0.367987 0.296701 0.119708 0.148769 0.001646 -0.010967 -0.038383 -0.028574 0.000963 0.038050 0.275242 0.329610 0.386973 0.394786 0.470419 0.521699 0.468885 0.507850 0.400672 0.391164 0.155180 0.066105 0.071188 -0.002149 -0.124305 -0.042368 -0.113840 0.015094 0.138549 0.157800 0.254186 0.261007 0.387186 0.455338 0.354672 0.387497 0.284014 0.125694 0.047327 0.052372 0.017122 0.003874 0.005242 0.107951 0.132945 0.268423 0.237717 0.303968 0.371703 0.241647 0.244550 0.219973 0.131725 0.082289 0.052602 0.023408 0.040441 -0.013118 0.029524 0.184884 0.220548 0.256895 0.281075 0.233058 0.237742 0.150764 0.106473 -0.024794 -0.013426 -0.008414 0.017895 0.005354 0.029246 0.106728 0.185058 0.204679 0.220330 0.136951 0.145614 0.079090 0.056334 -0.056436 -0.011533 -0.004235 0.054269 0.065461 0.080648 0.155903 0.083978 0.165110 0.067433 0.050820 0.044946 0.027485 0.000987 0.009842 0.054134 0.086005 0.131235 0.139202 0.070867 0.127489 0.096869 0.013843 0.007109 0.005099 -0.005664 0.053273 0.058161 0.097909 0.098123 0.063437 0.068824 0.079862 0.028194 0.009047 -0.007901 0.005550 0.060830 0.023751 0.039739 0.069939 0.089942 0.056075 0.032145 0.007250 0.011622 -0.006162 -0.015531 0.013024 0.049296 0.094951 0.065865 0.060046 0.038004 -0.014298 -0.001966 0.015290 0.009413 0.024150 0.099726 0.068857 0.015638 0.044296 0.002138 0.024522 -0.007944 -0.008023 0.024446 0.061167 0.025636 0.046192 0.033530 0.046983 0.024135 -0.006522 0.018678 0.039574 0.033079 0.022206 0.036844 0.006914 0.001541 0.034565 0.017452 0.048085 0.081097 0.046926 0.016574 0.007970 -0.013222 -0.013104 -0.002058 -0.008728 0.002721 -0.007680 0.062999 0.038459 0.007889 0.020348 -0.017551 -0.006454 -0.009670 -0.026018 0.033106 0.040227 0.063923 0.032183 0.025013 -0.049237 -0.009482 0.010481 0.049589 0.015767 0.012955 -0.013610 -0.013371 0.032993 0.027904 0.011386 0.052415 0.058721 0.046558 -0.030407 0.002607 0.038939 0.011382 0.041447 0.068787 0.082139 0.071123 0.021912 0.011630 0.023031 0.002077 0.039475 -0.025789 -0.029168 -0.017012 -0.043951 -0.005698 -0.010652 0.003180 -0.075059 -0.006114 0.011734 0.001797 -0.037813 0.021352 -0.094542 -0.017859 -0.047396 0.020131 0.066353 -0.100690 -0.016711 0.048247 0.009332 -0.048439 0.044993 0.029833 -0.026209 -0.039772 0.050294 0.236139 0.224139 0.121494 0.042484 -0.666640
0.072396 0.073046 0.074995 0.078244 0.082790 0.088632 0.095769 0.104197 0.113912 0.124910 0.137183 0.150723 0.165521 0.181563 0.198834 0.217316 0.236986 0.257819 0.279784 0.302846 0.326964 0.352091 0.378173 0.405149 0.432953 0.461507 0.490727 0.520518 0.550776 0.581388 0.612229 0.643163 0.674045 0.704717 0.735008 0.764740 0.793719 0.821744 0.848600 0.874063 0.897901 0.919873 0.939729 0.957215 0.972073 0.984040 0.992856 0.998259 0.999996 0.997817 0.991484 0.980774 0.965479 0.945414 0.920416 0.890354 0.855128 0.814675 0.768976 0.718055 0.661987 0.600899 0.534978 0.464469 0.389681 0.310988 0.228831 0.143718 0.056225 0.033005 0.123266 0.213789 0.303751 0.392277 0.478448 0.561313 0.639893 0.713198 0.780236 0.840031 0.891634 0.934141 0.966712 0.988586 0.999100 0.997710 0.984002 0.957718 0.918763 0.867228 0.803395 0.727753 0.641002 0.544054 0.438040 0.324298 0.204369 0.079980 0.046975 0.174455 0.300308 0.422301 0.538159 0.645612 0.742436 0.826510 0.895859 0.948715 0.983563 0.999193 0.994749 0.969767 0.924214 0.858516 0.773574 0.670773 0.551980 0.419524 0.276164 0.125049 0.030344 0.186283 0.338865 0.484111 0.618070 0.736937 0.837161 0.915569 0.969473 0.996780 0.996088 0.966762 0.909002 0.823876 0.713336 0.580199 0.428107 0.261443 0.085230 0.095009 0.273415 0.443978 0.600743 0.738018 0.850602 0.933994 0.984595 0.999885 0.978575 0.920714 0.827750 0.702541 0.549308 0.373524 0.181756 0.018563 0.219404 0.412454 0.589462 0.742598 0.864821 0.950222 0.994346 0.994453 0.949726 0.861385 0.732727 0.569047 0.377476 0.166706 0.053371 0.272106 0.478610 0.662286 0.813393 0.923597 0.986462 0.997871 0.956341 0.863215 0.722691 0.541710 0.329664 0.097967 0.140537 0.372253 0.583611 0.761877 0.895941 0.977060 0.999477 0.960892 0.862735 0.710211 0.512109 0.280368 0.029406 0.224723 0.465350 0.676283 0.842917 0.953295 0.999021 0.975976 0.884754 0.730786 0.524115 0.278830 0.012172 0.256631 0.507726 0.722116 0.883120 0.977737 0.997769 0.940620 0.809691 0.614296 0.369118 0.093186 0.191529 0.461836 0.695210 0.871700 0.975705 0.997432 0.933932 0.789563 0.575839 0.310636 0.016789 0.279801 0.552420 0.775967 0.929306 0.997360 0.972697 0.856466 0.658548 0.396856 0.095838 0.215714 0.507374 0.750057 0.918971 0.996243 0.972930 0.850197 0.639487 0.361613 0.044848 0.277870 0.572306 0.806592 0.954717 0.999563 0.935006 0.766915 0.512812 0.200234 0.136148 0.458265 0.728971 0.916360 0.997653 0.962110 0.812632 0.565768 0.250090 0.096970 0.433454 0.717929 0.914645 0.998136 0.956700 0.794225 0.530097 0.197094 0.162508 0.502215 0.777315 0.950835 0.998650 0.913048 0.704171 0.399075 0.038451 0.328666 0.651491 0.884539 0.994171 0.963628 0.795841 0.513469 0.156108 0.225083 0.574596 0.840656 0.983006 0.979188 0.828335 0.551813 0.190467 0.201183 0.563051 0.838695 0.984234 0.975545 0.812524 0.519653 0.142633 0.258534 0.618975 0.879434 0.996167 0.948525 0.742904 0.412278 0.011203 0.392955 0.731284 0.945086 0.996302 0.874547 0.599544 0.218293 0.202700 0.588814 0.870576 0.996275 0.941736 0.715304 0.357012 0.068176 0.481907 0.806811 0.981075 0.970463 0.775388 0.431552 0.003799 0.425873 0.773883 0.971452 0.978423 0.791799 0.447088 0.011969 0.426730 0.780222 0.975827 0.972181 0.768382 0.404975 0.043698 0.484402 0.824288 0.990592 0.946496 0.699731 0.301759 0.162526 0.592642
1.000000 1.000000 1.000000 1.000000 1.000000 1.000000 1.000000 1.000000 1.000000 1.000000 1.000000 1.000000 1.000000 1.000000 1.000000 1.000000 1.000000 1.000000 1.000000 1.000000 1.000000 1.000000 1.000000 1.000000 1.000000 1.000000 1.000000 1.000000 1.000000 1.000000 1.000000 1.000000 1.000000 1.000000 1.000000 1.000000 1.000000 1.000000 1.000000 1.000000 1.000000 1.000000 1.000000 1.000000 1.000000 1.000000 1.000000 1.000000 1.000000 1.000000 1.000000 1.000000 0.934683 0.934683 0.934683 0.934683 0.934683 0.934683 0.934683 0.934683 0.934683 0.934683 0.934683 0.934683 0.934683 0.934683 0.934683 0.934683 0.934683 0.934683 0.934683 0.934683 0.934683 0.934683 0.934683 0.934683 0.934683 0.934683 0.934683 0.934683 0.934683 0.934683 0.934683 0.934683 0.934683 0.924340 0.925794 0.928681 0.929720 0.929682 0.929244 0.928947 0.929172 0.930075 0.932361 0.948891 0.950358 0.950928 0.952203 0.952438 0.954943 0.953204 0.953153 0.963670 0.962536 0.963278 0.956453 0.957974 0.957113 0.956221 0.956689 0.956886 0.955007 0.952915 0.951273 0.950664 0.950305 0.952062 0.952532 0.952523 0.953970 0.953959 0.953702 0.950439 0.948946 0.950399 0.952372 0.951497 0.957194 0.957042 0.965099 0.965930 0.964575 0.964461 0.964659 0.964851 0.955278 0.948915 0.943557 0.931789 0.922702 0.920689 0.923599 0.925424 0.924169 0.919547 0.918481 0.915869 0.911067 0.910246 0.910150 0.911655 0.908401 0.905076 0.888998 0.888905 0.891356 0.890589 0.888254 0.880190 0.875692 0.876286 0.879397 0.876975 0.873624 0.889416 0.884254 0.889093 0.892000 0.895136 0.899050 0.894717 0.893761 0.890262 0.886572 0.881659 0.883192 0.870541 0.873253 0.868224 0.858883 0.851904 0.854805 0.863863 0.871569 0.879459 0.878482 0.878718 0.877961 0.871230 0.872251 0.863634 0.864779 0.869799 0.875642 0.872490 0.869479 0.873692 0.871982 0.871937 0.874113 0.870841 0.868939 0.859915 0.859646 0.863035 0.879194 0.880305 0.869324 0.860045 0.849688 0.855725 0.858199 0.857382 0.859281 0.850836 0.852053 0.841161 0.829731 0.830225 0.834960 0.833390 0.837292 0.835616 0.839689 0.839713 0.838045 0.833021 0.831415 0.841805 0.812822 0.820022 0.822654 0.817919 0.822030 0.812751 0.806933 0.802169 0.801774 0.794884 0.802745 0.800830 0.767956 0.752617 0.759837 0.748387 0.739152 0.733505 0.734123 0.691434 0.676978 0.645688 0.641687 0.630081 0.627699 0.633187 0.625594 0.602776 0.590887 0.583660 0.599227 0.602951 0.582428 0.585792 0.580836 0.576434 0.570229 0.567427 0.566842 0.570470 0.575598 0.543794 0.537307 0.539634 0.512224 0.512277 0.512495 0.501051 0.473834 0.478092 0.468609 0.490697 0.524872 0.487205 0.477539 0.487397 0.503186 0.514511 0.512976 0.500940 0.487814 0.495837 0.473252 0.449930 0.465893 0.485693 0.474101 0.484637 0.476699 0.500878 0.493548 0.488571 0.512975 0.515613 0.510329 0.512746 0.526757 0.523478 0.524632 0.511697 0.471231 0.480191 0.462337 0.393050 0.383671 0.393089 0.376474 0.373003 0.348229 0.353079 0.326950 0.298306 0.300025 0.293282 0.258216 0.228049 0.232843 0.234367 0.203956 0.176351 0.197181 0.150998 0.145938 0.164668 0.168805 0.158155 0.158372 0.182551 0.182551 0.182551 0.182551 0.182551 0.182551 0.182551 0.182551 0.182551 0.182551 0.182551 0.182551 0.182551 0.182551 0.206855 0.206855 0.206855 0.206855 0.206855 0.206855 0.206855 0.206855 0.206855 0.206855 0.206855 0.206855
0.000000 0.000000 0.000000 0.000000 0.000000 0.000000 0.000000 0.000000 0.000000 0.000000 0.000000 0.000000 0.000000 0.000000 0.000000 0.000000 0.000000 0.000000 0.000000 0.000000 0.000000 0.000000 0.000000 0.000000 0.000000 7.000000 4.000000 0.000000 0.000000 0.000000 0.000000 0.000000 0.000000 0.000000 0.000000 0.000000 0.000000 0.000000 0.000000 0.000000 0.000000 0.000000 0.000000 0.000000 0.000000 0.000000 0.000000 0.000000 0.000000 0.000000 0.000000 0.000000 0.209657 0.209657 0.209657 0.209657 0.209657 0.209657 0.209657 0.209657 0.209657 0.209657 0.209657 0.209657 0.209657 0.209657 0.209657 0.209657 0.209657 0.209657 0.209657 0.209657 0.209657 0.209657 0.209657 0.209657 0.209657 0.209657 0.209657 0.209657 0.209657 0.209657 0.209657 0.209657 0.209657 0.244339 0.244339 0.244339 0.244339 0.244339 0.244339 0.244339 0.244339 0.244339 0.244339 0.244339 0.244339 0.244339 0.244339 0.244339 0.244339 0.244339 0.244339 0.244339 0.244339 0.244339 0.244339 0.244339 0.244339 0.244339 0.260378 0.260378 0.260378 0.260378 0.260378 0.260378 0.260378 0.260378 0.260378 0.260378 0.260378 0.260378 0.260378 0.260378 0.260378 0.260378 0.260378 0.260378 0.260378 0.260378 0.269680 0.269680 0.269680 0.269680 0.269680 0.269680 0.269680 0.269680 0.269680 0.269680 0.269680 0.269680 0.269680 0.269680 0.269680 0.269680 0.269680 0.269680 0.269680 0.269680 0.269680 0.269680 0.269680 0.269680 0.269680 0.269680 0.269680 0.269680 0.269680 0.269680 0.269680 0.269680 0.269680 0.280056 0.280056 0.280056 0.280056 0.280056 0.280056 0.280056 0.280056 0.280056 0.280056 0.280056 0.280056 0.280056 0.280056 0.280056 0.280056 0.280056 0.280056 0.280056 0.280056 0.280056 0.280056 0.280056 0.280056 0.280056 0.280056 0.280056 0.274721 0.274721 0.274721 0.274721 0.274721 0.274721 0.274721 0.274721 0.274721 0.274721 0.274721 0.274721 0.274721 0.285714 0.285714 0.285714 0.285714 0.285714 0.285714 0.285714 0.285714 0.285714 0.285714 0.285714 0.280056 0.280056 0.280056 0.280056 0.280056 0.280056 0.280056 0.280056 0.280056 0.280056 0.280056 0.274721 0.274721 0.274721 0.274721 0.274721 0.274721 0.274721 0.274721 0.274721 0.274721 0.274721 0.280056 0.280056 0.280056 0.280056 0.280056 0.280056 0.280056 0.280056 0.280056 0.280056 0.285714 0.285714 0.285714 0.285714 0.285714 0.285714 0.285714 0.285714 0.285714 0.269680 0.269680 0.269680 0.269680 0.269680 0.269680 0.269680 0.269680 0.269680 0.269680 0.274721 0.274721 0.274721 0.274721 0.274721 0.274721 0.274721 0.274721 0.274721 0.285714 0.285714 0.285714 0.285714 0.285714 0.285714 0.285714 0.285714 0.264906 0.264906 0.264906 0.264906 0.264906 0.264906 0.264906 0.264906 0.264906 0.274721 0.274721 0.274721 0.274721 0.274721 0.274721 0.274721 0.274721 0.269680 0.269680 0.269680 0.269680 0.269680 0.269680 0.269680 0.269680 0.269680 0.269680 0.269680 0.269680 0.269680 0.269680 0.269680 0.269680 0.280056 0.280056 0.280056 0.280056 0.280056 0.280056 0.280056 0.260378 0.260378 0.260378 0.260378 0.260378 0.260378 0.260378 0.260378 0.269680 0.269680 0.269680 0.269680 0.269680 0.269680 0.269680 0.264906 0.264906 0.264906 0.264906 0.264906 0.264906 0.264906 0.264906 0.264906 0.264906 0.264906 0.264906 0.264906 0.264906 0.260378 0.260378 0.260378 0.260378 0.260378 0.260378 0.260378 0.260378 0.260378 0.260378 0.260378 0.260378
