# Output from CTFFind version 4.1.9, run on 2019-11-03 20:07:37
# Input file: stack1_bm3d_averaged_1_7.0_0_1500_half.mrc ; Number of micrographs: 1
# Pixel size: 3.000 Angstroms ; acceleration voltage: 300.0 keV ; spherical aberration: 0.00 mm ; amplitude contrast: 0.07
# Box size: 512 pixels ; min. res.: 30.0 Angstroms ; max. res.: 5.0 Angstroms ; min. def.: 5000.0 um; max. def. 50000.0 um; num. frames averaged: 1
# 6 lines per micrograph: #1 - spatial frequency (1/Angstroms); #2 - 1D rotational average of spectrum (assuming no astigmatism); #3 - 1D rotational average of spectrum; #4 - CTF fit; #5 - cross-correlation between spectrum and CTF fit; #6 - 2sigma of expected cross correlation of noise
0.000000 0.000651 0.001302 0.001953 0.002604 0.003255 0.003906 0.004557 0.005208 0.005859 0.006510 0.007161 0.007812 0.008464 0.009115 0.009766 0.010417 0.011068 0.011719 0.012370 0.013021 0.013672 0.014323 0.014974 0.015625 0.016276 0.016927 0.017578 0.018229 0.018880 0.019531 0.020182 0.020833 0.021484 0.022135 0.022786 0.023438 0.024089 0.024740 0.025391 0.026042 0.026693 0.027344 0.027995 0.028646 0.029297 0.029948 0.030599 0.031250 0.031901 0.032552 0.033203 0.033854 0.034505 0.035156 0.035807 0.036458 0.037109 0.037760 0.038411 0.039062 0.039714 0.040365 0.041016 0.041667 0.042318 0.042969 0.043620 0.044271 0.044922 0.045573 0.046224 0.046875 0.047526 0.048177 0.048828 0.049479 0.050130 0.050781 0.051432 0.052083 0.052734 0.053385 0.054036 0.054688 0.055339 0.055990 0.056641 0.057292 0.057943 0.058594 0.059245 0.059896 0.060547 0.061198 0.061849 0.062500 0.063151 0.063802 0.064453 0.065104 0.065755 0.066406 0.067057 0.067708 0.068359 0.069010 0.069661 0.070312 0.070964 0.071615 0.072266 0.072917 0.073568 0.074219 0.074870 0.075521 0.076172 0.076823 0.077474 0.078125 0.078776 0.079427 0.080078 0.080729 0.081380 0.082031 0.082682 0.083333 0.083984 0.084635 0.085286 0.085938 0.086589 0.087240 0.087891 0.088542 0.089193 0.089844 0.090495 0.091146 0.091797 0.092448 0.093099 0.093750 0.094401 0.095052 0.095703 0.096354 0.097005 0.097656 0.098307 0.098958 0.099609 0.100260 0.100911 0.101562 0.102214 0.102865 0.103516 0.104167 0.104818 0.105469 0.106120 0.106771 0.107422 0.108073 0.108724 0.109375 0.110026 0.110677 0.111328 0.111979 0.112630 0.113281 0.113932 0.114583 0.115234 0.115885 0.116536 0.117188 0.117839 0.118490 0.119141 0.119792 0.120443 0.121094 0.121745 0.122396 0.123047 0.123698 0.124349 0.125000 0.125651 0.126302 0.126953 0.127604 0.128255 0.128906 0.129557 0.130208 0.130859 0.131510 0.132161 0.132812 0.133464 0.134115 0.134766 0.135417 0.136068 0.136719 0.137370 0.138021 0.138672 0.139323 0.139974 0.140625 0.141276 0.141927 0.142578 0.143229 0.143880 0.144531 0.145182 0.145833 0.146484 0.147135 0.147786 0.148438 0.149089 0.149740 0.150391 0.151042 0.151693 0.152344 0.152995 0.153646 0.154297 0.154948 0.155599 0.156250 0.156901 0.157552 0.158203 0.158854 0.159505 0.160156 0.160807 0.161458 0.162109 0.162760 0.163411 0.164062 0.164714 0.165365 0.166016 0.166667 0.167318 0.167969 0.168620 0.169271 0.169922 0.170573 0.171224 0.171875 0.172526 0.173177 0.173828 0.174479 0.175130 0.175781 0.176432 0.177083 0.177734 0.178385 0.179036 0.179688 0.180339 0.180990 0.181641 0.182292 0.182943 0.183594 0.184245 0.184896 0.185547 0.186198 0.186849 0.187500 0.188151 0.188802 0.189453 0.190104 0.190755 0.191406 0.192057 0.192708 0.193359 0.194010 0.194661 0.195312 0.195964 0.196615 0.197266 0.197917 0.198568 0.199219 0.199870 0.200521 0.201172 0.201823 0.202474 0.203125 0.203776 0.204427 0.205078 0.205729 0.206380 0.207031 0.207682 0.208333 0.208984 0.209635 0.210286 0.210938 0.211589 0.212240 0.212891 0.213542 0.214193 0.214844 0.215495 0.216146 0.216797 0.217448 0.218099 0.218750 0.219401 0.220052 0.220703 0.221354 0.222005 0.222656 0.223307 0.223958 0.224609 0.225260 0.225911 0.226562 0.227214 0.227865 0.228516 0.229167 0.229818 0.230469 0.231120 0.231771 0.232422 0.233073 0.233724 0.234375 0.235026 0.235677
       0.34490        0.34490        0.34490        0.34490        0.34490        0.34490        0.34490        0.34490        0.34490        0.34490        0.34490        0.34490        0.34490        0.34490        0.34490        0.34490        0.34490        0.34490        0.34490        0.34490        0.34490        0.34490        0.34490        0.34490        0.34490        0.34490        0.34490        0.34490        0.34490        0.34490        0.34490        0.34490        0.34490        0.34490        0.34490        0.34490        0.34490        0.34490        0.34490        0.34490        0.34490        0.34490        0.34490        0.34490        0.34490        0.34490        0.34490        0.34490        0.34490        0.34490        0.34490        0.34507        0.48990        0.22772        0.07986        0.00131       -0.27036       -0.11432       -0.15878       -0.22158        0.00888       -0.14488       -0.07237       -0.06267       -0.04621       -0.12475       -0.16130       -0.25466       -0.30863       -0.42190       -0.35581       -0.25653       -0.22615       -0.32357       -0.24084       -0.30250       -0.27156       -0.29492       -0.13421       -0.14602       -0.20769       -0.03874        0.02673       -0.02661        0.07307        0.03386        0.23053        0.24475        0.33596        0.35078        0.38496        0.42302        0.49855        0.55751        0.56862        0.51004        0.48733        0.51173        0.46477        0.52195        0.44569        0.41217        0.41542        0.35309        0.29732        0.30743        0.33445        0.22737        0.19685        0.12815        0.15297        0.16347        0.18257        0.16209        0.23260        0.28658        0.31343        0.29287        0.38791        0.46836        0.39656        0.48630        0.59710        0.55323        0.52174        0.56153        0.59711        0.41785        0.48198        0.39567        0.32526        0.30296        0.28314        0.25374        0.19255        0.18432        0.14974        0.20410        0.25785        0.28836        0.34315        0.30591        0.40981        0.42545        0.45869        0.48670        0.48269        0.51323        0.45612        0.43572        0.40843        0.33969        0.31958        0.31219        0.31865        0.25268        0.24502        0.25579        0.24358        0.27160        0.32629        0.42880        0.46087        0.41995        0.42204        0.47167        0.45895        0.46744        0.46187        0.38164        0.36462        0.40085        0.36303        0.30621        0.29945        0.31951        0.28280        0.29948        0.30033        0.31679        0.36209        0.37832        0.42956        0.44027        0.36233        0.45201        0.42063        0.35504        0.30590        0.34897        0.32925        0.30529        0.32061        0.28170        0.28498        0.32338        0.33800        0.44071        0.40971        0.37348        0.39024        0.43046        0.36464        0.35357        0.34020        0.34702        0.28137        0.27880        0.30151        0.37661        0.38182        0.34008        0.34824        0.39648        0.39133        0.45279        0.39592        0.36342        0.33235        0.32826        0.32218        0.31710        0.34223        0.38784        0.36840        0.37255        0.32886        0.43880        0.35871        0.34935        0.33436        0.37819        0.37162        0.30646        0.31361        0.27822        0.31211        0.32805        0.31449        0.33876        0.33390        0.35590        0.34507        0.33687        0.30831        0.29870        0.28417        0.33090        0.33895        0.33888        0.30032        0.34458        0.33854        0.33622        0.33777        0.30486        0.28546        0.31267        0.32696        0.32176        0.31575        0.29807        0.31505        0.34159        0.33166        0.33101        0.38439        0.33762        0.27366        0.31614        0.32549        0.32181        0.34143        0.29343        0.32637        0.28379        0.31685        0.31781        0.36740        0.31869        0.31235        0.29837        0.28511        0.37082        0.36042        0.32351        0.32297        0.30219        0.30297        0.33628        0.33262        0.28218        0.32167        0.27370        0.26420        0.27783        0.30555        0.31865        0.32698        0.23505        0.28215        0.34008        0.33511        0.34022        0.33127        0.31017        0.31311        0.32672        0.31479        0.25716        0.27734        0.28610        0.33386        0.32568        0.34255        0.34872        0.34016        0.33809        0.32935        0.32340        0.30866        0.31585        0.31447        0.26115        0.28152        0.32502        0.33702        0.24239        0.19821        0.21046        0.30131        0.30963        0.29641        0.27783        0.27364        0.27965        0.23869        0.26947        0.27032        0.26924        0.25725        0.25546        0.25227        0.20473        0.24958        0.32223        0.36894        0.26671        0.23767        0.20347        0.18701        0.27963        0.28835        0.38740        0.26519        0.23968        0.29847        0.36392        0.18458       -0.00372       -0.10554       -0.54250       -0.75529
3.358650 3.321221 3.284004 3.246999 3.210207 3.173625 3.137256 3.101098 3.065152 3.029418 2.993896 2.958586 2.923487 2.888601 2.853926 2.819463 2.785212 2.751173 2.717345 2.683729 2.650326 2.617134 2.584153 2.551385 2.518828 2.486484 2.454351 2.422430 2.390721 2.359223 2.327938 2.296864 2.266002 2.235352 2.204914 2.174687 2.144673 2.114870 2.085279 2.055900 2.026732 1.997777 1.969033 1.940502 1.912182 1.884073 1.856177 1.828493 1.801020 1.773759 1.746710 1.648020 1.960809 1.695196 1.078329 1.145819 0.364852 0.898856 0.527184 0.639897 0.919756 0.667238 0.654501 0.754427 0.689021 0.640053 0.463250 0.341968 0.182884 -0.007234 -0.003566 0.107225 0.402404 -0.033530 0.162056 0.042367 0.145741 -0.059937 0.258591 0.181698 0.096767 0.297651 0.495187 0.288016 0.456184 0.363105 0.769439 0.637487 0.853992 0.865178 0.810688 1.032010 0.932260 1.235432 1.066760 1.107258 0.984756 1.006131 0.949582 0.891194 0.931102 0.757789 0.725209 0.652262 0.615466 0.459565 0.556351 0.445780 0.277221 0.200082 0.137628 0.180409 0.218764 0.156603 0.181716 0.360057 0.344782 0.359528 0.461729 0.529744 0.530522 0.413621 0.798251 0.812297 0.620746 0.669327 0.753860 0.529856 0.417909 0.492274 0.196861 0.246203 0.101117 0.161522 -0.017002 -0.036032 -0.108792 -0.103928 0.104866 0.000337 0.128868 0.187446 0.162354 0.309205 0.310659 0.384201 0.338899 0.448468 0.340743 0.265636 0.243414 0.145621 0.090093 0.054908 0.024458 0.003915 -0.063794 -0.092867 -0.094429 -0.064881 -0.059511 0.138850 0.311554 0.198018 0.207604 0.260855 0.345690 0.242259 0.342736 0.282016 0.150932 0.132187 0.275643 0.004184 0.043449 0.028855 0.058233 -0.012440 0.086385 -0.009217 0.138174 -0.009093 0.230663 0.268452 0.193662 0.250536 0.204706 0.153898 0.041945 0.076512 0.081238 0.023351 -0.005144 0.041156 -0.071440 -0.015318 0.026459 0.116175 0.281571 0.150068 0.120453 0.208530 0.142610 0.134106 0.047866 0.062559 0.061176 -0.089115 -0.010874 0.034585 0.143207 0.114999 0.035996 0.082702 0.175349 0.161021 0.280349 0.110772 0.093747 0.042834 0.013835 0.058934 0.030256 0.091768 0.163655 0.114966 0.083148 0.136850 0.183000 0.024437 0.072925 0.055061 0.132839 0.069594 -0.008873 0.008022 -0.053748 0.011300 0.047624 0.027145 0.013157 -0.007313 0.055324 0.019929 0.011642 -0.042973 -0.052782 -0.036803 -0.025700 0.059384 -0.021352 -0.008431 0.035082 0.044631 0.022095 0.056266 -0.033791 -0.030909 0.005826 0.025128 0.022639 0.021556 -0.026593 -0.004879 0.077819 0.033139 0.012965 0.166367 -0.040463 -0.063640 0.024777 0.013352 0.012042 0.033888 -0.041482 0.023801 -0.069528 0.012550 0.033982 0.098963 -0.023912 -0.020918 -0.043097 -0.032613 0.091629 0.068205 -0.030742 0.033254 -0.056838 -0.031698 0.024151 -0.003796 -0.070910 0.030525 -0.114539 -0.091189 -0.047809 -0.070824 0.053245 -0.072538 -0.219007 -0.022530 0.055840 -0.022039 -0.020651 0.032478 -0.054032 -0.027502 -0.036144 -0.057256 -0.132387 -0.128049 -0.123591 0.021958 -0.009359 -0.022495 0.019603 0.028297 -0.104945 0.027909 -0.011031 -0.087575 -0.017025 -0.007508 -0.129287 -0.056335 -0.002146 0.066651 -0.091223 -0.264543 -0.108910 0.110271 0.011546 -0.037338 0.037124 0.023217 0.015435 -0.046766 -0.054639 0.032187 0.007630 0.019074 -0.002925 0.050684 -0.136662 0.055980 0.236265 0.184182 0.052292 0.068624 -0.109699 0.025137 0.072485 0.098919 0.402160 0.342398 0.412108 0.528154 0.750773 0.341216 -0.112701 -0.171393 -1.285374
0.072396 0.072907 0.074441 0.076996 0.080572 0.085168 0.090784 0.097417 0.105064 0.113724 0.123393 0.134065 0.145737 0.158400 0.172046 0.186667 0.202251 0.218784 0.236250 0.254632 0.273908 0.294054 0.315044 0.336845 0.359425 0.382742 0.406756 0.431416 0.456670 0.482459 0.508719 0.535380 0.562366 0.589594 0.616975 0.644412 0.671803 0.699039 0.726001 0.752566 0.778603 0.803974 0.828534 0.852132 0.874610 0.895806 0.915552 0.933675 0.949997 0.964340 0.976521 0.986359 0.993670 0.998274 0.999992 0.998652 0.994085 0.986133 0.974646 0.959486 0.940530 0.917669 0.890817 0.859902 0.824882 0.785734 0.742468 0.695119 0.643759 0.588490 0.529452 0.466822 0.400817 0.331694 0.259750 0.185325 0.108801 0.030602 0.048809 0.128928 0.209216 0.289097 0.367964 0.445183 0.520097 0.592029 0.660293 0.724197 0.783050 0.836171 0.882898 0.922597 0.954668 0.978561 0.993778 0.999891 0.996546 0.983475 0.960506 0.927570 0.884710 0.832088 0.769991 0.698835 0.619169 0.531672 0.437161 0.336578 0.230991 0.121585 0.009652 0.103422 0.216171 0.327069 0.434546 0.537014 0.632888 0.720614 0.798694 0.865716 0.920385 0.961545 0.988213 0.999604 0.995157 0.974557 0.937752 0.884975 0.816751 0.733902 0.637551 0.529114 0.410290 0.283041 0.149567 0.012272 0.126274 0.263376 0.396273 0.522187 0.638383 0.742238 0.831297 0.903341 0.956448 0.989052 0.999999 0.988594 0.954635 0.898448 0.820902 0.723411 0.607928 0.476913 0.333305 0.180455 0.022064 0.137901 0.295305 0.445948 0.585677 0.710511 0.816750 0.901106 0.960806 0.993702 0.998356 0.974121 0.921185 0.840610 0.734327 0.605121 0.456569 0.292966 0.119211 0.059327 0.236968 0.407899 0.566361 0.706854 0.824333 0.914403 0.973499 0.999046 0.989591 0.944898 0.866002 0.755222 0.616124 0.453425 0.272868 0.081027 0.114911 0.307413 0.488880 0.651956 0.789837 0.896564 0.967306 0.998598 0.988542 0.936939 0.845357 0.717131 0.557271 0.372303 0.170027 0.040786 0.250775 0.450377 0.630284 0.781879 0.897671 0.971685 0.999806 0.980036 0.912667 0.800336 0.647977 0.462637 0.253202 0.029976 0.195776 0.412416 0.608514 0.773467 0.898097 0.975190 0.999950 0.970338 0.887272 0.754663 0.579291 0.370505 0.139763 0.099965 0.334913 0.551298 0.736140 0.878066 0.968038 0.999975 0.971213 0.882765 0.739370 0.549303 0.323948 0.077168 0.175523 0.417907 0.634122 0.809692 0.932548 0.993892 0.988884 0.917081 0.782591 0.593911 0.363461 0.106822 0.158285 0.413195 0.639608 0.820935 0.943528 0.997785 0.978946 0.887587 0.729713 0.516445 0.263322 0.010788 0.285061 0.538263 0.750423 0.904437 0.987487 0.992192 0.917330 0.768100 0.555853 0.297318 0.013353 0.272702 0.536916 0.756788 0.913178 0.992056 0.985829 0.894156 0.724160 0.489974 0.211668 0.086416 0.377737 0.635923 0.837167 0.962477 0.999546 0.944057 0.800268 0.580823 0.305735 0.000656 0.305460 0.583088 0.804987 0.948924 0.999983 0.952213 0.809427 0.585034 0.300907 0.014661 0.329703 0.611806 0.831455 0.965178 0.998155 0.925967 0.755299 0.503465 0.196787 0.132089 0.447576 0.715023 0.904534 0.994402 0.973707 0.843774 0.618275 0.321954 0.011986 0.345515 0.640089 0.861120 0.982108 0.987941 0.876921 0.661235 0.365796 0.025482 0.318877 0.625362 0.856099 0.982001 0.986565 0.868187 0.640661 0.331751 0.020070 0.370290 0.673993 0.891616 0.994220 0.967466 0.813784 0.552392 0.217065 0.148101 0.494383 0.774942 0.951216
1.000000 1.000000 1.000000 1.000000 1.000000 1.000000 1.000000 1.000000 1.000000 1.000000 1.000000 1.000000 1.000000 1.000000 1.000000 1.000000 1.000000 1.000000 1.000000 1.000000 1.000000 1.000000 1.000000 1.000000 1.000000 1.000000 1.000000 1.000000 1.000000 1.000000 1.000000 1.000000 1.000000 1.000000 1.000000 1.000000 1.000000 1.000000 1.000000 1.000000 1.000000 1.000000 1.000000 1.000000 1.000000 1.000000 1.000000 1.000000 1.000000 1.000000 1.000000 1.000000 0.829022 0.829022 0.829022 0.808060 0.808060 0.808060 0.808060 0.808060 0.808060 0.808060 0.808060 0.808060 0.808060 0.808060 0.808060 0.808060 0.808060 0.808060 0.808060 0.808060 0.808060 0.808060 0.808060 0.808060 0.808060 0.808060 0.808060 0.808060 0.808060 0.808060 0.808060 0.808060 0.808060 0.808060 0.808060 0.808060 0.808060 0.808060 0.808060 0.808060 0.808060 0.808060 0.808060 0.808060 0.855854 0.862400 0.867539 0.870550 0.870800 0.867714 0.866584 0.866133 0.865513 0.866734 0.873052 0.898400 0.915679 0.917760 0.929077 0.930923 0.935793 0.938423 0.958142 0.959661 0.961094 0.960236 0.961167 0.963078 0.967137 0.967292 0.968267 0.968587 0.968740 0.969323 0.969039 0.968263 0.967251 0.966552 0.964041 0.963944 0.964449 0.965052 0.965657 0.960324 0.960587 0.960838 0.962769 0.961251 0.946680 0.941006 0.937200 0.935282 0.915538 0.916710 0.915198 0.910955 0.902748 0.902812 0.892487 0.893663 0.893211 0.887725 0.886319 0.883284 0.879864 0.870312 0.868982 0.867326 0.869410 0.873470 0.876379 0.862155 0.846410 0.829267 0.812549 0.797167 0.798096 0.802313 0.798141 0.802010 0.805062 0.803749 0.802194 0.796865 0.782892 0.791675 0.790190 0.786205 0.779825 0.779121 0.765646 0.759796 0.753383 0.729466 0.710577 0.695838 0.699534 0.689860 0.686381 0.688781 0.696859 0.700186 0.703421 0.696800 0.693930 0.680864 0.655093 0.661451 0.672522 0.675711 0.664971 0.661911 0.639184 0.664671 0.669397 0.687165 0.695949 0.696242 0.696050 0.677082 0.645826 0.624175 0.625839 0.609457 0.620889 0.628492 0.626348 0.613976 0.624120 0.635331 0.646875 0.607404 0.605951 0.589305 0.586812 0.587150 0.583108 0.551612 0.526328 0.514915 0.491927 0.474271 0.488746 0.482258 0.477171 0.501036 0.464739 0.462282 0.460562 0.462191 0.461660 0.454061 0.431655 0.434591 0.435400 0.417762 0.395717 0.338311 0.316442 0.319764 0.322675 0.326184 0.349334 0.367231 0.328977 0.306014 0.304377 0.327460 0.320116 0.332492 0.339420 0.312490 0.309803 0.216800 0.215016 0.236888 0.247115 0.255765 0.231561 0.253364 0.253959 0.232704 0.208538 0.141852 0.091306 0.070877 0.096005 0.105882 0.116702 0.102981 0.074802 0.077609 0.084943 0.040217 0.024558 0.018530 0.022040 0.036785 0.061686 0.054791 0.053392 0.064932 0.082416 0.049531 0.042739 0.049090 0.072265 0.055137 0.038247 0.012398 0.003117 -0.016314 -0.023226 -0.001414 0.010243 0.017806 0.051156 0.025664 -0.019280 -0.046897 -0.038160 -0.053768 -0.060510 -0.091237 -0.075712 -0.097122 -0.077792 -0.058373 0.006259 0.010536 0.012402 -0.011777 0.016595 -0.030754 -0.041483 -0.033116 -0.054460 -0.041746 0.007680 0.021174 0.026681 -0.021493 -0.037691 -0.037691 -0.037691 -0.059274 -0.059274 -0.059274 -0.059274 -0.059274 -0.059274 -0.059274 -0.059274 -0.059274 -0.070633 -0.070633 -0.070633 -0.070633 -0.070633 -0.070633 -0.070633 -0.070633 -0.070633 -0.070633 -0.070633 -0.070633 -0.070633 -0.070633 -0.070633 -0.070633 -0.070633
0.000000 0.000000 0.000000 0.000000 0.000000 0.000000 0.000000 0.000000 0.000000 0.000000 0.000000 0.000000 0.000000 0.000000 0.000000 0.000000 0.000000 0.000000 0.000000 0.000000 0.000000 0.000000 0.000000 0.000000 0.000000 0.000000 0.000000 0.000000 0.000000 0.000000 0.000000 0.000000 0.000000 0.000000 0.000000 0.000000 0.000000 0.000000 0.000000 0.000000 0.000000 0.000000 0.000000 0.000000 0.000000 0.000000 0.000000 0.000000 0.000000 0.000000 0.000000 0.000000 0.180334 0.180334 0.180334 0.199007 0.199007 0.199007 0.199007 0.199007 0.199007 0.199007 0.199007 0.199007 0.199007 0.199007 0.199007 0.199007 0.199007 0.199007 0.199007 0.199007 0.199007 0.199007 0.199007 0.199007 0.199007 0.199007 0.199007 0.199007 0.199007 0.199007 0.199007 0.199007 0.199007 0.199007 0.199007 0.199007 0.199007 0.199007 0.199007 0.199007 0.199007 0.199007 0.199007 0.199007 0.230940 0.230940 0.230940 0.230940 0.230940 0.230940 0.230940 0.230940 0.230940 0.230940 0.230940 0.230940 0.230940 0.230940 0.230940 0.230940 0.230940 0.230940 0.230940 0.230940 0.230940 0.230940 0.230940 0.230940 0.230940 0.230940 0.230940 0.230940 0.248069 0.248069 0.248069 0.248069 0.248069 0.248069 0.248069 0.248069 0.248069 0.248069 0.248069 0.248069 0.248069 0.248069 0.248069 0.248069 0.248069 0.248069 0.248069 0.248069 0.248069 0.248069 0.251976 0.251976 0.251976 0.251976 0.251976 0.251976 0.251976 0.251976 0.251976 0.251976 0.251976 0.251976 0.251976 0.251976 0.251976 0.251976 0.251976 0.251976 0.251976 0.251976 0.256074 0.256074 0.256074 0.256074 0.256074 0.256074 0.256074 0.256074 0.256074 0.256074 0.256074 0.256074 0.256074 0.256074 0.256074 0.256074 0.256074 0.256074 0.264906 0.264906 0.264906 0.264906 0.264906 0.264906 0.264906 0.264906 0.264906 0.264906 0.264906 0.264906 0.264906 0.264906 0.264906 0.264906 0.264906 0.264906 0.264906 0.264906 0.264906 0.264906 0.264906 0.264906 0.264906 0.264906 0.264906 0.264906 0.264906 0.264906 0.264906 0.274721 0.274721 0.274721 0.274721 0.274721 0.274721 0.274721 0.274721 0.274721 0.274721 0.274721 0.274721 0.274721 0.256074 0.256074 0.256074 0.256074 0.256074 0.256074 0.256074 0.256074 0.256074 0.256074 0.256074 0.256074 0.256074 0.256074 0.269680 0.269680 0.269680 0.269680 0.269680 0.269680 0.269680 0.269680 0.269680 0.269680 0.269680 0.269680 0.264906 0.264906 0.264906 0.264906 0.264906 0.264906 0.264906 0.264906 0.264906 0.264906 0.264906 0.264906 0.269680 0.269680 0.269680 0.269680 0.269680 0.269680 0.269680 0.269680 0.269680 0.269680 0.269680 0.264906 0.264906 0.264906 0.264906 0.264906 0.264906 0.264906 0.264906 0.264906 0.264906 0.264906 0.269680 0.269680 0.269680 0.269680 0.269680 0.269680 0.269680 0.269680 0.269680 0.269680 0.251976 0.251976 0.251976 0.251976 0.251976 0.251976 0.251976 0.251976 0.251976 0.251976 0.251976 0.269680 0.269680 0.269680 0.269680 0.269680 0.269680 0.269680 0.269680 0.269680 0.256074 0.256074 0.256074 0.256074 0.256074 0.256074 0.256074 0.256074 0.256074 0.256074 0.260378 0.260378 0.260378 0.260378 0.260378 0.260378 0.260378 0.260378 0.260378 0.256074 0.256074 0.256074 0.256074 0.256074 0.256074 0.256074 0.256074 0.256074 0.251976 0.251976 0.251976 0.251976 0.251976 0.251976 0.251976 0.251976 0.251976 0.251976 0.251976 0.251976 0.251976 0.251976 0.251976 0.251976 0.251976
