# Output from CTFFind version 4.1.9, run on 2019-11-03 20:02:29
# Input file: stack6_bm3d_averaged_1_7.5_0_50_half.mrc ; Number of micrographs: 1
# Pixel size: 3.000 Angstroms ; acceleration voltage: 300.0 keV ; spherical aberration: 0.00 mm ; amplitude contrast: 0.07
# Box size: 512 pixels ; min. res.: 30.0 Angstroms ; max. res.: 5.0 Angstroms ; min. def.: 5000.0 um; max. def. 50000.0 um; num. frames averaged: 1
# 6 lines per micrograph: #1 - spatial frequency (1/Angstroms); #2 - 1D rotational average of spectrum (assuming no astigmatism); #3 - 1D rotational average of spectrum; #4 - CTF fit; #5 - cross-correlation between spectrum and CTF fit; #6 - 2sigma of expected cross correlation of noise
0.000000 0.000651 0.001302 0.001953 0.002604 0.003255 0.003906 0.004557 0.005208 0.005859 0.006510 0.007161 0.007812 0.008464 0.009115 0.009766 0.010417 0.011068 0.011719 0.012370 0.013021 0.013672 0.014323 0.014974 0.015625 0.016276 0.016927 0.017578 0.018229 0.018880 0.019531 0.020182 0.020833 0.021484 0.022135 0.022786 0.023438 0.024089 0.024740 0.025391 0.026042 0.026693 0.027344 0.027995 0.028646 0.029297 0.029948 0.030599 0.031250 0.031901 0.032552 0.033203 0.033854 0.034505 0.035156 0.035807 0.036458 0.037109 0.037760 0.038411 0.039062 0.039714 0.040365 0.041016 0.041667 0.042318 0.042969 0.043620 0.044271 0.044922 0.045573 0.046224 0.046875 0.047526 0.048177 0.048828 0.049479 0.050130 0.050781 0.051432 0.052083 0.052734 0.053385 0.054036 0.054688 0.055339 0.055990 0.056641 0.057292 0.057943 0.058594 0.059245 0.059896 0.060547 0.061198 0.061849 0.062500 0.063151 0.063802 0.064453 0.065104 0.065755 0.066406 0.067057 0.067708 0.068359 0.069010 0.069661 0.070312 0.070964 0.071615 0.072266 0.072917 0.073568 0.074219 0.074870 0.075521 0.076172 0.076823 0.077474 0.078125 0.078776 0.079427 0.080078 0.080729 0.081380 0.082031 0.082682 0.083333 0.083984 0.084635 0.085286 0.085938 0.086589 0.087240 0.087891 0.088542 0.089193 0.089844 0.090495 0.091146 0.091797 0.092448 0.093099 0.093750 0.094401 0.095052 0.095703 0.096354 0.097005 0.097656 0.098307 0.098958 0.099609 0.100260 0.100911 0.101562 0.102214 0.102865 0.103516 0.104167 0.104818 0.105469 0.106120 0.106771 0.107422 0.108073 0.108724 0.109375 0.110026 0.110677 0.111328 0.111979 0.112630 0.113281 0.113932 0.114583 0.115234 0.115885 0.116536 0.117188 0.117839 0.118490 0.119141 0.119792 0.120443 0.121094 0.121745 0.122396 0.123047 0.123698 0.124349 0.125000 0.125651 0.126302 0.126953 0.127604 0.128255 0.128906 0.129557 0.130208 0.130859 0.131510 0.132161 0.132812 0.133464 0.134115 0.134766 0.135417 0.136068 0.136719 0.137370 0.138021 0.138672 0.139323 0.139974 0.140625 0.141276 0.141927 0.142578 0.143229 0.143880 0.144531 0.145182 0.145833 0.146484 0.147135 0.147786 0.148438 0.149089 0.149740 0.150391 0.151042 0.151693 0.152344 0.152995 0.153646 0.154297 0.154948 0.155599 0.156250 0.156901 0.157552 0.158203 0.158854 0.159505 0.160156 0.160807 0.161458 0.162109 0.162760 0.163411 0.164062 0.164714 0.165365 0.166016 0.166667 0.167318 0.167969 0.168620 0.169271 0.169922 0.170573 0.171224 0.171875 0.172526 0.173177 0.173828 0.174479 0.175130 0.175781 0.176432 0.177083 0.177734 0.178385 0.179036 0.179688 0.180339 0.180990 0.181641 0.182292 0.182943 0.183594 0.184245 0.184896 0.185547 0.186198 0.186849 0.187500 0.188151 0.188802 0.189453 0.190104 0.190755 0.191406 0.192057 0.192708 0.193359 0.194010 0.194661 0.195312 0.195964 0.196615 0.197266 0.197917 0.198568 0.199219 0.199870 0.200521 0.201172 0.201823 0.202474 0.203125 0.203776 0.204427 0.205078 0.205729 0.206380 0.207031 0.207682 0.208333 0.208984 0.209635 0.210286 0.210938 0.211589 0.212240 0.212891 0.213542 0.214193 0.214844 0.215495 0.216146 0.216797 0.217448 0.218099 0.218750 0.219401 0.220052 0.220703 0.221354 0.222005 0.222656 0.223307 0.223958 0.224609 0.225260 0.225911 0.226562 0.227214 0.227865 0.228516 0.229167 0.229818 0.230469 0.231120 0.231771 0.232422 0.233073 0.233724 0.234375 0.235026 0.235677
       0.33422        0.33422        0.33422        0.33422        0.33422        0.33422        0.33422        0.33422        0.33422        0.33422        0.33422        0.33422        0.33422        0.33422        0.33422        0.33422        0.33422        0.33422        0.33422        0.33422        0.33422        0.33422        0.33422        0.33422        0.33422        0.33422        0.33422        0.33422        0.33422        0.33422        0.33422        0.33422        0.33422        0.33422        0.33422        0.33422        0.33422        0.33422        0.33422        0.33422        0.33422        0.33422        0.33422        0.33422        0.33422        0.33422        0.33422        0.33422        0.33422        0.33422        0.33422        0.59554        0.70752        0.36646        0.17167        0.14048       -0.12703        0.11318        0.04218        0.04444        0.09397        0.30993        0.30564        0.23535        0.14160       -0.03715       -0.00916        0.05309       -0.08610       -0.09281       -0.06739       -0.07283       -0.16929       -0.10693       -0.21587       -0.23518       -0.23402       -0.29165       -0.36153       -0.28990       -0.19928       -0.16281       -0.27074       -0.19688       -0.23519       -0.17633       -0.11861       -0.05951       -0.03230        0.02205        0.07199        0.15357        0.19440        0.23699        0.34765        0.41240        0.36263        0.48581        0.54571        0.55396        0.62928        0.55292        0.58330        0.60534        0.60410        0.59205        0.56040        0.59819        0.54111        0.40023        0.35722        0.37888        0.34431        0.21452        0.20782        0.17689        0.12009        0.11712        0.04622        0.11490        0.09177        0.06060        0.14049        0.19449        0.28025        0.34859        0.36841        0.40161        0.44927        0.48140        0.42351        0.63593        0.55118        0.48211        0.56923        0.50444        0.56066        0.51807        0.39302        0.33109        0.31784        0.27286        0.26252        0.21748        0.20010        0.17961        0.27197        0.25030        0.26741        0.23859        0.27621        0.34064        0.33866        0.45110        0.44680        0.43487        0.41880        0.48344        0.43694        0.41618        0.40952        0.39662        0.33668        0.28387        0.28753        0.27425        0.27249        0.21766        0.20904        0.25555        0.27293        0.29220        0.35169        0.38853        0.42820        0.41937        0.42972        0.49382        0.47720        0.43068        0.38260        0.41938        0.38439        0.33228        0.34211        0.33364        0.27620        0.28623        0.28229        0.25982        0.32255        0.30280        0.32185        0.34206        0.40120        0.42472        0.41390        0.44271        0.39301        0.43589        0.40961        0.33901        0.30325        0.28033        0.28978        0.26293        0.23139        0.31648        0.37990        0.34103        0.31352        0.36942        0.29718        0.35543        0.40608        0.39046        0.36679        0.37975        0.35062        0.36474        0.33592        0.30992        0.29027        0.27414        0.32510        0.33648        0.35696        0.37095        0.39200        0.37316        0.36792        0.32855        0.35918        0.36795        0.34807        0.33116        0.29107        0.29036        0.27407        0.34245        0.33835        0.35300        0.32161        0.35214        0.37674        0.34088        0.35861        0.35233        0.31780        0.31541        0.31137        0.28534        0.27646        0.26666        0.25699        0.27786        0.27069        0.30546        0.27549        0.31779        0.36448        0.26584        0.29708        0.28408        0.25411        0.30908        0.29145        0.29258        0.31895        0.33139        0.33252        0.31932        0.31825        0.31570        0.36843        0.36268        0.30459        0.32837        0.32020        0.37076        0.28105        0.28095        0.29951        0.30827        0.33485        0.37054        0.35888        0.29782        0.23403        0.29950        0.27109        0.26144        0.26317        0.28067        0.31325        0.24278        0.30919        0.33551        0.36980        0.31014        0.32074        0.28894        0.29643        0.29243        0.27172        0.29385        0.27103        0.28441        0.35398        0.35142        0.28577        0.32976        0.33023        0.26237        0.23156        0.19075        0.33501        0.32782        0.36302        0.34937        0.29314        0.23279        0.22229        0.28205        0.27440        0.27284        0.29792        0.29481        0.24901        0.28624        0.28848        0.31008        0.28498        0.28288        0.27697        0.24635        0.23905        0.29511        0.25319        0.21591        0.25882        0.25994        0.26440        0.22685        0.20718        0.27401        0.30994        0.28321        0.20725        0.14839        0.28449        0.22546        0.26393        0.27514        0.16644        0.16138        0.20803        0.24088        0.30909        0.08622       -0.12552       -0.61596       -0.97522
2.440805 2.420124 2.399535 2.379038 2.358632 2.338317 2.318094 2.297962 2.277922 2.257974 2.238116 2.218351 2.198676 2.179094 2.159602 2.140203 2.120894 2.101677 2.082552 2.063518 2.044576 2.025725 2.006965 1.988297 1.969721 1.951236 1.932842 1.914540 1.896330 1.878211 1.860183 1.842247 1.824402 1.806649 1.788987 1.771417 1.753939 1.736551 1.719255 1.702051 1.684938 1.667917 1.650987 1.634149 1.617402 1.600747 1.584183 1.567710 1.551329 1.535040 1.518842 1.876196 2.219373 1.542247 1.332687 1.109934 0.519840 0.939622 0.802938 0.849570 0.701663 1.433488 1.195831 1.213893 0.990668 0.593307 0.469489 0.749375 0.608596 0.287845 0.269465 0.489554 0.251410 0.269023 0.111161 -0.001526 -0.016632 -0.009002 -0.322453 -0.139608 0.014601 0.015917 -0.079028 -0.013161 -0.101330 -0.079387 0.070059 0.202333 0.263596 0.282271 0.392113 0.637279 0.566609 0.675986 0.831716 1.070247 0.809578 1.279783 1.201898 1.279315 1.378006 1.269018 1.163307 1.385111 1.245223 1.348733 1.212437 1.217854 1.228308 0.967795 0.724381 0.753397 0.800620 0.483295 0.455349 0.374830 0.245009 0.198893 0.034407 0.242020 0.177352 0.065961 0.147166 0.242646 0.368990 0.608508 0.612586 0.638570 0.698648 0.882704 0.597035 1.030347 1.059394 0.778137 0.928952 0.773866 0.896534 0.924986 0.656947 0.411969 0.443324 0.393229 0.223635 0.251321 0.160809 -0.015178 0.257679 0.241265 0.264278 0.161751 0.247239 0.335649 0.275163 0.502964 0.604853 0.561187 0.369136 0.648920 0.564097 0.413067 0.545943 0.433083 0.263600 0.308698 0.142158 0.218082 0.024634 0.215960 -0.052428 0.058207 0.068300 0.260043 0.044702 0.400061 0.352269 0.406833 0.378561 0.421715 0.594564 0.411079 0.340789 0.396929 0.195339 0.367325 0.103127 0.267915 0.063774 0.088199 0.078342 0.059894 0.044661 0.157423 0.055604 0.159611 0.242287 0.287215 0.329455 0.263288 0.344909 0.264086 0.293845 0.190194 0.104607 0.019099 -0.005516 0.016469 -0.061225 -0.073264 0.128321 0.219552 0.050541 0.107886 0.133647 0.007570 0.193840 0.262354 0.188174 0.175534 0.127999 0.171459 0.102790 0.094479 0.045417 -0.088178 0.001616 0.130857 0.059160 0.156770 0.138705 0.221740 0.174867 0.147768 0.106454 0.186988 0.099588 0.145990 0.087718 0.001818 -0.012611 -0.015728 0.126692 0.119899 0.134086 0.059608 0.151221 0.168256 0.041228 0.145985 0.054893 -0.010293 0.028188 0.007491 -0.060629 -0.060508 -0.119123 -0.050129 -0.052164 -0.100293 0.006858 -0.056469 0.041006 0.106453 -0.118840 0.017969 -0.053531 -0.093479 0.052571 -0.019244 -0.058910 0.045186 0.101244 0.031241 0.057024 -0.046517 0.025045 0.213969 0.012599 -0.053753 0.076989 0.040059 0.109892 -0.115892 -0.047850 -0.002305 0.040052 0.062404 0.106137 0.128369 -0.055273 -0.112692 0.009147 -0.062664 -0.064713 -0.046531 -0.040418 0.058274 -0.174325 0.133213 0.140722 0.185872 0.037589 0.067835 0.041339 0.032285 0.099914 -0.016612 0.044164 0.012760 0.049312 0.148526 0.195472 0.044126 0.175943 0.167376 -0.040399 -0.011415 -0.158823 0.242811 0.130967 0.218482 0.178672 0.025473 -0.062126 -0.092599 0.026658 0.013417 -0.022701 0.056667 0.047058 -0.082589 0.021150 0.119558 0.064646 0.033612 0.001542 0.055397 -0.120651 -0.008225 0.062066 -0.041041 -0.133563 0.026060 -0.018230 -0.046699 -0.049794 -0.130644 0.078910 0.117552 -0.010063 -0.100204 -0.358894 0.156346 0.506625 0.462479 0.578692 0.260003 0.323559 0.433635 0.509823 0.595457 0.013546 -0.003021 -0.953084
0.072396 0.072838 0.074163 0.076371 0.079462 0.083435 0.088289 0.094022 0.100634 0.108122 0.116484 0.125716 0.135815 0.146776 0.158594 0.171262 0.184772 0.199116 0.214282 0.230259 0.247032 0.264586 0.282903 0.301961 0.321739 0.342209 0.363344 0.385111 0.407474 0.430396 0.453833 0.477738 0.502061 0.526747 0.551735 0.576960 0.602354 0.627843 0.653346 0.678779 0.704051 0.729069 0.753731 0.777931 0.801559 0.824499 0.846629 0.867825 0.887956 0.906890 0.924488 0.940610 0.955112 0.967851 0.978680 0.987451 0.994019 0.998237 0.999964 0.999060 0.995388 0.988821 0.979236 0.966518 0.950564 0.931282 0.908590 0.882425 0.852736 0.819493 0.782682 0.742313 0.698416 0.651047 0.600285 0.546238 0.489041 0.428857 0.365881 0.300336 0.232478 0.162594 0.091002 0.018050 0.055883 0.130388 0.205031 0.279348 0.352856 0.425047 0.495396 0.563366 0.628407 0.689964 0.747479 0.800402 0.848190 0.890315 0.926273 0.955588 0.977820 0.992569 0.999485 0.998277 0.988713 0.970632 0.943948 0.908657 0.864842 0.812675 0.752424 0.684454 0.609231 0.527317 0.439375 0.346165 0.248540 0.147440 0.043885 0.061028 0.166143 0.270251 0.372106 0.470437 0.563965 0.651424 0.731572 0.803218 0.865233 0.916578 0.956321 0.983654 0.997916 0.998607 0.985407 0.958192 0.917039 0.862242 0.794319 0.714007 0.622269 0.520285 0.409446 0.291336 0.167716 0.040506 0.088250 0.216406 0.341757 0.462066 0.575119 0.678750 0.770902 0.849658 0.913296 0.960323 0.989521 0.999980 0.991137 0.962795 0.915150 0.848800 0.764752 0.664419 0.549605 0.422480 0.285552 0.141622 0.006269 0.154897 0.300927 0.440980 0.571721 0.689935 0.792613 0.877034 0.940842 0.982127 0.999484 0.992074 0.959665 0.902665 0.822136 0.719788 0.597962 0.459586 0.308120 0.147478 0.018066 0.183983 0.345614 0.498297 0.637510 0.759000 0.858929 0.934004 0.981593 0.999836 0.987727 0.945176 0.873050 0.773168 0.648289 0.502048 0.338864 0.163824 0.017463 0.199040 0.374797 0.538674 0.684877 0.808085 0.903659 0.967832 0.997874 0.992225 0.950588 0.873990 0.764777 0.626575 0.464192 0.283467 0.091080 0.105682 0.299199 0.481803 0.646095 0.785242 0.893285 0.965408 0.998170 0.989698 0.939809 0.850073 0.723801 0.565943 0.382939 0.182460 0.026882 0.235900 0.435226 0.615737 0.768976 0.887568 0.965597 0.998919 0.985421 0.925170 0.820481 0.675864 0.497862 0.294798 0.076395 0.146661 0.363236 0.562304 0.733521 0.867767 0.957665 0.998014 0.986118 0.922006 0.808499 0.651135 0.457938 0.239048 0.006209 0.227834 0.450029 0.647754 0.809529 0.925727 0.989163 0.995583 0.943987 0.836772 0.679681 0.481538 0.253798 0.009912 0.235431 0.467203 0.670938 0.833664 0.944749 0.996643 0.985427 0.911160 0.777971 0.593885 0.370404 0.121820 0.135662 0.384967 0.609279 0.793179 0.923751 0.991510 0.991152 0.922021 0.788260 0.598637 0.366026 0.106581 0.161341 0.418481 0.646035 0.827068 0.947796 0.998685 0.975268 0.878586 0.715243 0.497021 0.240102 0.036101 0.310362 0.561273 0.768927 0.916516 0.991754 0.987952 0.904681 0.747947 0.529842 0.267673 0.017345 0.301778 0.561874 0.775578 0.924413 0.995148 0.981031 0.882517 0.707374 0.470168 0.191118 0.105567 0.393759 0.647693 0.844311 0.965377 0.999256 0.942097 0.798357 0.580554 0.308267 0.006448 0.296823 0.572914 0.795383 0.942524 0.999570 0.960250 0.827572 0.613716 0.339009 0.030078 0.282680 0.568056 0.797160 0.946401 0.999962
1.000000 1.000000 1.000000 1.000000 1.000000 1.000000 1.000000 1.000000 1.000000 1.000000 1.000000 1.000000 1.000000 1.000000 1.000000 1.000000 1.000000 1.000000 1.000000 1.000000 1.000000 1.000000 1.000000 1.000000 1.000000 1.000000 1.000000 1.000000 1.000000 1.000000 1.000000 1.000000 1.000000 1.000000 1.000000 1.000000 1.000000 1.000000 1.000000 1.000000 1.000000 1.000000 1.000000 1.000000 1.000000 1.000000 1.000000 1.000000 1.000000 1.000000 1.000000 1.000000 0.768349 0.768349 0.768349 0.768349 0.768349 0.768349 0.768349 0.756377 0.756377 0.756377 0.756377 0.756377 0.756377 0.756377 0.756377 0.756377 0.756377 0.756377 0.756377 0.756377 0.756377 0.756377 0.756377 0.756377 0.756377 0.756377 0.756377 0.756377 0.756377 0.756377 0.756377 0.756377 0.756377 0.756377 0.756377 0.756377 0.756377 0.756377 0.756377 0.756377 0.756377 0.756377 0.756377 0.756377 0.756377 0.756377 0.756377 0.756377 0.756377 0.756377 0.756377 0.898404 0.899899 0.903011 0.898448 0.900395 0.895154 0.888677 0.890066 0.891797 0.891599 0.892444 0.894177 0.896827 0.904205 0.913170 0.915110 0.922053 0.925457 0.925398 0.931269 0.929910 0.934081 0.931454 0.929656 0.917728 0.921277 0.923252 0.922278 0.921121 0.917970 0.923618 0.922215 0.920107 0.914796 0.910826 0.908850 0.910486 0.908207 0.908798 0.908985 0.909938 0.908113 0.908911 0.905060 0.906018 0.904924 0.901378 0.898464 0.898230 0.899696 0.897995 0.894575 0.888152 0.894036 0.894128 0.893298 0.892212 0.892423 0.893218 0.894000 0.894679 0.892228 0.892281 0.889744 0.891516 0.888213 0.883598 0.877605 0.878088 0.880617 0.887703 0.889798 0.888325 0.885384 0.876706 0.866028 0.863544 0.852464 0.822668 0.824752 0.827942 0.829801 0.829939 0.828802 0.824989 0.821065 0.813483 0.804858 0.809610 0.810016 0.803132 0.799418 0.800342 0.801278 0.808618 0.812411 0.804237 0.800767 0.802532 0.798710 0.799847 0.803936 0.796259 0.793719 0.800756 0.808673 0.808598 0.793298 0.789087 0.786492 0.774853 0.782077 0.788578 0.786941 0.788436 0.785339 0.773287 0.772018 0.765638 0.776568 0.783483 0.782729 0.777664 0.761021 0.717062 0.701430 0.665414 0.662926 0.664555 0.630727 0.631049 0.632458 0.636063 0.578359 0.553597 0.539082 0.540284 0.549774 0.555073 0.548227 0.521447 0.538358 0.534457 0.519713 0.515660 0.498911 0.486305 0.470456 0.472820 0.471875 0.464763 0.432081 0.434709 0.455106 0.464302 0.459116 0.455008 0.427436 0.407316 0.406565 0.398369 0.397944 0.404686 0.413074 0.354470 0.332410 0.319886 0.348398 0.345277 0.343261 0.363623 0.355786 0.349163 0.323708 0.302989 0.270227 0.283058 0.303818 0.306828 0.309978 0.279371 0.271159 0.256995 0.260803 0.305815 0.296196 0.320446 0.327041 0.332052 0.354967 0.328482 0.305343 0.284558 0.327660 0.338984 0.306202 0.303043 0.317764 0.329676 0.328314 0.324065 0.319576 0.366004 0.366049 0.343410 0.343477 0.311144 0.328779 0.358132 0.356960 0.363730 0.373400 0.380555 0.340535 0.260423 0.229877 0.233627 0.211038 0.211100 0.197904 0.182735 0.174922 0.187447 0.208603 0.214598 0.246005 0.213748 0.167008 0.077987 0.144064 0.060276 0.076909 0.076909 0.076909 0.076909 0.076909 0.076909 0.076909 0.076909 0.115677 0.115677 0.115677 0.115677 0.115677 0.115677 0.115677 0.115677 0.115677 0.115677 0.115677 0.115677 0.115677 0.115677 0.115677 0.115677 0.115677 0.115677 0.115677 0.115677 0.115677
0.000000 0.000000 0.000000 0.000000 0.000000 0.000000 0.000000 0.000000 0.000000 0.000000 0.000000 0.000000 0.000000 0.000000 0.000000 0.000000 0.000000 0.000000 2.000000 0.000000 0.000000 0.000000 0.000000 0.000000 0.000000 0.000000 0.000000 0.000000 0.000000 0.000000 0.000000 0.000000 0.000000 0.000000 0.000000 0.000000 0.000000 0.000000 0.000000 0.000000 0.000000 0.000000 0.000000 0.000000 0.000000 0.000000 0.000000 0.000000 0.000000 0.000000 0.000000 0.000000 0.173422 0.173422 0.173422 0.173422 0.173422 0.173422 0.173422 0.191565 0.191565 0.191565 0.191565 0.191565 0.191565 0.191565 0.191565 0.191565 0.191565 0.191565 0.191565 0.191565 0.191565 0.191565 0.191565 0.191565 0.191565 0.191565 0.191565 0.191565 0.191565 0.191565 0.191565 0.191565 0.191565 0.191565 0.191565 0.191565 0.191565 0.191565 0.191565 0.191565 0.191565 0.191565 0.191565 0.191565 0.191565 0.191565 0.191565 0.191565 0.191565 0.191565 0.191565 0.222222 0.222222 0.222222 0.222222 0.222222 0.222222 0.222222 0.222222 0.222222 0.222222 0.222222 0.222222 0.222222 0.222222 0.222222 0.222222 0.222222 0.222222 0.222222 0.222222 0.222222 0.222222 0.222222 0.222222 0.222222 0.222222 0.222222 0.222222 0.222222 0.222222 0.234082 0.234082 0.234082 0.234082 0.234082 0.234082 0.234082 0.234082 0.234082 0.234082 0.234082 0.234082 0.234082 0.234082 0.234082 0.234082 0.234082 0.234082 0.234082 0.234082 0.234082 0.234082 0.234082 0.234082 0.234082 0.244339 0.244339 0.244339 0.244339 0.244339 0.244339 0.244339 0.244339 0.244339 0.244339 0.244339 0.244339 0.244339 0.244339 0.244339 0.244339 0.244339 0.244339 0.244339 0.244339 0.244339 0.248069 0.248069 0.248069 0.248069 0.248069 0.248069 0.248069 0.248069 0.248069 0.248069 0.248069 0.248069 0.248069 0.248069 0.248069 0.248069 0.248069 0.248069 0.248069 0.256074 0.256074 0.256074 0.256074 0.256074 0.256074 0.256074 0.256074 0.256074 0.256074 0.256074 0.256074 0.256074 0.256074 0.256074 0.256074 0.256074 0.256074 0.256074 0.256074 0.256074 0.256074 0.256074 0.256074 0.256074 0.256074 0.256074 0.256074 0.256074 0.256074 0.256074 0.256074 0.256074 0.256074 0.256074 0.256074 0.256074 0.256074 0.256074 0.256074 0.256074 0.256074 0.256074 0.256074 0.256074 0.256074 0.256074 0.256074 0.256074 0.256074 0.256074 0.256074 0.256074 0.256074 0.256074 0.256074 0.256074 0.256074 0.256074 0.256074 0.256074 0.256074 0.260378 0.260378 0.260378 0.260378 0.260378 0.260378 0.260378 0.260378 0.260378 0.260378 0.260378 0.260378 0.260378 0.256074 0.256074 0.256074 0.256074 0.256074 0.256074 0.256074 0.256074 0.256074 0.256074 0.256074 0.256074 0.256074 0.260378 0.260378 0.260378 0.260378 0.260378 0.260378 0.260378 0.260378 0.260378 0.260378 0.260378 0.260378 0.251976 0.251976 0.251976 0.251976 0.251976 0.251976 0.251976 0.251976 0.251976 0.251976 0.251976 0.251976 0.256074 0.256074 0.256074 0.256074 0.256074 0.256074 0.256074 0.256074 0.256074 0.256074 0.256074 0.251976 0.251976 0.251976 0.251976 0.251976 0.251976 0.251976 0.251976 0.251976 0.251976 0.251976 0.260378 0.260378 0.260378 0.260378 0.260378 0.260378 0.260378 0.260378 0.260378 0.260378 0.244339 0.244339 0.244339 0.244339 0.244339 0.244339 0.244339 0.244339 0.244339 0.244339 0.244339 0.244339 0.244339 0.244339 0.244339 0.244339 0.244339 0.244339 0.244339 0.244339 0.244339
