# Output from CTFFind version 4.1.9, run on 2019-11-02 17:44:07
# Input file: stack6_bm3d_averaged_1_0.75_0_250_half.mrc ; Number of micrographs: 1
# Pixel size: 3.000 Angstroms ; acceleration voltage: 300.0 keV ; spherical aberration: 0.00 mm ; amplitude contrast: 0.07
# Box size: 512 pixels ; min. res.: 30.0 Angstroms ; max. res.: 5.0 Angstroms ; min. def.: 5000.0 um; max. def. 50000.0 um; num. frames averaged: 1
# 6 lines per micrograph: #1 - spatial frequency (1/Angstroms); #2 - 1D rotational average of spectrum (assuming no astigmatism); #3 - 1D rotational average of spectrum; #4 - CTF fit; #5 - cross-correlation between spectrum and CTF fit; #6 - 2sigma of expected cross correlation of noise
0.000000 0.000651 0.001302 0.001953 0.002604 0.003255 0.003906 0.004557 0.005208 0.005859 0.006510 0.007161 0.007812 0.008464 0.009115 0.009766 0.010417 0.011068 0.011719 0.012370 0.013021 0.013672 0.014323 0.014974 0.015625 0.016276 0.016927 0.017578 0.018229 0.018880 0.019531 0.020182 0.020833 0.021484 0.022135 0.022786 0.023438 0.024089 0.024740 0.025391 0.026042 0.026693 0.027344 0.027995 0.028646 0.029297 0.029948 0.030599 0.031250 0.031901 0.032552 0.033203 0.033854 0.034505 0.035156 0.035807 0.036458 0.037109 0.037760 0.038411 0.039062 0.039714 0.040365 0.041016 0.041667 0.042318 0.042969 0.043620 0.044271 0.044922 0.045573 0.046224 0.046875 0.047526 0.048177 0.048828 0.049479 0.050130 0.050781 0.051432 0.052083 0.052734 0.053385 0.054036 0.054688 0.055339 0.055990 0.056641 0.057292 0.057943 0.058594 0.059245 0.059896 0.060547 0.061198 0.061849 0.062500 0.063151 0.063802 0.064453 0.065104 0.065755 0.066406 0.067057 0.067708 0.068359 0.069010 0.069661 0.070312 0.070964 0.071615 0.072266 0.072917 0.073568 0.074219 0.074870 0.075521 0.076172 0.076823 0.077474 0.078125 0.078776 0.079427 0.080078 0.080729 0.081380 0.082031 0.082682 0.083333 0.083984 0.084635 0.085286 0.085938 0.086589 0.087240 0.087891 0.088542 0.089193 0.089844 0.090495 0.091146 0.091797 0.092448 0.093099 0.093750 0.094401 0.095052 0.095703 0.096354 0.097005 0.097656 0.098307 0.098958 0.099609 0.100260 0.100911 0.101562 0.102214 0.102865 0.103516 0.104167 0.104818 0.105469 0.106120 0.106771 0.107422 0.108073 0.108724 0.109375 0.110026 0.110677 0.111328 0.111979 0.112630 0.113281 0.113932 0.114583 0.115234 0.115885 0.116536 0.117188 0.117839 0.118490 0.119141 0.119792 0.120443 0.121094 0.121745 0.122396 0.123047 0.123698 0.124349 0.125000 0.125651 0.126302 0.126953 0.127604 0.128255 0.128906 0.129557 0.130208 0.130859 0.131510 0.132161 0.132812 0.133464 0.134115 0.134766 0.135417 0.136068 0.136719 0.137370 0.138021 0.138672 0.139323 0.139974 0.140625 0.141276 0.141927 0.142578 0.143229 0.143880 0.144531 0.145182 0.145833 0.146484 0.147135 0.147786 0.148438 0.149089 0.149740 0.150391 0.151042 0.151693 0.152344 0.152995 0.153646 0.154297 0.154948 0.155599 0.156250 0.156901 0.157552 0.158203 0.158854 0.159505 0.160156 0.160807 0.161458 0.162109 0.162760 0.163411 0.164062 0.164714 0.165365 0.166016 0.166667 0.167318 0.167969 0.168620 0.169271 0.169922 0.170573 0.171224 0.171875 0.172526 0.173177 0.173828 0.174479 0.175130 0.175781 0.176432 0.177083 0.177734 0.178385 0.179036 0.179688 0.180339 0.180990 0.181641 0.182292 0.182943 0.183594 0.184245 0.184896 0.185547 0.186198 0.186849 0.187500 0.188151 0.188802 0.189453 0.190104 0.190755 0.191406 0.192057 0.192708 0.193359 0.194010 0.194661 0.195312 0.195964 0.196615 0.197266 0.197917 0.198568 0.199219 0.199870 0.200521 0.201172 0.201823 0.202474 0.203125 0.203776 0.204427 0.205078 0.205729 0.206380 0.207031 0.207682 0.208333 0.208984 0.209635 0.210286 0.210938 0.211589 0.212240 0.212891 0.213542 0.214193 0.214844 0.215495 0.216146 0.216797 0.217448 0.218099 0.218750 0.219401 0.220052 0.220703 0.221354 0.222005 0.222656 0.223307 0.223958 0.224609 0.225260 0.225911 0.226562 0.227214 0.227865 0.228516 0.229167 0.229818 0.230469 0.231120 0.231771 0.232422 0.233073 0.233724 0.234375 0.235026 0.235677
       0.31235        0.31235        0.31235        0.31235        0.31235        0.31235        0.31235        0.31235        0.31235        0.31235        0.31235        0.31235        0.31235        0.31235        0.31235        0.31235        0.31235        0.31235        0.31235        0.31235        0.31235        0.31235        0.31235        0.31235        0.31235        0.31235        0.31235        0.31235        0.31235        0.31235        0.31235        0.31235        0.31235        0.31235        0.31235        0.31235        0.31235        0.31235        0.31235        0.31235        0.31235        0.31235        0.31235        0.31235        0.31235        0.31235        0.31235        0.31235        0.31235        0.31235        0.31235        0.63245        0.82023        0.41872        0.31344        0.18557       -0.10438        0.11074       -0.00382        0.03264        0.11984        0.33684        0.42235        0.40756        0.22781       -0.01391        0.04852        0.06956       -0.17164       -0.18137       -0.08787       -0.10487       -0.29452       -0.19451       -0.29934       -0.25262       -0.28744       -0.40648       -0.47480       -0.48396       -0.43133       -0.34047       -0.44098       -0.36808       -0.40967       -0.35291       -0.27937       -0.20491       -0.19322       -0.14051       -0.09567        0.03880        0.07795        0.25255        0.27551        0.36232        0.40528        0.52903        0.59892        0.61544        0.74434        0.70456        0.74647        0.65646        0.66447        0.69346        0.63444        0.61593        0.60749        0.43076        0.40375        0.35564        0.31366        0.22321        0.12888        0.05962        0.05898        0.00164       -0.08065       -0.02910       -0.03106       -0.07176        0.06726        0.16354        0.25240        0.32327        0.33706        0.43015        0.55008        0.60288        0.55150        0.67250        0.57449        0.54970        0.59875        0.65319        0.53723        0.45294        0.41106        0.37623        0.24529        0.21479        0.12964        0.11646        0.05306        0.04796        0.10617        0.17295        0.14275        0.18126        0.22143        0.24178        0.32875        0.46349        0.49645        0.50082        0.51148        0.58081        0.57094        0.52429        0.43478        0.39043        0.36725        0.27418        0.24914        0.20598        0.20275        0.19589        0.17478        0.16441        0.13419        0.19630        0.25032        0.33995        0.38589        0.41218        0.46154        0.53999        0.48004        0.49491        0.42361        0.39767        0.38262        0.36373        0.29238        0.24954        0.19021        0.23401        0.21421        0.18604        0.22318        0.22694        0.23410        0.29970        0.39973        0.40073        0.37806        0.39553        0.46094        0.49183        0.42563        0.35048        0.32664        0.27438        0.26751        0.25397        0.21537        0.28316        0.29489        0.29869        0.31781        0.31514        0.35218        0.37338        0.37455        0.37681        0.35310        0.31518        0.33044        0.32140        0.29816        0.28053        0.27482        0.21913        0.27397        0.27690        0.29809        0.31754        0.34379        0.38256        0.34377        0.31341        0.36523        0.36014        0.26107        0.29291        0.30593        0.24480        0.20605        0.25488        0.27510        0.27849        0.29781        0.31206        0.34485        0.33677        0.36576        0.32442        0.32167        0.30953        0.30299        0.27426        0.25269        0.25714        0.25810        0.28134        0.30637        0.30805        0.30316        0.30628        0.32404        0.26513        0.29928        0.26924        0.25863        0.27944        0.26529        0.26418        0.26333        0.30795        0.29183        0.32244        0.28762        0.26739        0.30914        0.31766        0.33544        0.31835        0.28763        0.24997        0.25989        0.26362        0.26112        0.31789        0.31486        0.33360        0.31728        0.31491        0.24300        0.27606        0.20691        0.21609        0.25032        0.25356        0.26160        0.28394        0.30583        0.30139        0.36084        0.30889        0.25754        0.24244        0.23380        0.28631        0.32047        0.30913        0.27206        0.27659        0.26899        0.32924        0.28742        0.25730        0.26386        0.26367        0.28146        0.24870        0.27420        0.31835        0.29482        0.23586        0.24531        0.28842        0.31771        0.26825        0.26312        0.24521        0.27202        0.29360        0.37153        0.27749        0.27313        0.26422        0.24317        0.22489        0.18344        0.24250        0.23235        0.22396        0.17862        0.19507        0.23087        0.21022        0.22939        0.20514        0.24935        0.23689        0.21749        0.16649        0.17702        0.20372        0.25709        0.11782        0.05490        0.20665        0.16599        0.13393        0.25255        0.16651        0.22997        0.21446        0.00776       -0.48385       -1.00918
2.791946 2.764631 2.737456 2.710422 2.683527 2.656773 2.630158 2.603684 2.577350 2.551156 2.525103 2.499189 2.473416 2.447783 2.422289 2.396937 2.371724 2.346651 2.321719 2.296926 2.272274 2.247762 2.223390 2.199159 2.175067 2.151116 2.127304 2.103633 2.080102 2.056711 2.033461 2.010350 1.987380 1.964549 1.941859 1.919309 1.896899 1.874630 1.852500 1.830511 1.808662 1.786953 1.765384 1.743955 1.722666 1.701518 1.680509 1.659641 1.638913 1.618325 1.597878 1.883665 2.238972 1.672222 1.716974 1.358454 0.924031 1.179491 1.004920 1.056263 1.015759 1.469382 1.494832 1.513864 1.270062 0.925206 0.810849 0.997135 0.695509 0.484754 0.578204 0.671596 0.417149 0.475868 0.326036 0.376396 0.243042 0.149097 -0.029366 0.001722 0.009932 0.084722 0.037811 0.076958 -0.041078 0.033427 0.111814 0.217525 0.277924 0.207626 0.314900 0.550959 0.439696 0.722297 0.782088 0.854175 0.905597 1.111606 1.151706 1.168912 1.312786 1.231729 1.362701 1.195378 1.101135 1.294866 1.119275 1.040617 1.119533 0.869556 0.738542 0.675220 0.657602 0.455985 0.388541 0.262283 0.231800 0.099540 0.003460 0.092282 0.035991 -0.057988 0.122144 0.254590 0.315440 0.458774 0.489817 0.553373 0.718300 0.831811 0.671577 0.964197 0.782190 0.683019 0.767241 0.812913 0.724292 0.627952 0.448861 0.505012 0.287904 0.184863 0.150057 0.014473 -0.014688 -0.106855 -0.019586 0.055841 0.078028 -0.033458 0.253995 0.097636 0.226372 0.381058 0.440761 0.544341 0.422287 0.562564 0.641027 0.504868 0.404854 0.352153 0.329699 0.155139 0.153968 0.007417 0.096839 0.025661 -0.000920 -0.021774 -0.098628 0.005167 0.036779 0.107334 0.291739 0.218898 0.360612 0.366725 0.461409 0.382630 0.400750 0.328771 0.229419 0.307013 0.179137 0.154055 0.001338 0.041056 0.077136 -0.029867 0.001373 0.027942 0.063646 0.068292 0.219680 0.315771 0.240490 0.225414 0.374454 0.404315 0.350995 0.241729 0.177213 0.149399 0.089652 0.078056 0.038988 0.023119 0.136643 0.067232 0.183545 0.102860 0.147840 0.236691 0.213092 0.236162 0.203807 0.198295 0.107470 0.164611 0.135018 0.096067 0.108702 0.003687 0.042316 0.095354 0.052408 0.139589 0.123856 0.207562 0.219701 0.151319 0.124752 0.226693 0.098472 0.071039 0.080704 0.062482 0.001004 -0.034982 0.045480 0.071454 0.040244 0.115629 0.114967 0.140158 0.137153 0.176750 0.107738 0.091122 0.104815 0.093315 0.027378 0.017870 0.045969 -0.002385 0.080906 0.114616 0.084423 0.083787 0.087265 0.112436 0.016741 0.111640 0.034254 0.023886 0.082684 0.018865 0.026067 0.051277 0.091907 0.044725 0.116705 0.068750 -0.000074 0.118470 0.081705 0.101891 0.087859 0.013982 -0.011780 -0.009755 0.041111 -0.003860 0.087584 0.072438 0.102334 0.068148 0.123094 -0.039637 0.024675 -0.091796 -0.002684 -0.043759 0.010998 0.014562 0.030349 0.077276 0.071891 0.121421 0.008058 -0.020533 -0.052373 -0.071305 0.059740 0.069482 0.048842 -0.005011 -0.007815 -0.008292 0.069927 -0.015613 -0.055806 -0.020685 -0.055762 0.006015 -0.052036 -0.006411 0.041623 -0.000639 -0.069020 -0.014769 0.039675 0.008743 -0.005166 -0.019430 -0.058276 0.054177 0.061474 0.150699 0.013628 0.010850 0.032018 0.015945 -0.042931 -0.048726 0.043094 0.021768 0.008875 -0.047206 -0.034532 0.083275 -0.049143 0.133638 0.001527 0.144146 0.033713 0.104926 -0.073107 0.039710 0.000306 0.200607 -0.019012 0.001942 0.284280 0.219052 0.185370 0.448944 0.185126 0.303409 0.327068 0.013075 -1.387673
0.072396 0.072835 0.074150 0.076343 0.079411 0.083355 0.088174 0.093867 0.100431 0.107865 0.116167 0.125333 0.135360 0.146243 0.157977 0.170555 0.183970 0.198212 0.213273 0.229138 0.245796 0.263230 0.281422 0.300353 0.319999 0.340336 0.361335 0.382964 0.405190 0.427974 0.451274 0.475044 0.499235 0.523792 0.548656 0.573765 0.599051 0.624439 0.649853 0.675209 0.700419 0.725390 0.750022 0.774213 0.797853 0.820828 0.843019 0.864303 0.884553 0.903637 0.921419 0.937761 0.952523 0.965560 0.976728 0.985882 0.992877 0.997569 0.999816 0.999479 0.996424 0.990521 0.981647 0.969688 0.954539 0.936105 0.914304 0.889068 0.860345 0.828098 0.792311 0.752987 0.710151 0.663850 0.614158 0.561173 0.505022 0.445859 0.383866 0.319257 0.252277 0.183200 0.112332 0.040008 0.033406 0.107514 0.181893 0.256095 0.329645 0.402051 0.472797 0.541356 0.607186 0.669740 0.728468 0.782822 0.832259 0.876255 0.914300 0.945913 0.970645 0.988086 0.997871 0.999690 0.993291 0.978488 0.955166 0.923292 0.882912 0.834163 0.777272 0.712562 0.640454 0.561466 0.476214 0.385410 0.289860 0.190459 0.088185 0.015910 0.120704 0.225024 0.327651 0.427335 0.522815 0.612829 0.696136 0.771532 0.837870 0.894080 0.939188 0.972333 0.992792 0.999993 0.993533 0.973193 0.938951 0.890994 0.829723 0.755760 0.669947 0.573343 0.467221 0.353050 0.232487 0.107353 0.020392 0.148673 0.275336 0.398179 0.514995 0.623610 0.721927 0.807966 0.879914 0.936162 0.975349 0.996400 0.998562 0.981429 0.944973 0.889553 0.815934 0.725278 0.619147 0.499476 0.368553 0.228980 0.083633 0.064405 0.211890 0.355500 0.491896 0.617817 0.730150 0.826013 0.902841 0.958459 0.991148 0.999716 0.983543 0.942619 0.877573 0.789679 0.680844 0.553586 0.410985 0.256621 0.094495 0.071071 0.235545 0.394300 0.542754 0.676499 0.791441 0.883933 0.950900 0.989955 0.999494 0.978778 0.927986 0.848238 0.741598 0.611037 0.460369 0.294156 0.117582 0.063700 0.243739 0.416484 0.575987 0.716608 0.833228 0.921449 0.977770 0.999744 0.986105 0.936849 0.853277 0.737991 0.594832 0.428786 0.245815 0.052669 0.143360 0.334695 0.513783 0.673381 0.806872 0.908543 0.973851 0.999649 0.984360 0.928086 0.832662 0.701626 0.540118 0.354702 0.153132 0.055971 0.263470 0.460107 0.636916 0.785651 0.899177 0.971835 0.999758 0.981092 0.916152 0.807464 0.659707 0.479546 0.275363 0.056886 0.165250 0.380024 0.576558 0.744695 0.875527 0.961895 0.998812 0.983782 0.916997 0.801406 0.642624 0.448705 0.229762 0.002529 0.235535 0.456353 0.652508 0.812699 0.927447 0.989703 0.995310 0.943325 0.836155 0.679499 0.482092 0.255273 0.012334 0.232201 0.463455 0.667110 0.830295 0.942431 0.995962 0.986898 0.915164 0.784696 0.603291 0.382177 0.135386 0.121124 0.370482 0.596001 0.782317 0.916452 0.988764 0.993684 0.930202 0.802039 0.617500 0.388997 0.132251 0.134726 0.392914 0.623595 0.809766 0.937387 0.996510 0.982101 0.894529 0.739658 0.528529 0.276638 0.002843 0.272017 0.526690 0.741157 0.898247 0.985041 0.994006 0.923706 0.779053 0.571053 0.316029 0.034409 0.250881 0.516259 0.739442 0.901353 0.987796 0.990764 0.909259 0.749521 0.524645 0.253577 0.040411 0.331697 0.594512 0.805250 0.944613 0.999449 0.964067 0.840904 0.640474 0.380559 0.084708 0.219853 0.504685 0.742804 0.911272 0.993458 0.980770 0.873634 0.681633 0.422757 0.121794 0.191970 0.487580 0.735459 0.910400
1.000000 1.000000 1.000000 1.000000 1.000000 1.000000 1.000000 1.000000 1.000000 1.000000 1.000000 1.000000 1.000000 1.000000 1.000000 1.000000 1.000000 1.000000 1.000000 1.000000 1.000000 1.000000 1.000000 1.000000 1.000000 1.000000 1.000000 1.000000 1.000000 1.000000 1.000000 1.000000 1.000000 1.000000 1.000000 1.000000 1.000000 1.000000 1.000000 1.000000 1.000000 1.000000 1.000000 1.000000 1.000000 1.000000 1.000000 1.000000 1.000000 1.000000 1.000000 1.000000 0.832269 0.832269 0.832269 0.832269 0.832269 0.832269 0.832269 0.815200 0.815200 0.815200 0.815200 0.815200 0.815200 0.815200 0.815200 0.815200 0.815200 0.815200 0.815200 0.815200 0.815200 0.815200 0.815200 0.815200 0.815200 0.815200 0.815200 0.815200 0.815200 0.815200 0.815200 0.815200 0.815200 0.815200 0.815200 0.815200 0.815200 0.815200 0.815200 0.815200 0.815200 0.815200 0.815200 0.815200 0.815200 0.815200 0.815200 0.815200 0.815200 0.815200 0.815200 0.952223 0.952999 0.950316 0.949345 0.947787 0.944224 0.940132 0.939617 0.940909 0.941142 0.941603 0.943720 0.944310 0.945925 0.947122 0.947937 0.949424 0.957498 0.961169 0.960745 0.961060 0.952183 0.958953 0.957889 0.955426 0.956084 0.956308 0.956960 0.956873 0.956735 0.956346 0.954853 0.955489 0.955291 0.954561 0.953553 0.951447 0.951352 0.950946 0.951099 0.952054 0.952588 0.953365 0.953891 0.953154 0.953321 0.953323 0.953231 0.948844 0.948831 0.941486 0.941778 0.942666 0.942187 0.941175 0.939661 0.939740 0.939672 0.939667 0.939586 0.939985 0.923716 0.923095 0.923338 0.922802 0.915613 0.905546 0.898938 0.893843 0.895174 0.899575 0.904172 0.904785 0.901724 0.900583 0.884928 0.881593 0.867928 0.864654 0.853433 0.863452 0.864737 0.865849 0.856865 0.856598 0.854900 0.853260 0.844864 0.849496 0.849670 0.845925 0.841377 0.840211 0.838304 0.842550 0.850845 0.851410 0.847781 0.849817 0.837049 0.828993 0.827926 0.829177 0.836051 0.847714 0.847358 0.846342 0.840188 0.836646 0.830934 0.827995 0.827485 0.828873 0.828085 0.830973 0.828357 0.839222 0.829273 0.821907 0.826567 0.834302 0.836405 0.836318 0.838187 0.835889 0.838919 0.827188 0.823440 0.825183 0.773336 0.774126 0.767674 0.766652 0.736902 0.736557 0.729486 0.729373 0.721940 0.713596 0.725618 0.727434 0.676481 0.685032 0.679005 0.663813 0.642236 0.654839 0.671679 0.681642 0.681287 0.675251 0.662972 0.659290 0.670283 0.673133 0.677424 0.666775 0.661789 0.650619 0.656213 0.639056 0.643831 0.640929 0.640644 0.641900 0.638977 0.622262 0.630390 0.620803 0.611679 0.605235 0.577878 0.540192 0.526036 0.516718 0.494304 0.478326 0.495052 0.488583 0.473282 0.461856 0.445961 0.428224 0.432036 0.430596 0.428544 0.424012 0.420013 0.372043 0.389734 0.384496 0.380711 0.368122 0.387491 0.377296 0.339367 0.318142 0.289039 0.308001 0.320955 0.317508 0.297743 0.286797 0.304227 0.270500 0.275812 0.274240 0.293553 0.243713 0.183676 0.208244 0.206775 0.209888 0.201167 0.161523 0.187010 0.165246 0.177007 0.184636 0.127730 0.094510 0.080737 0.060320 0.067856 0.094572 0.105776 0.093311 0.071734 -0.030229 0.003967 0.033193 0.033193 0.033193 0.033193 0.033193 0.033193 0.033193 0.033193 0.033193 0.033193 0.033193 -0.031073 -0.031073 -0.031073 -0.031073 -0.031073 -0.031073 -0.031073 -0.031073 -0.031073 -0.031073 -0.031073 -0.031073 -0.031073 -0.031073 -0.031073 -0.031073 -0.031073 -0.031073 -0.031073
0.000000 0.000000 0.000000 0.000000 0.000000 0.000000 0.000000 0.000000 0.000000 0.000000 0.000000 0.000000 0.000000 0.000000 0.000000 0.000000 0.000000 0.000000 0.000000 0.000000 0.000000 0.000000 0.000000 0.000000 0.000000 0.000000 0.000000 0.000000 0.000000 0.000000 0.000000 0.000000 0.000000 0.000000 0.000000 0.000000 0.000000 0.000000 0.000000 0.000000 0.000000 0.000000 0.000000 0.000000 0.000000 0.000000 0.000000 0.000000 0.000000 0.000000 0.000000 0.000000 0.173422 0.173422 0.173422 0.173422 0.173422 0.173422 0.173422 0.191565 0.191565 0.191565 0.191565 0.191565 0.191565 0.191565 0.191565 0.191565 0.191565 0.191565 0.191565 0.191565 0.191565 0.191565 0.191565 0.191565 0.191565 0.191565 0.191565 0.191565 0.191565 0.191565 0.191565 0.191565 0.191565 0.191565 0.191565 0.191565 0.191565 0.191565 0.191565 0.191565 0.191565 0.191565 0.191565 0.191565 0.191565 0.191565 0.191565 0.191565 0.191565 0.191565 0.191565 0.219529 0.219529 0.219529 0.219529 0.219529 0.219529 0.219529 0.219529 0.219529 0.219529 0.219529 0.219529 0.219529 0.219529 0.219529 0.219529 0.219529 0.219529 0.219529 0.219529 0.219529 0.219529 0.219529 0.219529 0.219529 0.219529 0.219529 0.219529 0.219529 0.219529 0.219529 0.237356 0.237356 0.237356 0.237356 0.237356 0.237356 0.237356 0.237356 0.237356 0.237356 0.237356 0.237356 0.237356 0.237356 0.237356 0.237356 0.237356 0.237356 0.237356 0.237356 0.237356 0.237356 0.237356 0.237356 0.244339 0.244339 0.244339 0.244339 0.244339 0.244339 0.244339 0.244339 0.244339 0.244339 0.244339 0.244339 0.244339 0.244339 0.244339 0.244339 0.244339 0.244339 0.244339 0.244339 0.244339 0.248069 0.248069 0.248069 0.248069 0.248069 0.248069 0.248069 0.248069 0.248069 0.248069 0.248069 0.248069 0.248069 0.248069 0.248069 0.248069 0.248069 0.248069 0.248069 0.248069 0.248069 0.248069 0.248069 0.248069 0.248069 0.248069 0.248069 0.248069 0.248069 0.248069 0.248069 0.248069 0.248069 0.248069 0.248069 0.248069 0.248069 0.256074 0.256074 0.256074 0.256074 0.256074 0.256074 0.256074 0.256074 0.256074 0.256074 0.256074 0.256074 0.256074 0.256074 0.256074 0.256074 0.256074 0.256074 0.256074 0.256074 0.256074 0.256074 0.256074 0.256074 0.256074 0.256074 0.256074 0.256074 0.256074 0.256074 0.256074 0.256074 0.256074 0.256074 0.256074 0.256074 0.256074 0.256074 0.256074 0.256074 0.256074 0.256074 0.256074 0.256074 0.256074 0.260378 0.260378 0.260378 0.260378 0.260378 0.260378 0.260378 0.260378 0.260378 0.260378 0.260378 0.260378 0.260378 0.256074 0.256074 0.256074 0.256074 0.256074 0.256074 0.256074 0.256074 0.256074 0.256074 0.256074 0.256074 0.256074 0.260378 0.260378 0.260378 0.260378 0.260378 0.260378 0.260378 0.260378 0.260378 0.260378 0.260378 0.260378 0.251976 0.251976 0.251976 0.251976 0.251976 0.251976 0.251976 0.251976 0.251976 0.251976 0.251976 0.251976 0.256074 0.256074 0.256074 0.256074 0.256074 0.256074 0.256074 0.256074 0.256074 0.256074 0.256074 0.251976 0.251976 0.251976 0.251976 0.251976 0.251976 0.251976 0.251976 0.251976 0.251976 0.251976 0.248069 0.248069 0.248069 0.248069 0.248069 0.248069 0.248069 0.248069 0.248069 0.248069 0.248069 0.256074 0.256074 0.256074 0.256074 0.256074 0.256074 0.256074 0.256074 0.256074 0.256074 0.256074 0.256074 0.256074 0.256074 0.256074 0.256074 0.256074 0.256074 0.256074
