# Output from CTFFind version 4.1.9, run on 2019-11-03 19:43:37
# Input file: stack6_bm3d_averaged_1_4.75_0_3000_half.mrc ; Number of micrographs: 1
# Pixel size: 3.000 Angstroms ; acceleration voltage: 300.0 keV ; spherical aberration: 0.00 mm ; amplitude contrast: 0.07
# Box size: 512 pixels ; min. res.: 30.0 Angstroms ; max. res.: 5.0 Angstroms ; min. def.: 5000.0 um; max. def. 50000.0 um; num. frames averaged: 1
# 6 lines per micrograph: #1 - spatial frequency (1/Angstroms); #2 - 1D rotational average of spectrum (assuming no astigmatism); #3 - 1D rotational average of spectrum; #4 - CTF fit; #5 - cross-correlation between spectrum and CTF fit; #6 - 2sigma of expected cross correlation of noise
0.000000 0.000651 0.001302 0.001953 0.002604 0.003255 0.003906 0.004557 0.005208 0.005859 0.006510 0.007161 0.007812 0.008464 0.009115 0.009766 0.010417 0.011068 0.011719 0.012370 0.013021 0.013672 0.014323 0.014974 0.015625 0.016276 0.016927 0.017578 0.018229 0.018880 0.019531 0.020182 0.020833 0.021484 0.022135 0.022786 0.023438 0.024089 0.024740 0.025391 0.026042 0.026693 0.027344 0.027995 0.028646 0.029297 0.029948 0.030599 0.031250 0.031901 0.032552 0.033203 0.033854 0.034505 0.035156 0.035807 0.036458 0.037109 0.037760 0.038411 0.039062 0.039714 0.040365 0.041016 0.041667 0.042318 0.042969 0.043620 0.044271 0.044922 0.045573 0.046224 0.046875 0.047526 0.048177 0.048828 0.049479 0.050130 0.050781 0.051432 0.052083 0.052734 0.053385 0.054036 0.054688 0.055339 0.055990 0.056641 0.057292 0.057943 0.058594 0.059245 0.059896 0.060547 0.061198 0.061849 0.062500 0.063151 0.063802 0.064453 0.065104 0.065755 0.066406 0.067057 0.067708 0.068359 0.069010 0.069661 0.070312 0.070964 0.071615 0.072266 0.072917 0.073568 0.074219 0.074870 0.075521 0.076172 0.076823 0.077474 0.078125 0.078776 0.079427 0.080078 0.080729 0.081380 0.082031 0.082682 0.083333 0.083984 0.084635 0.085286 0.085938 0.086589 0.087240 0.087891 0.088542 0.089193 0.089844 0.090495 0.091146 0.091797 0.092448 0.093099 0.093750 0.094401 0.095052 0.095703 0.096354 0.097005 0.097656 0.098307 0.098958 0.099609 0.100260 0.100911 0.101562 0.102214 0.102865 0.103516 0.104167 0.104818 0.105469 0.106120 0.106771 0.107422 0.108073 0.108724 0.109375 0.110026 0.110677 0.111328 0.111979 0.112630 0.113281 0.113932 0.114583 0.115234 0.115885 0.116536 0.117188 0.117839 0.118490 0.119141 0.119792 0.120443 0.121094 0.121745 0.122396 0.123047 0.123698 0.124349 0.125000 0.125651 0.126302 0.126953 0.127604 0.128255 0.128906 0.129557 0.130208 0.130859 0.131510 0.132161 0.132812 0.133464 0.134115 0.134766 0.135417 0.136068 0.136719 0.137370 0.138021 0.138672 0.139323 0.139974 0.140625 0.141276 0.141927 0.142578 0.143229 0.143880 0.144531 0.145182 0.145833 0.146484 0.147135 0.147786 0.148438 0.149089 0.149740 0.150391 0.151042 0.151693 0.152344 0.152995 0.153646 0.154297 0.154948 0.155599 0.156250 0.156901 0.157552 0.158203 0.158854 0.159505 0.160156 0.160807 0.161458 0.162109 0.162760 0.163411 0.164062 0.164714 0.165365 0.166016 0.166667 0.167318 0.167969 0.168620 0.169271 0.169922 0.170573 0.171224 0.171875 0.172526 0.173177 0.173828 0.174479 0.175130 0.175781 0.176432 0.177083 0.177734 0.178385 0.179036 0.179688 0.180339 0.180990 0.181641 0.182292 0.182943 0.183594 0.184245 0.184896 0.185547 0.186198 0.186849 0.187500 0.188151 0.188802 0.189453 0.190104 0.190755 0.191406 0.192057 0.192708 0.193359 0.194010 0.194661 0.195312 0.195964 0.196615 0.197266 0.197917 0.198568 0.199219 0.199870 0.200521 0.201172 0.201823 0.202474 0.203125 0.203776 0.204427 0.205078 0.205729 0.206380 0.207031 0.207682 0.208333 0.208984 0.209635 0.210286 0.210938 0.211589 0.212240 0.212891 0.213542 0.214193 0.214844 0.215495 0.216146 0.216797 0.217448 0.218099 0.218750 0.219401 0.220052 0.220703 0.221354 0.222005 0.222656 0.223307 0.223958 0.224609 0.225260 0.225911 0.226562 0.227214 0.227865 0.228516 0.229167 0.229818 0.230469 0.231120 0.231771 0.232422 0.233073 0.233724 0.234375 0.235026 0.235677
       0.30206        0.30206        0.30206        0.30206        0.30206        0.30206        0.30206        0.30206        0.30206        0.30206        0.30206        0.30206        0.30206        0.30206        0.30206        0.30206        0.30206        0.30206        0.30206        0.30206        0.30206        0.30206        0.30206        0.30206        0.30206        0.30206        0.30206        0.30206        0.30206        0.30206        0.30206        0.30206        0.30206        0.30206        0.30206        0.30206        0.30206        0.30206        0.30206        0.30206        0.30206        0.30206        0.30206        0.30206        0.30206        0.30206        0.30206        0.30206        0.30206        0.30206        0.30206        0.60284        0.73644        0.35538        0.19510        0.12591       -0.15430        0.10782        0.02171        0.02949        0.08778        0.31106        0.34224        0.27100        0.15993       -0.03744       -0.00738        0.04025       -0.15096       -0.16159       -0.09249       -0.11657       -0.25095       -0.16034       -0.28849       -0.29498       -0.29704       -0.36407       -0.44276       -0.39492       -0.30564       -0.27407       -0.37123       -0.27849       -0.34156       -0.27695       -0.20162       -0.15233       -0.11371       -0.03446       -0.00669        0.10460        0.14739        0.21176        0.33043        0.39313        0.35782        0.46240        0.55603        0.56576        0.64945        0.59905        0.63754        0.59849        0.62288        0.62409        0.55686        0.56865        0.56283        0.39477        0.32589        0.35544        0.34435        0.18411        0.13866        0.10338        0.07063        0.07738       -0.02022        0.03855        0.00786       -0.03838        0.08079        0.15790        0.25453        0.34448        0.33216        0.36298        0.47175        0.50377        0.43374        0.64836        0.52600        0.48406        0.56225        0.50059        0.51756        0.47312        0.36156        0.31292        0.25169        0.20624        0.18459        0.17334        0.14863        0.09515        0.15810        0.15886        0.20392        0.18394        0.25464        0.28869        0.32390        0.44627        0.42369        0.41323        0.45407        0.49354        0.47499        0.45217        0.37889        0.40243        0.34398        0.27903        0.22547        0.23621        0.21596        0.17016        0.14920        0.19327        0.18719        0.24119        0.31133        0.33947        0.40009        0.38585        0.44925        0.46032        0.44811        0.42435        0.39171        0.40366        0.37939        0.33971        0.31428        0.29628        0.24595        0.26160        0.25839        0.20908        0.26197        0.24814        0.25860        0.31160        0.35798        0.39425        0.39259        0.40621        0.38736        0.40208        0.38936        0.29019        0.28115        0.24404        0.25697        0.21534        0.18905        0.26844        0.31419        0.29567        0.26770        0.32717        0.26264        0.34046        0.35224        0.35544        0.36108        0.38041        0.31225        0.31720        0.30198        0.27192        0.26708        0.24440        0.27149        0.29449        0.29156        0.31131        0.35524        0.37117        0.35100        0.33284        0.34818        0.31749        0.30467        0.30020        0.27098        0.27901        0.25509        0.29648        0.31017        0.29512        0.29109        0.31009        0.31708        0.32758        0.32928        0.28608        0.25599        0.28280        0.27549        0.26212        0.24657        0.22549        0.24222        0.25465        0.24232        0.26464        0.27854        0.32081        0.30716        0.28365        0.29739        0.24012        0.21224        0.26605        0.24040        0.20547        0.26322        0.30775        0.26869        0.29527        0.29545        0.29102        0.29616        0.29679        0.26899        0.29635        0.27783        0.31222        0.25835        0.26413        0.24946        0.29247        0.29559        0.31154        0.31932        0.30573        0.20740        0.27131        0.26661        0.22735        0.24996        0.24644        0.28801        0.26787        0.30510        0.29781        0.34952        0.29809        0.26842        0.23333        0.22665        0.24660        0.24703        0.27238        0.28631        0.29692        0.31463        0.27855        0.27615        0.25293        0.26098        0.27820        0.24026        0.21620        0.22701        0.31178        0.29502        0.28421        0.28317        0.22425        0.26963        0.24779        0.20424        0.22019        0.26748        0.28037        0.28523        0.21103        0.19291        0.25211        0.24792        0.25884        0.24215        0.24139        0.19054        0.21933        0.25257        0.22163        0.27499        0.23589        0.23865        0.17241        0.27522        0.29935        0.17056        0.15998        0.12278        0.13900        0.27404        0.15328        0.11119        0.31954        0.21035        0.12462        0.09673        0.15634        0.12634        0.16531       -0.09287       -0.71520       -1.04022
3.057878 3.026782 2.995848 2.965077 2.934469 2.904023 2.873739 2.843619 2.813660 2.783865 2.754232 2.724761 2.695454 2.666308 2.637326 2.608505 2.579848 2.551353 2.523021 2.494851 2.466844 2.438999 2.411317 2.383798 2.356441 2.329246 2.302214 2.275345 2.248639 2.222095 2.195713 2.169494 2.143438 2.117544 2.091813 2.066244 2.040839 2.015595 1.990514 1.965596 1.940840 1.916247 1.891817 1.867549 1.843443 1.819501 1.795720 1.772103 1.748648 1.725355 1.702225 2.041340 2.354062 1.722857 1.624823 1.350211 0.811982 1.212578 1.080565 1.098855 0.960723 1.564801 1.451076 1.450105 1.204866 0.882694 0.726759 0.963104 0.743464 0.420968 0.521018 0.648077 0.390365 0.430214 0.271696 0.188330 0.139458 0.137741 -0.129260 -0.044529 0.088847 0.050467 0.005704 0.093478 -0.047711 -0.019253 0.141157 0.212652 0.266038 0.325272 0.370087 0.616586 0.561054 0.642706 0.861167 0.962825 0.840210 1.149013 1.139763 1.222161 1.287966 1.159694 1.324051 1.168806 1.131708 1.299849 1.080818 1.040454 1.127912 0.896203 0.612195 0.657011 0.714442 0.426562 0.334646 0.263165 0.136622 0.137843 -0.005374 0.098216 0.047429 -0.090344 0.045135 0.165593 0.269665 0.493149 0.491334 0.448450 0.631250 0.767230 0.505374 0.907350 0.748092 0.709993 0.775131 0.614506 0.689160 0.686266 0.415099 0.339872 0.233886 0.166923 0.111868 0.010025 0.044591 -0.120504 -0.003299 -0.027087 0.077658 -0.035993 0.168970 0.170505 0.141997 0.361159 0.446232 0.351427 0.297983 0.510179 0.504496 0.390203 0.334320 0.312366 0.253112 0.171669 0.020983 0.034624 -0.026153 0.004300 -0.153100 -0.071047 -0.117211 0.064962 0.002897 0.183929 0.207875 0.233186 0.315789 0.318850 0.370222 0.330872 0.371090 0.362994 0.232950 0.274149 0.141849 0.194083 0.056727 0.109723 0.044652 0.052794 -0.034922 0.088890 0.001873 0.106257 0.201206 0.213665 0.287366 0.273925 0.287336 0.273379 0.282041 0.174920 0.079832 0.080045 0.019307 0.012071 -0.067382 -0.044492 0.075777 0.150610 0.065864 0.086027 0.088191 0.102147 0.187707 0.157449 0.194797 0.244419 0.148209 0.103766 0.101024 0.079821 0.054744 -0.031892 0.016416 0.128770 0.004329 0.115313 0.109532 0.212986 0.210020 0.197862 0.179184 0.193108 0.102841 0.119011 0.125650 0.055250 0.024817 0.082046 0.097863 0.123195 0.101998 0.097490 0.112759 0.148032 0.138208 0.114166 0.028881 -0.011870 0.064804 0.006121 0.036196 -0.039876 -0.053961 0.005554 -0.019836 -0.026554 0.036177 0.031237 0.108128 0.098647 0.016372 0.066245 -0.065567 -0.036535 0.039522 -0.062506 -0.066131 0.052927 0.073035 0.003189 0.057041 0.060619 0.056515 0.119471 0.001299 0.033278 0.118000 -0.004873 0.098965 -0.007199 0.037524 -0.029876 0.121912 0.035891 0.089034 0.122319 0.074255 -0.082161 0.045143 0.028356 -0.038630 -0.000282 0.007002 0.039951 0.039158 0.146742 0.054084 0.153617 0.098177 -0.021629 -0.000736 -0.045004 0.010631 0.034249 0.036072 0.064622 0.084995 0.130033 0.055833 0.065708 0.045189 0.068221 0.075824 0.039869 -0.055214 0.030487 0.130060 0.096994 0.103262 0.109516 0.001208 0.084964 0.023136 -0.052492 0.013914 0.064982 0.121593 0.082015 -0.029293 -0.040596 0.054462 0.063003 0.035101 0.045117 0.001308 -0.000674 0.003531 0.068550 0.003375 0.133677 -0.031910 0.104769 -0.060859 0.147667 0.161182 -0.103409 -0.043035 -0.156056 -0.222329 0.134461 -0.068239 0.067197 0.521962 0.306792 0.197501 0.103774 0.392521 0.174319 0.265624 -0.141305 -1.701042
0.072396 0.072835 0.074151 0.076345 0.079415 0.083361 0.088182 0.093878 0.100445 0.107883 0.116189 0.125360 0.135392 0.146281 0.158021 0.170605 0.184027 0.198276 0.213344 0.229218 0.245884 0.263326 0.281527 0.300467 0.320122 0.340469 0.361477 0.383117 0.405352 0.428146 0.451455 0.475235 0.499435 0.524001 0.548875 0.573992 0.599285 0.624681 0.650101 0.675463 0.700677 0.725651 0.750286 0.774477 0.798116 0.821089 0.843276 0.864554 0.884796 0.903869 0.921639 0.937966 0.952709 0.965725 0.976869 0.985996 0.992961 0.997620 0.999830 0.999454 0.996355 0.990405 0.981481 0.969469 0.954263 0.935769 0.913905 0.888603 0.859812 0.827495 0.791635 0.752237 0.709325 0.662949 0.613181 0.560121 0.503895 0.444659 0.382596 0.317920 0.250878 0.181743 0.110822 0.038452 0.035000 0.109137 0.183536 0.257748 0.331297 0.403689 0.474409 0.542928 0.608705 0.671191 0.729835 0.784089 0.833412 0.877277 0.915177 0.946629 0.971186 0.988438 0.998022 0.999628 0.993006 0.977971 0.954412 0.922295 0.881671 0.832679 0.775549 0.710606 0.638275 0.559076 0.473629 0.382650 0.286948 0.187421 0.085050 0.019109 0.123934 0.228247 0.330827 0.430423 0.525774 0.615615 0.698707 0.773846 0.839886 0.895759 0.940492 0.973232 0.993257 1.000000 0.993064 0.972237 0.937505 0.889061 0.827313 0.752893 0.666652 0.569656 0.463187 0.348723 0.227927 0.102628 0.025208 0.153501 0.280091 0.402776 0.519347 0.627631 0.725530 0.811072 0.882448 0.938057 0.976548 0.996857 0.998244 0.980317 0.943064 0.886862 0.812491 0.721131 0.614363 0.494136 0.362756 0.222841 0.077274 0.070845 0.218269 0.361668 0.497706 0.623122 0.734807 0.829894 0.905829 0.960454 0.992073 0.999518 0.982193 0.940121 0.873960 0.785013 0.675221 0.547128 0.403845 0.248976 0.086541 0.079121 0.243465 0.401863 0.549732 0.682674 0.796611 0.887919 0.953551 0.991156 0.999173 0.976905 0.924580 0.843368 0.735381 0.603639 0.451999 0.285066 0.108053 0.073361 0.253210 0.425439 0.584105 0.723589 0.838801 0.925385 0.979888 0.999926 0.984299 0.933074 0.847628 0.730633 0.586005 0.418788 0.235003 0.041441 0.154572 0.345455 0.523652 0.681945 0.813756 0.913430 0.976497 0.999896 0.982144 0.923447 0.825745 0.692678 0.529481 0.342806 0.140471 0.068855 0.276005 0.471722 0.647063 0.793837 0.904983 0.974943 0.999965 0.978330 0.910493 0.799119 0.649027 0.467003 0.261539 0.042439 0.179614 0.393574 0.588595 0.754573 0.882696 0.965930 0.999440 0.980904 0.910699 0.791958 0.630477 0.434465 0.214170 0.018639 0.251280 0.470841 0.664904 0.822258 0.933570 0.991973 0.993525 0.937516 0.826589 0.666674 0.466719 0.238224 0.005385 0.249520 0.479307 0.680484 0.840314 0.948410 0.997451 0.983724 0.907449 0.772857 0.588023 0.364426 0.116272 0.140358 0.388552 0.611678 0.794497 0.924245 0.991564 0.991214 0.922545 0.789643 0.601158 0.369797 0.111522 0.155526 0.412283 0.640105 0.822158 0.944683 0.998088 0.977750 0.884480 0.724578 0.509484 0.255022 0.019723 0.293801 0.545978 0.756399 0.908175 0.988786 0.991172 0.914416 0.763962 0.551295 0.293153 0.010250 0.274341 0.537050 0.755783 0.911799 0.991369 0.987056 0.898478 0.732494 0.502757 0.228670 0.066191 0.356083 0.615312 0.820553 0.952957 0.999978 0.956618 0.826043 0.619465 0.355259 0.057407 0.246619 0.528388 0.761155 0.922443 0.996280 0.974851 0.859424 0.660400 0.396481 0.092997 0.220471 0.512939 0.755091 0.922251
1.000000 1.000000 1.000000 1.000000 1.000000 1.000000 1.000000 1.000000 1.000000 1.000000 1.000000 1.000000 1.000000 1.000000 1.000000 1.000000 1.000000 1.000000 1.000000 1.000000 1.000000 1.000000 1.000000 1.000000 1.000000 1.000000 1.000000 1.000000 1.000000 1.000000 1.000000 1.000000 1.000000 1.000000 1.000000 1.000000 1.000000 1.000000 1.000000 1.000000 1.000000 1.000000 1.000000 1.000000 1.000000 1.000000 1.000000 1.000000 1.000000 1.000000 1.000000 1.000000 0.810848 0.810848 0.810848 0.810848 0.810848 0.810848 0.810848 0.785588 0.785588 0.785588 0.785588 0.785588 0.785588 0.785588 0.785588 0.785588 0.785588 0.785588 0.785588 0.785588 0.785588 0.785588 0.785588 0.785588 0.785588 0.785588 0.785588 0.785588 0.785588 0.785588 0.785588 0.785588 0.785588 0.785588 0.785588 0.785588 0.785588 0.785588 0.785588 0.785588 0.785588 0.785588 0.785588 0.785588 0.785588 0.785588 0.785588 0.785588 0.785588 0.785588 0.785588 0.933638 0.932805 0.934222 0.932636 0.934821 0.933577 0.932629 0.933986 0.932906 0.930693 0.930852 0.931336 0.932582 0.932723 0.937782 0.939115 0.947889 0.951995 0.952943 0.952686 0.951307 0.963967 0.961973 0.960220 0.957776 0.958716 0.959638 0.960361 0.959271 0.958631 0.960208 0.960981 0.959502 0.957681 0.956954 0.956236 0.955568 0.955339 0.955629 0.955686 0.955470 0.956257 0.956991 0.956095 0.958165 0.956970 0.956834 0.953143 0.951501 0.952890 0.951033 0.951431 0.948261 0.944416 0.943824 0.943658 0.943224 0.944298 0.945296 0.945969 0.946526 0.947043 0.947167 0.947029 0.947483 0.944685 0.937566 0.934398 0.932115 0.933192 0.935871 0.938471 0.936545 0.932741 0.932848 0.928245 0.926172 0.913396 0.902325 0.899384 0.895406 0.897302 0.899798 0.898722 0.896116 0.894827 0.894911 0.893601 0.897376 0.898013 0.889994 0.880174 0.878603 0.873992 0.876348 0.880800 0.882396 0.886100 0.881107 0.868378 0.863437 0.864703 0.866814 0.873989 0.868713 0.865625 0.861488 0.858274 0.849653 0.841176 0.839041 0.840410 0.842216 0.842288 0.846174 0.835575 0.804555 0.804135 0.799869 0.798602 0.808737 0.817729 0.819590 0.811950 0.789416 0.778834 0.762988 0.763683 0.766993 0.758758 0.762361 0.743952 0.743942 0.718533 0.719598 0.716169 0.710125 0.714913 0.708787 0.712883 0.715223 0.717784 0.717807 0.701838 0.695588 0.659025 0.664295 0.600772 0.608979 0.608624 0.587511 0.571418 0.549230 0.564321 0.572830 0.575414 0.553255 0.545599 0.522239 0.507082 0.507449 0.510099 0.510452 0.512929 0.506064 0.496428 0.491161 0.508606 0.519075 0.502745 0.503877 0.519362 0.516311 0.508638 0.492634 0.482365 0.499544 0.517869 0.524775 0.523942 0.530218 0.499965 0.468469 0.493831 0.509075 0.510686 0.500275 0.486763 0.480989 0.500084 0.475128 0.495316 0.486552 0.495845 0.468656 0.413162 0.369618 0.313648 0.320071 0.320808 0.318187 0.310909 0.313631 0.328279 0.329685 0.336203 0.334089 0.362081 0.401388 0.344488 0.357334 0.359944 0.358974 0.358030 0.356474 0.336035 0.345186 0.367647 0.372254 0.323544 0.310208 0.276919 0.267360 0.277732 0.292201 0.309599 0.297119 0.279164 0.155334 0.179732 0.198285 0.198285 0.198285 0.198285 0.198285 0.198285 0.198285 0.198285 0.198285 0.198285 0.198285 0.145003 0.145003 0.145003 0.145003 0.145003 0.145003 0.145003 0.145003 0.145003 0.145003 0.145003 0.145003 0.145003 0.145003 0.145003 0.145003 0.145003 0.145003 0.145003
0.000000 0.000000 0.000000 0.000000 0.000000 0.000000 0.000000 0.000000 0.000000 0.000000 0.000000 0.000000 0.000000 0.000000 0.000000 0.000000 0.000000 0.000000 0.000000 0.000000 0.000000 0.000000 0.000000 0.000000 0.000000 0.000000 0.000000 0.000000 0.000000 0.000000 0.000000 0.000000 0.000000 0.000000 0.000000 0.000000 0.000000 0.000000 0.000000 0.000000 0.000000 0.000000 0.000000 0.000000 0.000000 0.000000 0.000000 0.000000 0.000000 0.000000 0.000000 0.000000 0.173422 0.173422 0.173422 0.173422 0.173422 0.173422 0.173422 0.191565 0.191565 0.191565 0.191565 0.191565 0.191565 0.191565 0.191565 0.191565 0.191565 0.191565 0.191565 0.191565 0.191565 0.191565 0.191565 0.191565 0.191565 0.191565 0.191565 0.191565 0.191565 0.191565 0.191565 0.191565 0.191565 0.191565 0.191565 0.191565 0.191565 0.191565 0.191565 0.191565 0.191565 0.191565 0.191565 0.191565 0.191565 0.191565 0.191565 0.191565 0.191565 0.191565 0.191565 0.222222 0.222222 0.222222 0.222222 0.222222 0.222222 0.222222 0.222222 0.222222 0.222222 0.222222 0.222222 0.222222 0.222222 0.222222 0.222222 0.222222 0.222222 0.222222 0.222222 0.222222 0.222222 0.222222 0.222222 0.222222 0.222222 0.222222 0.222222 0.222222 0.222222 0.234082 0.234082 0.234082 0.234082 0.234082 0.234082 0.234082 0.234082 0.234082 0.234082 0.234082 0.234082 0.234082 0.234082 0.234082 0.234082 0.234082 0.234082 0.234082 0.234082 0.234082 0.234082 0.234082 0.234082 0.234082 0.244339 0.244339 0.244339 0.244339 0.244339 0.244339 0.244339 0.244339 0.244339 0.244339 0.244339 0.244339 0.244339 0.244339 0.244339 0.244339 0.244339 0.244339 0.244339 0.244339 0.244339 0.248069 0.248069 0.248069 0.248069 0.248069 0.248069 0.248069 0.248069 0.248069 0.248069 0.248069 0.248069 0.248069 0.248069 0.248069 0.248069 0.248069 0.248069 0.248069 0.248069 0.248069 0.248069 0.248069 0.248069 0.248069 0.248069 0.248069 0.248069 0.248069 0.248069 0.248069 0.248069 0.248069 0.248069 0.248069 0.248069 0.248069 0.256074 0.256074 0.256074 0.256074 0.256074 0.256074 0.256074 0.256074 0.256074 0.256074 0.256074 0.256074 0.256074 0.256074 0.256074 0.256074 0.256074 0.256074 0.256074 0.256074 0.256074 0.256074 0.256074 0.256074 0.256074 0.256074 0.256074 0.256074 0.256074 0.256074 0.256074 0.256074 0.256074 0.256074 0.256074 0.256074 0.256074 0.256074 0.256074 0.256074 0.256074 0.256074 0.256074 0.256074 0.256074 0.260378 0.260378 0.260378 0.260378 0.260378 0.260378 0.260378 0.260378 0.260378 0.260378 0.260378 0.260378 0.260378 0.256074 0.256074 0.256074 0.256074 0.256074 0.256074 0.256074 0.256074 0.256074 0.256074 0.256074 0.256074 0.256074 0.260378 0.260378 0.260378 0.260378 0.260378 0.260378 0.260378 0.260378 0.260378 0.260378 0.260378 0.260378 0.251976 0.251976 0.251976 0.251976 0.251976 0.251976 0.251976 0.251976 0.251976 0.251976 0.251976 0.251976 0.256074 0.256074 0.256074 0.256074 0.256074 0.256074 0.256074 0.256074 0.256074 0.256074 0.256074 0.251976 0.251976 0.251976 0.251976 0.251976 0.251976 0.251976 0.251976 0.251976 0.251976 0.251976 0.248069 0.248069 0.248069 0.248069 0.248069 0.248069 0.248069 0.248069 0.248069 0.248069 0.248069 0.256074 0.256074 0.256074 0.256074 0.256074 0.256074 0.256074 0.256074 0.256074 0.256074 0.256074 0.256074 0.256074 0.256074 0.256074 0.256074 0.256074 0.256074 0.256074
