# Output from CTFFind version 4.1.9, run on 2019-11-03 19:02:27
# Input file: stack16_bm3d_averaged_1_2.25_0_250_half.mrc ; Number of micrographs: 1
# Pixel size: 3.000 Angstroms ; acceleration voltage: 300.0 keV ; spherical aberration: 0.00 mm ; amplitude contrast: 0.07
# Box size: 512 pixels ; min. res.: 30.0 Angstroms ; max. res.: 5.0 Angstroms ; min. def.: 5000.0 um; max. def. 50000.0 um; num. frames averaged: 1
# 6 lines per micrograph: #1 - spatial frequency (1/Angstroms); #2 - 1D rotational average of spectrum (assuming no astigmatism); #3 - 1D rotational average of spectrum; #4 - CTF fit; #5 - cross-correlation between spectrum and CTF fit; #6 - 2sigma of expected cross correlation of noise
0.000000 0.000651 0.001302 0.001953 0.002604 0.003255 0.003906 0.004557 0.005208 0.005859 0.006510 0.007161 0.007812 0.008464 0.009115 0.009766 0.010417 0.011068 0.011719 0.012370 0.013021 0.013672 0.014323 0.014974 0.015625 0.016276 0.016927 0.017578 0.018229 0.018880 0.019531 0.020182 0.020833 0.021484 0.022135 0.022786 0.023438 0.024089 0.024740 0.025391 0.026042 0.026693 0.027344 0.027995 0.028646 0.029297 0.029948 0.030599 0.031250 0.031901 0.032552 0.033203 0.033854 0.034505 0.035156 0.035807 0.036458 0.037109 0.037760 0.038411 0.039062 0.039714 0.040365 0.041016 0.041667 0.042318 0.042969 0.043620 0.044271 0.044922 0.045573 0.046224 0.046875 0.047526 0.048177 0.048828 0.049479 0.050130 0.050781 0.051432 0.052083 0.052734 0.053385 0.054036 0.054688 0.055339 0.055990 0.056641 0.057292 0.057943 0.058594 0.059245 0.059896 0.060547 0.061198 0.061849 0.062500 0.063151 0.063802 0.064453 0.065104 0.065755 0.066406 0.067057 0.067708 0.068359 0.069010 0.069661 0.070312 0.070964 0.071615 0.072266 0.072917 0.073568 0.074219 0.074870 0.075521 0.076172 0.076823 0.077474 0.078125 0.078776 0.079427 0.080078 0.080729 0.081380 0.082031 0.082682 0.083333 0.083984 0.084635 0.085286 0.085938 0.086589 0.087240 0.087891 0.088542 0.089193 0.089844 0.090495 0.091146 0.091797 0.092448 0.093099 0.093750 0.094401 0.095052 0.095703 0.096354 0.097005 0.097656 0.098307 0.098958 0.099609 0.100260 0.100911 0.101562 0.102214 0.102865 0.103516 0.104167 0.104818 0.105469 0.106120 0.106771 0.107422 0.108073 0.108724 0.109375 0.110026 0.110677 0.111328 0.111979 0.112630 0.113281 0.113932 0.114583 0.115234 0.115885 0.116536 0.117188 0.117839 0.118490 0.119141 0.119792 0.120443 0.121094 0.121745 0.122396 0.123047 0.123698 0.124349 0.125000 0.125651 0.126302 0.126953 0.127604 0.128255 0.128906 0.129557 0.130208 0.130859 0.131510 0.132161 0.132812 0.133464 0.134115 0.134766 0.135417 0.136068 0.136719 0.137370 0.138021 0.138672 0.139323 0.139974 0.140625 0.141276 0.141927 0.142578 0.143229 0.143880 0.144531 0.145182 0.145833 0.146484 0.147135 0.147786 0.148438 0.149089 0.149740 0.150391 0.151042 0.151693 0.152344 0.152995 0.153646 0.154297 0.154948 0.155599 0.156250 0.156901 0.157552 0.158203 0.158854 0.159505 0.160156 0.160807 0.161458 0.162109 0.162760 0.163411 0.164062 0.164714 0.165365 0.166016 0.166667 0.167318 0.167969 0.168620 0.169271 0.169922 0.170573 0.171224 0.171875 0.172526 0.173177 0.173828 0.174479 0.175130 0.175781 0.176432 0.177083 0.177734 0.178385 0.179036 0.179688 0.180339 0.180990 0.181641 0.182292 0.182943 0.183594 0.184245 0.184896 0.185547 0.186198 0.186849 0.187500 0.188151 0.188802 0.189453 0.190104 0.190755 0.191406 0.192057 0.192708 0.193359 0.194010 0.194661 0.195312 0.195964 0.196615 0.197266 0.197917 0.198568 0.199219 0.199870 0.200521 0.201172 0.201823 0.202474 0.203125 0.203776 0.204427 0.205078 0.205729 0.206380 0.207031 0.207682 0.208333 0.208984 0.209635 0.210286 0.210938 0.211589 0.212240 0.212891 0.213542 0.214193 0.214844 0.215495 0.216146 0.216797 0.217448 0.218099 0.218750 0.219401 0.220052 0.220703 0.221354 0.222005 0.222656 0.223307 0.223958 0.224609 0.225260 0.225911 0.226562 0.227214 0.227865 0.228516 0.229167 0.229818 0.230469 0.231120 0.231771 0.232422 0.233073 0.233724 0.234375 0.235026 0.235677
       0.34374        0.34374        0.34374        0.34374        0.34374        0.34374        0.34374        0.34374        0.34374        0.34374        0.34374        0.34374        0.34374        0.34374        0.34374        0.34374        0.34374        0.34374        0.34374        0.34374        0.34374        0.34374        0.34374        0.34374        0.34374        0.34374        0.34374        0.34374        0.34374        0.34374        0.34374        0.34374        0.34374        0.34374        0.34374        0.34374        0.34374        0.34374        0.34374        0.34374        0.34374        0.34374        0.34374        0.34374        0.34374        0.34374        0.34374        0.34374        0.34374        0.34374        0.34374        0.48220        0.68216        0.45336       -0.12231       -0.41280       -0.56959       -0.66200       -0.73653       -0.75307       -0.86911       -0.91938       -0.75023       -0.92326       -0.87181       -1.02461       -1.09604       -0.98170       -0.94996       -0.87286       -0.82683       -0.73335       -0.63043       -0.49348       -0.42145       -0.22098       -0.10523       -0.01796        0.19517        0.23660        0.30603        0.37724        0.42718        0.50536        0.57481        0.60114        0.57777        0.49813        0.54825        0.48614        0.40482        0.33228        0.19828        0.17260        0.09352       -0.03876       -0.10400       -0.07369        0.02718       -0.01116        0.03952        0.03025        0.19234        0.21524        0.39389        0.45667        0.56577        0.69461        0.76300        0.74160        0.68738        0.66891        0.57535        0.51494        0.38596        0.28477        0.19631        0.16883        0.07925        0.04253        0.02158        0.06077        0.09054        0.28658        0.40633        0.50517        0.58219        0.62818        0.69390        0.65081        0.65523        0.65554        0.59270        0.49170        0.29911        0.25897        0.21458        0.12362        0.04844        0.10459        0.11255        0.25736        0.36224        0.42013        0.50497        0.55265        0.63981        0.59127        0.54002        0.51469        0.36333        0.20423        0.22514        0.16737        0.14521        0.14304        0.22052        0.25637        0.34750        0.43729        0.42835        0.52213        0.50748        0.47310        0.46985        0.37879        0.32835        0.25782        0.20431        0.22136        0.21190        0.21280        0.30640        0.44713        0.46509        0.48772        0.55611        0.50128        0.44187        0.39798        0.31345        0.24562        0.24129        0.23482        0.26377        0.29429        0.33431        0.43039        0.50114        0.49848        0.46199        0.38676        0.36822        0.35433        0.23849        0.22541        0.25860        0.29816        0.36305        0.36032        0.40206        0.43880        0.44644        0.38055        0.35400        0.31683        0.33052        0.28108        0.26766        0.29304        0.34800        0.40394        0.42052        0.39624        0.38009        0.40556        0.36132        0.29990        0.30469        0.30809        0.31043        0.36564        0.38578        0.41392        0.34227        0.36477        0.38563        0.35389        0.31649        0.28044        0.28837        0.33316        0.33631        0.33196        0.34438        0.38555        0.34197        0.35785        0.30220        0.30359        0.27448        0.28291        0.30098        0.33168        0.38392        0.36189        0.35111        0.30622        0.27816        0.26846        0.30183        0.28805        0.33024        0.36481        0.39238        0.34050        0.32780        0.30366        0.30608        0.30416        0.28643        0.32487        0.33946        0.33324        0.32519        0.29709        0.34198        0.32552        0.30534        0.32533        0.32883        0.34657        0.35699        0.32029        0.33051        0.29990        0.29928        0.29523        0.31816        0.40010        0.33135        0.35848        0.30772        0.31830        0.30982        0.31083        0.29541        0.30798        0.30456        0.33323        0.34720        0.29451        0.32473        0.31291        0.29123        0.30912        0.32408        0.32359        0.36426        0.35625        0.31382        0.29276        0.29550        0.24730        0.32410        0.33711        0.31004        0.31165        0.27311        0.29700        0.32660        0.33247        0.30322        0.33965        0.32873        0.30522        0.24161        0.29516        0.29315        0.29720        0.33102        0.31064        0.36621        0.37577        0.28087        0.28816        0.28104        0.27701        0.30359        0.28225        0.26559        0.25378        0.28408        0.29308        0.28839        0.28597        0.27258        0.33861        0.30734        0.29066        0.23003        0.23002        0.25764        0.22939        0.22803        0.30915        0.36181        0.26836        0.25229        0.29505        0.22451        0.22374        0.32672        0.28923        0.18743        0.16805        0.24843        0.31349        0.26405        0.08776        0.01276       -0.52947       -0.74634
3.030740 2.992846 2.955197 2.917792 2.880633 2.843719 2.807049 2.770625 2.734445 2.698510 2.662820 2.627376 2.592176 2.557221 2.522510 2.488045 2.453825 2.419850 2.386119 2.352633 2.319393 2.286397 2.253646 2.221140 2.188879 2.156863 2.125092 2.093566 2.062285 2.031248 2.000457 1.969910 1.939609 1.909552 1.879740 1.850173 1.820852 1.791774 1.762942 1.734355 1.706013 1.677916 1.650063 1.622456 1.595093 1.567975 1.541102 1.514475 1.488092 1.461954 1.436061 1.497737 1.653182 1.592695 0.935636 0.663987 0.463243 0.409052 0.316542 0.253004 0.190153 -0.001467 0.192249 0.068323 -0.027838 -0.072045 -0.214834 -0.163828 -0.089899 -0.095382 -0.086282 0.008464 0.031261 0.220471 0.140816 0.349202 0.437455 0.470827 0.689672 0.680906 0.690094 0.816046 0.799903 0.820063 0.929458 0.863894 0.911354 0.731592 0.824219 0.820193 0.626836 0.594958 0.443839 0.427275 0.351306 0.212419 0.122835 0.096187 0.217017 0.131474 0.214542 0.111947 0.278925 0.272219 0.446217 0.400533 0.579069 0.628129 0.733031 0.715160 0.645825 0.628698 0.500970 0.483423 0.326094 0.292987 0.118205 0.152551 0.009157 -0.001718 -0.044193 -0.042130 -0.006662 0.040977 0.272592 0.308564 0.384284 0.376879 0.458494 0.492998 0.474403 0.477803 0.370546 0.389251 0.153513 0.089356 0.080863 -0.015774 -0.130238 -0.040540 -0.112702 0.011984 0.137162 0.167703 0.252672 0.264829 0.352211 0.474024 0.333419 0.393771 0.284288 0.123282 0.055529 0.064262 0.040527 0.022501 0.029148 0.114602 0.117488 0.266808 0.239177 0.274156 0.337833 0.266739 0.268435 0.229191 0.130451 0.084200 0.025049 0.034112 0.025796 -0.002225 0.028148 0.175093 0.213654 0.239915 0.292805 0.239813 0.239389 0.138775 0.123334 0.003504 0.000604 -0.009285 0.011057 0.027008 0.040547 0.100496 0.191692 0.204611 0.215927 0.137223 0.105089 0.074182 0.058117 -0.076582 -0.012914 0.021485 0.052167 0.054507 0.084581 0.156664 0.126505 0.150909 0.059753 0.046353 0.044291 0.039904 0.005539 -0.001604 0.017367 0.079672 0.114627 0.131757 0.063226 0.108378 0.103569 0.012140 0.015534 0.016249 0.008958 0.039130 0.071872 0.099408 0.090933 0.044631 0.089725 0.076400 0.050698 0.016976 -0.016913 0.010038 0.059185 0.029819 0.040389 0.048882 0.076538 0.074883 0.035024 0.016458 0.004707 -0.018638 -0.003318 0.006868 0.046224 0.094877 0.062744 0.048358 -0.003242 -0.025687 -0.015061 0.011783 0.006869 0.033852 0.076211 0.073795 -0.004198 0.038262 -0.021161 0.020642 -0.015463 -0.026882 0.036100 0.042774 0.008237 0.004762 -0.024881 0.034463 -0.004415 -0.005730 0.011288 0.015465 0.047110 -0.029286 0.027648 0.000844 -0.030436 -0.007832 -0.016356 0.021829 0.081814 0.013331 0.034085 -0.002790 0.022213 -0.012284 0.020150 -0.002529 0.013913 -0.009305 0.045522 0.027607 0.012580 0.048187 -0.017899 0.003116 0.013110 0.012816 0.039176 0.067996 0.048712 0.013121 0.003034 -0.008853 -0.019092 0.014665 0.024531 0.032436 0.038715 -0.026438 -0.003183 0.033835 0.048749 0.006555 0.045275 0.036815 0.017879 -0.061791 0.009820 0.021559 0.000232 0.027708 0.037659 0.084880 0.078799 0.004734 0.014354 -0.012587 0.000232 0.062658 -0.051378 -0.008798 -0.031239 -0.016878 0.014336 -0.003653 -0.001196 -0.073729 0.024047 -0.021882 -0.041141 -0.107650 -0.074542 -0.039756 -0.085422 -0.083668 0.017415 0.063608 -0.059602 -0.028364 0.037593 -0.002551 -0.077617 0.092952 0.082302 0.022587 -0.011659 0.171037 0.256095 0.233364 -0.001672 0.016819 -0.653609
0.072396 0.073047 0.074999 0.078251 0.082803 0.088653 0.095799 0.104238 0.113965 0.124977 0.137265 0.150823 0.165639 0.181701 0.198993 0.217498 0.237193 0.258051 0.280042 0.303132 0.327278 0.352433 0.378544 0.405551 0.433384 0.461967 0.491215 0.521034 0.551319 0.581955 0.612819 0.643774 0.674672 0.705357 0.735658 0.765394 0.794373 0.822391 0.849233 0.874675 0.898485 0.920419 0.940228 0.957658 0.972448 0.984338 0.993064 0.998366 0.999988 0.997683 0.991212 0.980351 0.964892 0.944652 0.919468 0.889208 0.853776 0.813109 0.767189 0.716042 0.659745 0.598429 0.532281 0.461551 0.386550 0.307655 0.225311 0.140031 0.052394 0.036953 0.127299 0.217872 0.307845 0.396339 0.482432 0.565168 0.643568 0.716637 0.783383 0.842829 0.894025 0.936070 0.968124 0.989431 0.999331 0.997286 0.982891 0.955892 0.916208 0.863937 0.799376 0.723025 0.635597 0.538020 0.431439 0.317206 0.196879 0.072196 0.054931 0.182455 0.308210 0.429956 0.545413 0.652308 0.748417 0.831624 0.899962 0.951675 0.985264 0.999541 0.993672 0.967222 0.920190 0.853036 0.766697 0.662596 0.542638 0.409188 0.265044 0.113386 0.042282 0.198203 0.350456 0.495054 0.628047 0.745636 0.844292 0.920868 0.972716 0.997792 0.994751 0.963024 0.902883 0.815471 0.702818 0.567819 0.414189 0.246382 0.069479 0.110952 0.289018 0.458696 0.614030 0.749358 0.859521 0.940084 0.987533 0.999453 0.974673 0.913371 0.817134 0.688956 0.533192 0.355441 0.162376 0.038485 0.239055 0.430995 0.606064 0.756480 0.875288 0.956702 0.996422 0.991894 0.942505 0.849694 0.716981 0.549872 0.355693 0.143300 0.077293 0.295366 0.500014 0.680682 0.827745 0.933038 0.990350 0.995839 0.948330 0.849493 0.703855 0.518668 0.303600 0.070284 0.168285 0.398451 0.606673 0.780344 0.908578 0.982941 0.998061 0.952073 0.846870 0.688122 0.485046 0.249953 0.002457 0.255972 0.493886 0.700114 0.860304 0.962881 0.999946 0.967959 0.868140 0.706548 0.493815 0.244524 0.023716 0.291477 0.538898 0.747168 0.899994 0.984940 0.994513 0.926915 0.786376 0.583011 0.332200 0.053509 0.230772 0.497385 0.724008 0.891169 0.983977 0.993546 0.917953 0.762617 0.540060 0.269004 0.027091 0.322011 0.589077 0.803579 0.945118 0.999639 0.960940 0.831492 0.622472 0.352932 0.048180 0.262494 0.548622 0.781542 0.937319 0.999319 0.960106 0.822476 0.599447 0.313203 0.006986 0.327674 0.614696 0.836828 0.969267 0.996515 0.914354 0.730618 0.464650 0.145430 0.191463 0.507735 0.766750 0.937812 0.999943 0.944602 0.777042 0.516043 0.191988 0.156508 0.487127 0.758982 0.937719 1.000000 0.936728 0.754567 0.475489 0.134334 0.225389 0.556971 0.816560 0.969068 0.993054 0.883956 0.655123 0.336432 0.029391 0.392386 0.702111 0.914711 0.999268 0.942492 0.751055 0.451108 0.084942 0.294776 0.632512 0.878000 0.993852 0.961458 0.784239 0.487632 0.115717 0.275135 0.624692 0.878185 0.994992 0.955396 0.764181 0.450421 0.063355 0.335129 0.680314 0.915176 0.999983 0.919274 0.684973 0.334990 0.072618 0.469092 0.786516 0.969540 0.985237 0.829356 0.527665 0.132054 0.288129 0.658104 0.910966 0.999994 0.907547 0.648925 0.270228 0.159539 0.560818 0.858239 0.994884 0.943465 0.712150 0.343727 0.091972 0.511038 0.831598 0.989947 0.953462 0.727732 0.356198 0.087802 0.515283 0.839338 0.992963 0.943208 0.698662 0.308467 0.147134 0.573052 0.879154 0.999502 0.906903 0.619497 0.197713 0.268041 0.676534
1.000000 1.000000 1.000000 1.000000 1.000000 1.000000 1.000000 1.000000 1.000000 1.000000 1.000000 1.000000 1.000000 1.000000 1.000000 1.000000 1.000000 1.000000 1.000000 1.000000 1.000000 1.000000 1.000000 1.000000 1.000000 1.000000 1.000000 1.000000 1.000000 1.000000 1.000000 1.000000 1.000000 1.000000 1.000000 1.000000 1.000000 1.000000 1.000000 1.000000 1.000000 1.000000 1.000000 1.000000 1.000000 1.000000 1.000000 1.000000 1.000000 1.000000 1.000000 1.000000 0.943105 0.943105 0.943105 0.943105 0.943105 0.943105 0.943105 0.943105 0.943105 0.943105 0.943105 0.943105 0.943105 0.943105 0.943105 0.943105 0.943105 0.943105 0.943105 0.943105 0.943105 0.943105 0.943105 0.943105 0.943105 0.943105 0.943105 0.943105 0.943105 0.943105 0.943105 0.943105 0.943105 0.932728 0.934024 0.936497 0.937369 0.937334 0.936977 0.936767 0.937027 0.938243 0.939919 0.956233 0.958287 0.958741 0.959869 0.958703 0.961486 0.960072 0.964676 0.975492 0.974787 0.975357 0.969147 0.970101 0.969567 0.968880 0.969736 0.969502 0.968089 0.966534 0.965246 0.965576 0.965344 0.966883 0.967184 0.967026 0.967380 0.967281 0.967124 0.964331 0.962408 0.963603 0.964942 0.964225 0.970081 0.968912 0.971063 0.971033 0.969959 0.969734 0.969919 0.970080 0.967341 0.966107 0.964041 0.954197 0.946431 0.941261 0.943569 0.946007 0.943134 0.936514 0.935860 0.934463 0.930982 0.930467 0.929401 0.930003 0.922370 0.919532 0.908318 0.908470 0.911508 0.912446 0.910015 0.900665 0.894162 0.894856 0.897601 0.892025 0.889643 0.905278 0.901891 0.904446 0.907655 0.908959 0.912890 0.901868 0.895902 0.892189 0.888327 0.884776 0.886600 0.889319 0.891365 0.886883 0.880055 0.875231 0.873377 0.878587 0.883825 0.885640 0.884393 0.884600 0.884167 0.867825 0.868906 0.855231 0.856512 0.860126 0.864826 0.863589 0.861901 0.862630 0.861868 0.855952 0.857612 0.854364 0.847695 0.841328 0.839147 0.837849 0.851294 0.849780 0.837030 0.826516 0.818543 0.823904 0.830152 0.823905 0.822962 0.814872 0.814566 0.807982 0.795632 0.798158 0.805565 0.801774 0.807237 0.806464 0.813299 0.815669 0.814070 0.812496 0.812706 0.813540 0.783922 0.792284 0.795190 0.775911 0.781040 0.768873 0.764749 0.765354 0.764908 0.752884 0.758817 0.724837 0.692002 0.696401 0.687001 0.667808 0.652807 0.653912 0.651996 0.580376 0.581905 0.564293 0.564621 0.576304 0.585221 0.604840 0.591328 0.586459 0.576009 0.527086 0.538076 0.540437 0.504592 0.513560 0.506083 0.494050 0.452265 0.479193 0.478959 0.458422 0.409757 0.434488 0.439383 0.476369 0.469304 0.471772 0.484666 0.463407 0.437170 0.442673 0.453345 0.454735 0.462519 0.422249 0.397812 0.411864 0.429462 0.436146 0.444512 0.442218 0.408707 0.432861 0.405879 0.419626 0.438894 0.431227 0.419162 0.429595 0.411037 0.436972 0.421218 0.457047 0.477282 0.447714 0.442856 0.440893 0.430212 0.428130 0.417656 0.409676 0.376742 0.392761 0.382082 0.358379 0.388833 0.419279 0.400913 0.375974 0.357437 0.347972 0.297047 0.271094 0.209668 0.194407 0.217826 0.210712 0.177737 0.134919 0.098476 0.085277 0.090699 0.105889 0.086579 0.088119 0.088119 0.088119 0.088119 0.060019 0.060019 0.060019 0.060019 0.060019 0.060019 0.060019 0.060019 0.060019 0.060019 0.060019 0.060019 0.060019 0.060019 0.076075 0.076075 0.076075 0.076075 0.076075 0.076075 0.076075 0.076075 0.076075 0.076075 0.076075 0.076075
0.000000 0.000000 0.000000 0.000000 0.000000 0.000000 0.000000 0.000000 0.000000 0.000000 0.000000 0.000000 0.000000 0.000000 0.000000 0.000000 0.000000 0.000000 0.000000 0.000000 0.000000 0.000000 0.000000 0.000000 0.000000 0.000000 0.000000 0.000000 0.000000 0.000000 0.000000 0.000000 0.000000 0.000000 0.000000 0.000000 0.000000 0.000000 0.000000 0.000000 0.000000 0.000000 0.000000 0.000000 0.000000 0.000000 0.000000 0.000000 0.000000 0.000000 0.000000 0.000000 0.209657 0.209657 0.209657 0.209657 0.209657 0.209657 0.209657 0.209657 0.209657 0.209657 0.209657 0.209657 0.209657 0.209657 0.209657 0.209657 0.209657 0.209657 0.209657 0.209657 0.209657 0.209657 0.209657 0.209657 0.209657 0.209657 0.209657 0.209657 0.209657 0.209657 0.209657 0.209657 0.209657 0.244339 0.244339 0.244339 0.244339 0.244339 0.244339 0.244339 0.244339 0.244339 0.244339 0.244339 0.244339 0.244339 0.244339 0.244339 0.244339 0.244339 0.244339 0.244339 0.244339 0.244339 0.244339 0.244339 0.244339 0.244339 0.260378 0.260378 0.260378 0.260378 0.260378 0.260378 0.260378 0.260378 0.260378 0.260378 0.260378 0.260378 0.260378 0.260378 0.260378 0.260378 0.260378 0.260378 0.260378 0.260378 0.269680 0.269680 0.269680 0.269680 0.269680 0.269680 0.269680 0.269680 0.269680 0.269680 0.269680 0.269680 0.269680 0.269680 0.269680 0.269680 0.269680 0.269680 0.269680 0.269680 0.269680 0.269680 0.269680 0.269680 0.269680 0.269680 0.269680 0.269680 0.269680 0.269680 0.269680 0.269680 0.269680 0.280056 0.280056 0.280056 0.280056 0.280056 0.280056 0.280056 0.280056 0.280056 0.280056 0.280056 0.280056 0.280056 0.280056 0.280056 0.280056 0.280056 0.280056 0.280056 0.280056 0.280056 0.280056 0.280056 0.280056 0.280056 0.280056 0.280056 0.274721 0.274721 0.274721 0.274721 0.274721 0.274721 0.274721 0.274721 0.274721 0.274721 0.274721 0.274721 0.274721 0.285714 0.285714 0.285714 0.285714 0.285714 0.285714 0.285714 0.285714 0.285714 0.285714 0.285714 0.280056 0.280056 0.280056 0.280056 0.280056 0.280056 0.280056 0.280056 0.280056 0.280056 0.280056 0.274721 0.274721 0.274721 0.274721 0.274721 0.274721 0.274721 0.274721 0.274721 0.274721 0.274721 0.280056 0.280056 0.280056 0.280056 0.280056 0.280056 0.280056 0.280056 0.280056 0.280056 0.285714 0.285714 0.285714 0.285714 0.285714 0.285714 0.285714 0.285714 0.285714 0.269680 0.269680 0.269680 0.269680 0.269680 0.269680 0.269680 0.269680 0.269680 0.269680 0.291730 0.291730 0.291730 0.291730 0.291730 0.291730 0.291730 0.291730 0.269680 0.269680 0.269680 0.269680 0.269680 0.269680 0.269680 0.269680 0.269680 0.264906 0.264906 0.264906 0.264906 0.264906 0.264906 0.264906 0.264906 0.264906 0.274721 0.274721 0.274721 0.274721 0.274721 0.274721 0.274721 0.274721 0.269680 0.269680 0.269680 0.269680 0.269680 0.269680 0.269680 0.269680 0.269680 0.269680 0.269680 0.269680 0.269680 0.269680 0.269680 0.269680 0.280056 0.280056 0.280056 0.280056 0.280056 0.280056 0.280056 0.274721 0.274721 0.274721 0.274721 0.274721 0.274721 0.274721 0.256074 0.256074 0.256074 0.256074 0.256074 0.256074 0.256074 0.256074 0.264906 0.264906 0.264906 0.264906 0.264906 0.264906 0.264906 0.264906 0.264906 0.264906 0.264906 0.264906 0.264906 0.264906 0.260378 0.260378 0.260378 0.260378 0.260378 0.260378 0.260378 0.260378 0.260378 0.260378 0.260378 0.260378
