# Output from CTFFind version 4.1.9, run on 2019-11-03 20:09:54
# Input file: stack11_bm3d_averaged_1_10_0_2500_half.mrc ; Number of micrographs: 1
# Pixel size: 3.000 Angstroms ; acceleration voltage: 300.0 keV ; spherical aberration: 0.00 mm ; amplitude contrast: 0.07
# Box size: 512 pixels ; min. res.: 30.0 Angstroms ; max. res.: 5.0 Angstroms ; min. def.: 5000.0 um; max. def. 50000.0 um; num. frames averaged: 1
# 6 lines per micrograph: #1 - spatial frequency (1/Angstroms); #2 - 1D rotational average of spectrum (assuming no astigmatism); #3 - 1D rotational average of spectrum; #4 - CTF fit; #5 - cross-correlation between spectrum and CTF fit; #6 - 2sigma of expected cross correlation of noise
0.000000 0.000651 0.001302 0.001953 0.002604 0.003255 0.003906 0.004557 0.005208 0.005859 0.006510 0.007161 0.007812 0.008464 0.009115 0.009766 0.010417 0.011068 0.011719 0.012370 0.013021 0.013672 0.014323 0.014974 0.015625 0.016276 0.016927 0.017578 0.018229 0.018880 0.019531 0.020182 0.020833 0.021484 0.022135 0.022786 0.023438 0.024089 0.024740 0.025391 0.026042 0.026693 0.027344 0.027995 0.028646 0.029297 0.029948 0.030599 0.031250 0.031901 0.032552 0.033203 0.033854 0.034505 0.035156 0.035807 0.036458 0.037109 0.037760 0.038411 0.039062 0.039714 0.040365 0.041016 0.041667 0.042318 0.042969 0.043620 0.044271 0.044922 0.045573 0.046224 0.046875 0.047526 0.048177 0.048828 0.049479 0.050130 0.050781 0.051432 0.052083 0.052734 0.053385 0.054036 0.054688 0.055339 0.055990 0.056641 0.057292 0.057943 0.058594 0.059245 0.059896 0.060547 0.061198 0.061849 0.062500 0.063151 0.063802 0.064453 0.065104 0.065755 0.066406 0.067057 0.067708 0.068359 0.069010 0.069661 0.070312 0.070964 0.071615 0.072266 0.072917 0.073568 0.074219 0.074870 0.075521 0.076172 0.076823 0.077474 0.078125 0.078776 0.079427 0.080078 0.080729 0.081380 0.082031 0.082682 0.083333 0.083984 0.084635 0.085286 0.085938 0.086589 0.087240 0.087891 0.088542 0.089193 0.089844 0.090495 0.091146 0.091797 0.092448 0.093099 0.093750 0.094401 0.095052 0.095703 0.096354 0.097005 0.097656 0.098307 0.098958 0.099609 0.100260 0.100911 0.101562 0.102214 0.102865 0.103516 0.104167 0.104818 0.105469 0.106120 0.106771 0.107422 0.108073 0.108724 0.109375 0.110026 0.110677 0.111328 0.111979 0.112630 0.113281 0.113932 0.114583 0.115234 0.115885 0.116536 0.117188 0.117839 0.118490 0.119141 0.119792 0.120443 0.121094 0.121745 0.122396 0.123047 0.123698 0.124349 0.125000 0.125651 0.126302 0.126953 0.127604 0.128255 0.128906 0.129557 0.130208 0.130859 0.131510 0.132161 0.132812 0.133464 0.134115 0.134766 0.135417 0.136068 0.136719 0.137370 0.138021 0.138672 0.139323 0.139974 0.140625 0.141276 0.141927 0.142578 0.143229 0.143880 0.144531 0.145182 0.145833 0.146484 0.147135 0.147786 0.148438 0.149089 0.149740 0.150391 0.151042 0.151693 0.152344 0.152995 0.153646 0.154297 0.154948 0.155599 0.156250 0.156901 0.157552 0.158203 0.158854 0.159505 0.160156 0.160807 0.161458 0.162109 0.162760 0.163411 0.164062 0.164714 0.165365 0.166016 0.166667 0.167318 0.167969 0.168620 0.169271 0.169922 0.170573 0.171224 0.171875 0.172526 0.173177 0.173828 0.174479 0.175130 0.175781 0.176432 0.177083 0.177734 0.178385 0.179036 0.179688 0.180339 0.180990 0.181641 0.182292 0.182943 0.183594 0.184245 0.184896 0.185547 0.186198 0.186849 0.187500 0.188151 0.188802 0.189453 0.190104 0.190755 0.191406 0.192057 0.192708 0.193359 0.194010 0.194661 0.195312 0.195964 0.196615 0.197266 0.197917 0.198568 0.199219 0.199870 0.200521 0.201172 0.201823 0.202474 0.203125 0.203776 0.204427 0.205078 0.205729 0.206380 0.207031 0.207682 0.208333 0.208984 0.209635 0.210286 0.210938 0.211589 0.212240 0.212891 0.213542 0.214193 0.214844 0.215495 0.216146 0.216797 0.217448 0.218099 0.218750 0.219401 0.220052 0.220703 0.221354 0.222005 0.222656 0.223307 0.223958 0.224609 0.225260 0.225911 0.226562 0.227214 0.227865 0.228516 0.229167 0.229818 0.230469 0.231120 0.231771 0.232422 0.233073 0.233724 0.234375 0.235026 0.235677
       0.34934        0.34934        0.34934        0.34934        0.34934        0.34934        0.34934        0.34934        0.34934        0.34934        0.34934        0.34934        0.34934        0.34934        0.34934        0.34934        0.34934        0.34934        0.34934        0.34934        0.34934        0.34934        0.34934        0.34934        0.34934        0.34934        0.34934        0.34934        0.34934        0.34934        0.34934        0.34934        0.34934        0.34934        0.34934        0.34934        0.34934        0.34934        0.34934        0.34934        0.34934        0.34934        0.34934        0.34934        0.34934        0.34934        0.34934        0.34934        0.34934        0.34934        0.34934        0.70150        0.85798        0.54069        0.10659       -0.02789       -0.37919       -0.17742       -0.28755       -0.11652       -0.05302       -0.11259       -0.05224       -0.16031       -0.20190       -0.20949       -0.30311       -0.31391       -0.43859       -0.35992       -0.42004       -0.41612       -0.38876       -0.39809       -0.43751       -0.50038       -0.55474       -0.54150       -0.51462       -0.35009       -0.31784       -0.28415       -0.26398       -0.18152       -0.16467        0.06562        0.14871        0.18311        0.27173        0.38223        0.45960        0.52547        0.60671        0.60393        0.58896        0.70353        0.80122        0.70177        0.74724        0.61750        0.56998        0.48682        0.43822        0.51433        0.40221        0.28179        0.12257        0.12185        0.10395       -0.00422        0.05719        0.06111        0.02124        0.03166        0.04042        0.23703        0.27374        0.29830        0.43885        0.45666        0.41792        0.60759        0.61539        0.62873        0.72101        0.67553        0.64849        0.65347        0.56060        0.45909        0.42031        0.30902        0.28107        0.19228        0.14100        0.05394        0.07423        0.08729        0.10492        0.16755        0.25203        0.30682        0.43374        0.46851        0.48306        0.56136        0.60198        0.63798        0.61136        0.55553        0.46617        0.47410        0.37956        0.28522        0.21860        0.15808        0.17953        0.15797        0.17310        0.20364        0.33109        0.34658        0.41557        0.45334        0.42495        0.47799        0.56604        0.55878        0.50899        0.45933        0.41844        0.38016        0.34943        0.31762        0.27553        0.25270        0.26735        0.26305        0.23131        0.31560        0.37089        0.38570        0.44145        0.45678        0.46628        0.43197        0.41745        0.40491        0.36869        0.34955        0.27855        0.29059        0.27505        0.25715        0.30398        0.30090        0.35797        0.39149        0.44367        0.47808        0.40735        0.42373        0.43341        0.41635        0.35446        0.33523        0.29447        0.33416        0.28324        0.33169        0.32272        0.34068        0.34876        0.37086        0.31125        0.38710        0.41298        0.38473        0.35573        0.37051        0.32337        0.30159        0.31491        0.32092        0.31127        0.32329        0.35273        0.36589        0.34559        0.36421        0.36198        0.43250        0.39801        0.34549        0.35387        0.30318        0.30208        0.33231        0.32398        0.33433        0.34867        0.35117        0.39355        0.33394        0.33353        0.34094        0.35669        0.30571        0.31498        0.28771        0.30535        0.33860        0.30563        0.33841        0.36584        0.38046        0.30551        0.35334        0.30517        0.29200        0.28201        0.25309        0.31587        0.31510        0.34494        0.34245        0.35169        0.33242        0.35180        0.32140        0.34799        0.30474        0.33245        0.30213        0.34324        0.34330        0.38421        0.34028        0.33920        0.33612        0.29681        0.28225        0.31854        0.25709        0.23666        0.34046        0.32898        0.37468        0.35222        0.36951        0.34356        0.33550        0.35912        0.27249        0.27916        0.32430        0.30179        0.31472        0.31173        0.34192        0.33001        0.28972        0.29711        0.34683        0.32617        0.33123        0.31208        0.32109        0.33802        0.38931        0.37265        0.32921        0.29066        0.30681        0.29393        0.31751        0.28739        0.28114        0.31281        0.32538        0.34882        0.35851        0.33763        0.30213        0.30677        0.27881        0.28750        0.26050        0.30599        0.25639        0.25861        0.28242        0.27536        0.25827        0.29326        0.22840        0.22934        0.23462        0.20056        0.28259        0.35947        0.25978        0.25797        0.32074        0.29631        0.30589        0.31744        0.28403        0.26419        0.20040        0.21382        0.22758        0.30928        0.23910        0.28192        0.37399        0.39429        0.27083        0.21334        0.16579       -0.01313       -0.16877       -0.63882
2.722315 2.693395 2.664633 2.636029 2.607582 2.579292 2.551160 2.523185 2.495368 2.467708 2.440206 2.412861 2.385674 2.358644 2.331772 2.305057 2.278500 2.252100 2.225858 2.199773 2.173846 2.148076 2.122464 2.097009 2.071712 2.046572 2.021589 1.996764 1.972097 1.947587 1.923234 1.899039 1.875002 1.851122 1.827399 1.803834 1.780427 1.757177 1.734084 1.711149 1.688371 1.665751 1.643289 1.620983 1.598836 1.576846 1.555013 1.533338 1.511820 1.490460 1.469257 1.679162 2.092924 1.663168 1.152714 1.018434 0.442413 0.820823 0.538818 0.813607 0.790232 0.789546 0.728457 0.734597 0.577964 0.542457 0.484308 0.410711 0.242290 0.346383 0.191093 0.318864 0.207013 0.205902 0.180813 0.040204 -0.004413 0.017633 -0.068837 0.128955 0.225937 0.182859 0.175706 0.310341 0.175938 0.506135 0.605315 0.620747 0.635773 0.846993 0.808707 0.913166 0.917134 1.008260 0.981760 1.044447 1.155203 1.008950 1.135063 0.879835 0.899108 0.773245 0.636197 0.786683 0.670126 0.488263 0.324743 0.243788 0.265403 0.146200 0.140407 0.164048 0.107941 0.109938 0.084709 0.237555 0.332636 0.327643 0.462929 0.526181 0.401930 0.577837 0.710648 0.610353 0.698286 0.681443 0.695987 0.620063 0.575219 0.465821 0.349970 0.269070 0.213885 0.095264 0.111360 -0.121862 -0.048901 -0.060852 -0.084321 -0.016225 0.122755 0.070427 0.239335 0.298397 0.325047 0.354361 0.474441 0.432747 0.466654 0.467832 0.292430 0.280764 0.274189 0.081574 0.045036 -0.082555 -0.019106 -0.062070 -0.095718 -0.058444 0.040009 0.093245 0.123707 0.222428 0.211489 0.211800 0.299898 0.325036 0.434441 0.244092 0.223502 0.221420 0.138013 0.141684 0.119086 -0.003849 0.014818 0.080959 -0.013782 0.040848 0.129871 0.129073 0.201662 0.225387 0.237607 0.156373 0.203566 0.124922 0.111428 0.118160 0.021624 -0.026494 -0.001962 -0.021326 -0.048074 0.054616 0.000245 0.104429 0.134313 0.190594 0.145360 0.117669 0.132476 0.149350 0.104431 0.030112 -0.027193 0.020738 0.032409 -0.046460 0.042540 0.016189 0.045706 0.038897 0.051141 0.011604 0.121401 0.107952 0.042566 0.031172 0.037594 0.002081 -0.028464 0.006216 -0.001777 -0.007864 -0.001807 0.062171 0.052348 0.035652 0.063365 0.059291 0.165884 0.064309 0.041823 0.043111 -0.035039 0.015324 0.048571 0.007293 0.030475 0.056019 0.074487 0.065549 0.040340 0.007562 0.077334 0.033096 0.014811 0.026809 -0.003313 0.028997 0.029016 0.018102 0.071305 0.077029 0.081086 0.041964 0.057138 0.017121 0.015275 -0.028861 -0.022245 0.040025 0.051448 0.074820 0.074662 0.064019 0.067541 0.088887 0.037817 0.078059 0.046026 0.046755 0.014801 0.103141 0.064322 0.128251 0.062809 0.059343 0.076555 0.021292 0.001505 0.080047 -0.037876 -0.034563 0.077691 0.040391 0.150973 0.089315 0.074334 0.063920 0.016000 0.078452 -0.020815 -0.023563 0.037336 0.020874 0.023553 0.001918 0.103135 0.013400 -0.019866 0.046349 0.028936 0.049186 0.051304 -0.002785 0.041518 0.038333 0.100029 0.064940 0.030168 -0.028732 -0.038616 -0.003517 0.014292 -0.056325 -0.016036 -0.006608 0.020596 0.024682 0.062830 0.003972 -0.030011 -0.022346 -0.015857 -0.055775 -0.042951 -0.044586 -0.126140 -0.087481 -0.073710 -0.108715 -0.116526 -0.036561 -0.148542 -0.089085 -0.123583 -0.199562 -0.069254 0.062154 -0.079695 -0.121192 0.045006 0.004155 -0.036757 0.060751 -0.024429 -0.002971 -0.078027 -0.048416 0.057296 0.146378 0.043033 0.121421 0.148146 0.502664 0.305503 0.361479 0.200399 -0.017097 -0.695074
0.072396 0.072899 0.074409 0.076924 0.080445 0.084970 0.090498 0.097028 0.104557 0.113083 0.122602 0.133110 0.144602 0.157070 0.170508 0.184906 0.200253 0.216537 0.233741 0.251850 0.270842 0.290694 0.311382 0.332874 0.355139 0.378138 0.401830 0.426169 0.451104 0.476580 0.502533 0.528899 0.555602 0.582565 0.609701 0.636919 0.664120 0.691198 0.718042 0.744532 0.770541 0.795938 0.820583 0.844331 0.867029 0.888521 0.908643 0.927228 0.944106 0.959101 0.972037 0.982737 0.991020 0.996710 0.999631 0.999613 0.996488 0.990098 0.980291 0.966929 0.949884 0.929043 0.904311 0.875610 0.842885 0.806105 0.765262 0.720378 0.671504 0.618724 0.562155 0.501951 0.438300 0.371432 0.301616 0.229159 0.154411 0.077761 0.000361 0.079486 0.159110 0.238690 0.317653 0.395396 0.471290 0.544688 0.614924 0.681325 0.743215 0.799920 0.850782 0.895160 0.932443 0.962059 0.983484 0.996249 0.999953 0.994271 0.978965 0.953888 0.918999 0.874366 0.820171 0.756721 0.684449 0.603914 0.515807 0.420945 0.320271 0.214847 0.105846 0.005454 0.117688 0.229416 0.339141 0.445327 0.546419 0.640873 0.727175 0.803867 0.869579 0.923051 0.963166 0.988971 0.999711 0.994844 0.974070 0.937345 0.884899 0.817246 0.735190 0.639822 0.532523 0.414944 0.288992 0.156808 0.020732 0.116733 0.252963 0.385265 0.510920 0.627256 0.731694 0.821817 0.895427 0.950610 0.985789 0.999780 0.991836 0.961685 0.909564 0.836230 0.742974 0.631607 0.504443 0.364262 0.214261 0.057989 0.100732 0.257887 0.409382 0.551138 0.679211 0.789906 0.879891 0.946309 0.986878 0.999983 0.984755 0.941122 0.869853 0.772559 0.651691 0.510488 0.352915 0.183561 0.007522 0.169748 0.342596 0.505353 0.652526 0.778984 0.880154 0.952193 0.992160 0.998148 0.969395 0.906352 0.810717 0.685413 0.534536 0.363234 0.177560 0.015733 0.209422 0.396077 0.568357 0.719293 0.842587 0.932892 0.986066 0.999381 0.971693 0.903541 0.797188 0.656579 0.487232 0.296047 0.091049 0.118927 0.324613 0.516711 0.686319 0.825358 0.926974 0.985906 0.998782 0.964352 0.883611 0.759825 0.598445 0.406908 0.194319 0.028943 0.251728 0.462662 0.650721 0.805833 0.919433 0.984970 0.998320 0.958083 0.865747 0.725691 0.545034 0.333307 0.102003 0.136033 0.367298 0.578394 0.756813 0.891704 0.974567 0.999826 0.965256 0.872214 0.725659 0.533948 0.308415 0.062740 0.187851 0.427511 0.640779 0.813585 0.934226 0.994183 0.988787 0.917632 0.784726 0.598330 0.370522 0.116451 0.146617 0.400462 0.627160 0.810375 0.936563 0.996025 0.983714 0.899729 0.749439 0.543221 0.295822 0.025350 0.248006 0.503464 0.721241 0.884112 0.978816 0.997202 0.937003 0.802166 0.602693 0.353976 0.075682 0.209747 0.478894 0.709285 0.881290 0.979846 0.995861 0.927122 0.778659 0.562480 0.296694 0.004068 0.289883 0.559086 0.779253 0.930095 0.997269 0.973826 0.861021 0.668389 0.413046 0.118268 0.188580 0.478535 0.723780 0.900341 0.990501 0.984663 0.882484 0.693110 0.434481 0.131737 0.185156 0.484327 0.735201 0.911674 0.994897 0.975386 0.854226 0.643183 0.363688 0.044775 0.279864 0.575406 0.809655 0.956579 0.999326 0.932255 0.761808 0.506046 0.192864 0.142953 0.463531 0.732181 0.917627 0.997745 0.962317 0.814472 0.570598 0.258662 0.084864 0.419215 0.704133 0.904768 0.996013 0.965789 0.816780 0.566407 0.244946 0.108011 0.448347 0.732930 0.925112 0.999558 0.945720 0.769503 0.492810 0.150982 0.211596
1.000000 1.000000 1.000000 1.000000 1.000000 1.000000 1.000000 1.000000 1.000000 1.000000 1.000000 1.000000 1.000000 1.000000 1.000000 1.000000 1.000000 1.000000 1.000000 1.000000 1.000000 1.000000 1.000000 1.000000 1.000000 1.000000 1.000000 1.000000 1.000000 1.000000 1.000000 1.000000 1.000000 1.000000 1.000000 1.000000 1.000000 1.000000 1.000000 1.000000 1.000000 1.000000 1.000000 1.000000 1.000000 1.000000 1.000000 1.000000 1.000000 1.000000 1.000000 1.000000 0.914360 0.914360 0.914360 0.911669 0.911669 0.911669 0.911669 0.911669 0.911669 0.911669 0.911669 0.911669 0.911669 0.911669 0.911669 0.911669 0.911669 0.911669 0.911669 0.911669 0.911669 0.911669 0.911669 0.911669 0.911669 0.911669 0.911669 0.911669 0.911669 0.911669 0.911669 0.911669 0.911669 0.911669 0.911669 0.911669 0.911669 0.911669 0.911669 0.911669 0.911669 0.911669 0.911669 0.911669 0.940009 0.941411 0.949804 0.949288 0.948753 0.946815 0.945532 0.945333 0.945254 0.945610 0.946346 0.947338 0.953533 0.954466 0.958847 0.961582 0.961558 0.963323 0.965326 0.964983 0.956814 0.956553 0.955094 0.954398 0.956522 0.955213 0.954031 0.954525 0.952226 0.956388 0.955986 0.954819 0.953227 0.951678 0.948156 0.947737 0.947488 0.948299 0.948388 0.949967 0.952992 0.951322 0.951433 0.948768 0.948328 0.949542 0.949201 0.950911 0.938926 0.938052 0.936399 0.936341 0.938930 0.938715 0.938612 0.939564 0.939276 0.939201 0.939218 0.933463 0.933360 0.926679 0.922095 0.921129 0.915141 0.911001 0.913778 0.916819 0.917856 0.918279 0.907913 0.905118 0.906198 0.904874 0.906164 0.907557 0.908805 0.909157 0.909092 0.904091 0.895263 0.893843 0.882763 0.885448 0.880594 0.877825 0.875103 0.867309 0.859062 0.870528 0.857623 0.811869 0.815430 0.820054 0.813071 0.808970 0.813089 0.813946 0.818892 0.813431 0.812658 0.805803 0.790976 0.789267 0.784156 0.769233 0.763118 0.753230 0.742769 0.736768 0.759697 0.753375 0.765471 0.769058 0.768395 0.763997 0.753329 0.740959 0.741667 0.742357 0.737635 0.713338 0.705716 0.705242 0.704654 0.690143 0.692259 0.681467 0.681876 0.667009 0.672656 0.678803 0.682335 0.676797 0.669260 0.660812 0.655645 0.669908 0.682257 0.672703 0.669446 0.683608 0.675043 0.670909 0.661493 0.663905 0.654552 0.655016 0.652905 0.688843 0.663484 0.653411 0.659662 0.661274 0.656457 0.654220 0.631902 0.626501 0.601912 0.619860 0.624406 0.639432 0.643562 0.648848 0.660114 0.667307 0.677678 0.683183 0.678511 0.637294 0.643449 0.663477 0.671578 0.663432 0.654169 0.644147 0.627137 0.664022 0.642509 0.604781 0.598736 0.603468 0.560160 0.542968 0.540425 0.538908 0.567816 0.568459 0.554609 0.530952 0.532836 0.529472 0.520676 0.519641 0.506356 0.510620 0.493738 0.473035 0.489207 0.496887 0.495870 0.479837 0.471066 0.483735 0.468501 0.486218 0.471067 0.458113 0.473553 0.473827 0.466060 0.392760 0.400308 0.396506 0.377610 0.337317 0.345398 0.356066 0.333641 0.259885 0.255843 0.256571 0.252267 0.224292 0.198631 0.184422 0.177610 0.156819 0.092093 0.040837 0.044694 0.047965 0.074400 0.037543 0.096108 0.168686 0.160774 0.160774 0.160774 0.160774 0.160774 0.160774 0.160774 0.160774 0.140636 0.140636 0.140636 0.140636 0.140636 0.140636 0.140636 0.140636 0.140636 0.160774 0.160774 0.160774 0.160774 0.160774 0.160774 0.160774 0.160774 0.160774 0.160774 0.160774 0.160774 0.160774 0.160774
0.000000 0.000000 0.000000 0.000000 0.000000 0.000000 0.000000 0.000000 0.000000 0.000000 0.000000 0.000000 0.000000 0.000000 0.000000 0.000000 0.000000 0.000000 0.000000 0.000000 0.000000 0.000000 0.000000 0.000000 0.000000 0.000000 0.000000 0.000000 0.000000 0.000000 0.000000 0.000000 0.000000 0.000000 0.000000 0.000000 0.000000 0.000000 0.000000 0.000000 0.000000 0.000000 0.000000 0.000000 0.000000 0.000000 0.000000 0.000000 0.000000 0.000000 0.000000 0.000000 0.180334 0.180334 0.180334 0.199007 0.199007 0.199007 0.199007 0.199007 0.199007 0.199007 0.199007 0.199007 0.199007 0.199007 0.199007 0.199007 0.199007 0.199007 0.199007 0.199007 0.199007 0.199007 0.199007 0.199007 0.199007 0.199007 0.199007 0.199007 0.199007 0.199007 0.199007 0.199007 0.199007 0.199007 0.199007 0.199007 0.199007 0.199007 0.199007 0.199007 0.199007 0.199007 0.199007 0.199007 0.225018 0.225018 0.225018 0.225018 0.225018 0.225018 0.225018 0.225018 0.225018 0.225018 0.225018 0.225018 0.225018 0.225018 0.225018 0.225018 0.225018 0.225018 0.225018 0.225018 0.225018 0.225018 0.225018 0.225018 0.225018 0.225018 0.225018 0.225018 0.225018 0.244339 0.244339 0.244339 0.244339 0.244339 0.244339 0.244339 0.244339 0.244339 0.244339 0.244339 0.244339 0.244339 0.244339 0.244339 0.244339 0.244339 0.244339 0.244339 0.244339 0.244339 0.244339 0.244339 0.256074 0.256074 0.256074 0.256074 0.256074 0.256074 0.256074 0.256074 0.256074 0.256074 0.256074 0.256074 0.256074 0.256074 0.256074 0.256074 0.256074 0.256074 0.256074 0.256074 0.256074 0.256074 0.256074 0.256074 0.256074 0.256074 0.256074 0.256074 0.256074 0.256074 0.256074 0.256074 0.256074 0.256074 0.256074 0.256074 0.256074 0.264906 0.264906 0.264906 0.264906 0.264906 0.264906 0.264906 0.264906 0.264906 0.264906 0.264906 0.264906 0.264906 0.264906 0.264906 0.264906 0.264906 0.264906 0.264906 0.264906 0.264906 0.264906 0.264906 0.264906 0.264906 0.264906 0.264906 0.264906 0.264906 0.264906 0.264906 0.264906 0.264906 0.264906 0.264906 0.264906 0.264906 0.264906 0.264906 0.264906 0.264906 0.264906 0.264906 0.264906 0.264906 0.264906 0.264906 0.264906 0.264906 0.264906 0.264906 0.264906 0.264906 0.264906 0.264906 0.264906 0.264906 0.264906 0.260378 0.260378 0.260378 0.260378 0.260378 0.260378 0.260378 0.260378 0.260378 0.260378 0.260378 0.260378 0.260378 0.264906 0.264906 0.264906 0.264906 0.264906 0.264906 0.264906 0.264906 0.264906 0.264906 0.264906 0.264906 0.269680 0.269680 0.269680 0.269680 0.269680 0.269680 0.269680 0.269680 0.269680 0.269680 0.269680 0.264906 0.264906 0.264906 0.264906 0.264906 0.264906 0.264906 0.264906 0.264906 0.264906 0.264906 0.256074 0.256074 0.256074 0.256074 0.256074 0.256074 0.256074 0.256074 0.256074 0.256074 0.256074 0.264906 0.264906 0.264906 0.264906 0.264906 0.264906 0.264906 0.264906 0.264906 0.264906 0.260378 0.260378 0.260378 0.260378 0.260378 0.260378 0.260378 0.260378 0.260378 0.260378 0.264906 0.264906 0.264906 0.264906 0.264906 0.264906 0.264906 0.264906 0.264906 0.251976 0.251976 0.251976 0.251976 0.251976 0.251976 0.251976 0.251976 0.251976 0.251976 0.256074 0.256074 0.256074 0.256074 0.256074 0.256074 0.256074 0.256074 0.256074 0.251976 0.251976 0.251976 0.251976 0.251976 0.251976 0.251976 0.251976 0.251976 0.251976 0.251976 0.251976 0.251976 0.251976
